Wavelength	lmw-9-300007.asd
350	 5.86095360311671E-02 
351	 0.050555222906115 
352	 4.50795003719469E-02 
353	 4.54930555328818E-02 
354	 4.54905817651372E-02 
355	 4.36689037261974E-02 
356	 4.40170176515683E-02 
357	 4.88535643095591E-02 
358	 4.95343969007503E-02 
359	 4.61988669836316E-02 
360	 4.44565401247385E-02 
361	 5.08124320350635E-02 
362	 4.41464534677312E-02 
363	 3.69989461549778E-02 
364	 0.036703252537052 
365	 3.59814285723125E-02 
366	 3.78120610077638E-02 
367	 4.06362175502863E-02 
368	 4.20667010983265E-02 
369	 4.13558233631503E-02 
370	 3.80150397868433E-02 
371	 3.48955047369957E-02 
372	 3.63335256936538E-02 
373	 3.67437603062125E-02 
374	 3.68607058660343E-02 
375	 3.80729030330155E-02 
376	 4.17902823854257E-02 
377	 4.01747220817616E-02 
378	 3.85996177372732E-02 
379	 4.28595913802813E-02 
380	 4.30337528806514E-02 
381	 3.87219388391078E-02 
382	 3.52575385904214E-02 
383	 4.05175417901473E-02 
384	 4.25185831546378E-02 
385	 4.29835546943819E-02 
386	 4.38294786296784E-02 
387	 4.32400999139526E-02 
388	 4.32574569207234E-02 
389	 4.42613570538597E-02 
390	 4.56017203382179E-02 
391	 4.43600386213632E-02 
392	 4.57123844217316E-02 
393	 4.95876962444815E-02 
394	 5.13762671703336E-02 
395	 5.17637786723987E-02 
396	 5.20343855010805E-02 
397	 5.31437663646812E-02 
398	 5.51590998263861E-02 
399	 5.71906781517816E-02 
400	 5.92690937158243E-02 
401	 6.15455227415762E-02 
402	 6.27644546998643E-02 
403	 6.34519363396075E-02 
404	 6.41951521035467E-02 
405	 6.55102384338226E-02 
406	 6.82263478729403E-02 
407	 0.071485161146553 
408	 0.074082810541331 
409	 7.46868375553051E-02 
410	 7.51938173356047E-02 
411	 7.65392051588548E-02 
412	 7.88882532892739E-02 
413	 8.11010200991891E-02 
414	 8.15684795769692E-02 
415	 8.08519891297769E-02 
416	 8.22079411088929E-02 
417	 8.22937976789251E-02 
418	 8.24444188786432E-02 
419	 8.39965581435816E-02 
420	 8.45708040393223E-02 
421	 8.39264437071998E-02 
422	 8.32103201142042E-02 
423	 8.40993926906697E-02 
424	 8.39671828816762E-02 
425	 8.34976618962787E-02 
426	 8.34517032375403E-02 
427	 8.40009433757867E-02 
428	 8.40926126276198E-02 
429	 8.44474056556183E-02 
430	 8.60146741025221E-02 
431	 8.78859500500567E-02 
432	 8.95778415795412E-02 
433	 9.13884083784637E-02 
434	 0.094270575081159 
435	 9.74610520243382E-02 
436	 0.101062916289774 
437	 0.105151157653701 
438	 0.109260931043535 
439	 0.113494765919181 
440	 0.117914155587409 
441	 0.122486137308271 
442	 0.126678260200411 
443	 0.13085445302404 
444	 0.13518312928986 
445	 0.139416457643759 
446	 0.143280438018388 
447	 0.146951017576961 
448	 0.150678843831943 
449	 0.154397019226659 
450	 0.158046965865077 
451	 0.161579512844017 
452	 0.164986666547523 
453	 0.168529551987653 
454	 0.172090946621485 
455	 0.175529759459402 
456	 0.178808811135121 
457	 0.182035334200037 
458	 0.185116865810151 
459	 0.187970242807438 
460	 0.191351707460289 
461	 0.194486506926985 
462	 0.197119842636264 
463	 0.199891809002558 
464	 0.202784797862885 
465	 0.205703251064308 
466	 0.208536833193333 
467	 0.211282555836919 
468	 0.214045436125125 
469	 0.216753712131204 
470	 0.219217542799453 
471	 0.22178747663683 
472	 0.224250383129196 
473	 0.226584473433161 
474	 0.229512877702835 
475	 0.2318916271697 
476	 0.234027140903571 
477	 0.236670601979888 
478	 0.238706452542089 
479	 0.240755357830739 
480	 0.242943082910908 
481	 0.244502252753273 
482	 0.246609618161216 
483	 0.248721407100805 
484	 0.25017142557694 
485	 0.251879238562544 
486	 0.253267402357782 
487	 0.254446588497222 
488	 0.256060095077874 
489	 0.257201573167636 
490	 0.258301029955714 
491	 0.259663308770354 
492	 0.26072358083481 
493	 0.261598115506919 
494	 0.26235208291694 
495	 0.263049916095539 
496	 0.26382292385442 
497	 0.2643932605223 
498	 0.264732348711327 
499	 0.265232529712687 
500	 0.265720511893272 
501	 0.266084687886566 
502	 0.266287414751909 
503	 0.266552264407704 
504	 0.266737715947586 
505	 0.266839430426946 
506	 0.266979312446076 
507	 0.266976846040762 
508	 0.266928087114988 
509	 0.266908628817513 
510	 0.266807348491814 
511	 0.266544900052684 
512	 0.266243886831305 
513	 0.266109668874493 
514	 0.266010222213375 
515	 0.26588785873096 
516	 0.265726377843967 
517	 0.265567994482859 
518	 0.265329393426407 
519	 0.265030798499844 
520	 0.264730278203853 
521	 0.26447894579732 
522	 0.264198673961585 
523	 0.263939818274417 
524	 0.263885714966558 
525	 0.263621875198988 
526	 0.263285796789263 
527	 0.263073216445818 
528	 0.262953632756891 
529	 0.26279963905139 
530	 0.262576893549081 
531	 0.262331665454225 
532	 0.262273249774708 
533	 0.26216552977435 
534	 0.261911258407597 
535	 0.26183948422443 
536	 0.261727997118337 
537	 0.261642857777624 
538	 0.26170869592517 
539	 0.261673634824341 
540	 0.261626001944877 
541	 0.261620943145419 
542	 0.261630296976713 
543	 0.261744793330586 
544	 0.261888090562546 
545	 0.261982404062818 
546	 0.262147522454006 
547	 0.262286899050698 
548	 0.262415872080416 
549	 0.262639605740487 
550	 0.262802482438127 
551	 0.263010386148625 
552	 0.263333860546301 
553	 0.263634961546413 
554	 0.263909793634315 
555	 0.264208532223093 
556	 0.264592986657289 
557	 0.264906605638147 
558	 0.265290790890354 
559	 0.265799764933645 
560	 0.266277660796406 
561	 0.266825454198222 
562	 0.267420291455647 
563	 0.267992873704784 
564	 0.2684585380143 
565	 0.268950721392668 
566	 0.269495751900555 
567	 0.269988242710121 
568	 0.270560200614457 
569	 0.271181352410947 
570	 0.271808715285743 
571	 0.272487764806655 
572	 0.27326763298852 
573	 0.274097636576615 
574	 0.274863088951979 
575	 0.275586442909448 
576	 0.276489047807952 
577	 0.277646360529608 
578	 0.27876416987011 
579	 0.279866423623468 
580	 0.281024187980273 
581	 0.282314601304608 
582	 0.283638401577996 
583	 0.284798742383684 
584	 0.285762590003543 
585	 0.286737488931718 
586	 0.287663188489406 
587	 0.288619468277107 
588	 0.289690195616863 
589	 0.290825921794305 
590	 0.291995369633001 
591	 0.293180727467385 
592	 0.294380245768725 
593	 0.295572778889538 
594	 0.296733427468149 
595	 0.297896761607762 
596	 0.29926902507253 
597	 0.300636215570432 
598	 0.301964561470059 
599	 0.30331389449703 
600	 0.304603510557747 
601	 0.305792881903298 
602	 0.30695999075123 
603	 0.30840332665243 
604	 0.309821755791653 
605	 0.311129910050186 
606	 0.312360241095845 
607	 0.3137263137822 
608	 0.315160346401033 
609	 0.316535086632081 
610	 0.317686111609401 
611	 0.318831844834867 
612	 0.319999630796009 
613	 0.321157884258538 
614	 0.322260671547297 
615	 0.323355247066515 
616	 0.324433330634833 
617	 0.325448651202605 
618	 0.326466391753285 
619	 0.3275118966605 
620	 0.328566909012691 
621	 0.329536326926933 
622	 0.330382993460218 
623	 0.331239432480206 
624	 0.33224665981987 
625	 0.333058335005785 
626	 0.333857915821096 
627	 0.33472940688696 
628	 0.335569398496813 
629	 0.336341547956838 
630	 0.337056009129488 
631	 0.337750135746204 
632	 0.338490797787435 
633	 0.339181688353213 
634	 0.339792423611193 
635	 0.340354028871648 
636	 0.340896954223227 
637	 0.341467192131563 
638	 0.342057430463427 
639	 0.342522556461809 
640	 0.343045970319744 
641	 0.34355241720894 
642	 0.343891315999208 
643	 0.344329585473038 
644	 0.344757419256677 
645	 0.345104782109574 
646	 0.345409569216508 
647	 0.345727694217391 
648	 0.346001068742762 
649	 0.346180415570584 
650	 0.346410934352314 
651	 0.346577222596811 
652	 0.346701962751678 
653	 0.346919759625069 
654	 0.34703966052891 
655	 0.347114559720812 
656	 0.347204681047471 
657	 0.347277261093968 
658	 0.347295513256248 
659	 0.34727641254282 
660	 0.347255376509658 
661	 0.347183106062803 
662	 0.347051752963952 
663	 0.346882898369068 
664	 0.346732201988955 
665	 0.346633496090241 
666	 0.34645115344682 
667	 0.346108486565096 
668	 0.345976810812306 
669	 0.345846439097013 
670	 0.345597979635379 
671	 0.345213969886496 
672	 0.344817243003315 
673	 0.344468966237603 
674	 0.344157806608336 
675	 0.343734022235687 
676	 0.343319677907852 
677	 0.342894463878144 
678	 0.342398957088628 
679	 0.341959325372971 
680	 0.341471263263314 
681	 0.340925581425883 
682	 0.34046041856975 
683	 0.339982682872173 
684	 0.339481402720348 
685	 0.338943713371503 
686	 0.338265076640631 
687	 0.337582386576667 
688	 0.336954774862097 
689	 0.336369514705943 
690	 0.335695751753433 
691	 0.335032412811683 
692	 0.334432045436648 
693	 0.333793263246225 
694	 0.333048297166917 
695	 0.332287178849145 
696	 0.331612271620249 
697	 0.330821927085959 
698	 0.33004349952519 
699	 0.32932214942651 
700	 0.328596471097904 
701	 0.327801748458899 
702	 0.32697433011463 
703	 0.326153739342054 
704	 0.325311554634892 
705	 0.324499282548634 
706	 0.323709177133091 
707	 0.322899789153129 
708	 0.322033742539926 
709	 0.321157873041115 
710	 0.320307293180372 
711	 0.319485531549929 
712	 0.318625193747705 
713	 0.317706955810237 
714	 0.316766448717458 
715	 0.315994133232005 
716	 0.315151593345019 
717	 0.314196631927928 
718	 0.31324707050523 
719	 0.312435356728911 
720	 0.311571189489826 
721	 0.310577100729758 
722	 0.30968391844933 
723	 0.308735549160588 
724	 0.307770470350771 
725	 0.306864428756209 
726	 0.305941749459827 
727	 0.30502673863543 
728	 0.30411675914979 
729	 0.303183081159593 
730	 0.30226809440699 
731	 0.301337290961755 
732	 0.300361085048358 
733	 0.299332190334477 
734	 0.298466719037909 
735	 0.297636175067115 
736	 0.296630631682166 
737	 0.295728930294276 
738	 0.294797945428355 
739	 0.293805641752317 
740	 0.292860489773519 
741	 0.291983176730548 
742	 0.291111941412318 
743	 0.290206035011185 
744	 0.289342522183861 
745	 0.288426068813828 
746	 0.287502941313201 
747	 0.286660315865897 
748	 0.285757967337243 
749	 0.28487232036185 
750	 0.284049362647572 
751	 0.283271758936493 
752	 0.282356616533745 
753	 0.281447166618588 
754	 0.280665096106975 
755	 0.279829055808656 
756	 0.279064185415021 
757	 0.278320150072762 
758	 0.277478648216621 
759	 0.276615775823583 
760	 0.275836832174279 
761	 0.275129246687768 
762	 0.274335146062782 
763	 0.273611695741392 
764	 0.272884216625687 
765	 0.272102188982655 
766	 0.271444409016943 
767	 0.270806276320554 
768	 0.270120767301445 
769	 0.269362481338217 
770	 0.268638400090084 
771	 0.267989823548736 
772	 0.267396751080555 
773	 0.266778327486239 
774	 0.266204711417269 
775	 0.265620180081702 
776	 0.264980988194516 
777	 0.264337596935929 
778	 0.26378872363198 
779	 0.263294291501118 
780	 0.262755801391358 
781	 0.262173533293285 
782	 0.261677491166739 
783	 0.261242178370364 
784	 0.260682067021924 
785	 0.260200750922773 
786	 0.259769427232546 
787	 0.259334930621924 
788	 0.258891109193326 
789	 0.258533038895145 
790	 0.258151751889989 
791	 0.25763349152206 
792	 0.257262789401145 
793	 0.256939764778151 
794	 0.256620232720989 
795	 0.256317587030848 
796	 0.255908562248376 
797	 0.255516704698404 
798	 0.255234402486387 
799	 0.255030315752075 
800	 0.254779568185632 
801	 0.254482722620879 
802	 0.254191584213581 
803	 0.253966242868617 
804	 0.253787233794336 
805	 0.2535903748557 
806	 0.253309491066707 
807	 0.253084714080738 
808	 0.252914708944289 
809	 0.252763312130772 
810	 0.252573911609237 
811	 0.252414362549065 
812	 0.252265335275185 
813	 0.252112576332547 
814	 0.252002224667765 
815	 0.251997650682826 
816	 0.25197944217013 
817	 0.251805199504553 
818	 0.25164197122287 
819	 0.25160656592466 
820	 0.251628007480478 
821	 0.251504764963004 
822	 0.251464827277762 
823	 0.25146759804483 
824	 0.251465800785597 
825	 0.251469627885684 
826	 0.251448996176084 
827	 0.251432634335841 
828	 0.251455989270825 
829	 0.251529313796956 
830	 0.251542863218182 
831	 0.251532562375539 
832	 0.251596932318252 
833	 0.251725540282912 
834	 0.251811642152892 
835	 0.251842143926586 
836	 0.251899560730188 
837	 0.252002757944672 
838	 0.252127909896454 
839	 0.252247723117074 
840	 0.252345892458996 
841	 0.252435562239092 
842	 0.252561844796568 
843	 0.252736139323408 
844	 0.252830726187002 
845	 0.253004281707547 
846	 0.253241294918386 
847	 0.253459660899956 
848	 0.253732141788464 
849	 0.253952270293447 
850	 0.254107352979594 
851	 0.254269122633995 
852	 0.254375802828003 
853	 0.254606446967473 
854	 0.254956711001546 
855	 0.255123455675989 
856	 0.255427788335574 
857	 0.255746202851873 
858	 0.255963906695318 
859	 0.256263491024011 
860	 0.256541644627771 
861	 0.256778053185382 
862	 0.256998085773982 
863	 0.257273399053064 
864	 0.257665818972649 
865	 0.258071193103852 
866	 0.2583262277911 
867	 0.258617317514602 
868	 0.258957502198769 
869	 0.259302966113609 
870	 0.259578909140738 
871	 0.259860712128323 
872	 0.260243798646464 
873	 0.260708709579841 
874	 0.261056498533529 
875	 0.261434892039068 
876	 0.26179593388249 
877	 0.262106840411691 
878	 0.26248808167674 
879	 0.262980351413044 
880	 0.263485686704254 
881	 0.263897869124982 
882	 0.264312060332507 
883	 0.264735631187952 
884	 0.26515766487345 
885	 0.265572802767113 
886	 0.266085858032971 
887	 0.266564216959567 
888	 0.2669843575499 
889	 0.267433135999144 
890	 0.267958895714858 
891	 0.268484964337215 
892	 0.268962181362536 
893	 0.269403905653552 
894	 0.269885265661516 
895	 0.270393817961563 
896	 0.270913021931687 
897	 0.271454071945876 
898	 0.272064490044042 
899	 0.27262929673344 
900	 0.273074261010106 
901	 0.273527477059035 
902	 0.274148397677723 
903	 0.27481385217375 
904	 0.275371184704885 
905	 0.275981418964267 
906	 0.276642246905561 
907	 0.277235606003269 
908	 0.277675382159559 
909	 0.278305596122621 
910	 0.278981773636856 
911	 0.279637448234469 
912	 0.280274525793427 
913	 0.280867727619414 
914	 0.281492684706449 
915	 0.28218904759988 
916	 0.282932960041414 
917	 0.283512137637424 
918	 0.284091931401452 
919	 0.284750205922808 
920	 0.285405784914539 
921	 0.286113006473035 
922	 0.286809362616307 
923	 0.287456844937668 
924	 0.288085939672472 
925	 0.288759204525902 
926	 0.289451844426982 
927	 0.290142710371597 
928	 0.290853758329553 
929	 0.291636588620033 
930	 0.292437599310157 
931	 0.293191130800074 
932	 0.293877781354611 
933	 0.2945520829427 
934	 0.29527232982365 
935	 0.29607176942625 
936	 0.296930907850217 
937	 0.297676110687717 
938	 0.298375486990794 
939	 0.299141264461011 
940	 0.299915738787224 
941	 0.300648024732168 
942	 0.301439475931462 
943	 0.302354126350314 
944	 0.303075917656606 
945	 0.303721793652962 
946	 0.304463365399082 
947	 0.305370615766115 
948	 0.306019021668909 
949	 0.306590686524407 
950	 0.307248531446939 
951	 0.308065081101933 
952	 0.308820252517835 
953	 0.309490347053807 
954	 0.310138387159256 
955	 0.310862679140055 
956	 0.311691107414375 
957	 0.312401582805339 
958	 0.312976169889809 
959	 0.313555010360073 
960	 0.314295076553847 
961	 0.315034523279574 
962	 0.315790816017591 
963	 0.316653991089594 
964	 0.317340825834817 
965	 0.318106483510756 
966	 0.318989594586756 
967	 0.319863833906696 
968	 0.320723024049077 
969	 0.321688542973927 
970	 0.322733236040581 
971	 0.323737173366165 
972	 0.324757621308294 
973	 0.325721639919333 
974	 0.326595663964564 
975	 0.32741893908537 
976	 0.328435551598192 
977	 0.329341510492545 
978	 0.33016463817541 
979	 0.331125711281373 
980	 0.332058376165187 
981	 0.333063289557379 
982	 0.334070021919046 
983	 0.334937104532712 
984	 0.335771486712091 
985	 0.336619047308958 
986	 0.337597120064605 
987	 0.338790453546183 
988	 0.340009366177556 
989	 0.34096476391632 
990	 0.341791084300585 
991	 0.342770079699093 
992	 0.343715726736799 
993	 0.344650005570175 
994	 0.345645808680624 
995	 0.346769587028131 
996	 0.348004194398595 
997	 0.349146775867138 
998	 0.350110535584992 
999	 0.350999472786547 
1000	 0.352336703678377 
1001	 0.357860710370372 
1002	 0.35889140567493 
1003	 0.35993940628138 
1004	 0.360973069493338 
1005	 0.362045549416055 
1006	 0.363084446660363 
1007	 0.364086281317747 
1008	 0.365093932879122 
1009	 0.366141235250369 
1010	 0.36713648123609 
1011	 0.368133791821122 
1012	 0.369153526066859 
1013	 0.370191564752967 
1014	 0.371221225305411 
1015	 0.372200023742668 
1016	 0.373163052094279 
1017	 0.374173193991721 
1018	 0.375171838909151 
1019	 0.376164798292473 
1020	 0.37719809725704 
1021	 0.378267649985603 
1022	 0.379223270657236 
1023	 0.380196440065902 
1024	 0.381177845578868 
1025	 0.382061225121984 
1026	 0.383025658427638 
1027	 0.383946704468669 
1028	 0.384845568381777 
1029	 0.385800946262032 
1030	 0.386667582138189 
1031	 0.38753964965934 
1032	 0.388381540365541 
1033	 0.3892434116561 
1034	 0.39013704840807 
1035	 0.391043999291091 
1036	 0.391937202948807 
1037	 0.39284757110258 
1038	 0.393737520056884 
1039	 0.394605063180537 
1040	 0.395466607286832 
1041	 0.396318654515032 
1042	 0.397156835378073 
1043	 0.397993845571065 
1044	 0.39881810489845 
1045	 0.399647432947667 
1046	 0.400462179671969 
1047	 0.401246973558889 
1048	 0.402050685945042 
1049	 0.402868748836735 
1050	 0.403673888172177 
1051	 0.404506998002611 
1052	 0.405284123804112 
1053	 0.406034988371387 
1054	 0.406801759535896 
1055	 0.407581486737764 
1056	 0.408424977152012 
1057	 0.409250365299135 
1058	 0.410124002977898 
1059	 0.41096019918312 
1060	 0.411789681154832 
1061	 0.412550276096874 
1062	 0.413324986441121 
1063	 0.414096217603296 
1064	 0.414899899959867 
1065	 0.415706286068222 
1066	 0.416512342708987 
1067	 0.417407411450856 
1068	 0.418209795375497 
1069	 0.418948699621246 
1070	 0.419741966116801 
1071	 0.420521933207639 
1072	 0.421318255118098 
1073	 0.42215844702867 
1074	 0.422984540757831 
1075	 0.423824236932281 
1076	 0.424625250143097 
1077	 0.425377281990761 
1078	 0.426101930740936 
1079	 0.426844886151434 
1080	 0.427565617374182 
1081	 0.428262290919964 
1082	 0.42902712900699 
1083	 0.429749336106982 
1084	 0.430409462402655 
1085	 0.431117413359858 
1086	 0.4318777200465 
1087	 0.432560157949639 
1088	 0.433213418635594 
1089	 0.433887681925671 
1090	 0.43448170040795 
1091	 0.435062634455606 
1092	 0.435678953919284 
1093	 0.436255502135998 
1094	 0.436833779164875 
1095	 0.437407642867576 
1096	 0.43787825431371 
1097	 0.438286040169736 
1098	 0.438720014578959 
1099	 0.439109457846139 
1100	 0.439523295081228 
1101	 0.439997230630832 
1102	 0.440396411161793 
1103	 0.440786923256924 
1104	 0.441093495076737 
1105	 0.441380109903633 
1106	 0.441657992932585 
1107	 0.441929274412372 
1108	 0.442221425236281 
1109	 0.442480432522787 
1110	 0.442737568767794 
1111	 0.442952880384693 
1112	 0.443135456127011 
1113	 0.443299979016036 
1114	 0.443430920394243 
1115	 0.443557655631373 
1116	 0.443677598472921 
1117	 0.443781781827184 
1118	 0.443881558344746 
1119	 0.443948262456725 
1120	 0.443999629293324 
1121	 0.444020272900317 
1122	 0.444007948917436 
1123	 0.444017697655622 
1124	 0.44399294270425 
1125	 0.443964694609762 
1126	 0.443877487353739 
1127	 0.443758294887261 
1128	 0.443614532612563 
1129	 0.443445138995072 
1130	 0.443238547953845 
1131	 0.443030138563469 
1132	 0.442741635492015 
1133	 0.442386759754212 
1134	 0.442003536223344 
1135	 0.441574962150011 
1136	 0.441136156968741 
1137	 0.44061806028744 
1138	 0.440061108167843 
1139	 0.439366422576789 
1140	 0.438578714862054 
1141	 0.437689807484529 
1142	 0.436724475831966 
1143	 0.43562089439785 
1144	 0.434411113269715 
1145	 0.433113714926721 
1146	 0.431646206895457 
1147	 0.43020781276358 
1148	 0.428665247101726 
1149	 0.427177458360488 
1150	 0.425681250596044 
1151	 0.424192295558876 
1152	 0.42273174794892 
1153	 0.421402005925095 
1154	 0.420231605650625 
1155	 0.4191073673902 
1156	 0.418265142186954 
1157	 0.417612392961074 
1158	 0.417104994238326 
1159	 0.416797352871562 
1160	 0.416604750298734 
1161	 0.416605562647782 
1162	 0.416625984313849 
1163	 0.416843942365557 
1164	 0.416976499262271 
1165	 0.417117685996419 
1166	 0.417266322814812 
1167	 0.417348230946946 
1168	 0.417407584636289 
1169	 0.417452012911747 
1170	 0.417472160434712 
1171	 0.41746110842923 
1172	 0.417432399670179 
1173	 0.417381730500628 
1174	 0.417281673947547 
1175	 0.417198664170043 
1176	 0.41710244632728 
1177	 0.417018587678013 
1178	 0.416942691374684 
1179	 0.416856259123335 
1180	 0.416775837529549 
1181	 0.416684378109912 
1182	 0.416574423506376 
1183	 0.41647169739215 
1184	 0.416362122267365 
1185	 0.416256992587063 
1186	 0.416127586338882 
1187	 0.415982778124653 
1188	 0.415840700475736 
1189	 0.415678957426198 
1190	 0.415533315785108 
1191	 0.415401451160014 
1192	 0.415255622697324 
1193	 0.415103854654864 
1194	 0.414954823271661 
1195	 0.414800576667623 
1196	 0.414647309484421 
1197	 0.414474367568482 
1198	 0.414336464669404 
1199	 0.414214326390857 
1200	 0.414108029811592 
1201	 0.413989952125528 
1202	 0.413888781625217 
1203	 0.413788654439259 
1204	 0.413669743913627 
1205	 0.413577881537868 
1206	 0.41351913008031 
1207	 0.413444177529471 
1208	 0.413367918837845 
1209	 0.413292257949293 
1210	 0.413214947882605 
1211	 0.413142105406551 
1212	 0.413060397792766 
1213	 0.412997144477022 
1214	 0.412958465786999 
1215	 0.412904671943924 
1216	 0.412849773914107 
1217	 0.412806066776849 
1218	 0.412742472329362 
1219	 0.412654084463358 
1220	 0.412590941951651 
1221	 0.412531492932958 
1222	 0.412475808642457 
1223	 0.412434385657173 
1224	 0.41238360732825 
1225	 0.41233155880119 
1226	 0.412276399926439 
1227	 0.412228551656798 
1228	 0.412162414589225 
1229	 0.412084861108922 
1230	 0.412003979210323 
1231	 0.411898614779986 
1232	 0.411807523768483 
1233	 0.411720838815371 
1234	 0.411628067009072 
1235	 0.411566918107839 
1236	 0.411537817264256 
1237	 0.411474505061395 
1238	 0.411427465354369 
1239	 0.411347064430253 
1240	 0.411215145311127 
1241	 0.411124811074748 
1242	 0.411039570689682 
1243	 0.410961680017611 
1244	 0.410914830339235 
1245	 0.410843150568799 
1246	 0.410757915697617 
1247	 0.41067809111827 
1248	 0.41059213123911 
1249	 0.410503489908504 
1250	 0.410438075556624 
1251	 0.410356341770124 
1252	 0.410251623536767 
1253	 0.410136187586615 
1254	 0.410009801899084 
1255	 0.409859113108899 
1256	 0.409704225587902 
1257	 0.409545070281807 
1258	 0.409373215908858 
1259	 0.409161155880273 
1260	 0.408991110343554 
1261	 0.408838968527537 
1262	 0.408678607733334 
1263	 0.40854094046542 
1264	 0.408390063607277 
1265	 0.408215182235231 
1266	 0.408058457028574 
1267	 0.407906167125071 
1268	 0.407768550421871 
1269	 0.407620927980224 
1270	 0.407486925613091 
1271	 0.407322022407505 
1272	 0.407141788788611 
1273	 0.406956097448078 
1274	 0.406744991657913 
1275	 0.406553283617268 
1276	 0.406372466635369 
1277	 0.406176952528567 
1278	 0.40599503707465 
1279	 0.405782447310397 
1280	 0.405544473086258 
1281	 0.405302571894437 
1282	 0.405061294433367 
1283	 0.404783640191507 
1284	 0.404476563356068 
1285	 0.404169109977762 
1286	 0.403828876643877 
1287	 0.403496181522122 
1288	 0.403173205108316 
1289	 0.40286840740764 
1290	 0.402534498282707 
1291	 0.402184267182403 
1292	 0.401850391521132 
1293	 0.4015215634931 
1294	 0.401172072243268 
1295	 0.400832109459566 
1296	 0.400468567865303 
1297	 0.400074527763745 
1298	 0.399682946539827 
1299	 0.399289082208088 
1300	 0.398880864418016 
1301	 0.398476624783303 
1302	 0.398037388777787 
1303	 0.397557609183897 
1304	 0.39711065600323 
1305	 0.396633681961774 
1306	 0.3961069261197 
1307	 0.395575909376726 
1308	 0.394996761506054 
1309	 0.394396372545993 
1310	 0.393771637705444 
1311	 0.39309276775416 
1312	 0.392382852738961 
1313	 0.39163956771261 
1314	 0.390857653062791 
1315	 0.390022853933521 
1316	 0.389148192685893 
1317	 0.388249832262598 
1318	 0.387311901333287 
1319	 0.386333472131966 
1320	 0.385341259574808 
1321	 0.384301176370032 
1322	 0.383224772520341 
1323	 0.382085632899653 
1324	 0.380911177352999 
1325	 0.379689783895863 
1326	 0.37841982734186 
1327	 0.377114430195121 
1328	 0.375774852983213 
1329	 0.374411321458395 
1330	 0.372980435629054 
1331	 0.371480433793646 
1332	 0.369982453211676 
1333	 0.368437798649737 
1334	 0.366901115528626 
1335	 0.365373025657435 
1336	 0.363808386966889 
1337	 0.362209154026339 
1338	 0.360623500727234 
1339	 0.359004997126961 
1340	 0.35741452863697 
1341	 0.355843884556229 
1342	 0.354274558757334 
1343	 0.352692685456564 
1344	 0.351159834622001 
1345	 0.349615979166678 
1346	 0.348088952390511 
1347	 0.346628444796786 
1348	 0.345183717266796 
1349	 0.343779981122288 
1350	 0.342392553658517 
1351	 0.341032681611204 
1352	 0.339699771605789 
1353	 0.338365918156615 
1354	 0.337051448092862 
1355	 0.335749898881825 
1356	 0.334440305308578 
1357	 0.333158652683109 
1358	 0.331901952767415 
1359	 0.330653194437763 
1360	 0.329424134025664 
1361	 0.32819796305903 
1362	 0.326998249389103 
1363	 0.325784921242074 
1364	 0.32457032458103 
1365	 0.323348286690698 
1366	 0.322126100419702 
1367	 0.320899314647325 
1368	 0.319655146017169 
1369	 0.318425436479472 
1370	 0.317127448253811 
1371	 0.315766837118414 
1372	 0.314375805786712 
1373	 0.312900148418914 
1374	 0.31135421674728 
1375	 0.309762220213497 
1376	 0.308055485508481 
1377	 0.306263482997315 
1378	 0.304358369036762 
1379	 0.302350362429209 
1380	 0.300257862416913 
1381	 0.298084600275198 
1382	 0.295772165644792 
1383	 0.293376899942408 
1384	 0.29084567146899 
1385	 0.288231509591809 
1386	 0.28543506987443 
1387	 0.282531453332324 
1388	 0.27945282164072 
1389	 0.276230459786894 
1390	 0.272781174057191 
1391	 0.269179057732072 
1392	 0.265386226573406 
1393	 0.261421951308622 
1394	 0.257355038388099 
1395	 0.253093490806719 
1396	 0.248763789518687 
1397	 0.244374044647764 
1398	 0.239813391166262 
1399	 0.235320702823775 
1400	 0.230749699897112 
1401	 0.226330611595543 
1402	 0.221879212864341 
1403	 0.217664191842444 
1404	 0.213515881767829 
1405	 0.20966933975292 
1406	 0.205952247850109 
1407	 0.202549989114797 
1408	 0.199381736207057 
1409	 0.196533739459195 
1410	 0.193967776903389 
1411	 0.191677566709476 
1412	 0.189700625085028 
1413	 0.18797466766462 
1414	 0.186480587312196 
1415	 0.185150339947973 
1416	 0.183957587585806 
1417	 0.182855697913978 
1418	 0.181792509006707 
1419	 0.180774260778106 
1420	 0.179763994840647 
1421	 0.178768272647845 
1422	 0.177770689485849 
1423	 0.176760367385198 
1424	 0.175750986037749 
1425	 0.174727093676217 
1426	 0.173746439899086 
1427	 0.172769468355742 
1428	 0.171823614910046 
1429	 0.170918776960459 
1430	 0.170014856304446 
1431	 0.169117569877435 
1432	 0.168238899060089 
1433	 0.167370871086807 
1434	 0.166532365498385 
1435	 0.165723540170552 
1436	 0.164916449068804 
1437	 0.164129141778892 
1438	 0.1633519820871 
1439	 0.162581418009268 
1440	 0.161819187171171 
1441	 0.161072829642208 
1442	 0.160312158691619 
1443	 0.159553236715528 
1444	 0.158792729526307 
1445	 0.158014440524555 
1446	 0.157286593743461 
1447	 0.156579683166419 
1448	 0.155863706627894 
1449	 0.155192376212017 
1450	 0.15453211493263 
1451	 0.153909937496713 
1452	 0.15331198594565 
1453	 0.152741338408315 
1454	 0.152218090261945 
1455	 0.151688129444047 
1456	 0.151172214908921 
1457	 0.150655746378281 
1458	 0.150156531975207 
1459	 0.149639359765224 
1460	 0.149109400639359 
1461	 0.148600335206807 
1462	 0.14808858492103 
1463	 0.147585087426073 
1464	 0.147104025757506 
1465	 0.146609332797418 
1466	 0.146090730972325 
1467	 0.145610403350745 
1468	 0.145130464401174 
1469	 0.144686007143526 
1470	 0.14427066920063 
1471	 0.143882784871433 
1472	 0.1435195674475 
1473	 0.143188468286929 
1474	 0.142887294296462 
1475	 0.142619748209571 
1476	 0.142386778468793 
1477	 0.142197874208364 
1478	 0.142055833573138 
1479	 0.141943015026048 
1480	 0.141862435525374 
1481	 0.141813594603467 
1482	 0.141793941908066 
1483	 0.141810666750239 
1484	 0.141834857967093 
1485	 0.141893485678614 
1486	 0.141947712036212 
1487	 0.142004285144845 
1488	 0.142088743184506 
1489	 0.142201529039132 
1490	 0.142299653048092 
1491	 0.142416659105803 
1492	 0.142514059658733 
1493	 0.142591395965869 
1494	 0.142681277028618 
1495	 0.142773545053375 
1496	 0.14286601213867 
1497	 0.142970939770095 
1498	 0.143057631131579 
1499	 0.143136180848961 
1500	 0.143208694483934 
1501	 0.14326484033012 
1502	 0.143324437290645 
1503	 0.143380767075758 
1504	 0.143441111992511 
1505	 0.143501507444203 
1506	 0.143550449789997 
1507	 0.143568798689737 
1508	 0.143582477413847 
1509	 0.143602105598382 
1510	 0.143615459745897 
1511	 0.143646449652681 
1512	 0.143691126884737 
1513	 0.14370264714432 
1514	 0.143706413419042 
1515	 0.143721377940394 
1516	 0.143718253464465 
1517	 0.143720840426341 
1518	 0.143729283118083 
1519	 0.143724878223837 
1520	 0.143718052408307 
1521	 0.143703645910036 
1522	 0.143683637215885 
1523	 0.143650732488271 
1524	 0.143597225142883 
1525	 0.143555981356346 
1526	 0.143516096204892 
1527	 0.143467520635006 
1528	 0.143419156814572 
1529	 0.143374784840042 
1530	 0.14332741992214 
1531	 0.143266857921702 
1532	 0.143219240245433 
1533	 0.14314123318991 
1534	 0.143023721765737 
1535	 0.142929884249577 
1536	 0.142828497082841 
1537	 0.142736583395111 
1538	 0.14266235213488 
1539	 0.142574119192743 
1540	 0.142496992912308 
1541	 0.142396654642754 
1542	 0.142270037859616 
1543	 0.142154106425679 
1544	 0.142016199243785 
1545	 0.141895822120973 
1546	 0.141793613809754 
1547	 0.141695323869632 
1548	 0.141576562042738 
1549	 0.141456548852275 
1550	 0.141323763813208 
1551	 0.141186299720477 
1552	 0.141063570358589 
1553	 0.140953581697327 
1554	 0.140837078287022 
1555	 0.140703648706557 
1556	 0.140572150126708 
1557	 0.140433074021065 
1558	 0.140275866328042 
1559	 0.140131654769438 
1560	 0.139979930631873 
1561	 0.139817997578289 
1562	 0.139656303727305 
1563	 0.139495137499098 
1564	 0.139336393132544 
1565	 0.139173747116017 
1566	 0.139009349523618 
1567	 0.138849378448995 
1568	 0.138688261923878 
1569	 0.138517934902882 
1570	 0.138358317959605 
1571	 0.138210016391117 
1572	 0.138052658546252 
1573	 0.137891451378838 
1574	 0.137733220488521 
1575	 0.137577729316398 
1576	 0.137416366384125 
1577	 0.137254535718506 
1578	 0.137090607457439 
1579	 0.136917337546583 
1580	 0.136749941088102 
1581	 0.136586259367213 
1582	 0.136421243463128 
1583	 0.136265100772813 
1584	 0.136094154784943 
1585	 0.135910735416133 
1586	 0.135733178984841 
1587	 0.135547260253928 
1588	 0.135366769165227 
1589	 0.135197849578889 
1590	 0.135019325298715 
1591	 0.134825235959507 
1592	 0.134650452658102 
1593	 0.134478935952895 
1594	 0.134315162022959 
1595	 0.134180969032609 
1596	 0.134022315425412 
1597	 0.133853964080322 
1598	 0.133684934620717 
1599	 0.133502172531401 
1600	 0.133321926265821 
1601	 0.133149371041513 
1602	 0.132964917061057 
1603	 0.132766265237559 
1604	 0.132573743943789 
1605	 0.132373995277569 
1606	 0.132181095505289 
1607	 0.131994527055393 
1608	 0.131813821383244 
1609	 0.131626418474322 
1610	 0.131435881281893 
1611	 0.131246706162218 
1612	 0.13106258402222 
1613	 0.130877967203877 
1614	 0.130689867454066 
1615	 0.130506032349681 
1616	 0.130310109586045 
1617	 0.13012025463158 
1618	 0.129938633345207 
1619	 0.129737098734652 
1620	 0.129553807741727 
1621	 0.129364843362683 
1622	 0.129175108732807 
1623	 0.128981665172377 
1624	 0.12879023564789 
1625	 0.128591971347546 
1626	 0.12838949475176 
1627	 0.128183306859087 
1628	 0.12797322661816 
1629	 0.127761946934567 
1630	 0.127537821635509 
1631	 0.127335652115261 
1632	 0.127146786271636 
1633	 0.126947419545357 
1634	 0.126759270478059 
1635	 0.126552564326976 
1636	 0.126334691782666 
1637	 0.12610637011092 
1638	 0.125865847568338 
1639	 0.125631684160449 
1640	 0.125380089201277 
1641	 0.125154867549765 
1642	 0.124950491641778 
1643	 0.124730156146457 
1644	 0.124520314944062 
1645	 0.124287862736103 
1646	 0.124032447024811 
1647	 0.123793327206318 
1648	 0.123551321343519 
1649	 0.123312936819179 
1650	 0.123083142857624 
1651	 0.122848820315301 
1652	 0.12261395322037 
1653	 0.122371659009627 
1654	 0.122125546259249 
1655	 0.121882931640777 
1656	 0.121639027801362 
1657	 0.121386049781053 
1658	 0.121134423189348 
1659	 0.120875803361237 
1660	 0.120599335960263 
1661	 0.120335467860937 
1662	 0.120077061386259 
1663	 0.119816574286044 
1664	 0.11955390954116 
1665	 0.11929847051413 
1666	 0.119037775386714 
1667	 0.11879969402756 
1668	 0.118588114732633 
1669	 0.118352210876699 
1670	 0.11812075701713 
1671	 0.117883027293141 
1672	 0.117629022866217 
1673	 0.117378586659582 
1674	 0.117132211044343 
1675	 0.116885425863423 
1676	 0.116634504941456 
1677	 0.116380484336314 
1678	 0.116130697040507 
1679	 0.115875112744361 
1680	 0.115600340611114 
1681	 0.115348868154447 
1682	 0.115114122238553 
1683	 0.114867043687865 
1684	 0.114620541382009 
1685	 0.114381250122812 
1686	 0.114143125687097 
1687	 0.113897941747451 
1688	 0.113663425576193 
1689	 0.113414807383242 
1690	 0.113134454445178 
1691	 0.112892596326459 
1692	 0.112668437316544 
1693	 0.112440964669777 
1694	 0.112234263221444 
1695	 0.112015276657773 
1696	 0.111790975280755 
1697	 0.111563909303132 
1698	 0.111330632513528 
1699	 0.11110900468198 
1700	 0.110888258093553 
1701	 0.110668645471239 
1702	 0.11046729431566 
1703	 0.110243594255405 
1704	 0.110004035770617 
1705	 0.109770140978807 
1706	 0.109527074705484 
1707	 0.109292928966195 
1708	 0.109053124413482 
1709	 0.108838357114831 
1710	 0.108646297607776 
1711	 0.108439349253012 
1712	 0.108236546758957 
1713	 0.108041505885037 
1714	 0.1078494724424 
1715	 0.107639248187461 
1716	 0.10742715942891 
1717	 0.107230478494685 
1718	 0.107010431309081 
1719	 0.106823408318546 
1720	 0.106681654182621 
1721	 0.106507793363367 
1722	 0.106327151242902 
1723	 0.106150093225782 
1724	 0.10596450440434 
1725	 0.105787463279362 
1726	 0.105615991805885 
1727	 0.105436455867287 
1728	 0.105257427149679 
1729	 0.105079579557617 
1730	 0.104900375680664 
1731	 0.104724683336983 
1732	 0.104538038937628 
1733	 0.104379513854883 
1734	 0.104236276180139 
1735	 0.104090836892986 
1736	 0.103971227383253 
1737	 0.103827342133937 
1738	 0.103659473058499 
1739	 0.103521284045234 
1740	 0.103392671268588 
1741	 0.103267031658852 
1742	 0.103165215548886 
1743	 0.103031852715904 
1744	 0.102881349146697 
1745	 0.102735914485142 
1746	 0.102577185242246 
1747	 0.102445766680845 
1748	 0.1023163951415 
1749	 0.10218997558876 
1750	 0.102068172259446 
1751	 0.101942873662249 
1752	 0.101806604421305 
1753	 0.101713885737812 
1754	 0.101626390336372 
1755	 0.101522931136555 
1756	 0.101453160550386 
1757	 0.101345858447124 
1758	 0.10121482102886 
1759	 0.101111530171442 
1760	 0.100997666020343 
1761	 0.10088570609881 
1762	 0.100774821694054 
1763	 0.100670613059912 
1764	 0.100570920619348 
1765	 0.100447160112799 
1766	 0.100341762651574 
1767	 0.100220660470967 
1768	 0.100083249668491 
1769	 9.99968242152969E-02 
1770	 9.99111183307947E-02 
1771	 9.98200639503022E-02 
1772	 9.97320857481055E-02 
1773	 9.96068157732473E-02 
1774	 9.94704167650614E-02 
1775	 9.93536232520112E-02 
1776	 9.92384816341024E-02 
1777	 9.91329442576195E-02 
1778	 9.90487184404141E-02 
1779	 9.89482774510457E-02 
1780	 9.88578234825803E-02 
1781	 0.098782928004472 
1782	 0.098696909073108 
1783	 9.86273427341071E-02 
1784	 9.85544662131965E-02 
1785	 9.84891443922684E-02 
1786	 0.098423716567589 
1787	 9.83714267474838E-02 
1788	 9.82936064106244E-02 
1789	 9.81920459461713E-02 
1790	 9.81048417855711E-02 
1791	 9.79974436088582E-02 
1792	 9.79178753128934E-02 
1793	 9.78661391392381E-02 
1794	 9.78085489749421E-02 
1795	 9.77571974288808E-02 
1796	 9.77006253074902E-02 
1797	 9.76435279078103E-02 
1798	 9.75899322280912E-02 
1799	 9.75438751083759E-02 
1800	 9.74878939194215E-02 
1801	 0.096725169821588 
1802	 9.66970112314986E-02 
1803	 9.66799505702941E-02 
1804	 9.66592115252891E-02 
1805	 9.66245134151229E-02 
1806	 0.096610292034757 
1807	 9.65924126569098E-02 
1808	 9.65896853931781E-02 
1809	 9.66131686506518E-02 
1810	 9.66076559431444E-02 
1811	 9.65980118050081E-02 
1812	 9.65956403931246E-02 
1813	 9.65475006254611E-02 
1814	 9.65164124937101E-02 
1815	 9.65023292951606E-02 
1816	 9.64507528754056E-02 
1817	 0.096422236967361 
1818	 9.64168937124555E-02 
1819	 9.63860516863323E-02 
1820	 9.63353678876843E-02 
1821	 9.63127494686159E-02 
1822	 9.63024549781127E-02 
1823	 9.62665415388816E-02 
1824	 9.62598137869113E-02 
1825	 9.62521490841341E-02 
1826	 9.62210009579922E-02 
1827	 9.62084005226878E-02 
1828	 9.61825598599398E-02 
1829	 0.096145720210296 
1830	 9.61183067976162E-02 
1831	 9.60985262769301E-02 
1832	 0.096061836214472 
1833	 9.60124227361226E-02 
1834	 9.59739005932489E-02 
1835	 9.59140681621048E-02 
1836	 9.58264066764039E-02 
1837	 9.57697600787371E-02 
1838	 9.57285403910142E-02 
1839	 9.56809161397377E-02 
1840	 9.56394166625521E-02 
1841	 9.56074093512941E-02 
1842	 9.55602566468732E-02 
1843	 9.54815704277924E-02 
1844	 9.53938263483372E-02 
1845	 9.53202504078271E-02 
1846	 9.52352117357454E-02 
1847	 9.51511285015238E-02 
1848	 0.095088162022785 
1849	 9.50084029846271E-02 
1850	 9.49091169114207E-02 
1851	 9.47981440553998E-02 
1852	 9.46796478157138E-02 
1853	 9.45362300644563E-02 
1854	 9.43788159633427E-02 
1855	 0.094222483693389 
1856	 9.40500442000905E-02 
1857	 9.38655885616874E-02 
1858	 9.36967408875495E-02 
1859	 9.35140987878256E-02 
1860	 9.32974461663477E-02 
1861	 9.30615312410591E-02 
1862	 9.28151118909859E-02 
1863	 9.25509199371461E-02 
1864	 9.22751898903396E-02 
1865	 9.20047703110176E-02 
1866	 9.17340508550878E-02 
1867	 9.14270559139248E-02 
1868	 9.10563827409435E-02 
1869	 9.06677441494311E-02 
1870	 9.02612219854342E-02 
1871	 8.98287645006528E-02 
1872	 8.93567766487433E-02 
1873	 8.89008139507587E-02 
1874	 8.84427160365677E-02 
1875	 8.79613160990675E-02 
1876	 8.74827084281874E-02 
1877	 8.69680577695692E-02 
1878	 8.64040078814349E-02 
1879	 8.58066702957587E-02 
1880	 8.51653710129442E-02 
1881	 8.44717992453515E-02 
1882	 8.37586312461551E-02 
1883	 8.30142895550303E-02 
1884	 0.082225842257529 
1885	 8.14214791768615E-02 
1886	 8.05638244207011E-02 
1887	 7.96268968002264E-02 
1888	 7.86310288252528E-02 
1889	 7.75895030485266E-02 
1890	 0.076504577440714 
1891	 7.54054814684245E-02 
1892	 7.42940144701487E-02 
1893	 0.073142998565502 
1894	 7.19619969759357E-02 
1895	 7.07328491492149E-02 
1896	 6.94717369689419E-02 
1897	 6.82055488556772E-02 
1898	 6.69133129518515E-02 
1899	 6.56376203806563E-02 
1900	 6.44234698914302E-02 
1901	 6.32400291975428E-02 
1902	 6.21479188654432E-02 
1903	 6.11261146290297E-02 
1904	 6.01970306073551E-02 
1905	 5.93331744900942E-02 
1906	 5.85717030003184E-02 
1907	 5.79294330148854E-02 
1908	 5.73643937569387E-02 
1909	 5.68723518742867E-02 
1910	 5.64592425474772E-02 
1911	 5.60792526633817E-02 
1912	 5.57157528744578E-02 
1913	 5.53736737960108E-02 
1914	 5.50758296102816E-02 
1915	 5.47760004519261E-02 
1916	 5.44875142309013E-02 
1917	 5.42050176674533E-02 
1918	 5.39650575657913E-02 
1919	 5.37051151779456E-02 
1920	 5.34636717679903E-02 
1921	 0.053232556683223 
1922	 5.29877909710535E-02 
1923	 5.27606619113947E-02 
1924	 5.25457212659116E-02 
1925	 5.23456247400161E-02 
1926	 5.21535184440396E-02 
1927	 5.19753554849993E-02 
1928	 5.18004290070869E-02 
1929	 5.16354279320795E-02 
1930	 5.14664539700739E-02 
1931	 0.05129067799339 
1932	 5.11102926080096E-02 
1933	 5.09465616475053E-02 
1934	 5.07897373653127E-02 
1935	 5.06521289300261E-02 
1936	 5.05482026663439E-02 
1937	 5.04352521804286E-02 
1938	 5.03284185176556E-02 
1939	 5.02252415746839E-02 
1940	 5.01235812528237E-02 
1941	 5.00207097389292E-02 
1942	 4.99435953138268E-02 
1943	 4.98767040713696E-02 
1944	 4.98378096775537E-02 
1945	 4.98228324909072E-02 
1946	 4.97867311200288E-02 
1947	 4.97487614493702E-02 
1948	 4.97185443113183E-02 
1949	 0.049684456735811 
1950	 4.96439885817177E-02 
1951	 4.96081730175485E-02 
1952	 4.95762749595803E-02 
1953	 4.95187135533459E-02 
1954	 4.94825107361137E-02 
1955	 4.94671110196839E-02 
1956	 4.94409351660432E-02 
1957	 4.94175449395607E-02 
1958	 4.94046490051186E-02 
1959	 4.93751059849089E-02 
1960	 4.93293261083006E-02 
1961	 4.93008603455782E-02 
1962	 4.92702806053348E-02 
1963	 4.92474202200575E-02 
1964	 4.92396262840216E-02 
1965	 4.92228158505673E-02 
1966	 4.92129019936321E-02 
1967	 4.92089764292919E-02 
1968	 4.92125970153052E-02 
1969	 4.92218636652969E-02 
1970	 4.92469799945988E-02 
1971	 0.049279123809825 
1972	 0.049321519355317 
1973	 0.049387977624129 
1974	 4.94478045989163E-02 
1975	 4.95127091223365E-02 
1976	 4.95707574437319E-02 
1977	 4.96493432822032E-02 
1978	 4.97219516169756E-02 
1979	 4.98103385155758E-02 
1980	 4.99258773209874E-02 
1981	 5.00320866049794E-02 
1982	 5.01452782914894E-02 
1983	 5.02570926167239E-02 
1984	 5.03592436003228E-02 
1985	 5.04841277297729E-02 
1986	 5.06297551208578E-02 
1987	 5.07644324987191E-02 
1988	 5.09079283433408E-02 
1989	 5.10503710083353E-02 
1990	 5.11910000588634E-02 
1991	 5.13146354489561E-02 
1992	 5.14322703962334E-02 
1993	 5.15426777335334E-02 
1994	 5.16580475486168E-02 
1995	 5.17568136436472E-02 
1996	 5.18723174330542E-02 
1997	 5.19931005246428E-02 
1998	 5.21286466201446E-02 
1999	 5.22888936255211E-02 
2000	 5.24257566834485E-02 
2001	 5.25686014130474E-02 
2002	 5.27042323507355E-02 
2003	 5.28091035520096E-02 
2004	 5.29142844883727E-02 
2005	 5.30255432422121E-02 
2006	 0.053137677879048 
2007	 5.32533401282801E-02 
2008	 5.33718929209946E-02 
2009	 5.34861338379427E-02 
2010	 5.36022600452203E-02 
2011	 5.37169696946722E-02 
2012	 5.38343365447368E-02 
2013	 5.39459540413675E-02 
2014	 5.40523470446843E-02 
2015	 5.41548102679058E-02 
2016	 5.42767350763474E-02 
2017	 5.43967720362849E-02 
2018	 5.45158598837479E-02 
2019	 5.46502516260568E-02 
2020	 0.05477204504494 
2021	 5.48792061938374E-02 
2022	 5.49950026409538E-02 
2023	 5.51184737357828E-02 
2024	 5.52353584342764E-02 
2025	 5.53396255490737E-02 
2026	 0.055457682437305 
2027	 5.55801317958809E-02 
2028	 0.055714309940362 
2029	 5.58280558994825E-02 
2030	 5.59422968425649E-02 
2031	 5.60562428670654E-02 
2032	 5.61486977562285E-02 
2033	 5.62614125362484E-02 
2034	 5.63944333057238E-02 
2035	 0.056512738559007 
2036	 5.66319826019756E-02 
2037	 5.67444062919585E-02 
2038	 5.68452618454434E-02 
2039	 5.69525166429948E-02 
2040	 5.70492383015114E-02 
2041	 5.71636988901407E-02 
2042	 5.72860857958533E-02 
2043	 5.74108233917424E-02 
2044	 5.75168304129847E-02 
2045	 5.76144795112563E-02 
2046	 5.77143786399994E-02 
2047	 5.77922629249242E-02 
2048	 5.78959015345061E-02 
2049	 5.80289469958459E-02 
2050	 5.81365060453435E-02 
2051	 5.82361182587206E-02 
2052	 5.83386994451548E-02 
2053	 5.84289906578096E-02 
2054	 5.85222478764548E-02 
2055	 5.86241473781119E-02 
2056	 5.87254584542132E-02 
2057	 5.88152390309596E-02 
2058	 5.88960706826096E-02 
2059	 5.89806139305117E-02 
2060	 5.90496746626985E-02 
2061	 5.91445030574013E-02 
2062	 5.92473415714111E-02 
2063	 0.059356529710227 
2064	 5.95005609769077E-02 
2065	 5.96121111772089E-02 
2066	 5.97182782694753E-02 
2067	 5.98127297550075E-02 
2068	 5.98868062911074E-02 
2069	 5.99479857421703E-02 
2070	 6.00317259208234E-02 
2071	 6.01165969315504E-02 
2072	 6.02069513993576E-02 
2073	 6.03150437551987E-02 
2074	 6.04083052278781E-02 
2075	 6.04979696304069E-02 
2076	 6.05838613307329E-02 
2077	 0.060653917935936 
2078	 0.060745497753854 
2079	 6.08566783957504E-02 
2080	 6.09468504812334E-02 
2081	 6.10310611045095E-02 
2082	 6.11251091465883E-02 
2083	 6.12128145524736E-02 
2084	 6.12963429830057E-02 
2085	 6.13833938950116E-02 
2086	 6.14835113730714E-02 
2087	 0.061582422580578 
2088	 6.16683713568812E-02 
2089	 6.17718154549974E-02 
2090	 6.19118039104447E-02 
2091	 6.20065859257721E-02 
2092	 6.20686519594327E-02 
2093	 6.21597614920228E-02 
2094	 6.22361727399049E-02 
2095	 0.062330883500521 
2096	 0.062458311794929 
2097	 6.25752575260676E-02 
2098	 6.26925127364836E-02 
2099	 6.28101554859831E-02 
2100	 6.29138961382819E-02 
2101	 6.30141975564968E-02 
2102	 6.31150478839861E-02 
2103	 6.31958880676435E-02 
2104	 6.32991188240668E-02 
2105	 6.34190809627078E-02 
2106	 6.35297955772408E-02 
2107	 6.36479240262092E-02 
2108	 0.063755764794143 
2109	 6.38467476793049E-02 
2110	 6.39555356426221E-02 
2111	 6.40645359107852E-02 
2112	 6.41825404214542E-02 
2113	 6.43184495635321E-02 
2114	 6.44554791752148E-02 
2115	 6.45810769185034E-02 
2116	 6.47031040103184E-02 
2117	 6.48286588826787E-02 
2118	 6.49496412986489E-02 
2119	 6.50711545634268E-02 
2120	 0.065190835696637 
2121	 6.53194408058554E-02 
2122	 6.54551630932996E-02 
2123	 6.55814196893678E-02 
2124	 6.57230883426888E-02 
2125	 6.58407005969443E-02 
2126	 6.59226996608106E-02 
2127	 6.60279711405924E-02 
2128	 6.61303577246972E-02 
2129	 6.62415258003451E-02 
2130	 6.63676929280816E-02 
2131	 6.65033538433457E-02 
2132	 6.66211932382898E-02 
2133	 6.67364623545688E-02 
2134	 6.68413315429778E-02 
2135	 6.69344491548039E-02 
2136	 0.06702963388296 
2137	 6.71240009269337E-02 
2138	 6.72084249905234E-02 
2139	 6.72741687166612E-02 
2140	 6.73603174546843E-02 
2141	 0.06745938969858 
2142	 6.75391878100815E-02 
2143	 6.76271944148415E-02 
2144	 6.77041313484054E-02 
2145	 6.77535938466185E-02 
2146	 6.78103715617325E-02 
2147	 6.78731122731816E-02 
2148	 6.79314206866102E-02 
2149	 6.79850225329586E-02 
2150	 6.80331431186917E-02 
2151	 6.80811009601232E-02 
2152	 0.068128240726563 
2153	 0.068169206191769 
2154	 6.82023096200036E-02 
2155	 6.82402971329664E-02 
2156	 6.82687588006975E-02 
2157	 6.83117004949542E-02 
2158	 6.83873453867629E-02 
2159	 6.84218055212584E-02 
2160	 6.84412402209209E-02 
2161	 6.84581937595081E-02 
2162	 6.84326390362403E-02 
2163	 6.84312124863712E-02 
2164	 6.84347180402289E-02 
2165	 6.84581798195746E-02 
2166	 6.84859597543793E-02 
2167	 6.85287403422293E-02 
2168	 6.85590557351061E-02 
2169	 6.86044151890981E-02 
2170	 0.068622750139282 
2171	 6.86265204144536E-02 
2172	 6.86231532510884E-02 
2173	 6.85983416458382E-02 
2174	 6.85861168526335E-02 
2175	 6.85641463512785E-02 
2176	 6.85584669350633E-02 
2177	 6.85592379891377E-02 
2178	 6.85686760490389E-02 
2179	 6.86011869287583E-02 
2180	 6.86163095268192E-02 
2181	 6.86401665984282E-02 
2182	 6.86480466292672E-02 
2183	 6.86356445815822E-02 
2184	 6.86200693475089E-02 
2185	 6.86083229040459E-02 
2186	 6.85846590845113E-02 
2187	 6.85827073077307E-02 
2188	 6.85927317005891E-02 
2189	 6.85986717749934E-02 
2190	 6.86267593613603E-02 
2191	 0.06862236099289 
2192	 6.85883661051717E-02 
2193	 0.068582142415937 
2194	 6.85797379220959E-02 
2195	 0.068566803677923 
2196	 6.85626666164599E-02 
2197	 6.85592341083824E-02 
2198	 6.85349943989528E-02 
2199	 6.85259614749269E-02 
2200	 0.068542345202216 
2201	 6.85477529373253E-02 
2202	 6.85377791119639E-02 
2203	 6.85480202156195E-02 
2204	 6.85552744888727E-02 
2205	 6.85635197539499E-02 
2206	 6.85706660212244E-02 
2207	 0.068580008951775 
2208	 6.85931130507697E-02 
2209	 6.86064907535422E-02 
2210	 6.86178248127477E-02 
2211	 6.86345009613456E-02 
2212	 6.86500530431543E-02 
2213	 6.86554137621505E-02 
2214	 0.068675882644153 
2215	 6.87064276526535E-02 
2216	 6.87376893720078E-02 
2217	 6.87915073310638E-02 
2218	 6.88167045459881E-02 
2219	 6.88267324447465E-02 
2220	 6.88381060813041E-02 
2221	 6.88244924284183E-02 
2222	 6.88273342620519E-02 
2223	 6.88253451927176E-02 
2224	 6.88366373758541E-02 
2225	 6.88535531308714E-02 
2226	 6.88745908834312E-02 
2227	 6.88912372515947E-02 
2228	 6.89209751679331E-02 
2229	 6.89371485638742E-02 
2230	 6.89380371167774E-02 
2231	 6.89525668437158E-02 
2232	 6.89708641107198E-02 
2233	 6.89910563400814E-02 
2234	 6.90250895905249E-02 
2235	 6.90392388777537E-02 
2236	 6.90406509031887E-02 
2237	 6.90491195401493E-02 
2238	 6.90604866627598E-02 
2239	 6.90569622172872E-02 
2240	 6.90414985514065E-02 
2241	 6.90381912081074E-02 
2242	 6.90238995628208E-02 
2243	 6.90098085852842E-02 
2244	 6.89958540418712E-02 
2245	 6.90128989384626E-02 
2246	 6.89772417598529E-02 
2247	 6.89919670552679E-02 
2248	 6.90080949125089E-02 
2249	 6.90404986337521E-02 
2250	 0.069058059871368 
2251	 6.90931478851059E-02 
2252	 6.91010656526857E-02 
2253	 6.90995337127523E-02 
2254	 6.90731279836931E-02 
2255	 6.90175733280935E-02 
2256	 6.89811966646118E-02 
2257	 6.89234267117454E-02 
2258	 6.88865639133012E-02 
2259	 6.88862075609422E-02 
2260	 6.88537916347238E-02 
2261	 6.87947338122318E-02 
2262	 6.87607112293585E-02 
2263	 6.87328659877549E-02 
2264	 6.86945563210929E-02 
2265	 6.86606229979427E-02 
2266	 6.86359545611627E-02 
2267	 6.85987415304153E-02 
2268	 6.85687351851277E-02 
2269	 6.85560487583456E-02 
2270	 6.85551513136209E-02 
2271	 6.85022678394935E-02 
2272	 6.84784738018723E-02 
2273	 6.84402957618242E-02 
2274	 6.83398712515629E-02 
2275	 0.068254116980368 
2276	 6.81575062141423E-02 
2277	 6.80546171472672E-02 
2278	 0.067930607731359 
2279	 6.78371744859314E-02 
2280	 6.77480692679008E-02 
2281	 6.76703611741163E-02 
2282	 6.76146802696522E-02 
2283	 6.75416578145827E-02 
2284	 6.74719182551335E-02 
2285	 6.73848667304924E-02 
2286	 6.73017107308603E-02 
2287	 6.71988798125948E-02 
2288	 0.067053164994953 
2289	 0.066937807993946 
2290	 6.68299905250879E-02 
2291	 6.67155415556107E-02 
2292	 6.66220149890437E-02 
2293	 6.65180880488224E-02 
2294	 6.63927156654227E-02 
2295	 6.62701614651644E-02 
2296	 6.61477760889428E-02 
2297	 6.60295610051543E-02 
2298	 0.065910567116627 
2299	 6.57648487527854E-02 
2300	 6.55855559204434E-02 
2301	 0.065449939024869 
2302	 6.53332759686841E-02 
2303	 6.52007105501434E-02 
2304	 6.51158254075389E-02 
2305	 6.50150528628153E-02 
2306	 6.48885092807585E-02 
2307	 6.47389567808056E-02 
2308	 6.45895112887797E-02 
2309	 6.44109923254749E-02 
2310	 0.064262355489862 
2311	 6.41326925983739E-02 
2312	 6.39877440553052E-02 
2313	 6.38253475223682E-02 
2314	 6.37091528210434E-02 
2315	 6.36316861680497E-02 
2316	 6.34942789832829E-02 
2317	 6.33754388992103E-02 
2318	 6.32263010797211E-02 
2319	 6.29667033250574E-02 
2320	 6.28009179887413E-02 
2321	 6.27238603924595E-02 
2322	 0.062571785750658 
2323	 6.24157302816252E-02 
2324	 6.22630813988637E-02 
2325	 0.062069280919133 
2326	 6.18794630606724E-02 
2327	 6.16939347063382E-02 
2328	 0.061512402700379 
2329	 6.13616117143021E-02 
2330	 6.12092521702608E-02 
2331	 6.10979217030166E-02 
2332	 6.09832825537663E-02 
2333	 6.08485071403563E-02 
2334	 6.07072093400777E-02 
2335	 6.05764741141361E-02 
2336	 6.04633474675818E-02 
2337	 6.02823769278032E-02 
2338	 6.01388117481225E-02 
2339	 0.060022797276272 
2340	 0.059831973158539 
2341	 0.059654964873193 
2342	 5.94927673263567E-02 
2343	 5.92606784447442E-02 
2344	 5.90250458810639E-02 
2345	 5.88055413377394E-02 
2346	 5.85612913183674E-02 
2347	 5.83662300380945E-02 
2348	 5.82215252543793E-02 
2349	 5.80511020870272E-02 
2350	 5.79056065475061E-02 
2351	 0.05774386889694 
2352	 5.75669560225182E-02 
2353	 0.057362630612249 
2354	 5.71541318120757E-02 
2355	 5.69477079543797E-02 
2356	 5.66945457296706E-02 
2357	 5.64630101798267E-02 
2358	 5.62624933825727E-02 
2359	 5.60510837929882E-02 
2360	 5.58237446892134E-02 
2361	 0.055610850579404 
2362	 5.53955958798085E-02 
2363	 5.52005702995602E-02 
2364	 5.50343706243384E-02 
2365	 5.48527930790889E-02 
2366	 5.46861226802407E-02 
2367	 5.44956629302944E-02 
2368	 5.42967167314883E-02 
2369	 5.40656051162236E-02 
2370	 5.38000525441137E-02 
2371	 0.053565661276367 
2372	 5.33255933826966E-02 
2373	 5.30625711800247E-02 
2374	 5.28246608299601E-02 
2375	 0.052601055726927 
2376	 5.24217667513104E-02 
2377	 5.22761346473228E-02 
2378	 5.21303932856953E-02 
2379	 0.051989024232602 
2380	 5.17934544060129E-02 
2381	 5.15357697775142E-02 
2382	 5.12561525665066E-02 
2383	 5.09931317588143E-02 
2384	 5.07381172322435E-02 
2385	 5.05211974025325E-02 
2386	 5.03771128051946E-02 
2387	 5.01954048549309E-02 
2388	 4.99538206956146E-02 
2389	 4.97315099371167E-02 
2390	 4.95601575161245E-02 
2391	 4.93756741309537E-02 
2392	 4.91545979294619E-02 
2393	 4.89291912696354E-02 
2394	 4.86127639472914E-02 
2395	 4.82966892467738E-02 
2396	 0.048127863594343 
2397	 0.047969762961284 
2398	 0.047823367239296 
2399	 4.77297555144464E-02 
2400	 4.76498714602212E-02 
2401	 4.75527822905021E-02 
2402	 4.74149187451118E-02 
2403	 4.72519701649049E-02 
2404	 4.70173367086877E-02 
2405	 4.68047935087097E-02 
2406	 4.66313843358438E-02 
2407	 0.046433839909788 
2408	 4.62714171964468E-02 
2409	 4.61059628270026E-02 
2410	 4.59623667399422E-02 
2411	 4.58842272037809E-02 
2412	 4.57516434526271E-02 
2413	 4.55313562897195E-02 
2414	 4.52931330667192E-02 
2415	 4.50842974413535E-02 
2416	 4.49476472926839E-02 
2417	 4.49672896960752E-02 
2418	 0.044853253756291 
2419	 4.47076290430039E-02 
2420	 4.45294817223889E-02 
2421	 4.42200173101618E-02 
2422	 4.40478667106716E-02 
2423	 4.39878075382965E-02 
2424	 4.38681909554343E-02 
2425	 4.37727034891638E-02 
2426	 0.043647115428585 
2427	 0.043459271262774 
2428	 4.32838922342845E-02 
2429	 4.31265030346166E-02 
2430	 4.29765862087061E-02 
2431	 0.042789747348131 
2432	 4.26616265685657E-02 
2433	 4.26233817971764E-02 
2434	 0.042488537501586 
2435	 4.23234943572459E-02 
2436	 4.21776834045794E-02 
2437	 4.19676206584966E-02 
2438	 4.18338811756901E-02 
2439	 4.17645396872305E-02 
2440	 4.16103222242316E-02 
2441	 4.14296927915012E-02 
2442	 4.12949608179067E-02 
2443	 4.11744489689909E-02 
2444	 4.10533911168204E-02 
2445	 4.09592523975498E-02 
2446	 4.08554428639912E-02 
2447	 4.07078592634511E-02 
2448	 4.05634388262623E-02 
2449	 4.04714108590163E-02 
2450	 4.03396235604283E-02 
2451	 4.01367144724707E-02 
2452	 3.99594115351156E-02 
2453	 3.98700168152129E-02 
2454	 3.96914937523856E-02 
2455	 3.93424546789916E-02 
2456	 3.91040176487489E-02 
2457	 3.88324305572229E-02 
2458	 3.86751774730147E-02 
2459	 3.88028272888032E-02 
2460	 0.038802587939527 
2461	 3.87969023526518E-02 
2462	 3.87153717960133E-02 
2463	 3.84077877107215E-02 
2464	 3.82100249469474E-02 
2465	 3.80856477325889E-02 
2466	 3.79746694742107E-02 
2467	 3.79165432323452E-02 
2468	 3.78837684793814E-02 
2469	 3.78431253938558E-02 
2470	 3.78468632808239E-02 
2471	 3.78531806997377E-02 
2472	 3.77627583972945E-02 
2473	 3.77265678740163E-02 
2474	 3.76171152200493E-02 
2475	 3.74889515370663E-02 
2476	 3.74928792613888E-02 
2477	 3.73685936906722E-02 
2478	 3.71313508471475E-02 
2479	 3.70092667748245E-02 
2480	 3.68019361224537E-02 
2481	 3.66666482236401E-02 
2482	 3.67353202415144E-02 
2483	 3.66207346970629E-02 
2484	 3.65928737447195E-02 
2485	 3.66585742986848E-02 
2486	 3.65383843300065E-02 
2487	 3.66251819799124E-02 
2488	 3.66966819955981E-02 
2489	 3.65088636417841E-02 
2490	 3.64427469871893E-02 
2491	 3.64280097148675E-02 
2492	 3.62562000186039E-02 
2493	 3.61131531950511E-02 
2494	 3.61745215519053E-02 
2495	 3.61395221569204E-02 
2496	 3.59078654004745E-02 
2497	 3.58883266462676E-02 
2498	 3.57941534808138E-02 
2499	 3.55294985218308E-02 
2500	 3.54148094148015E-02 
