Wavelength	lmw-9-100007.asd
350	 0.110197749142293 
351	 0.109282172884527 
352	 9.73545348610218E-02 
353	 8.17316622441831E-02 
354	 8.57630128893588E-02 
355	 9.34035921469439E-02 
356	 9.51669834618683E-02 
357	 8.85881958616234E-02 
358	 8.74417903153419E-02 
359	 8.52428757500963E-02 
360	 8.54218803323325E-02 
361	 9.55512933498154E-02 
362	 9.33065936105723E-02 
363	 0.087752586773555 
364	 8.59897079147042E-02 
365	 8.58858025939693E-02 
366	 8.47373165045776E-02 
367	 8.35089884713792E-02 
368	 0.083407299159252 
369	 8.18477362167457E-02 
370	 8.26939408521915E-02 
371	 8.42597885076717E-02 
372	 8.17526820142003E-02 
373	 8.17131304934693E-02 
374	 8.22165396928974E-02 
375	 8.19180959494686E-02 
376	 0.082593676634513 
377	 8.00941433795906E-02 
378	 7.84965184998468E-02 
379	 8.17470018191498E-02 
380	 8.27786452031941E-02 
381	 7.99258497168525E-02 
382	 7.74492771286185E-02 
383	 8.24497819381309E-02 
384	 8.19279081622693E-02 
385	 7.99477039208513E-02 
386	 8.00990901353099E-02 
387	 8.01733560731677E-02 
388	 8.06226911153021E-02 
389	 8.06057246084911E-02 
390	 7.94833481645484E-02 
391	 7.90434185681982E-02 
392	 8.00391102413427E-02 
393	 8.18140389761943E-02 
394	 8.26370107322895E-02 
395	 8.21367361257674E-02 
396	 8.17880805772643E-02 
397	 8.23629681153349E-02 
398	 8.24977921445551E-02 
399	 8.24830245774607E-02 
400	 8.34079387661535E-02 
401	 8.56636042549064E-02 
402	 0.08405602266922 
403	 8.34582610317894E-02 
404	 0.084525589211869 
405	 8.32819173677089E-02 
406	 0.084695978372708 
407	 8.65364083804848E-02 
408	 8.64346755942004E-02 
409	 8.50769662498662E-02 
410	 8.43899687007579E-02 
411	 8.46223138373969E-02 
412	 8.51245724713486E-02 
413	 8.56181510745108E-02 
414	 8.55878403012627E-02 
415	 8.51699170929824E-02 
416	 0.085319249609268 
417	 8.46113503071761E-02 
418	 8.39509059339297E-02 
419	 8.42439509881549E-02 
420	 8.46463698927687E-02 
421	 8.37723558309575E-02 
422	 8.26816048034681E-02 
423	 8.35776811851626E-02 
424	 8.27423466914828E-02 
425	 8.18948379907437E-02 
426	 8.19956687163977E-02 
427	 8.14053366103875E-02 
428	 8.04694957530527E-02 
429	 0.080130569409667 
430	 8.09463513122643E-02 
431	 8.05053815530777E-02 
432	 8.02599515697013E-02 
433	 8.06920419584721E-02 
434	 8.11793296774388E-02 
435	 8.17155569674057E-02 
436	 8.22394027483328E-02 
437	 8.27592291447506E-02 
438	 0.083427577043056 
439	 8.42479856438824E-02 
440	 0.085238868066548 
441	 8.63918175320541E-02 
442	 8.74642384996402E-02 
443	 8.87859109406106E-02 
444	 9.03401257594113E-02 
445	 9.15007688047203E-02 
446	 9.29989067602305E-02 
447	 9.43649010540611E-02 
448	 9.51729912875825E-02 
449	 9.66280357654732E-02 
450	 9.84043240603489E-02 
451	 0.100207478662204 
452	 0.101831907347688 
453	 0.10326902939867 
454	 0.104647285531714 
455	 0.10622985108927 
456	 0.108678171509317 
457	 0.110333995303449 
458	 0.111550129942037 
459	 0.113477524743689 
460	 0.115588478655318 
461	 0.117536462197224 
462	 0.119312667100114 
463	 0.121345624254316 
464	 0.123468641247445 
465	 0.125742609801344 
466	 0.128174287380529 
467	 0.130344182166063 
468	 0.132564978675747 
469	 0.134861268401969 
470	 0.137049812310627 
471	 0.139758770295764 
472	 0.142539454866494 
473	 0.145043235194429 
474	 0.147551186004053 
475	 0.150201279946837 
476	 0.152959710804851 
477	 0.155725749421466 
478	 0.158649796484374 
479	 0.161305431669338 
480	 0.163720069027112 
481	 0.166615274459809 
482	 0.169251722857622 
483	 0.171891362399167 
484	 0.174829301100472 
485	 0.177400715524013 
486	 0.179703987187278 
487	 0.181948226518143 
488	 0.184390168639482 
489	 0.186648337593019 
490	 0.188862410673636 
491	 0.191125994278898 
492	 0.193196183315412 
493	 0.195107341732858 
494	 0.19694811863403 
495	 0.198799326969375 
496	 0.200396813441778 
497	 0.201923788592312 
498	 0.203420873193665 
499	 0.204660841528309 
500	 0.205743185067996 
501	 0.206821098921363 
502	 0.207985441539276 
503	 0.209015355347382 
504	 0.209773921111877 
505	 0.210397216688511 
506	 0.211235904783887 
507	 0.211836336430887 
508	 0.212406844208849 
509	 0.213079367928299 
510	 0.213420372688417 
511	 0.213794595425853 
512	 0.214174609844514 
513	 0.21437519542818 
514	 0.214818494443333 
515	 0.215151012203495 
516	 0.215236365603751 
517	 0.215447635770436 
518	 0.215632817427219 
519	 0.215792175463704 
520	 0.215968033569166 
521	 0.216193724761141 
522	 0.21638524123213 
523	 0.216510421987634 
524	 0.216597885889962 
525	 0.216582241553676 
526	 0.216691923185027 
527	 0.21702872078955 
528	 0.217103160391564 
529	 0.217189472969372 
530	 0.217346086839507 
531	 0.217486441015199 
532	 0.217594844320809 
533	 0.217787340701462 
534	 0.218073754370706 
535	 0.218190912243585 
536	 0.218410649127675 
537	 0.218711979990606 
538	 0.218972879664834 
539	 0.21923196483422 
540	 0.219470901398795 
541	 0.219714818212348 
542	 0.220046800013332 
543	 0.22049895586164 
544	 0.220952138450839 
545	 0.221307726516976 
546	 0.221730262121259 
547	 0.222174826256145 
548	 0.222591249134292 
549	 0.222941257963455 
550	 0.223418253163169 
551	 0.223954260288998 
552	 0.2244889219478 
553	 0.225132014489126 
554	 0.225709444494948 
555	 0.226263284273781 
556	 0.226932235884641 
557	 0.227606317633128 
558	 0.228245906943419 
559	 0.228886340489892 
560	 0.229689385047426 
561	 0.230415438862987 
562	 0.231112541460116 
563	 0.231880506606886 
564	 0.232513559006128 
565	 0.233121339634885 
566	 0.23377074356267 
567	 0.234459532112098 
568	 0.235228024972875 
569	 0.23611159185868 
570	 0.237094640978812 
571	 0.238017294284687 
572	 0.238925555768221 
573	 0.239846899531004 
574	 0.240793767444473 
575	 0.241769855333678 
576	 0.242744405792517 
577	 0.243688880805659 
578	 0.244581979594966 
579	 0.24550744648447 
580	 0.246424495138502 
581	 0.247260435613463 
582	 0.248119695049967 
583	 0.24900941996577 
584	 0.249918825811055 
585	 0.250831587644355 
586	 0.251716648217794 
587	 0.252623108139999 
588	 0.253612118620074 
589	 0.254693688050238 
590	 0.255771654811256 
591	 0.256816739046463 
592	 0.257873549392084 
593	 0.259076102843621 
594	 0.260317731570325 
595	 0.26146860027885 
596	 0.262472776322486 
597	 0.263429495960814 
598	 0.264390964291251 
599	 0.265369450525231 
600	 0.266221287078758 
601	 0.267114097707256 
602	 0.268139191019641 
603	 0.269204821788355 
604	 0.270208108998632 
605	 0.27118092517225 
606	 0.272192755772852 
607	 0.273188721949185 
608	 0.274199641635203 
609	 0.275239848172087 
610	 0.276300252840972 
611	 0.277273301843835 
612	 0.278202968907554 
613	 0.279137279445702 
614	 0.280013598783879 
615	 0.280817689832641 
616	 0.28160929435253 
617	 0.282483045693327 
618	 0.283336156861936 
619	 0.284192110691338 
620	 0.285050299612946 
621	 0.285808260868568 
622	 0.286544803719881 
623	 0.287284847608332 
624	 0.28802894366139 
625	 0.28875314528961 
626	 0.28943877138438 
627	 0.29011839975627 
628	 0.290889344409562 
629	 0.291599676347661 
630	 0.292267184477113 
631	 0.292941750149647 
632	 0.293595383173384 
633	 0.29421548587787 
634	 0.294811803958686 
635	 0.295410057078038 
636	 0.295973931664088 
637	 0.296507880808312 
638	 0.297033544959734 
639	 0.297605357074273 
640	 0.298125666241951 
641	 0.298616886082056 
642	 0.299144708267687 
643	 0.299639432042143 
644	 0.300129961342709 
645	 0.300586182154491 
646	 0.300874221558296 
647	 0.301244762871201 
648	 0.301637328020976 
649	 0.301948974741643 
650	 0.302325944241 
651	 0.30263213558677 
652	 0.302869341671854 
653	 0.303157243607559 
654	 0.303383441014749 
655	 0.303539131280746 
656	 0.303664238931782 
657	 0.30387848832867 
658	 0.30403960288402 
659	 0.304103709088668 
660	 0.304095384336168 
661	 0.304158691132943 
662	 0.30420150260354 
663	 0.304178375308919 
664	 0.304146327279364 
665	 0.304082437450757 
666	 0.303959145130861 
667	 0.30377568155826 
668	 0.303642479404324 
669	 0.303504910910116 
670	 0.303320566560787 
671	 0.303062992625952 
672	 0.302710377251092 
673	 0.30237315808944 
674	 0.30208749568057 
675	 0.301657060552529 
676	 0.301231523542674 
677	 0.300827356046892 
678	 0.300397754750098 
679	 0.299885735472491 
680	 0.29936517836509 
681	 0.298855860062792 
682	 0.298292405473074 
683	 0.297727494504529 
684	 0.297147091487508 
685	 0.296527722891499 
686	 0.295871646962624 
687	 0.295204189853185 
688	 0.294524166085161 
689	 0.293811010500709 
690	 0.293042568186849 
691	 0.292290312211962 
692	 0.291576066595913 
693	 0.290799079736244 
694	 0.289963397329744 
695	 0.289110033580225 
696	 0.288281547416054 
697	 0.287429945697096 
698	 0.286572919466565 
699	 0.285712875881441 
700	 0.284833900034479 
701	 0.283932386360236 
702	 0.283001741409092 
703	 0.282051559718257 
704	 0.281141326299102 
705	 0.280177183118471 
706	 0.279182106009706 
707	 0.27822946092751 
708	 0.277235001616429 
709	 0.276277598748485 
710	 0.275357606934195 
711	 0.274337188679399 
712	 0.273319830657459 
713	 0.272271075738822 
714	 0.271181034034902 
715	 0.270295065317025 
716	 0.269319291568209 
717	 0.268212315405889 
718	 0.267133938497746 
719	 0.266215485347734 
720	 0.265221515942159 
721	 0.26406560208416 
722	 0.263048270915749 
723	 0.262009977096113 
724	 0.26092549418905 
725	 0.259829180121979 
726	 0.25883190078734 
727	 0.257821648195879 
728	 0.256747818876388 
729	 0.255634043699188 
730	 0.254589065638216 
731	 0.253536940830878 
732	 0.252435505929401 
733	 0.25140949464852 
734	 0.250389704555644 
735	 0.2493402837043 
736	 0.248241331054444 
737	 0.24706830167705 
738	 0.246000311521687 
739	 0.245024297891541 
740	 0.24391166712856 
741	 0.242841909366097 
742	 0.241779250050496 
743	 0.240692459562196 
744	 0.239696184910269 
745	 0.238628773966805 
746	 0.23752754865016 
747	 0.236506250752372 
748	 0.235486175880104 
749	 0.234428664830092 
750	 0.233360596848247 
751	 0.232378635274806 
752	 0.231380973830234 
753	 0.230336482429009 
754	 0.2292599167482 
755	 0.2282434031052 
756	 0.227284175799979 
757	 0.226294721756871 
758	 0.225188149189315 
759	 0.224215162870448 
760	 0.223281248309963 
761	 0.222323110137821 
762	 0.221359858979931 
763	 0.220402620619034 
764	 0.219432783330238 
765	 0.218445557961225 
766	 0.217490056581998 
767	 0.216558356637087 
768	 0.215636139250792 
769	 0.214712616320792 
770	 0.213838835681502 
771	 0.212955725761934 
772	 0.212046968406268 
773	 0.211159250264964 
774	 0.210316457266273 
775	 0.209488590651649 
776	 0.208643094380754 
777	 0.20777511984435 
778	 0.206926574101798 
779	 0.206109130604483 
780	 0.205313568261104 
781	 0.204505081193645 
782	 0.203736071135767 
783	 0.202986744425871 
784	 0.202165751926994 
785	 0.201425599898302 
786	 0.200725801348859 
787	 0.200008722396631 
788	 0.199266516902671 
789	 0.19855511495347 
790	 0.197863427918284 
791	 0.197163837323952 
792	 0.196486300319671 
793	 0.195833206863225 
794	 0.195210065208215 
795	 0.194617972880949 
796	 0.193944424432834 
797	 0.193293077672035 
798	 0.192713574418748 
799	 0.192092911791694 
800	 0.191518403625368 
801	 0.190974811954593 
802	 0.190429011302375 
803	 0.189913860350807 
804	 0.189353039746767 
805	 0.188774405284797 
806	 0.188264272020698 
807	 0.187780192346372 
808	 0.187290085269515 
809	 0.186795048510227 
810	 0.186335438219485 
811	 0.185865139182727 
812	 0.185391484006428 
813	 0.184941657776321 
814	 0.184564882196671 
815	 0.184199770909485 
816	 0.183814015695805 
817	 0.183400308339225 
818	 0.182997989516855 
819	 0.182641087548111 
820	 0.182315454989381 
821	 0.181969994292282 
822	 0.181621711584309 
823	 0.181270125795338 
824	 0.180934385170646 
825	 0.18066737416454 
826	 0.180362134389692 
827	 0.180038308869579 
828	 0.179742379346538 
829	 0.17948431951188 
830	 0.179219584094183 
831	 0.178939585226686 
832	 0.178667124284314 
833	 0.178493822717862 
834	 0.178277201177137 
835	 0.178022108214589 
836	 0.177874038386823 
837	 0.177719114888988 
838	 0.17754255656161 
839	 0.177342563800593 
840	 0.177110133261645 
841	 0.176934627545027 
842	 0.176807235170196 
843	 0.176687348338696 
844	 0.176532241193117 
845	 0.176431424739152 
846	 0.176359557208883 
847	 0.176256496746717 
848	 0.176208418377509 
849	 0.176131047725975 
850	 0.176013923931837 
851	 0.175914883039439 
852	 0.175807498694689 
853	 0.175750457377277 
854	 0.175753786349143 
855	 0.175743863948514 
856	 0.175695897063619 
857	 0.175650269086985 
858	 0.175651241829245 
859	 0.175715799541507 
860	 0.175717586469356 
861	 0.175703102878005 
862	 0.175753135312882 
863	 0.175789518348442 
864	 0.175851185257044 
865	 0.175931809967403 
866	 0.175999915688851 
867	 0.176068731707231 
868	 0.176161273719803 
869	 0.176265924784636 
870	 0.176341873915642 
871	 0.176457738208787 
872	 0.176583852892667 
873	 0.176697273669527 
874	 0.176812198024679 
875	 0.177002060907739 
876	 0.177189547150011 
877	 0.177319387192279 
878	 0.17749472787931 
879	 0.177693214804525 
880	 0.177915579486079 
881	 0.178162632878781 
882	 0.178423782285505 
883	 0.178627220327723 
884	 0.178796161869255 
885	 0.17901084710068 
886	 0.179333535127206 
887	 0.179613961095427 
888	 0.179821760411158 
889	 0.180052949256405 
890	 0.18042819115125 
891	 0.180779407270047 
892	 0.181058780614617 
893	 0.181410032832726 
894	 0.181729950063816 
895	 0.18207548497119 
896	 0.18247274117688 
897	 0.182841489583618 
898	 0.183215234854078 
899	 0.183619324546943 
900	 0.184028910578086 
901	 0.184272649908854 
902	 0.184712299964629 
903	 0.185270000713893 
904	 0.185755552015109 
905	 0.186206918931152 
906	 0.186643478578186 
907	 0.187082407125524 
908	 0.187546615399506 
909	 0.188104464437438 
910	 0.18862100177657 
911	 0.18909881755173 
912	 0.189623507303395 
913	 0.190118550330182 
914	 0.190649702140173 
915	 0.191243691964197 
916	 0.191873757595376 
917	 0.192461208221104 
918	 0.193053313541806 
919	 0.193659552422448 
920	 0.19423351504271 
921	 0.194899021283659 
922	 0.195552232856893 
923	 0.196150799866856 
924	 0.196797696993697 
925	 0.197431827044887 
926	 0.19807448887258 
927	 0.19874721067519 
928	 0.199438997845008 
929	 0.200181240503044 
930	 0.200941419923027 
931	 0.201707311307107 
932	 0.202560969481475 
933	 0.203323322617947 
934	 0.204034483902461 
935	 0.204777371763132 
936	 0.205553828128017 
937	 0.206268059459587 
938	 0.206962311020536 
939	 0.207726937715469 
940	 0.208634071867245 
941	 0.209535424338114 
942	 0.210396752427145 
943	 0.211247209901179 
944	 0.212151405163104 
945	 0.212937800342933 
946	 0.213727084717347 
947	 0.214674994427933 
948	 0.21545341005226 
949	 0.216320571046033 
950	 0.217309980649137 
951	 0.218307642972664 
952	 0.21918324399946 
953	 0.219967955071069 
954	 0.220743319698248 
955	 0.221620919097122 
956	 0.222741318213328 
957	 0.223787768870492 
958	 0.224706830363461 
959	 0.225621401366422 
960	 0.226502893095264 
961	 0.227453819209421 
962	 0.22845002215993 
963	 0.229399104221745 
964	 0.230377254418091 
965	 0.231373059736793 
966	 0.232424779384236 
967	 0.233558441302356 
968	 0.234511293053446 
969	 0.235553599871686 
970	 0.236686806386181 
971	 0.237733814502098 
972	 0.238818083147421 
973	 0.239947368721462 
974	 0.241094975566402 
975	 0.242230208051433 
976	 0.243426161188038 
977	 0.244598712124513 
978	 0.24572847353544 
979	 0.246855121107604 
980	 0.248031617908664 
981	 0.249282058721657 
982	 0.250497211984885 
983	 0.251576964610447 
984	 0.252877791692722 
985	 0.254217170302689 
986	 0.255498642634924 
987	 0.256717203067652 
988	 0.257938297460107 
989	 0.259226437284082 
990	 0.26054472034483 
991	 0.261843283972809 
992	 0.263269711331901 
993	 0.264568186870807 
994	 0.26587245765555 
995	 0.267359217046393 
996	 0.268602809745788 
997	 0.2699645144067 
998	 0.271436730398508 
999	 0.272886117787981 
1000	 0.274337486024051 
1001	 0.278744082757027 
1002	 0.280150066640302 
1003	 0.281538787881111 
1004	 0.282949988013352 
1005	 0.284377451845584 
1006	 0.285799532745591 
1007	 0.28721647810457 
1008	 0.288657993744238 
1009	 0.290079412170811 
1010	 0.291526579497674 
1011	 0.293065573642178 
1012	 0.294599465553864 
1013	 0.296106239665246 
1014	 0.297556667036677 
1015	 0.298920108571101 
1016	 0.300341911327842 
1017	 0.301807179946073 
1018	 0.303303359679961 
1019	 0.304833816638367 
1020	 0.306398812264878 
1021	 0.307853043420244 
1022	 0.309288668471989 
1023	 0.310806978472764 
1024	 0.312272039825959 
1025	 0.313718062959192 
1026	 0.315182962724061 
1027	 0.316572342581278 
1028	 0.317998762796312 
1029	 0.319506266237292 
1030	 0.32103464992404 
1031	 0.322487058438344 
1032	 0.323924871349621 
1033	 0.325270292897004 
1034	 0.326637016586475 
1035	 0.328022055230821 
1036	 0.329457204099006 
1037	 0.330973866013906 
1038	 0.332457399060689 
1039	 0.333891454478357 
1040	 0.335298939348523 
1041	 0.336679292641632 
1042	 0.338066513260811 
1043	 0.339470404406613 
1044	 0.340845846032417 
1045	 0.342214163934607 
1046	 0.343587222023074 
1047	 0.344963596970451 
1048	 0.346317651602698 
1049	 0.347684097085526 
1050	 0.349060640669412 
1051	 0.350448193505094 
1052	 0.351779645782048 
1053	 0.35312370167752 
1054	 0.35449449313121 
1055	 0.355757589197442 
1056	 0.35704524284552 
1057	 0.358361624427575 
1058	 0.359680679682686 
1059	 0.361005834031755 
1060	 0.362380837151874 
1061	 0.363699408027679 
1062	 0.364973448609092 
1063	 0.366209435351309 
1064	 0.367436161204361 
1065	 0.368721903049876 
1066	 0.370028221288495 
1067	 0.371346107475681 
1068	 0.372657935505398 
1069	 0.373898980184626 
1070	 0.375183482022126 
1071	 0.376512825004922 
1072	 0.377772628207294 
1073	 0.379017239768592 
1074	 0.380242014457508 
1075	 0.381424356398572 
1076	 0.382531170120732 
1077	 0.383686706451088 
1078	 0.384839435459355 
1079	 0.386009818440677 
1080	 0.387165638904044 
1081	 0.388325658811484 
1082	 0.389550238401908 
1083	 0.390707184981983 
1084	 0.391838733816493 
1085	 0.392957762579905 
1086	 0.39404050164361 
1087	 0.395100814256412 
1088	 0.396143438131164 
1089	 0.3971791186717 
1090	 0.398180668236955 
1091	 0.399210442338584 
1092	 0.400220601659648 
1093	 0.401210919786076 
1094	 0.402171824368535 
1095	 0.403066479557985 
1096	 0.403949845842921 
1097	 0.404814330564686 
1098	 0.405688803404941 
1099	 0.406593593339545 
1100	 0.407445295691899 
1101	 0.408270882203695 
1102	 0.409089144375784 
1103	 0.409905145012555 
1104	 0.410644623147344 
1105	 0.411394289316113 
1106	 0.41216802227673 
1107	 0.412922448821715 
1108	 0.413667019211226 
1109	 0.414365746174908 
1110	 0.415044908557034 
1111	 0.415715341699573 
1112	 0.416368590189696 
1113	 0.416977865226902 
1114	 0.41755212390076 
1115	 0.418136914260724 
1116	 0.418707603469094 
1117	 0.419246887727399 
1118	 0.419771599254492 
1119	 0.420312070386332 
1120	 0.420838269494636 
1121	 0.421303835320087 
1122	 0.421762803874884 
1123	 0.4222456771928 
1124	 0.42267898204454 
1125	 0.423081246220475 
1126	 0.423429135834382 
1127	 0.423760381970108 
1128	 0.424036752243742 
1129	 0.424258058662594 
1130	 0.424445871302511 
1131	 0.424651344865965 
1132	 0.424729079636852 
1133	 0.424713027226555 
1134	 0.424660874766103 
1135	 0.424549401062408 
1136	 0.424372026045571 
1137	 0.424141620146293 
1138	 0.423855273807803 
1139	 0.423437765371139 
1140	 0.422910922601688 
1141	 0.422313962594447 
1142	 0.421639190248741 
1143	 0.420864102463035 
1144	 0.420009193970679 
1145	 0.419067716613315 
1146	 0.417997133055736 
1147	 0.416924168514699 
1148	 0.415756268416205 
1149	 0.414611534467681 
1150	 0.413436673684752 
1151	 0.412268827284769 
1152	 0.411113963233314 
1153	 0.410033160974053 
1154	 0.409019453774278 
1155	 0.408035765896035 
1156	 0.407167724996725 
1157	 0.40636360096141 
1158	 0.405658373560494 
1159	 0.405042179428474 
1160	 0.404513745258965 
1161	 0.404090847474954 
1162	 0.403704125899627 
1163	 0.403401020934104 
1164	 0.403128090397592 
1165	 0.402885816368144 
1166	 0.402707177918716 
1167	 0.402573205062764 
1168	 0.402474201706395 
1169	 0.402408000460329 
1170	 0.402388214860531 
1171	 0.402375796949828 
1172	 0.402381603667452 
1173	 0.402426763299133 
1174	 0.402483014556309 
1175	 0.402594835848836 
1176	 0.402760354130206 
1177	 0.402941965178975 
1178	 0.403165329419447 
1179	 0.403400864412202 
1180	 0.40365472119938 
1181	 0.403928635188391 
1182	 0.404224367044782 
1183	 0.40454518618635 
1184	 0.404860808516154 
1185	 0.405197323720384 
1186	 0.405518139783402 
1187	 0.405846138110733 
1188	 0.406149671821356 
1189	 0.406452005088958 
1190	 0.40672857931111 
1191	 0.406982507884376 
1192	 0.407228177400556 
1193	 0.407452296325492 
1194	 0.407677984990791 
1195	 0.407892024488938 
1196	 0.408105475789451 
1197	 0.40831086687321 
1198	 0.408523765749089 
1199	 0.408738296097394 
1200	 0.408952261278091 
1201	 0.409167894809134 
1202	 0.409382208100656 
1203	 0.409610887430927 
1204	 0.40985275172457 
1205	 0.41007736918835 
1206	 0.410302124099142 
1207	 0.41053280663259 
1208	 0.410756111100016 
1209	 0.410979160099774 
1210	 0.411234300329974 
1211	 0.411447097953573 
1212	 0.411619697443171 
1213	 0.411807186557164 
1214	 0.411985828826968 
1215	 0.412159257718248 
1216	 0.412331511870159 
1217	 0.412514899943582 
1218	 0.41267731069875 
1219	 0.412823846260319 
1220	 0.412971660988036 
1221	 0.41311738265188 
1222	 0.413252992013828 
1223	 0.413379679371596 
1224	 0.413504818022838 
1225	 0.413619123249249 
1226	 0.41373921056628 
1227	 0.413863864676483 
1228	 0.413980190415554 
1229	 0.414103417461262 
1230	 0.414208409896092 
1231	 0.414290801874814 
1232	 0.4143816028485 
1233	 0.414470435301369 
1234	 0.414553127419021 
1235	 0.414634022963917 
1236	 0.414720090534885 
1237	 0.414797706537272 
1238	 0.41486704537473 
1239	 0.414931972926581 
1240	 0.414992431207762 
1241	 0.415054110545419 
1242	 0.415114833793467 
1243	 0.415165145179135 
1244	 0.415216324866022 
1245	 0.41525906470807 
1246	 0.415278681418492 
1247	 0.415310453779048 
1248	 0.415349402917224 
1249	 0.415379102282532 
1250	 0.41542375826311 
1251	 0.415485360304508 
1252	 0.415503645693065 
1253	 0.415514415861284 
1254	 0.415505838115313 
1255	 0.415462663726455 
1256	 0.415422002320576 
1257	 0.41537999396342 
1258	 0.415320990856159 
1259	 0.415231217780695 
1260	 0.415161602985444 
1261	 0.415090214770428 
1262	 0.415020508819933 
1263	 0.414967513407506 
1264	 0.414898825250501 
1265	 0.414813284765434 
1266	 0.414738240795058 
1267	 0.414682330028148 
1268	 0.414594507825451 
1269	 0.414491058881405 
1270	 0.414387539725932 
1271	 0.414257522790326 
1272	 0.414090239399311 
1273	 0.41392997637954 
1274	 0.413763359932548 
1275	 0.413585855393962 
1276	 0.413395937337203 
1277	 0.413202419170499 
1278	 0.413022630999907 
1279	 0.412797539616155 
1280	 0.41254387728606 
1281	 0.412282374918425 
1282	 0.411983006910391 
1283	 0.411688189357364 
1284	 0.41140561950708 
1285	 0.411091909009712 
1286	 0.410745165339547 
1287	 0.410402885330393 
1288	 0.410063292521334 
1289	 0.409722909921892 
1290	 0.409348658214486 
1291	 0.408968896953032 
1292	 0.408573399004712 
1293	 0.408152342032684 
1294	 0.407708595938072 
1295	 0.407260727408082 
1296	 0.406789487609259 
1297	 0.406285486586362 
1298	 0.405762184664794 
1299	 0.40522724570899 
1300	 0.404675097505197 
1301	 0.404095015778329 
1302	 0.40349318204808 
1303	 0.402870227126159 
1304	 0.402260197768336 
1305	 0.401589692828672 
1306	 0.400885982535114 
1307	 0.400183803770288 
1308	 0.399426616966546 
1309	 0.398653868111722 
1310	 0.39787059956142 
1311	 0.397037386679155 
1312	 0.396174546853409 
1313	 0.395267162487974 
1314	 0.39432287462905 
1315	 0.393336702896605 
1316	 0.392312047793111 
1317	 0.391250813669392 
1318	 0.390164532996947 
1319	 0.389023008295234 
1320	 0.387841740746203 
1321	 0.386620094579412 
1322	 0.385359750575448 
1323	 0.384039705821471 
1324	 0.382724731378232 
1325	 0.381349888586709 
1326	 0.379939757045679 
1327	 0.378529681127273 
1328	 0.37703006100574 
1329	 0.375512241810991 
1330	 0.373964120596022 
1331	 0.372374627584996 
1332	 0.370763609990321 
1333	 0.369130972351211 
1334	 0.367476851834834 
1335	 0.365777214952584 
1336	 0.364103241765616 
1337	 0.362419351547609 
1338	 0.360760366943398 
1339	 0.359110801920327 
1340	 0.35746341614198 
1341	 0.355810263028499 
1342	 0.354190795172128 
1343	 0.352553772078055 
1344	 0.351002173023134 
1345	 0.34947895445779 
1346	 0.347983668459608 
1347	 0.346563681151969 
1348	 0.345166710208466 
1349	 0.343800759898249 
1350	 0.34247159032831 
1351	 0.341175186244005 
1352	 0.33991131705939 
1353	 0.338656507879703 
1354	 0.337429655953523 
1355	 0.336224418332569 
1356	 0.335035159101621 
1357	 0.333846689484268 
1358	 0.332693502303637 
1359	 0.331521763776055 
1360	 0.330340374025223 
1361	 0.329157991463196 
1362	 0.327992392429614 
1363	 0.326805815205884 
1364	 0.325621759696176 
1365	 0.32440525324306 
1366	 0.323178646584836 
1367	 0.321915342695216 
1368	 0.32064605296387 
1369	 0.319342351845085 
1370	 0.317968455064261 
1371	 0.316555498788263 
1372	 0.315075205441205 
1373	 0.313504292856833 
1374	 0.311861169280759 
1375	 0.310169666290223 
1376	 0.308349550951555 
1377	 0.306449144766356 
1378	 0.304399757696265 
1379	 0.3022284165589 
1380	 0.299949148193349 
1381	 0.297559242905263 
1382	 0.295014886596662 
1383	 0.292360043261956 
1384	 0.28957916024853 
1385	 0.286671884905268 
1386	 0.283643782118248 
1387	 0.280507266327012 
1388	 0.277258356418811 
1389	 0.273905316493588 
1390	 0.270377074599844 
1391	 0.266746437899862 
1392	 0.262990725508049 
1393	 0.259139979570576 
1394	 0.255247667067116 
1395	 0.25124771053436 
1396	 0.247240651007108 
1397	 0.243223543523052 
1398	 0.23912857532721 
1399	 0.235077055140879 
1400	 0.23101037423557 
1401	 0.227027548587816 
1402	 0.223021898055114 
1403	 0.2191672936054 
1404	 0.215367122212975 
1405	 0.211754771219922 
1406	 0.208235821203935 
1407	 0.204879886104691 
1408	 0.201658796307065 
1409	 0.198628011905356 
1410	 0.195739144322672 
1411	 0.193042348576228 
1412	 0.190534151396118 
1413	 0.188205674009347 
1414	 0.186045845064239 
1415	 0.183999937063389 
1416	 0.182098108984129 
1417	 0.180321745474851 
1418	 0.178648388757138 
1419	 0.177091344329534 
1420	 0.175626703523427 
1421	 0.174262220790779 
1422	 0.172959396748009 
1423	 0.171704649485699 
1424	 0.170513714111899 
1425	 0.169381530514953 
1426	 0.168318972652452 
1427	 0.167333551323375 
1428	 0.166375126902394 
1429	 0.165483483855009 
1430	 0.16462334483015 
1431	 0.163799791004718 
1432	 0.162997361483763 
1433	 0.162248614978328 
1434	 0.161499942086434 
1435	 0.160764904007145 
1436	 0.160048848892702 
1437	 0.159349534692169 
1438	 0.15867015526213 
1439	 0.158011304171823 
1440	 0.157361234905422 
1441	 0.156722747178683 
1442	 0.15609217666858 
1443	 0.155469572374416 
1444	 0.154873286924725 
1445	 0.1543049030641 
1446	 0.15378659841805 
1447	 0.153320975139381 
1448	 0.152901984955697 
1449	 0.152563540825736 
1450	 0.152301142033743 
1451	 0.152107725048291 
1452	 0.151985085916129 
1453	 0.151937415808097 
1454	 0.151972542022518 
1455	 0.152047175198975 
1456	 0.152209909583839 
1457	 0.152373725140907 
1458	 0.152595666745393 
1459	 0.152793165855637 
1460	 0.153016575887816 
1461	 0.153215554221623 
1462	 0.153416363514108 
1463	 0.153585849332147 
1464	 0.153739847081326 
1465	 0.153871635974559 
1466	 0.153966922928298 
1467	 0.154064583460258 
1468	 0.154138947819321 
1469	 0.154230711561882 
1470	 0.154330109405224 
1471	 0.154415783667521 
1472	 0.154508918346676 
1473	 0.154617388743672 
1474	 0.154717731433656 
1475	 0.154824100085755 
1476	 0.154937987079641 
1477	 0.155039597312151 
1478	 0.15513893747127 
1479	 0.155244999218657 
1480	 0.155369617716736 
1481	 0.155516887982941 
1482	 0.155687012233449 
1483	 0.155892907207793 
1484	 0.156085382835684 
1485	 0.156289268160329 
1486	 0.156497734720863 
1487	 0.156705388007324 
1488	 0.156918251732337 
1489	 0.157150662840112 
1490	 0.157369470409662 
1491	 0.157581012568998 
1492	 0.157799069868282 
1493	 0.15801678540699 
1494	 0.158232913589473 
1495	 0.158460592511945 
1496	 0.158667281545321 
1497	 0.158857845862381 
1498	 0.159058090691682 
1499	 0.15925776641108 
1500	 0.159440363329335 
1501	 0.159630711663864 
1502	 0.159797988169219 
1503	 0.159934327464216 
1504	 0.160076016082442 
1505	 0.160216829698565 
1506	 0.160353963840651 
1507	 0.160482269574945 
1508	 0.160609407755726 
1509	 0.160733313416743 
1510	 0.160844390673766 
1511	 0.160971652891304 
1512	 0.161092111766777 
1513	 0.161207713035386 
1514	 0.16133734483558 
1515	 0.161439115793878 
1516	 0.161552384214789 
1517	 0.161667462283228 
1518	 0.161782337403062 
1519	 0.161882584141154 
1520	 0.161987260649389 
1521	 0.162076284807437 
1522	 0.16213984572499 
1523	 0.162224952102899 
1524	 0.162317955758303 
1525	 0.162408111235512 
1526	 0.162505505401142 
1527	 0.162588976291124 
1528	 0.162667759739215 
1529	 0.162737923795892 
1530	 0.162802956143153 
1531	 0.162856883839001 
1532	 0.162898861613752 
1533	 0.162941751710691 
1534	 0.162971616624157 
1535	 0.163008689116347 
1536	 0.163045853774949 
1537	 0.163084964712191 
1538	 0.163128382090411 
1539	 0.163166474322828 
1540	 0.163206275724302 
1541	 0.163245439070275 
1542	 0.163288184929206 
1543	 0.163314746892643 
1544	 0.163326721760961 
1545	 0.163346215829501 
1546	 0.163357186858565 
1547	 0.163375262012708 
1548	 0.163381348684076 
1549	 0.163386078149351 
1550	 0.163407892052747 
1551	 0.163413159590525 
1552	 0.163418948761763 
1553	 0.16344165465074 
1554	 0.163437772853135 
1555	 0.163418667710123 
1556	 0.163406143722089 
1557	 0.163391957211783 
1558	 0.163369424376872 
1559	 0.163340278404388 
1560	 0.163318778285024 
1561	 0.163302968039153 
1562	 0.163281260272018 
1563	 0.163260575169795 
1564	 0.163238076510883 
1565	 0.163215678264867 
1566	 0.163184330763234 
1567	 0.163147169151285 
1568	 0.163109399062457 
1569	 0.163064191187405 
1570	 0.163024357319975 
1571	 0.162987628060503 
1572	 0.162946997999076 
1573	 0.162903479582887 
1574	 0.162861679134674 
1575	 0.162821616231886 
1576	 0.162777053701629 
1577	 0.162736178847284 
1578	 0.162682248246846 
1579	 0.162619625821252 
1580	 0.162554539747622 
1581	 0.162473368609792 
1582	 0.162409428817362 
1583	 0.162352966724364 
1584	 0.162291622369161 
1585	 0.162246025134924 
1586	 0.162178091636524 
1587	 0.162100034656704 
1588	 0.162011607908198 
1589	 0.161902267287898 
1590	 0.161799922791847 
1591	 0.16168041833267 
1592	 0.161584786243231 
1593	 0.16150597650542 
1594	 0.16142323132116 
1595	 0.161371519191013 
1596	 0.161281916517978 
1597	 0.161160132151855 
1598	 0.161052541625643 
1599	 0.160938128403177 
1600	 0.160813389533699 
1601	 0.160688259568035 
1602	 0.160566592746177 
1603	 0.160430898199426 
1604	 0.160299457666715 
1605	 0.160182862059126 
1606	 0.160056469827819 
1607	 0.159929793606417 
1608	 0.159785486659398 
1609	 0.159627226475699 
1610	 0.159486135450581 
1611	 0.15933419097172 
1612	 0.159166073719838 
1613	 0.159002916240787 
1614	 0.158835651696271 
1615	 0.158645265559271 
1616	 0.158470885899321 
1617	 0.158318241604334 
1618	 0.158147531724568 
1619	 0.157993178536614 
1620	 0.157840315453004 
1621	 0.157663906556137 
1622	 0.157466795192195 
1623	 0.157287836214943 
1624	 0.157107764589873 
1625	 0.156917197747265 
1626	 0.156730390214676 
1627	 0.156537273656974 
1628	 0.156326380684791 
1629	 0.15612670333046 
1630	 0.155931419254312 
1631	 0.1557449253856 
1632	 0.155561514545446 
1633	 0.155375433447248 
1634	 0.155200064099988 
1635	 0.155016893751707 
1636	 0.154829790416595 
1637	 0.154629906129296 
1638	 0.154423891586449 
1639	 0.154224241247572 
1640	 0.154014790281342 
1641	 0.153807368226093 
1642	 0.153606848718612 
1643	 0.15340558689586 
1644	 0.153195193099328 
1645	 0.152991651887926 
1646	 0.152803748691487 
1647	 0.152598639041966 
1648	 0.152378069558687 
1649	 0.152172468634249 
1650	 0.151968168912987 
1651	 0.151765950342149 
1652	 0.151578782450541 
1653	 0.151370397604438 
1654	 0.151149612594921 
1655	 0.150934037950561 
1656	 0.150703789515883 
1657	 0.150493226029977 
1658	 0.150296643545427 
1659	 0.150092878719921 
1660	 0.149904322790956 
1661	 0.14968850558066 
1662	 0.149463608620075 
1663	 0.149222187877662 
1664	 0.148932700572342 
1665	 0.148706269018832 
1666	 0.14849343380403 
1667	 0.14829563331516 
1668	 0.148162093168405 
1669	 0.147969751529678 
1670	 0.147751701394364 
1671	 0.147539682971359 
1672	 0.147299932983694 
1673	 0.147090118584721 
1674	 0.146897920502942 
1675	 0.146699991327893 
1676	 0.146516679805768 
1677	 0.146317866333131 
1678	 0.146106992813787 
1679	 0.145905113131293 
1680	 0.145698827493834 
1681	 0.145500290215509 
1682	 0.145304298317435 
1683	 0.145119618453579 
1684	 0.144941228690591 
1685	 0.14476974916224 
1686	 0.14462834824727 
1687	 0.144445354943465 
1688	 0.144244792912084 
1689	 0.144046546377536 
1690	 0.143817289759852 
1691	 0.143614866205433 
1692	 0.143429588919732 
1693	 0.143239948992643 
1694	 0.143054352344841 
1695	 0.142869763125217 
1696	 0.14268908807625 
1697	 0.14250631673968 
1698	 0.142321253945609 
1699	 0.14214246759817 
1700	 0.141973036535735 
1701	 0.141788039297798 
1702	 0.14159323765993 
1703	 0.141412682264086 
1704	 0.141222906792046 
1705	 0.141049213253401 
1706	 0.140908602595322 
1707	 0.140733385029751 
1708	 0.140539530313111 
1709	 0.140361764469198 
1710	 0.140178247216248 
1711	 0.139995797424955 
1712	 0.139820667014747 
1713	 0.139648478494103 
1714	 0.139470393300735 
1715	 0.139294601329528 
1716	 0.139135995264169 
1717	 0.13895984367886 
1718	 0.13876733917208 
1719	 0.138585390661268 
1720	 0.138394220663276 
1721	 0.138227650818385 
1722	 0.138073259097101 
1723	 0.137926184622667 
1724	 0.137809019064196 
1725	 0.137659970612561 
1726	 0.137489547872659 
1727	 0.137343585473284 
1728	 0.137199171532627 
1729	 0.13705766618 
1730	 0.136944263347366 
1731	 0.136795300239963 
1732	 0.136628671511055 
1733	 0.136448281403319 
1734	 0.13622884178051 
1735	 0.136070601618054 
1736	 0.13592585660696 
1737	 0.135787308104831 
1738	 0.135695747112961 
1739	 0.135564986063394 
1740	 0.135403589618437 
1741	 0.135278666546342 
1742	 0.135173885517924 
1743	 0.135049930824805 
1744	 0.134935294206281 
1745	 0.134799114467158 
1746	 0.134638043398072 
1747	 0.134484797423602 
1748	 0.134341556811758 
1749	 0.134179885777235 
1750	 0.134015048873551 
1751	 0.133877648592434 
1752	 0.133742445098976 
1753	 0.133619323719525 
1754	 0.133510669683849 
1755	 0.133357796387607 
1756	 0.133192042122125 
1757	 0.133054668310154 
1758	 0.132914981015565 
1759	 0.13279350081418 
1760	 0.132701654975333 
1761	 0.132600213228952 
1762	 0.132484120568521 
1763	 0.132373925910549 
1764	 0.13225962219811 
1765	 0.132124508948806 
1766	 0.131996483735849 
1767	 0.131887244251071 
1768	 0.131765410372657 
1769	 0.131648751482546 
1770	 0.131543044851721 
1771	 0.131424064023302 
1772	 0.131310206323148 
1773	 0.13121239244009 
1774	 0.131127341271283 
1775	 0.131029238551559 
1776	 0.130931468182968 
1777	 0.130848245660014 
1778	 0.130757970591452 
1779	 0.130665502663979 
1780	 0.130587507394933 
1781	 0.130517201057428 
1782	 0.130416085772386 
1783	 0.130332045529701 
1784	 0.130253380204317 
1785	 0.130182323964286 
1786	 0.130098715251031 
1787	 0.130003460301388 
1788	 0.129931178181201 
1789	 0.129848480176865 
1790	 0.129777409794095 
1791	 0.129738644609465 
1792	 0.129679116953887 
1793	 0.129608676248321 
1794	 0.129546116480275 
1795	 0.12949155543417 
1796	 0.12944492097453 
1797	 0.129388840318204 
1798	 0.129343355036376 
1799	 0.129314450317872 
1800	 0.129271750402459 
1801	 0.129293489097088 
1802	 0.129257987724381 
1803	 0.129235066258657 
1804	 0.129221519964716 
1805	 0.129213927221171 
1806	 0.129203556525917 
1807	 0.129191852163952 
1808	 0.129192441335255 
1809	 0.129199778931233 
1810	 0.129197752492116 
1811	 0.129206860323438 
1812	 0.129207981069464 
1813	 0.129193836647618 
1814	 0.129175193945571 
1815	 0.129127678783789 
1816	 0.129087403983937 
1817	 0.129049944710802 
1818	 0.128989434542057 
1819	 0.12895409270556 
1820	 0.128941370046264 
1821	 0.128918379062672 
1822	 0.128887486837896 
1823	 0.128869044242761 
1824	 0.128854053883234 
1825	 0.128828404863957 
1826	 0.128784567336233 
1827	 0.128735702547438 
1828	 0.128689180739483 
1829	 0.128631296173221 
1830	 0.128568127394869 
1831	 0.128502385982965 
1832	 0.128450166193755 
1833	 0.12838165024224 
1834	 0.128320730433386 
1835	 0.128293440804179 
1836	 0.128257082950223 
1837	 0.128198656631773 
1838	 0.128139124511474 
1839	 0.128077236474924 
1840	 0.128013468694277 
1841	 0.12793136870661 
1842	 0.127834163148543 
1843	 0.127741671407685 
1844	 0.127655688277244 
1845	 0.127536514143609 
1846	 0.127402898476664 
1847	 0.127281646752167 
1848	 0.1271229827925 
1849	 0.12696223702343 
1850	 0.126802031680713 
1851	 0.126655285192309 
1852	 0.126477134775729 
1853	 0.126296597128527 
1854	 0.126099833174379 
1855	 0.125881731559211 
1856	 0.125642422102022 
1857	 0.125383657458441 
1858	 0.125103534819654 
1859	 0.12478195471254 
1860	 0.124452807058095 
1861	 0.124103757203731 
1862	 0.123744698286946 
1863	 0.123380955646298 
1864	 0.123006274807835 
1865	 0.122606846866777 
1866	 0.122158829428764 
1867	 0.121645597609583 
1868	 0.12111917811978 
1869	 0.120563500287764 
1870	 0.119944490288755 
1871	 0.119292305865724 
1872	 0.118603767190227 
1873	 0.117879195577321 
1874	 0.117127694497009 
1875	 0.116362520591644 
1876	 0.115563599047411 
1877	 0.114717456358949 
1878	 0.113816565569188 
1879	 0.112846340756222 
1880	 0.11184413648756 
1881	 0.110792601371772 
1882	 0.109714585313966 
1883	 0.108597335809292 
1884	 0.107434984155935 
1885	 0.106245480361631 
1886	 0.105007855030872 
1887	 0.103701206997613 
1888	 0.102378432848234 
1889	 0.101024275987749 
1890	 9.96293099013668E-02 
1891	 9.82390100937779E-02 
1892	 9.68084984945503E-02 
1893	 9.54097033684732E-02 
1894	 9.40115686076691E-02 
1895	 9.26296396590644E-02 
1896	 9.12422366267541E-02 
1897	 8.99069147877019E-02 
1898	 8.85629383801923E-02 
1899	 8.72381602962024E-02 
1900	 8.59910099645191E-02 
1901	 8.47646078740851E-02 
1902	 8.36182872996046E-02 
1903	 8.25514507835122E-02 
1904	 8.15377597129268E-02 
1905	 8.05773808385347E-02 
1906	 7.96882100664753E-02 
1907	 7.88645740258981E-02 
1908	 7.80915883999833E-02 
1909	 7.73744167619913E-02 
1910	 7.67149553097993E-02 
1911	 7.61070753666521E-02 
1912	 7.55382354913164E-02 
1913	 7.50099803730896E-02 
1914	 7.45389086083583E-02 
1915	 7.40832456364364E-02 
1916	 7.36671025790566E-02 
1917	 7.32701127638224E-02 
1918	 7.28796728522255E-02 
1919	 0.072502197050672 
1920	 7.21464164698959E-02 
1921	 7.18166976960791E-02 
1922	 7.15278405782522E-02 
1923	 7.12575469147214E-02 
1924	 7.09973025950746E-02 
1925	 7.07516411862549E-02 
1926	 0.070532654206712 
1927	 7.03230857077376E-02 
1928	 7.01425866009664E-02 
1929	 6.99990147185931E-02 
1930	 6.98762172182421E-02 
1931	 6.97801570709149E-02 
1932	 6.96946138438683E-02 
1933	 6.96219479777904E-02 
1934	 6.95732595325554E-02 
1935	 6.95250355379971E-02 
1936	 6.94753338662076E-02 
1937	 6.94511902028781E-02 
1938	 6.94396702545014E-02 
1939	 6.94440334943243E-02 
1940	 6.94656037907923E-02 
1941	 6.94952786824433E-02 
1942	 0.069562553783981 
1943	 6.96431084069493E-02 
1944	 6.97314285474279E-02 
1945	 6.98687991181595E-02 
1946	 6.99971251401214E-02 
1947	 7.01273417669653E-02 
1948	 7.02759751774008E-02 
1949	 7.04450319825845E-02 
1950	 7.06094739788041E-02 
1951	 7.07865564338946E-02 
1952	 7.09627407859574E-02 
1953	 7.11357473208029E-02 
1954	 7.13113162191957E-02 
1955	 7.14858027011951E-02 
1956	 7.16741697845735E-02 
1957	 0.071847383295405 
1958	 7.20194264464562E-02 
1959	 7.21801880942591E-02 
1960	 7.23263633480158E-02 
1961	 7.24766111736379E-02 
1962	 7.26244861007558E-02 
1963	 7.27726919756422E-02 
1964	 7.29116655382894E-02 
1965	 7.30610689567453E-02 
1966	 7.32305377516232E-02 
1967	 7.33908430463592E-02 
1968	 7.35581520947013E-02 
1969	 7.37452496253077E-02 
1970	 7.39132227254629E-02 
1971	 7.40684229030969E-02 
1972	 0.07423053846948 
1973	 7.43847594452868E-02 
1974	 7.45542371446289E-02 
1975	 7.47276828482096E-02 
1976	 7.49128468972348E-02 
1977	 7.51053496490527E-02 
1978	 0.075283553585609 
1979	 7.54728001470383E-02 
1980	 7.56699161638759E-02 
1981	 7.58701934501575E-02 
1982	 7.60884206000073E-02 
1983	 7.62948586717424E-02 
1984	 7.64998483393888E-02 
1985	 7.66993951080549E-02 
1986	 7.68886454560152E-02 
1987	 7.70816475262741E-02 
1988	 7.72673339959532E-02 
1989	 7.74686117823106E-02 
1990	 7.76658728134475E-02 
1991	 7.78749490954528E-02 
1992	 7.80721333011113E-02 
1993	 7.82742185467215E-02 
1994	 7.84546689769632E-02 
1995	 7.86047746852109E-02 
1996	 7.87910632085338E-02 
1997	 7.89837684781644E-02 
1998	 7.91759267743303E-02 
1999	 7.93970980001554E-02 
2000	 7.96003138655736E-02 
2001	 7.97947205776097E-02 
2002	 0.079974304665701 
2003	 8.01659933194599E-02 
2004	 8.03528734004348E-02 
2005	 8.05419226656074E-02 
2006	 8.07415476284711E-02 
2007	 8.09157099249717E-02 
2008	 8.10706738864278E-02 
2009	 8.12411791527656E-02 
2010	 8.13893088388856E-02 
2011	 8.15629335554782E-02 
2012	 0.081771200350903 
2013	 8.19617850227638E-02 
2014	 8.21521484588296E-02 
2015	 8.23409641499613E-02 
2016	 0.082525098283256 
2017	 8.27014612375418E-02 
2018	 8.28840199316398E-02 
2019	 8.30699992166133E-02 
2020	 8.32530762168894E-02 
2021	 8.34345427784232E-02 
2022	 8.36195722778391E-02 
2023	 8.38022100982759E-02 
2024	 8.39886433606093E-02 
2025	 8.41896620781362E-02 
2026	 8.43731044091244E-02 
2027	 8.45556425589951E-02 
2028	 8.47294866705472E-02 
2029	 8.48840231060602E-02 
2030	 0.085009473262246 
2031	 8.51670354445335E-02 
2032	 8.53167324396073E-02 
2033	 8.54877091952381E-02 
2034	 8.56952655786284E-02 
2035	 8.58714380842872E-02 
2036	 0.086044746951942 
2037	 8.62100065082121E-02 
2038	 8.63545659611558E-02 
2039	 8.65101681972184E-02 
2040	 8.66776939048158E-02 
2041	 8.68226336044815E-02 
2042	 8.69680179707086E-02 
2043	 8.71221535178201E-02 
2044	 8.72748252838461E-02 
2045	 8.74174395124602E-02 
2046	 0.08757907537855 
2047	 0.087756257147853 
2048	 8.79249665269624E-02 
2049	 0.088118746627929 
2050	 0.088271589297826 
2051	 8.83891355264722E-02 
2052	 8.85291564273202E-02 
2053	 8.86479959991571E-02 
2054	 8.87821530223105E-02 
2055	 8.89477738624351E-02 
2056	 8.90982554646132E-02 
2057	 8.92458479906688E-02 
2058	 8.93934314310653E-02 
2059	 8.95302432471936E-02 
2060	 8.96502805218932E-02 
2061	 8.97915399003088E-02 
2062	 8.99387200754407E-02 
2063	 9.00759422203425E-02 
2064	 9.02258744088297E-02 
2065	 9.03632140402298E-02 
2066	 9.04760530002091E-02 
2067	 0.090604174792442 
2068	 9.07439749353711E-02 
2069	 9.08774711223143E-02 
2070	 0.09100520623106 
2071	 9.11325564006995E-02 
2072	 9.12556938984729E-02 
2073	 9.13659516805241E-02 
2074	 9.14917735997083E-02 
2075	 9.16268907792269E-02 
2076	 9.17550524495597E-02 
2077	 9.18840605673421E-02 
2078	 9.20140452826699E-02 
2079	 0.092153175597312 
2080	 0.09227150989447 
2081	 9.23774428694374E-02 
2082	 9.24892301864708E-02 
2083	 9.25937498662539E-02 
2084	 9.26820244948108E-02 
2085	 9.27932163781565E-02 
2086	 9.29148459568123E-02 
2087	 9.30470604529154E-02 
2088	 9.31990962681567E-02 
2089	 0.093326176110621 
2090	 9.34648040101316E-02 
2091	 9.35793622404267E-02 
2092	 9.36566855586945E-02 
2093	 9.37566758004168E-02 
2094	 9.38566624046041E-02 
2095	 9.39595708199466E-02 
2096	 9.40682824674428E-02 
2097	 9.41793479878824E-02 
2098	 9.42851334722369E-02 
2099	 9.44091386472201E-02 
2100	 9.45255148927682E-02 
2101	 9.46495800301053E-02 
2102	 9.47586522648799E-02 
2103	 0.09485606176077 
2104	 0.094966069212073 
2105	 9.50717027521807E-02 
2106	 9.51864734252812E-02 
2107	 9.53182823853822E-02 
2108	 9.54373617008965E-02 
2109	 9.55411379799911E-02 
2110	 9.56638972043248E-02 
2111	 9.57951342339021E-02 
2112	 9.59265344596154E-02 
2113	 0.096071632205776 
2114	 9.62236840694609E-02 
2115	 9.63422675837092E-02 
2116	 9.64389939277234E-02 
2117	 9.65521813876031E-02 
2118	 9.66532536489947E-02 
2119	 9.67607287381123E-02 
2120	 9.68828677732748E-02 
2121	 9.69915604263324E-02 
2122	 9.70891114986167E-02 
2123	 9.71879620608763E-02 
2124	 0.09728283353032 
2125	 9.73827892713215E-02 
2126	 9.74863695236509E-02 
2127	 9.75825575878481E-02 
2128	 9.76788955941384E-02 
2129	 9.77739660729194E-02 
2130	 9.78737645449259E-02 
2131	 9.79525472503517E-02 
2132	 9.80269334086465E-02 
2133	 9.80988129533907E-02 
2134	 9.81642027151945E-02 
2135	 9.82102860925978E-02 
2136	 9.82673507210974E-02 
2137	 9.83389887966277E-02 
2138	 9.83841943857354E-02 
2139	 9.84119493515637E-02 
2140	 9.84456405913338E-02 
2141	 0.098465783863297 
2142	 9.84889963027772E-02 
2143	 0.098526388373714 
2144	 9.85482269272688E-02 
2145	 0.098556011455497 
2146	 9.85641537191037E-02 
2147	 9.85693616873652E-02 
2148	 9.85602607384435E-02 
2149	 9.85642837732568E-02 
2150	 9.85739665640097E-02 
2151	 9.85730936773048E-02 
2152	 0.098568779638649 
2153	 9.85710702128594E-02 
2154	 9.85711147102109E-02 
2155	 9.85688596117422E-02 
2156	 9.85805866325975E-02 
2157	 9.85715166163923E-02 
2158	 9.85485528178396E-02 
2159	 9.85221731886668E-02 
2160	 9.84797796811644E-02 
2161	 9.84471402875636E-02 
2162	 9.84220410770001E-02 
2163	 9.83820526099421E-02 
2164	 9.83479996206202E-02 
2165	 9.82879227669498E-02 
2166	 9.82409608024128E-02 
2167	 0.098187440733917 
2168	 9.81283924695431E-02 
2169	 9.80568066177137E-02 
2170	 9.80217985342488E-02 
2171	 9.79876631220605E-02 
2172	 9.79659581704841E-02 
2173	 9.79997663805618E-02 
2174	 9.79856862908545E-02 
2175	 9.79502324265556E-02 
2176	 9.79122918636165E-02 
2177	 9.78701700596317E-02 
2178	 9.78041036296368E-02 
2179	 0.097697045568339 
2180	 9.76228285725519E-02 
2181	 9.75343501612518E-02 
2182	 9.74698988826484E-02 
2183	 9.74451860225794E-02 
2184	 9.74286863335109E-02 
2185	 9.73790819234843E-02 
2186	 9.73226510948821E-02 
2187	 0.097258901747474 
2188	 9.71616690525924E-02 
2189	 9.70977034989636E-02 
2190	 9.70424065669849E-02 
2191	 9.69954246987792E-02 
2192	 9.69644598179888E-02 
2193	 9.69317425336489E-02 
2194	 9.69121750474756E-02 
2195	 9.68797852792968E-02 
2196	 9.68434032249208E-02 
2197	 9.68047145052865E-02 
2198	 0.096754941339287 
2199	 9.67124632630582E-02 
2200	 9.66724126057332E-02 
2201	 9.66367186126043E-02 
2202	 9.66081953778868E-02 
2203	 9.65817183312244E-02 
2204	 0.096535124505381 
2205	 9.64794351794292E-02 
2206	 9.64270344088192E-02 
2207	 9.63533415208852E-02 
2208	 9.63054822241811E-02 
2209	 9.62739005605246E-02 
2210	 9.62399347260862E-02 
2211	 9.62133734122037E-02 
2212	 9.61847349104856E-02 
2213	 9.61489081310401E-02 
2214	 9.61326824729237E-02 
2215	 9.61431938588823E-02 
2216	 9.61254401808933E-02 
2217	 9.61107194822084E-02 
2218	 9.60843339428107E-02 
2219	 9.60099366145345E-02 
2220	 9.59749511302413E-02 
2221	 9.59532475595993E-02 
2222	 9.59572409915601E-02 
2223	 9.59497941371526E-02 
2224	 9.59261625218669E-02 
2225	 0.095906222538178 
2226	 0.095869794947602 
2227	 9.58426836560562E-02 
2228	 9.58247772300793E-02 
2229	 9.58027712039981E-02 
2230	 9.57713919661661E-02 
2231	 9.57476783109409E-02 
2232	 9.57318745437221E-02 
2233	 9.57140855041356E-02 
2234	 9.56875783687354E-02 
2235	 9.56787826836941E-02 
2236	 9.56946825199504E-02 
2237	 9.56816847844428E-02 
2238	 9.56730749848804E-02 
2239	 9.56498854825319E-02 
2240	 9.55959312797495E-02 
2241	 9.55496333331603E-02 
2242	 9.54983658965636E-02 
2243	 9.54490381218618E-02 
2244	 9.53900618326728E-02 
2245	 9.53439072552952E-02 
2246	 9.53154482184751E-02 
2247	 9.52941477349774E-02 
2248	 9.52559765983978E-02 
2249	 9.52227766515277E-02 
2250	 9.51818572389905E-02 
2251	 9.51203534404906E-02 
2252	 9.50750341082222E-02 
2253	 9.50416869176511E-02 
2254	 9.49912617939759E-02 
2255	 9.49228928695848E-02 
2256	 9.48835902086655E-02 
2257	 9.48608399282054E-02 
2258	 9.48232220035814E-02 
2259	 9.48007586233304E-02 
2260	 9.47676856998111E-02 
2261	 9.47156980585357E-02 
2262	 9.46615077352985E-02 
2263	 9.46144423546643E-02 
2264	 9.45535182463598E-02 
2265	 9.44863761098942E-02 
2266	 9.44006425938631E-02 
2267	 9.42627748402231E-02 
2268	 9.41869396562143E-02 
2269	 9.41551348516403E-02 
2270	 9.40835608050648E-02 
2271	 9.40386582029282E-02 
2272	 9.39616813200794E-02 
2273	 9.38049924479787E-02 
2274	 9.36666895469936E-02 
2275	 9.35529522648456E-02 
2276	 9.34658460834678E-02 
2277	 0.093358062933735 
2278	 9.32520349773762E-02 
2279	 9.31479688491218E-02 
2280	 0.093042535824399 
2281	 9.29217371909623E-02 
2282	 9.27993211838851E-02 
2283	 9.26787184629731E-02 
2284	 9.25302254158281E-02 
2285	 0.092415907743442 
2286	 9.23456378084355E-02 
2287	 9.22299522728793E-02 
2288	 9.20832179009589E-02 
2289	 9.19725776356926E-02 
2290	 9.18686301270458E-02 
2291	 9.17520020352444E-02 
2292	 9.16747868121215E-02 
2293	 9.15612701278352E-02 
2294	 9.13822276412786E-02 
2295	 9.12427339795963E-02 
2296	 9.11215329690914E-02 
2297	 9.09809213695725E-02 
2298	 9.09029444406002E-02 
2299	 9.08202603091589E-02 
2300	 9.07032835295816E-02 
2301	 9.06056646148728E-02 
2302	 9.04806513856667E-02 
2303	 9.03504412931961E-02 
2304	 9.02352406739667E-02 
2305	 9.01156571136732E-02 
2306	 8.99659083919009E-02 
2307	 0.089770320119543 
2308	 8.96255348499745E-02 
2309	 8.94999280669607E-02 
2310	 8.93357369837214E-02 
2311	 8.91898833475795E-02 
2312	 8.90135064808303E-02 
2313	 8.87631642069813E-02 
2314	 8.85798647699458E-02 
2315	 8.84415934050163E-02 
2316	 8.82690073573181E-02 
2317	 8.80906759548914E-02 
2318	 8.79297482082306E-02 
2319	 8.77475261890756E-02 
2320	 8.75980519572035E-02 
2321	 8.75247372082755E-02 
2322	 8.73777642752117E-02 
2323	 8.71731341628444E-02 
2324	 8.70141516876853E-02 
2325	 8.68470274371351E-02 
2326	 8.66722180088821E-02 
2327	 8.65175538294192E-02 
2328	 8.63886427416578E-02 
2329	 8.61929291900365E-02 
2330	 8.60061623072143E-02 
2331	 8.58552506593131E-02 
2332	 8.57059582445754E-02 
2333	 8.55563800284575E-02 
2334	 8.54098976276819E-02 
2335	 8.52601793033654E-02 
2336	 8.51024042683948E-02 
2337	 8.49628019346334E-02 
2338	 8.48075515456582E-02 
2339	 8.46411098624696E-02 
2340	 0.084474826584942 
2341	 8.42692595925016E-02 
2342	 8.40714711636325E-02 
2343	 8.38976274675464E-02 
2344	 8.37042377360547E-02 
2345	 8.35142533780814E-02 
2346	 8.33349295956082E-02 
2347	 8.31546779781754E-02 
2348	 8.29902557005053E-02 
2349	 0.08277918840903 
2350	 8.25348904978057E-02 
2351	 8.23129623069352E-02 
2352	 0.08204737084241 
2353	 8.18193957706881E-02 
2354	 8.16547487172471E-02 
2355	 0.08144901195997 
2356	 8.12463284335026E-02 
2357	 0.080999306195181 
2358	 8.06746724597109E-02 
2359	 8.04514343564675E-02 
2360	 8.02603089692099E-02 
2361	 8.00429285323813E-02 
2362	 7.99026335687888E-02 
2363	 7.96911256364319E-02 
2364	 7.93553111286902E-02 
2365	 7.91280304418422E-02 
2366	 7.89790737769947E-02 
2367	 7.87946522200959E-02 
2368	 7.86725981297581E-02 
2369	 7.84755017013016E-02 
2370	 7.82244836451186E-02 
2371	 7.79299553954647E-02 
2372	 7.76583311261795E-02 
2373	 7.74090567077366E-02 
2374	 7.72544066014496E-02 
2375	 7.71008845894458E-02 
2376	 7.69118793985221E-02 
2377	 7.67515614062433E-02 
2378	 7.65129400994438E-02 
2379	 7.62293252032308E-02 
2380	 7.60185731813879E-02 
2381	 7.58014401131289E-02 
2382	 7.55604503129516E-02 
2383	 7.53863654369378E-02 
2384	 0.075178038371562 
2385	 7.48844721414586E-02 
2386	 7.46377333187256E-02 
2387	 7.44084335532143E-02 
2388	 0.074143614521975 
2389	 7.39367135627231E-02 
2390	 7.37657839577827E-02 
2391	 7.35748397582217E-02 
2392	 7.33740602913891E-02 
2393	 7.31943897430928E-02 
2394	 7.30743534805374E-02 
2395	 0.072921235636183 
2396	 7.27309929842493E-02 
2397	 7.25810805700076E-02 
2398	 7.23910621434215E-02 
2399	 7.21553243048923E-02 
2400	 7.19954919005724E-02 
2401	 7.18190493918205E-02 
2402	 7.15318561139331E-02 
2403	 7.13169999648998E-02 
2404	 7.11695704911949E-02 
2405	 7.10041730519161E-02 
2406	 7.08743119290997E-02 
2407	 0.070749548079058 
2408	 7.05482038500381E-02 
2409	 7.02584783405932E-02 
2410	 0.07006324240925 
2411	 6.99522134781221E-02 
2412	 6.97873814361745E-02 
2413	 6.96688590373651E-02 
2414	 6.95334194656198E-02 
2415	 6.93024620084669E-02 
2416	 0.069145068220447 
2417	 6.90366327058936E-02 
2418	 6.88797951486492E-02 
2419	 6.87340464817925E-02 
2420	 6.86125557755236E-02 
2421	 6.84707984410236E-02 
2422	 6.83599680100243E-02 
2423	 6.83302677968182E-02 
2424	 6.81530461851708E-02 
2425	 6.78766936173648E-02 
2426	 6.76741201719343E-02 
2427	 6.73829223140178E-02 
2428	 0.067246702501504 
2429	 6.72823294256684E-02 
2430	 6.71632580319559E-02 
2431	 6.70367595454167E-02 
2432	 6.68755626644739E-02 
2433	 0.066611447206338 
2434	 0.066406117609606 
2435	 6.62381850868557E-02 
2436	 6.61000948014759E-02 
2437	 0.065974348862573 
2438	 6.58382976390405E-02 
2439	 0.065725457015376 
2440	 6.55573068752529E-02 
2441	 6.54056706953134E-02 
2442	 0.065165514719552 
2443	 6.48198132291354E-02 
2444	 6.45764246843112E-02 
2445	 6.42499134698524E-02 
2446	 6.40811534794471E-02 
2447	 6.40958326698178E-02 
2448	 6.39926559788035E-02 
2449	 6.39309964264699E-02 
2450	 6.38155252485272E-02 
2451	 6.36430121442312E-02 
2452	 6.34588970250939E-02 
2453	 6.32593907237612E-02 
2454	 6.30219384038406E-02 
2455	 6.27149833229607E-02 
2456	 6.24455625825389E-02 
2457	 6.21730740364231E-02 
2458	 6.19526216233954E-02 
2459	 6.17749342719504E-02 
2460	 6.15267551270979E-02 
2461	 0.061224014434171 
2462	 0.061031206720809 
2463	 6.08798206034794E-02 
2464	 6.06743967238969E-02 
2465	 6.05708015925119E-02 
2466	 6.03789426245364E-02 
2467	 5.99956947697075E-02 
2468	 5.98900717009377E-02 
2469	 5.99958817024726E-02 
2470	 6.00510247945103E-02 
2471	 5.98282477810811E-02 
2472	 5.95516921392292E-02 
2473	 5.94241894368138E-02 
2474	 5.92341502199398E-02 
2475	 5.92373999324955E-02 
2476	 0.059260241686879 
2477	 5.89336509542671E-02 
2478	 0.058668945914407 
2479	 5.85769935276784E-02 
2480	 5.84442488021096E-02 
2481	 0.058301071731993 
2482	 0.058188115363227 
2483	 0.057966129692393 
2484	 5.78230353784611E-02 
2485	 5.78430471729749E-02 
2486	 5.77190432477832E-02 
2487	 5.76919110848703E-02 
2488	 5.76518279321417E-02 
2489	 5.74239429261119E-02 
2490	 5.74170256374782E-02 
2491	 5.74231944769259E-02 
2492	 5.71221718113511E-02 
2493	 5.69716520176576E-02 
2494	 0.056931397993803 
2495	 5.68529153774483E-02 
2496	 5.71638569018907E-02 
2497	 5.74367953703425E-02 
2498	 0.057295170574716 
2499	 5.70467661214446E-02 
2500	 5.67783919499444E-02 
