Wavelength	mm1200004.asd
350	 3.89762447539334E-02 
351	 0.034264461001714 
352	 0.031801880413802 
353	 3.44012611958979E-02 
354	 0.035730652722036 
355	 3.08127883447684E-02 
356	 2.50276783027407E-02 
357	 2.57305000154056E-02 
358	 3.99566195630804E-02 
359	 3.80166633163233E-02 
360	 2.60462463359427E-02 
361	 3.06007635350021E-02 
362	 2.87115201674867E-02 
363	 2.87732452872118E-02 
364	 3.36927209495771E-02 
365	 3.22932874626577E-02 
366	 0.029643175066525 
367	 2.67031526085033E-02 
368	 2.46018302255305E-02 
369	 2.96481292371663E-02 
370	 3.31952602032367E-02 
371	 0.032721864047171 
372	 3.07197299266417E-02 
373	 3.17657072066831E-02 
374	 0.033960315150079 
375	 3.48202588280768E-02 
376	 3.21421416576235E-02 
377	 3.33128667056396E-02 
378	 3.50025839273302E-02 
379	 3.31112243070507E-02 
380	 3.53665863239175E-02 
381	 3.53981795909881E-02 
382	 0.034158306610267 
383	 3.76948000677439E-02 
384	 4.00663487396416E-02 
385	 3.97030196757843E-02 
386	 3.79515359257448E-02 
387	 4.04033331527697E-02 
388	 4.26272077928825E-02 
389	 4.33464114662457E-02 
390	 4.26223195889935E-02 
391	 4.13952490446152E-02 
392	 4.25396766503822E-02 
393	 4.59933377577463E-02 
394	 4.90563230592989E-02 
395	 4.82398390284075E-02 
396	 4.75199136025971E-02 
397	 4.93456268677584E-02 
398	 5.01529115700175E-02 
399	 5.20431654241383E-02 
400	 5.45957562362402E-02 
401	 5.65885031909353E-02 
402	 0.057897365025999 
403	 5.78800890082061E-02 
404	 5.71717430008251E-02 
405	 5.75993759738032E-02 
406	 5.91144575143854E-02 
407	 0.060672335299757 
408	 6.13523287579326E-02 
409	 6.09286518916317E-02 
410	 6.06417875880811E-02 
411	 6.15614796081805E-02 
412	 6.40289922154982E-02 
413	 6.44816344193778E-02 
414	 6.43413760369088E-02 
415	 6.46468846118513E-02 
416	 6.53350720747257E-02 
417	 6.59398492131169E-02 
418	 6.61649107266093E-02 
419	 6.59255565775465E-02 
420	 6.55223481083341E-02 
421	 6.53009050127316E-02 
422	 6.55222368414125E-02 
423	 6.62475424238011E-02 
424	 6.61073732335224E-02 
425	 6.58423698758158E-02 
426	 6.58905539804012E-02 
427	 0.065641923946925 
428	 6.53033832819318E-02 
429	 6.49583227299106E-02 
430	 6.46870729526165E-02 
431	 6.47556140537863E-02 
432	 0.06446216439877 
433	 6.39903084184288E-02 
434	 6.43467182931717E-02 
435	 6.48044948281805E-02 
436	 6.50472496924111E-02 
437	 6.50012442392372E-02 
438	 6.48962696812742E-02 
439	 0.065323578979329 
440	 6.60963893849736E-02 
441	 6.66540146593694E-02 
442	 0.067045102401774 
443	 6.72932485646282E-02 
444	 6.74721634007719E-02 
445	 6.77057757635164E-02 
446	 6.82334244773558E-02 
447	 6.88842163249633E-02 
448	 6.94082929008514E-02 
449	 6.97882183598354E-02 
450	 7.03297585544901E-02 
451	 7.09358516689867E-02 
452	 0.071192764563043 
453	 7.14178612872007E-02 
454	 7.16992847352775E-02 
455	 7.20578912200993E-02 
456	 7.24966352731426E-02 
457	 0.072635698922653 
458	 7.26930499661372E-02 
459	 7.30699542930511E-02 
460	 7.32700046393652E-02 
461	 7.33129103115209E-02 
462	 7.33375456014182E-02 
463	 7.35766309483645E-02 
464	 7.38698917751729E-02 
465	 7.40128383083401E-02 
466	 7.39124398105748E-02 
467	 7.39282520114589E-02 
468	 0.074067243011654 
469	 7.42208299283402E-02 
470	 7.42250915564684E-02 
471	 7.45476383342477E-02 
472	 7.46263478236505E-02 
473	 7.42633197484148E-02 
474	 7.45369292503422E-02 
475	 7.46682420872995E-02 
476	 7.46104279439789E-02 
477	 7.46155187470247E-02 
478	 7.46487483343341E-02 
479	 0.074779764787024 
480	 7.48986739620332E-02 
481	 0.07463264667063 
482	 7.47335289255713E-02 
483	 7.49959900258713E-02 
484	 7.50601015623445E-02 
485	 7.51340075862413E-02 
486	 7.50948734334714E-02 
487	 0.075015777267464 
488	 7.51191694138641E-02 
489	 7.52328075917789E-02 
490	 7.53106576505681E-02 
491	 7.53485250709392E-02 
492	 7.53981179914233E-02 
493	 7.53196822622149E-02 
494	 7.51953683751164E-02 
495	 7.52125487033707E-02 
496	 7.55011818262295E-02 
497	 7.55865991092601E-02 
498	 7.54017788292615E-02 
499	 7.55615281973382E-02 
500	 7.56258494434894E-02 
501	 7.55625748819125E-02 
502	 7.54722249928226E-02 
503	 0.075477972955688 
504	 7.55897303986561E-02 
505	 7.56932310308448E-02 
506	 7.55843699041998E-02 
507	 7.54628994573302E-02 
508	 0.075481515915816 
509	 7.56445886689715E-02 
510	 7.56056106085698E-02 
511	 0.075535957389569 
512	 7.54916241323692E-02 
513	 7.54741984893832E-02 
514	 7.55580510173302E-02 
515	 7.56121229279611E-02 
516	 7.56004628352675E-02 
517	 7.56931616754618E-02 
518	 0.075699678512835 
519	 7.56049143758437E-02 
520	 7.54899230037715E-02 
521	 7.55948152437731E-02 
522	 7.56898196903197E-02 
523	 7.57092249850261E-02 
524	 7.57833973871107E-02 
525	 7.56544757647729E-02 
526	 7.56006644955586E-02 
527	 7.58157637837529E-02 
528	 7.58653519763306E-02 
529	 7.58168845549237E-02 
530	 7.57907283592907E-02 
531	 7.59168668286904E-02 
532	 7.59894159789219E-02 
533	 7.59959997468702E-02 
534	 7.59924518276833E-02 
535	 7.61327486407847E-02 
536	 7.61472009383898E-02 
537	 7.61224641324172E-02 
538	 7.62440356976585E-02 
539	 0.076326038635343 
540	 7.63793823682144E-02 
541	 7.64387546018836E-02 
542	 7.65499752450558E-02 
543	 7.66022911691272E-02 
544	 7.66501354365864E-02 
545	 7.67677483500892E-02 
546	 7.69143170035291E-02 
547	 7.70788477411639E-02 
548	 7.72512336292638E-02 
549	 0.077420261386781 
550	 7.75201510215842E-02 
551	 7.76714821638154E-02 
552	 7.79446229382036E-02 
553	 7.82135960546727E-02 
554	 7.83489269511185E-02 
555	 7.84608137429367E-02 
556	 7.87597999973579E-02 
557	 7.90606441370533E-02 
558	 7.93672804376162E-02 
559	 7.97094890333612E-02 
560	 0.080134398327333 
561	 8.04606254634698E-02 
562	 8.08193365250462E-02 
563	 8.13791552966296E-02 
564	 8.18689034243349E-02 
565	 8.23568436345694E-02 
566	 8.29155164564746E-02 
567	 8.35962133530533E-02 
568	 8.41925911891411E-02 
569	 8.47741340090891E-02 
570	 8.54409868220218E-02 
571	 8.61558305246611E-02 
572	 8.68942102034811E-02 
573	 8.76720578499922E-02 
574	 8.85226797278918E-02 
575	 8.93062265218527E-02 
576	 9.01132549047858E-02 
577	 9.10081856262208E-02 
578	 9.19097153683803E-02 
579	 9.29158393194421E-02 
580	 9.39606226911257E-02 
581	 9.49445680666277E-02 
582	 9.60656374833874E-02 
583	 9.71859069466053E-02 
584	 9.82417006797913E-02 
585	 9.93190034518734E-02 
586	 0.100451322454232 
587	 0.1015799448507 
588	 0.102665572669363 
589	 0.10389284533934 
590	 0.105151571368621 
591	 0.106355915743833 
592	 0.107463761708623 
593	 0.108569110285241 
594	 0.109686703700358 
595	 0.110798678767775 
596	 0.111840453242704 
597	 0.11296256640699 
598	 0.114095908553155 
599	 0.115087177459199 
600	 0.11617051903679 
601	 0.117229347493987 
602	 0.118177663705569 
603	 0.119056579725345 
604	 0.119927591132942 
605	 0.120806402623194 
606	 0.121679682162534 
607	 0.122498137019998 
608	 0.123255976575815 
609	 0.123988411010276 
610	 0.12477165226884 
611	 0.125444971327502 
612	 0.126074458094832 
613	 0.12671634795725 
614	 0.127193401023079 
615	 0.127703106219611 
616	 0.128235245087839 
617	 0.128644528698162 
618	 0.1290880454143 
619	 0.129512196576721 
620	 0.129883517351073 
621	 0.130282042400006 
622	 0.130625575541766 
623	 0.13094583739833 
624	 0.131299637166604 
625	 0.131573306769644 
626	 0.131864079165195 
627	 0.132191027522175 
628	 0.132448746872833 
629	 0.132717401573671 
630	 0.132979752111703 
631	 0.133214386558806 
632	 0.133485884285177 
633	 0.13374354104075 
634	 0.133986268463784 
635	 0.134252058030505 
636	 0.134492950695692 
637	 0.134719267057382 
638	 0.134945343902479 
639	 0.135168610314904 
640	 0.13540076032152 
641	 0.135653707589588 
642	 0.135930234720153 
643	 0.136173120005446 
644	 0.136422964716975 
645	 0.136690187943002 
646	 0.13692672473776 
647	 0.137171148594475 
648	 0.137454268590436 
649	 0.13777881139384 
650	 0.138045414252713 
651	 0.138309261545242 
652	 0.138600766912724 
653	 0.138922467212645 
654	 0.139243836628906 
655	 0.139536512185389 
656	 0.13981064647657 
657	 0.140171612254233 
658	 0.140511554584212 
659	 0.140814890485411 
660	 0.141117259993112 
661	 0.141479051580778 
662	 0.141853234572682 
663	 0.142198609520717 
664	 0.14249495022806 
665	 0.142882519546252 
666	 0.143311314170306 
667	 0.143703452091264 
668	 0.144121535170153 
669	 0.14455063092647 
670	 0.144990786302493 
671	 0.145448168498008 
672	 0.145797020613397 
673	 0.146198383519745 
674	 0.146731080365644 
675	 0.147161310373887 
676	 0.147608413354544 
677	 0.148079716917613 
678	 0.148544341508618 
679	 0.149035327649155 
680	 0.149539106693808 
681	 0.150046811151198 
682	 0.150560983223564 
683	 0.151073983627337 
684	 0.151586927819903 
685	 0.152107951187791 
686	 0.152664165396919 
687	 0.153221973044835 
688	 0.153762923383562 
689	 0.154283053135245 
690	 0.154804147856601 
691	 0.155351080839705 
692	 0.155934991964165 
693	 0.15654827919879 
694	 0.157130252566856 
695	 0.157681762911313 
696	 0.158232038704962 
697	 0.158810571287661 
698	 0.159384700131294 
699	 0.159953993264306 
700	 0.160553237419756 
701	 0.161143199579324 
702	 0.161725859892164 
703	 0.162304873085304 
704	 0.162861830224005 
705	 0.163415725480777 
706	 0.163973193615287 
707	 0.164533347336194 
708	 0.16509494941756 
709	 0.165681837618433 
710	 0.166292723268238 
711	 0.166891416245773 
712	 0.167408373250419 
713	 0.16787085466332 
714	 0.16834753472324 
715	 0.168945277461655 
716	 0.169477290574303 
717	 0.169927256353055 
718	 0.170407385264929 
719	 0.170919894215294 
720	 0.171371839807703 
721	 0.17175172692202 
722	 0.172237582321489 
723	 0.1726920169518 
724	 0.173098035994909 
725	 0.173476649452333 
726	 0.173823450127891 
727	 0.174137757310036 
728	 0.174439580149295 
729	 0.174764593178541 
730	 0.175085882698177 
731	 0.175375459633307 
732	 0.175621149973164 
733	 0.175836344756058 
734	 0.176130677935123 
735	 0.176400587960816 
736	 0.176500840591285 
737	 0.176635019783065 
738	 0.176760895536117 
739	 0.176864225575898 
740	 0.17697855471938 
741	 0.17705326436971 
742	 0.177102815620278 
743	 0.177145995443214 
744	 0.17717483922725 
745	 0.177177647995735 
746	 0.177147432233453 
747	 0.177083930552599 
748	 0.177010119768017 
749	 0.176903726996683 
750	 0.176783099817334 
751	 0.176717245440018 
752	 0.176607885882888 
753	 0.176444421189917 
754	 0.176247898826347 
755	 0.176062328378755 
756	 0.175882986851953 
757	 0.175675623974343 
758	 0.175406494266842 
759	 0.175163713429223 
760	 0.174920805077514 
761	 0.174665668642486 
762	 0.174417690731682 
763	 0.174136103388849 
764	 0.173813009619282 
765	 0.17346340528805 
766	 0.173135518022535 
767	 0.172833158039833 
768	 0.172525871947188 
769	 0.172174551894671 
770	 0.171821335179687 
771	 0.171467771003454 
772	 0.171106743322248 
773	 0.170726385615226 
774	 0.17037237530126 
775	 0.170012827458617 
776	 0.169615673193321 
777	 0.169193881902934 
778	 0.168783605277808 
779	 0.168407453819046 
780	 0.16806050435793 
781	 0.167625589610734 
782	 0.167219252900141 
783	 0.166860070854469 
784	 0.166449470209036 
785	 0.166053869978015 
786	 0.165658991056551 
787	 0.165254697459547 
788	 0.164875803379826 
789	 0.164523323920139 
790	 0.164132508678433 
791	 0.163658897501026 
792	 0.163293203210917 
793	 0.162927576323538 
794	 0.162535970197202 
795	 0.162169841648285 
796	 0.161738822391763 
797	 0.161325917356652 
798	 0.160980059915452 
799	 0.160642081031129 
800	 0.160277404771486 
801	 0.159901261461844 
802	 0.159541749329039 
803	 0.159201713156637 
804	 0.158863583714956 
805	 0.158518959674921 
806	 0.158166003052378 
807	 0.157790238238202 
808	 0.157437184691331 
809	 0.157124930566523 
810	 0.156826156327881 
811	 0.156503375988382 
812	 0.156171115035445 
813	 0.155852291845318 
814	 0.155554227868824 
815	 0.155275392159262 
816	 0.154989106347278 
817	 0.154673962191421 
818	 0.154385204087868 
819	 0.154157443819642 
820	 0.153937157754069 
821	 0.153616664063693 
822	 0.153356312214039 
823	 0.153102592665779 
824	 0.152822811688958 
825	 0.152569486849532 
826	 0.152380322849978 
827	 0.152173862950796 
828	 0.151895680609305 
829	 0.151686157592396 
830	 0.151475570160042 
831	 0.151270892783189 
832	 0.151105701249529 
833	 0.150945331019029 
834	 0.150744332423223 
835	 0.150520480090721 
836	 0.15034777337792 
837	 0.150224439651321 
838	 0.150089086189255 
839	 0.14991554821907 
840	 0.149755081535471 
841	 0.149578909461271 
842	 0.149430060064776 
843	 0.149339504461732 
844	 0.14924675678963 
845	 0.149143100817355 
846	 0.149038067876772 
847	 0.148949865501831 
848	 0.148885440912564 
849	 0.148785575466095 
850	 0.148651199004954 
851	 0.148539991739274 
852	 0.148492573502469 
853	 0.148495798189179 
854	 0.148497760858353 
855	 0.148411037087738 
856	 0.148368548874876 
857	 0.148354880819203 
858	 0.148327490117124 
859	 0.148266741366139 
860	 0.1482313215919 
861	 0.148237092524604 
862	 0.148265095322311 
863	 0.148228446284532 
864	 0.148238059096667 
865	 0.14828950675803 
866	 0.148315056522762 
867	 0.14838800256981 
868	 0.14839171493397 
869	 0.148345255634031 
870	 0.148407205352855 
871	 0.148475230225979 
872	 0.14856533108487 
873	 0.14867130127168 
874	 0.148725251243725 
875	 0.14879848551792 
876	 0.148879678450262 
877	 0.148956806091644 
878	 0.149068528080677 
879	 0.149231119356847 
880	 0.149366209795109 
881	 0.149422331711198 
882	 0.14960233456918 
883	 0.149747030857763 
884	 0.149839735106678 
885	 0.149953898243533 
886	 0.150140513487971 
887	 0.150352415205266 
888	 0.150550321125062 
889	 0.150712819433959 
890	 0.150829179429307 
891	 0.150998473219604 
892	 0.151236113494481 
893	 0.151440652262859 
894	 0.151654861786806 
895	 0.151847711979475 
896	 0.152006662087249 
897	 0.152171320651636 
898	 0.152462774374918 
899	 0.152782080743595 
900	 0.153029106939854 
901	 0.153262888415433 
902	 0.153565287146387 
903	 0.153863542742072 
904	 0.154080389144647 
905	 0.15434229274427 
906	 0.154635846966986 
907	 0.15493895642804 
908	 0.155238184816912 
909	 0.155599595581919 
910	 0.155887731908683 
911	 0.156141201554442 
912	 0.156484701422206 
913	 0.156727828265351 
914	 0.157109129378216 
915	 0.157582337098574 
916	 0.15786569680961 
917	 0.158246534694231 
918	 0.158599278119546 
919	 0.158890284653179 
920	 0.159242214651805 
921	 0.159621682401372 
922	 0.160085379001605 
923	 0.160594948120565 
924	 0.160971102767978 
925	 0.161272904235003 
926	 0.16163476620744 
927	 0.162090893381806 
928	 0.162464654140403 
929	 0.162920210003662 
930	 0.163419191497042 
931	 0.163885433244264 
932	 0.164281564259522 
933	 0.164722474268784 
934	 0.165219840978253 
935	 0.165743053946159 
936	 0.166253667984914 
937	 0.166674453722086 
938	 0.167063094256493 
939	 0.167521131120583 
940	 0.168122622348824 
941	 0.168653675902119 
942	 0.169157360632125 
943	 0.169719745696501 
944	 0.170139700523537 
945	 0.170589290427322 
946	 0.171121350092519 
947	 0.17169473516351 
948	 0.172168424059585 
949	 0.172594741077697 
950	 0.173104013863094 
951	 0.173781977009359 
952	 0.174360647187142 
953	 0.174770708200965 
954	 0.175209394672616 
955	 0.175910548976263 
956	 0.176507473235676 
957	 0.177009261039301 
958	 0.177493200780637 
959	 0.178047855646449 
960	 0.178628569525312 
961	 0.179224619548494 
962	 0.179816856020532 
963	 0.180389522446709 
964	 0.180976882078851 
965	 0.181641872221796 
966	 0.182268422732087 
967	 0.18270922373434 
968	 0.183360781459215 
969	 0.183965095954241 
970	 0.184495058985189 
971	 0.185089348289083 
972	 0.185667892761978 
973	 0.18632729995013 
974	 0.187000742549547 
975	 0.187553362665257 
976	 0.188173768944035 
977	 0.188787212605257 
978	 0.189318193870475 
979	 0.189783285112809 
980	 0.190627481094243 
981	 0.191299492437526 
982	 0.191784837840962 
983	 0.192382482651704 
984	 0.19286545839219 
985	 0.193459907914081 
986	 0.194089040131969 
987	 0.194577419626368 
988	 0.195249517743312 
989	 0.195834979523812 
990	 0.196327035463654 
991	 0.196870948636964 
992	 0.19754122589229 
993	 0.198096616619616 
994	 0.198589297518575 
995	 0.199170005769536 
996	 0.19977034425838 
997	 0.200281587529606 
998	 0.200746041881658 
999	 0.201253798042721 
1000	 0.201807643152708 
1001	 0.205619496246278 
1002	 0.20604713881837 
1003	 0.206522051756242 
1004	 0.207004664243096 
1005	 0.20753895817836 
1006	 0.208009644441144 
1007	 0.208469089438318 
1008	 0.208893754070608 
1009	 0.209344168411389 
1010	 0.209769268658172 
1011	 0.210251496174696 
1012	 0.210765218772158 
1013	 0.211195093435126 
1014	 0.211630618928835 
1015	 0.212090691892709 
1016	 0.212525459670638 
1017	 0.212933904103004 
1018	 0.213337866669722 
1019	 0.213710924258557 
1020	 0.214054030272854 
1021	 0.214384109100283 
1022	 0.214742350621676 
1023	 0.215108973971568 
1024	 0.215429115689807 
1025	 0.215751246741323 
1026	 0.216099902009625 
1027	 0.216399094043793 
1028	 0.216707284309034 
1029	 0.217037780769666 
1030	 0.217360910136779 
1031	 0.217678640161725 
1032	 0.218012162107058 
1033	 0.218301984094195 
1034	 0.218584854125063 
1035	 0.21885187341284 
1036	 0.219093135775711 
1037	 0.219368699266038 
1038	 0.219616554121581 
1039	 0.219867556457007 
1040	 0.220134409235245 
1041	 0.220386027313817 
1042	 0.22069471979709 
1043	 0.220979414940056 
1044	 0.221239479797752 
1045	 0.221468452119643 
1046	 0.221752602424003 
1047	 0.22198115335902 
1048	 0.222172839693849 
1049	 0.222401480078141 
1050	 0.222606937980592 
1051	 0.222838627353477 
1052	 0.223090186481398 
1053	 0.223324216812308 
1054	 0.223572319273707 
1055	 0.2237879458818 
1056	 0.224025226678234 
1057	 0.224296361019534 
1058	 0.22462372254402 
1059	 0.224892921796286 
1060	 0.225163611609985 
1061	 0.225425546251934 
1062	 0.225632882245836 
1063	 0.225851070149514 
1064	 0.22613747598273 
1065	 0.226418110281294 
1066	 0.226674055501179 
1067	 0.226942922055235 
1068	 0.227200208177904 
1069	 0.227404142911107 
1070	 0.227639417292052 
1071	 0.227925542896012 
1072	 0.228165687645133 
1073	 0.228357733451104 
1074	 0.228600811096024 
1075	 0.228872524299415 
1076	 0.229086382584296 
1077	 0.22932317414914 
1078	 0.229558667097124 
1079	 0.229779749129116 
1080	 0.229992825027169 
1081	 0.230202713510585 
1082	 0.230441828441442 
1083	 0.23067320155522 
1084	 0.230901569561048 
1085	 0.231127733416666 
1086	 0.231375595376225 
1087	 0.231577471955989 
1088	 0.231750807016451 
1089	 0.231921422268336 
1090	 0.232104545365012 
1091	 0.232297833108602 
1092	 0.23248211681729 
1093	 0.23267528402049 
1094	 0.232851015071389 
1095	 0.232978126147527 
1096	 0.233142008269908 
1097	 0.233288010623835 
1098	 0.233428970095218 
1099	 0.233568178733909 
1100	 0.233707541042991 
1101	 0.233834311173206 
1102	 0.233973825683429 
1103	 0.234133019704371 
1104	 0.234241640577995 
1105	 0.234373990311253 
1106	 0.234516837663604 
1107	 0.234660519506638 
1108	 0.23478389166025 
1109	 0.234901539016801 
1110	 0.235050038181562 
1111	 0.235170191127502 
1112	 0.235270717077003 
1113	 0.235389344387477 
1114	 0.235513572492666 
1115	 0.235615634567496 
1116	 0.235707375794155 
1117	 0.235811738658775 
1118	 0.235919835465211 
1119	 0.23601200303247 
1120	 0.236089363604554 
1121	 0.236185016998925 
1122	 0.236252857939362 
1123	 0.236299360320544 
1124	 0.236380658395082 
1125	 0.236488942950135 
1126	 0.236571993154992 
1127	 0.236673933505829 
1128	 0.236732909181308 
1129	 0.236758458149073 
1130	 0.236791522263599 
1131	 0.23679813880763 
1132	 0.23682411724081 
1133	 0.23686185448589 
1134	 0.236896012530297 
1135	 0.236942030081895 
1136	 0.236974239138583 
1137	 0.236988593317805 
1138	 0.23698563383644 
1139	 0.236981378163916 
1140	 0.236964404025253 
1141	 0.236937078543659 
1142	 0.236903756430372 
1143	 0.236865937708921 
1144	 0.23680636766649 
1145	 0.236758886267766 
1146	 0.236714283557732 
1147	 0.236675415455012 
1148	 0.23663407793693 
1149	 0.236599233629366 
1150	 0.236566394414019 
1151	 0.236548132252767 
1152	 0.236524335093262 
1153	 0.236520829649359 
1154	 0.236527575894404 
1155	 0.236544638965732 
1156	 0.236570030934334 
1157	 0.236613054553574 
1158	 0.236651885251822 
1159	 0.236702252204129 
1160	 0.236742671013617 
1161	 0.236775648055812 
1162	 0.236816825515947 
1163	 0.23685307652424 
1164	 0.236899661616191 
1165	 0.23694917192635 
1166	 0.237016050431219 
1167	 0.237087420433332 
1168	 0.237154735859152 
1169	 0.237216186305698 
1170	 0.237280091437966 
1171	 0.237334877947772 
1172	 0.237372395962301 
1173	 0.237430407459511 
1174	 0.237483553130386 
1175	 0.237560567613005 
1176	 0.237684451761005 
1177	 0.237755479207098 
1178	 0.23781964053537 
1179	 0.23787215600606 
1180	 0.237875130604526 
1181	 0.23790180732623 
1182	 0.237918217649416 
1183	 0.237967277837744 
1184	 0.238038132294933 
1185	 0.238138074988903 
1186	 0.23820656254332 
1187	 0.238294617991963 
1188	 0.238361370199799 
1189	 0.23839148532478 
1190	 0.238447472379383 
1191	 0.238530183909907 
1192	 0.238584828339168 
1193	 0.238610024442746 
1194	 0.238664791951795 
1195	 0.238733318407925 
1196	 0.23878681031872 
1197	 0.238845655357184 
1198	 0.238910583577532 
1199	 0.238973083837912 
1200	 0.239017845292472 
1201	 0.239075709048326 
1202	 0.239149267357973 
1203	 0.239214756662251 
1204	 0.239272392890611 
1205	 0.239334160008705 
1206	 0.239407886709449 
1207	 0.239467497805055 
1208	 0.239515213846465 
1209	 0.239567982572271 
1210	 0.239618324164192 
1211	 0.239669144752254 
1212	 0.239723410348084 
1213	 0.239773071308811 
1214	 0.239813894104803 
1215	 0.239862899254519 
1216	 0.239914474487074 
1217	 0.239970977940409 
1218	 0.240015848536157 
1219	 0.240066808485725 
1220	 0.240100292337608 
1221	 0.240103479885885 
1222	 0.24014190353345 
1223	 0.240193879154274 
1224	 0.24023792092704 
1225	 0.240306044690009 
1226	 0.240348867342519 
1227	 0.240359631341715 
1228	 0.240392941573893 
1229	 0.24044194256894 
1230	 0.240472735355163 
1231	 0.240493112505605 
1232	 0.240527241243621 
1233	 0.240561968202936 
1234	 0.240580893510117 
1235	 0.240621696999689 
1236	 0.240689457607699 
1237	 0.240735839658417 
1238	 0.240784295380999 
1239	 0.240814944742235 
1240	 0.240827739793819 
1241	 0.240851962625681 
1242	 0.240866548267206 
1243	 0.240888855562822 
1244	 0.240917875206654 
1245	 0.240951182778046 
1246	 0.240983535091988 
1247	 0.241020647473368 
1248	 0.241050681487069 
1249	 0.241119445451483 
1250	 0.241176318568841 
1251	 0.241220457096034 
1252	 0.241252747550101 
1253	 0.241279936371361 
1254	 0.241294047665422 
1255	 0.241281930128073 
1256	 0.24128988593711 
1257	 0.241301269109681 
1258	 0.241309777373823 
1259	 0.241330285121934 
1260	 0.241335208416725 
1261	 0.241323786903796 
1262	 0.241319654917098 
1263	 0.241311650766091 
1264	 0.241303203580532 
1265	 0.241296034426619 
1266	 0.241292888438411 
1267	 0.241279759715806 
1268	 0.241289587521621 
1269	 0.241288753466731 
1270	 0.241291592205084 
1271	 0.241288339508183 
1272	 0.241276924884297 
1273	 0.241274839656848 
1274	 0.241281439511691 
1275	 0.241277901341808 
1276	 0.241268871503265 
1277	 0.241268740550336 
1278	 0.241258963961587 
1279	 0.241264629272731 
1280	 0.241287820815131 
1281	 0.241310332861693 
1282	 0.241345534222669 
1283	 0.241366984150732 
1284	 0.241382694288758 
1285	 0.241395532638865 
1286	 0.241420182146979 
1287	 0.241460796467287 
1288	 0.241488603516527 
1289	 0.241534862030593 
1290	 0.241554767425791 
1291	 0.241546539002613 
1292	 0.241559262068559 
1293	 0.241573323676362 
1294	 0.241593727869888 
1295	 0.241629958333144 
1296	 0.24164706336675 
1297	 0.24166362955058 
1298	 0.241669173406717 
1299	 0.241659725080533 
1300	 0.241646793901372 
1301	 0.241620003919133 
1302	 0.241604585095934 
1303	 0.241583616635501 
1304	 0.241575159851497 
1305	 0.241581909611468 
1306	 0.241564671438366 
1307	 0.241531174085411 
1308	 0.241487834343007 
1309	 0.241423512812402 
1310	 0.241330906927771 
1311	 0.24125253611247 
1312	 0.241165527635297 
1313	 0.241072092833148 
1314	 0.240987796742423 
1315	 0.240878859362635 
1316	 0.240748743431767 
1317	 0.240624825019808 
1318	 0.240489760984971 
1319	 0.240353994443961 
1320	 0.240218435372337 
1321	 0.240080110980785 
1322	 0.239939836407204 
1323	 0.239798645053815 
1324	 0.239645075529714 
1325	 0.239476602503659 
1326	 0.239300220924904 
1327	 0.239109176392826 
1328	 0.238901009422705 
1329	 0.238700198363614 
1330	 0.238492652726984 
1331	 0.238282378198084 
1332	 0.238050826808062 
1333	 0.237809020132863 
1334	 0.237568143545509 
1335	 0.237289142911171 
1336	 0.23705622819483 
1337	 0.23687064172821 
1338	 0.236642941500809 
1339	 0.236405628033828 
1340	 0.236179172616993 
1341	 0.23593011145318 
1342	 0.235693768767172 
1343	 0.235474784856395 
1344	 0.235266662424108 
1345	 0.235024360870767 
1346	 0.234783368387786 
1347	 0.234555572757165 
1348	 0.234318072085023 
1349	 0.234091832895448 
1350	 0.23388384845825 
1351	 0.2336588663411 
1352	 0.233424820169661 
1353	 0.233199409027192 
1354	 0.232972929173606 
1355	 0.232742407631826 
1356	 0.232513538610926 
1357	 0.232287277927578 
1358	 0.23206236003069 
1359	 0.231828440846783 
1360	 0.231601561917506 
1361	 0.231359129139402 
1362	 0.231099897203284 
1363	 0.230840400631416 
1364	 0.230578735621401 
1365	 0.230307969861604 
1366	 0.230035407188669 
1367	 0.229753347088695 
1368	 0.229459384855592 
1369	 0.229149511097743 
1370	 0.228787045212119 
1371	 0.228396786750826 
1372	 0.227976242354164 
1373	 0.227502298019603 
1374	 0.226983211293497 
1375	 0.226434479885766 
1376	 0.225816925373527 
1377	 0.225141533315061 
1378	 0.224408128053355 
1379	 0.223625526991014 
1380	 0.222778667918062 
1381	 0.221880925216072 
1382	 0.220899825695975 
1383	 0.219855425351537 
1384	 0.218741652733796 
1385	 0.21756076202789 
1386	 0.216312582076688 
1387	 0.215001029471377 
1388	 0.213626514351879 
1389	 0.212183696570476 
1390	 0.210674690447188 
1391	 0.209112796127811 
1392	 0.207481708960595 
1393	 0.205790731776744 
1394	 0.204066126530603 
1395	 0.202280682692053 
1396	 0.200494172518046 
1397	 0.198717123102786 
1398	 0.196921694053552 
1399	 0.195137054713656 
1400	 0.193338505735557 
1401	 0.191595251894541 
1402	 0.189862953350722 
1403	 0.188171808937968 
1404	 0.186506213321827 
1405	 0.184916777776224 
1406	 0.183349887985654 
1407	 0.181853763401534 
1408	 0.180434241332544 
1409	 0.179065479114202 
1410	 0.177733704401998 
1411	 0.17648128586231 
1412	 0.175288849318453 
1413	 0.174182426521583 
1414	 0.173146524449077 
1415	 0.172161516596463 
1416	 0.17124118117951 
1417	 0.170374782716924 
1418	 0.169552322002937 
1419	 0.168790241831771 
1420	 0.168077374370442 
1421	 0.167399863738955 
1422	 0.166764747385612 
1423	 0.166147737644414 
1424	 0.165566261779913 
1425	 0.165015592679108 
1426	 0.164505533118506 
1427	 0.16403208054915 
1428	 0.163583379747392 
1429	 0.163174371312448 
1430	 0.162782719694113 
1431	 0.162413494759177 
1432	 0.162066172722681 
1433	 0.161739779579557 
1434	 0.161439473871976 
1435	 0.161157358089621 
1436	 0.160911327792551 
1437	 0.160710656415789 
1438	 0.160513530535348 
1439	 0.160338345179177 
1440	 0.16017581115669 
1441	 0.160024707559403 
1442	 0.159870667035898 
1443	 0.159747722439192 
1444	 0.159642530741894 
1445	 0.159546855212233 
1446	 0.159485066213693 
1447	 0.159432083857936 
1448	 0.159384812028105 
1449	 0.159335753223256 
1450	 0.159282374689417 
1451	 0.159251161943246 
1452	 0.159221542140314 
1453	 0.159212920428371 
1454	 0.159225556196081 
1455	 0.159251953029879 
1456	 0.159291236908171 
1457	 0.159344975771851 
1458	 0.159416756112118 
1459	 0.159497384993238 
1460	 0.159569360184019 
1461	 0.159693770258018 
1462	 0.159855967166802 
1463	 0.160024412919092 
1464	 0.160222604800131 
1465	 0.160441546700615 
1466	 0.160661827696611 
1467	 0.160921332319699 
1468	 0.161212528349494 
1469	 0.161533935545182 
1470	 0.161891134511851 
1471	 0.162265884725249 
1472	 0.162651643836124 
1473	 0.163062157450645 
1474	 0.163473536057156 
1475	 0.163891861674992 
1476	 0.164328635269382 
1477	 0.164774398103539 
1478	 0.165232184271617 
1479	 0.165687974728023 
1480	 0.166156142353788 
1481	 0.166643948804781 
1482	 0.167126437537809 
1483	 0.167608095749038 
1484	 0.168104917290114 
1485	 0.168612418053648 
1486	 0.169118389568766 
1487	 0.169634459666954 
1488	 0.170141547889914 
1489	 0.170648784178778 
1490	 0.171151424988693 
1491	 0.171652819087125 
1492	 0.172153816229097 
1493	 0.172642930189644 
1494	 0.173146130763545 
1495	 0.173657294455055 
1496	 0.174163202408124 
1497	 0.174681228319677 
1498	 0.175190312845865 
1499	 0.175697937278861 
1500	 0.176191048298689 
1501	 0.176671967480601 
1502	 0.177151846657679 
1503	 0.177616042142047 
1504	 0.178088476961218 
1505	 0.17856825111417 
1506	 0.179042824153243 
1507	 0.179504945304499 
1508	 0.17995999731583 
1509	 0.18039485284204 
1510	 0.18082631141497 
1511	 0.181266467511582 
1512	 0.181699719200502 
1513	 0.182150698712261 
1514	 0.182609299869831 
1515	 0.183061888571708 
1516	 0.183511638024115 
1517	 0.183941036486211 
1518	 0.18435440606556 
1519	 0.184769793453606 
1520	 0.185167739242702 
1521	 0.185579536222707 
1522	 0.186002114955915 
1523	 0.18640398206031 
1524	 0.186804986446481 
1525	 0.187193484179638 
1526	 0.187564648719553 
1527	 0.187936634643765 
1528	 0.188305759059698 
1529	 0.18866158533367 
1530	 0.18899189811237 
1531	 0.189353999266285 
1532	 0.18973588879422 
1533	 0.190091191980817 
1534	 0.190462581805459 
1535	 0.190808669479226 
1536	 0.191113149030457 
1537	 0.191430013824985 
1538	 0.191741519572244 
1539	 0.192061561739151 
1540	 0.192385616683551 
1541	 0.192707140682613 
1542	 0.193044143258928 
1543	 0.193357273065372 
1544	 0.193655019537935 
1545	 0.193950999414834 
1546	 0.19423662043744 
1547	 0.19451675908482 
1548	 0.19479680144303 
1549	 0.195056912422614 
1550	 0.195301350046943 
1551	 0.195554589612805 
1552	 0.195822930605062 
1553	 0.196096275232206 
1554	 0.196375458011315 
1555	 0.196645570069317 
1556	 0.196883422775747 
1557	 0.19710777671275 
1558	 0.19733161047456 
1559	 0.197550307538967 
1560	 0.197774931005595 
1561	 0.198007674484759 
1562	 0.198227478192186 
1563	 0.198440186970592 
1564	 0.198659679870766 
1565	 0.19888202521483 
1566	 0.199088503084239 
1567	 0.199296463698758 
1568	 0.199487505290517 
1569	 0.199656112785644 
1570	 0.19983205023869 
1571	 0.200004442624272 
1572	 0.200177927389239 
1573	 0.200346945927448 
1574	 0.200519767556017 
1575	 0.20069862451809 
1576	 0.200866908556243 
1577	 0.201038944623095 
1578	 0.201195874470524 
1579	 0.201328684794964 
1580	 0.201479580068588 
1581	 0.201634647826771 
1582	 0.201785033210142 
1583	 0.2019493146605 
1584	 0.202094996928303 
1585	 0.202225129300921 
1586	 0.202352620691605 
1587	 0.202470483511098 
1588	 0.202592978249478 
1589	 0.202717401474799 
1590	 0.202832157846776 
1591	 0.20294115969147 
1592	 0.20305087126831 
1593	 0.203143732554471 
1594	 0.203254411458741 
1595	 0.203389899659814 
1596	 0.20350128590317 
1597	 0.203605811468716 
1598	 0.20371091779042 
1599	 0.203801714697267 
1600	 0.203892575926444 
1601	 0.203990636821613 
1602	 0.204083045697194 
1603	 0.204167647476754 
1604	 0.204248806128639 
1605	 0.204324228799569 
1606	 0.204402704374124 
1607	 0.204486572952619 
1608	 0.204552929614794 
1609	 0.204620257673286 
1610	 0.204696336116106 
1611	 0.204749617806897 
1612	 0.204797811929443 
1613	 0.204857966411137 
1614	 0.2049091868978 
1615	 0.204972135885197 
1616	 0.205049795646407 
1617	 0.205092202681024 
1618	 0.205136611496188 
1619	 0.205179626482748 
1620	 0.205213186042318 
1621	 0.205268340937843 
1622	 0.20534759511938 
1623	 0.20540046773211 
1624	 0.205450290591737 
1625	 0.205492156294362 
1626	 0.205522032917617 
1627	 0.205553501905366 
1628	 0.205585688361668 
1629	 0.205608367609852 
1630	 0.205613009980504 
1631	 0.205647450573015 
1632	 0.205689770520325 
1633	 0.205731502402206 
1634	 0.205801725774324 
1635	 0.205833261841114 
1636	 0.20584118307543 
1637	 0.20585821295406 
1638	 0.205863441046492 
1639	 0.205875365631753 
1640	 0.205890221134501 
1641	 0.20590676886989 
1642	 0.205918515292772 
1643	 0.205942477728721 
1644	 0.20597803598076 
1645	 0.206006175490137 
1646	 0.206040720834719 
1647	 0.206064546201223 
1648	 0.206087050059787 
1649	 0.206093856319764 
1650	 0.206090142013515 
1651	 0.206082646543286 
1652	 0.206055917359726 
1653	 0.206044215435745 
1654	 0.206034606039604 
1655	 0.206029542954801 
1656	 0.206039227658111 
1657	 0.206026969446766 
1658	 0.206006706124145 
1659	 0.205986212684135 
1660	 0.20595456314983 
1661	 0.205922155261308 
1662	 0.20589019743506 
1663	 0.20585691555854 
1664	 0.205812215085724 
1665	 0.205778518709874 
1666	 0.20574658081954 
1667	 0.205727624685968 
1668	 0.205732209638021 
1669	 0.205702782581485 
1670	 0.20566759196118 
1671	 0.205629092090491 
1672	 0.205560245737088 
1673	 0.205512113850383 
1674	 0.205479280615762 
1675	 0.205441051410757 
1676	 0.205394456054536 
1677	 0.205364439220137 
1678	 0.20535455892883 
1679	 0.205322269984453 
1680	 0.205299923480008 
1681	 0.205246762869385 
1682	 0.205156361885891 
1683	 0.205088598228913 
1684	 0.205014301422065 
1685	 0.204946306015482 
1686	 0.204882459094314 
1687	 0.204831537767789 
1688	 0.204796306483763 
1689	 0.204739258976157 
1690	 0.20469148865342 
1691	 0.204624587216321 
1692	 0.204525629139302 
1693	 0.204443213067349 
1694	 0.204369577885392 
1695	 0.204283042527611 
1696	 0.204183104229733 
1697	 0.204099473387048 
1698	 0.204017499134505 
1699	 0.203936114943231 
1700	 0.203876602294266 
1701	 0.203789306782235 
1702	 0.203677416359881 
1703	 0.203586292685836 
1704	 0.20349912701811 
1705	 0.203397775062318 
1706	 0.203309355238393 
1707	 0.203193649820379 
1708	 0.20304391078578 
1709	 0.202914029861101 
1710	 0.20277270055292 
1711	 0.202658016597575 
1712	 0.202570067280334 
1713	 0.202460026339212 
1714	 0.202360133186711 
1715	 0.202238477398481 
1716	 0.202083898980939 
1717	 0.201957850249526 
1718	 0.201848835732713 
1719	 0.20171568062466 
1720	 0.201587970667859 
1721	 0.201444766632478 
1722	 0.201266419698464 
1723	 0.201115420189073 
1724	 0.200977908390004 
1725	 0.200827114745172 
1726	 0.200678570961374 
1727	 0.200527536429715 
1728	 0.200369176646948 
1729	 0.200209656053335 
1730	 0.20005881317368 
1731	 0.199886462862911 
1732	 0.19970548839682 
1733	 0.199509133350736 
1734	 0.19928649478458 
1735	 0.199085546420661 
1736	 0.198883354630818 
1737	 0.198677314063645 
1738	 0.198482416773048 
1739	 0.198277010889645 
1740	 0.198059717014667 
1741	 0.197843733231775 
1742	 0.197631056448474 
1743	 0.197411095207697 
1744	 0.197179934961019 
1745	 0.196953281686582 
1746	 0.196720758505029 
1747	 0.196503962909359 
1748	 0.196316447193552 
1749	 0.196106372080487 
1750	 0.195888958978259 
1751	 0.195683157905244 
1752	 0.195427286066029 
1753	 0.195179600778394 
1754	 0.194947999387775 
1755	 0.194674041631897 
1756	 0.194424415713828 
1757	 0.194200670650394 
1758	 0.193965913205925 
1759	 0.193761147641932 
1760	 0.193560014053756 
1761	 0.193344469026043 
1762	 0.193132310866227 
1763	 0.192893322890388 
1764	 0.192646705011044 
1765	 0.19239971198734 
1766	 0.192142946296521 
1767	 0.191908911254322 
1768	 0.191695420500018 
1769	 0.191487979652708 
1770	 0.19129115803751 
1771	 0.191111761993494 
1772	 0.190927427568156 
1773	 0.19074427927004 
1774	 0.190566870846182 
1775	 0.190367769097985 
1776	 0.190170883210919 
1777	 0.190000449008895 
1778	 0.189858865841378 
1779	 0.189727504826494 
1780	 0.18959123945801 
1781	 0.189452312864096 
1782	 0.18932156267128 
1783	 0.189246472515955 
1784	 0.189130203591608 
1785	 0.188990026387949 
1786	 0.188877327935841 
1787	 0.188753987270119 
1788	 0.18864616385476 
1789	 0.188574324169077 
1790	 0.188487351216906 
1791	 0.188372763048152 
1792	 0.188289200755656 
1793	 0.188238707201603 
1794	 0.188174429840557 
1795	 0.188108186560253 
1796	 0.188057946474396 
1797	 0.188011220122688 
1798	 0.18796113390338 
1799	 0.187930001698448 
1800	 0.187891063127957 
1801	 0.186752716922756 
1802	 0.186785750377262 
1803	 0.186844293229314 
1804	 0.186925572806993 
1805	 0.18697959054728 
1806	 0.187030352567546 
1807	 0.187071874315634 
1808	 0.18709317609259 
1809	 0.187087748759535 
1810	 0.187087807494263 
1811	 0.187075005886766 
1812	 0.187067623709523 
1813	 0.187069432406855 
1814	 0.187041504637992 
1815	 0.186982656976123 
1816	 0.186940245038366 
1817	 0.186911111315707 
1818	 0.18688469772364 
1819	 0.186850631235834 
1820	 0.186842629341509 
1821	 0.186799905170421 
1822	 0.186720299963903 
1823	 0.186651683247836 
1824	 0.186594939198543 
1825	 0.186530586077988 
1826	 0.186473538029728 
1827	 0.186389143548003 
1828	 0.18629670421923 
1829	 0.186189623214943 
1830	 0.186079739873161 
1831	 0.18595333781636 
1832	 0.18584824251933 
1833	 0.18572082389514 
1834	 0.18557815855616 
1835	 0.185428031487321 
1836	 0.185229202630636 
1837	 0.185062839845152 
1838	 0.184878876707633 
1839	 0.184666638376639 
1840	 0.184434550354031 
1841	 0.184226121535795 
1842	 0.183967908922169 
1843	 0.183696172561431 
1844	 0.183448275501803 
1845	 0.183161328003642 
1846	 0.182837754857813 
1847	 0.182501305346004 
1848	 0.182140225359594 
1849	 0.181751671150421 
1850	 0.181338309055791 
1851	 0.180906702921979 
1852	 0.180449458537479 
1853	 0.179954928455727 
1854	 0.179416651481299 
1855	 0.178841592769523 
1856	 0.178199847976574 
1857	 0.177497038006293 
1858	 0.17676745810372 
1859	 0.175974625037465 
1860	 0.175108668308652 
1861	 0.174182452688935 
1862	 0.173206997886238 
1863	 0.172146714848199 
1864	 0.171012608789322 
1865	 0.169827917234746 
1866	 0.168530220371181 
1867	 0.16714043009663 
1868	 0.165673852679635 
1869	 0.164093447988648 
1870	 0.162443615860303 
1871	 0.160687812169868 
1872	 0.158841284898713 
1873	 0.156905231403937 
1874	 0.154884109320381 
1875	 0.152709470390033 
1876	 0.150477548703523 
1877	 0.148145055041663 
1878	 0.145687377662965 
1879	 0.143177406857969 
1880	 0.140555102754225 
1881	 0.137775471120148 
1882	 0.134995151618056 
1883	 0.132154326717173 
1884	 0.129189097080594 
1885	 0.126233517031429 
1886	 0.123253336406574 
1887	 0.120183138353967 
1888	 0.11713437636038 
1889	 0.1140743919185 
1890	 0.111017731692201 
1891	 0.108058898348198 
1892	 0.105101368440164 
1893	 0.102289499127675 
1894	 9.95711798443568E-02 
1895	 9.69499720013831E-02 
1896	 9.44021426835465E-02 
1897	 9.20023034392234E-02 
1898	 8.96772788104913E-02 
1899	 8.74533030661739E-02 
1900	 8.54023615766937E-02 
1901	 8.34633645197794E-02 
1902	 8.16682288667306E-02 
1903	 8.00682502800862E-02 
1904	 7.85303434107436E-02 
1905	 7.70976314428866E-02 
1906	 7.57832948061568E-02 
1907	 7.45669222458037E-02 
1908	 7.34312437374357E-02 
1909	 7.24137508428704E-02 
1910	 7.14778344114923E-02 
1911	 7.06226491931921E-02 
1912	 6.98586747823505E-02 
1913	 6.91433293741779E-02 
1914	 6.85188798998089E-02 
1915	 6.79129354898416E-02 
1916	 6.73539596725568E-02 
1917	 6.68285663619165E-02 
1918	 6.63628714181202E-02 
1919	 6.59379975676429E-02 
1920	 6.55862046057661E-02 
1921	 6.52740873072209E-02 
1922	 6.49973641323753E-02 
1923	 6.47531441315177E-02 
1924	 6.45288976161381E-02 
1925	 6.43367311095704E-02 
1926	 6.41739845362439E-02 
1927	 0.064036607442482 
1928	 6.39141154689322E-02 
1929	 6.38352804962203E-02 
1930	 6.37667823041665E-02 
1931	 6.37410550393039E-02 
1932	 6.37492940595211E-02 
1933	 6.37851506731084E-02 
1934	 0.063855875758304 
1935	 6.39344371145118E-02 
1936	 6.40213609346843E-02 
1937	 6.41415904574215E-02 
1938	 6.42819435186327E-02 
1939	 6.44466810002999E-02 
1940	 6.46372103590485E-02 
1941	 0.064861960086195 
1942	 0.06509111093539 
1943	 6.53276886250533E-02 
1944	 6.55713541115137E-02 
1945	 6.58211193461035E-02 
1946	 6.60919374040314E-02 
1947	 6.63850474242179E-02 
1948	 0.066684309137875 
1949	 6.69928992994474E-02 
1950	 0.067314464350956 
1951	 6.76549070271752E-02 
1952	 6.79860607079508E-02 
1953	 6.83271748033491E-02 
1954	 0.068711050872736 
1955	 6.90936010036815E-02 
1956	 6.94923263143637E-02 
1957	 6.98925176872445E-02 
1958	 7.03036929801213E-02 
1959	 7.07156107893072E-02 
1960	 0.071126317775103 
1961	 7.15521345483378E-02 
1962	 7.19845735342564E-02 
1963	 7.24372962026646E-02 
1964	 7.29117419127952E-02 
1965	 7.33835924346112E-02 
1966	 7.38668177930033E-02 
1967	 7.43571394023184E-02 
1968	 7.48454771238345E-02 
1969	 7.53343522854136E-02 
1970	 7.58241937657571E-02 
1971	 7.63134501372873E-02 
1972	 7.68108173533322E-02 
1973	 7.73087106062732E-02 
1974	 7.78135360843377E-02 
1975	 7.83248705520273E-02 
1976	 7.88456500133504E-02 
1977	 7.93704760077063E-02 
1978	 7.98913913075249E-02 
1979	 8.04249181735414E-02 
1980	 8.09700537376154E-02 
1981	 8.15146319512155E-02 
1982	 8.20624181927585E-02 
1983	 8.26210393996565E-02 
1984	 8.32003303949429E-02 
1985	 8.37546317415022E-02 
1986	 8.43040569750621E-02 
1987	 8.48514641459771E-02 
1988	 8.53762915228521E-02 
1989	 8.59165319414167E-02 
1990	 8.64634478949985E-02 
1991	 8.70181807864694E-02 
1992	 8.75727677618471E-02 
1993	 8.81282153479753E-02 
1994	 8.86875723496389E-02 
1995	 8.92586340275533E-02 
1996	 8.98173776446911E-02 
1997	 9.03661623992437E-02 
1998	 0.090926362116076 
1999	 9.14903220617908E-02 
2000	 9.20503616352289E-02 
2001	 9.26106499950137E-02 
2002	 9.31873382019815E-02 
2003	 9.37492336295378E-02 
2004	 9.42952983762105E-02 
2005	 9.48407512344741E-02 
2006	 9.53794319885807E-02 
2007	 9.59229088497428E-02 
2008	 9.64575917818404E-02 
2009	 9.70000169271453E-02 
2010	 0.097553326551268 
2011	 9.80993337594341E-02 
2012	 9.86440595160978E-02 
2013	 9.91887783200487E-02 
2014	 9.97313246280571E-02 
2015	 0.10027429829754 
2016	 0.100822871343397 
2017	 0.101351029159638 
2018	 0.101888801642349 
2019	 0.102434024710937 
2020	 0.102960795107827 
2021	 0.103478010792639 
2022	 0.103998145370642 
2023	 0.10450973028698 
2024	 0.105019846179995 
2025	 0.105536931226679 
2026	 0.106042480396406 
2027	 0.106533127198424 
2028	 0.107020533173762 
2029	 0.107524796715616 
2030	 0.108033293720088 
2031	 0.108537368410439 
2032	 0.10905825948038 
2033	 0.109556592502129 
2034	 0.110039619298394 
2035	 0.110525735695481 
2036	 0.111011056067841 
2037	 0.111486982653849 
2038	 0.111949829973613 
2039	 0.112417640986152 
2040	 0.11289411992711 
2041	 0.113345309036778 
2042	 0.113781942699932 
2043	 0.114249040848159 
2044	 0.114705891810404 
2045	 0.115154554946321 
2046	 0.115607236682615 
2047	 0.116068250228412 
2048	 0.116527455502083 
2049	 0.116982393747965 
2050	 0.117438529566686 
2051	 0.11791219112422 
2052	 0.118361769417258 
2053	 0.118791616584011 
2054	 0.119225550132309 
2055	 0.119648935235087 
2056	 0.120073782813028 
2057	 0.120496780618885 
2058	 0.120920809046699 
2059	 0.121346229546316 
2060	 0.121765461051622 
2061	 0.122192928270598 
2062	 0.122630966537188 
2063	 0.12306035689562 
2064	 0.123493334249614 
2065	 0.123916115379721 
2066	 0.124334763393483 
2067	 0.124746660326578 
2068	 0.125149354929007 
2069	 0.125549802126021 
2070	 0.125944154563408 
2071	 0.126333581628774 
2072	 0.126713805919646 
2073	 0.127075458740455 
2074	 0.127461702130803 
2075	 0.127853981092316 
2076	 0.128243073163252 
2077	 0.128644171441379 
2078	 0.129042268987488 
2079	 0.129434058515509 
2080	 0.129825971401232 
2081	 0.130241902255168 
2082	 0.130627477581031 
2083	 0.130991168466527 
2084	 0.131347545976774 
2085	 0.13171136448059 
2086	 0.1320557687982 
2087	 0.132423949590482 
2088	 0.132812518919285 
2089	 0.133187784110834 
2090	 0.133561041927289 
2091	 0.133937834349231 
2092	 0.134329514729484 
2093	 0.134692424111883 
2094	 0.135040717201699 
2095	 0.135391347981946 
2096	 0.135712333510233 
2097	 0.136051752503314 
2098	 0.136400385225566 
2099	 0.136763917518244 
2100	 0.137111014490275 
2101	 0.137461657398933 
2102	 0.13779771672908 
2103	 0.138119647124793 
2104	 0.138449064635562 
2105	 0.138767789565113 
2106	 0.139100226519948 
2107	 0.13944796492398 
2108	 0.139780787311177 
2109	 0.140112624617725 
2110	 0.140443450444631 
2111	 0.140758710332402 
2112	 0.141086019299762 
2113	 0.141426516760138 
2114	 0.141759746672572 
2115	 0.142090003889155 
2116	 0.142423348810708 
2117	 0.142748132198951 
2118	 0.143073139245909 
2119	 0.143376182276645 
2120	 0.143670549992386 
2121	 0.143955722223686 
2122	 0.144223706494822 
2123	 0.144483652961934 
2124	 0.144719186358404 
2125	 0.14497756142018 
2126	 0.145232876736111 
2127	 0.145493682977795 
2128	 0.145791058218103 
2129	 0.146058611390706 
2130	 0.146320965826862 
2131	 0.146556899721126 
2132	 0.146778247990469 
2133	 0.146981588303175 
2134	 0.147171690259854 
2135	 0.147338618526089 
2136	 0.147504750686709 
2137	 0.147657850013081 
2138	 0.147805695796958 
2139	 0.147944206009621 
2140	 0.148079760923758 
2141	 0.1482053002483 
2142	 0.148331819987078 
2143	 0.14846085093276 
2144	 0.148578306534326 
2145	 0.148694622208822 
2146	 0.148797737689281 
2147	 0.148881636821542 
2148	 0.148961048360019 
2149	 0.14905730112129 
2150	 0.149161323337041 
2151	 0.149243610417981 
2152	 0.149338121500817 
2153	 0.149404806927801 
2154	 0.149442542257508 
2155	 0.149478923340165 
2156	 0.149498949607815 
2157	 0.149529137038218 
2158	 0.149566895944238 
2159	 0.149577573100872 
2160	 0.149576308456724 
2161	 0.149577763225902 
2162	 0.149557889271077 
2163	 0.149537814314767 
2164	 0.149525489112893 
2165	 0.149511845013467 
2166	 0.149485443455873 
2167	 0.149438296736371 
2168	 0.149408108850468 
2169	 0.149380659559858 
2170	 0.149353134284838 
2171	 0.149325358473598 
2172	 0.149304593389119 
2173	 0.149296915332821 
2174	 0.149269658082971 
2175	 0.149248871142522 
2176	 0.149207102410113 
2177	 0.149140435943545 
2178	 0.149075731986417 
2179	 0.148992654019404 
2180	 0.148921356516173 
2181	 0.148870765456531 
2182	 0.148790156655284 
2183	 0.148682685091717 
2184	 0.148596939156307 
2185	 0.148508752109282 
2186	 0.14838471998059 
2187	 0.148324789694498 
2188	 0.148315484736195 
2189	 0.148276837099866 
2190	 0.148256748281086 
2191	 0.148219280740615 
2192	 0.148171812604937 
2193	 0.148118694590269 
2194	 0.148052291003221 
2195	 0.147999782817591 
2196	 0.147950857483461 
2197	 0.147892167696289 
2198	 0.147820743564115 
2199	 0.147777988616315 
2200	 0.147747249496479 
2201	 0.147708103074292 
2202	 0.147687906328528 
2203	 0.147673878407932 
2204	 0.147641364666433 
2205	 0.14757825590945 
2206	 0.14755459780889 
2207	 0.147546473596858 
2208	 0.147535309592822 
2209	 0.147542429751539 
2210	 0.14753428501286 
2211	 0.147511682613764 
2212	 0.14750756201405 
2213	 0.147510799163826 
2214	 0.14751275799344 
2215	 0.147529466809164 
2216	 0.147532826945497 
2217	 0.147518800883383 
2218	 0.147521097944808 
2219	 0.14753921480148 
2220	 0.147541075844051 
2221	 0.147558494414805 
2222	 0.147548694977648 
2223	 0.147495546702369 
2224	 0.147433812656545 
2225	 0.147411939524344 
2226	 0.147405866148823 
2227	 0.14736290533002 
2228	 0.147331675462986 
2229	 0.147294117312622 
2230	 0.14721079448213 
2231	 0.147163389760005 
2232	 0.147162977372811 
2233	 0.147120612536944 
2234	 0.147049709699787 
2235	 0.146990016626097 
2236	 0.146929733474693 
2237	 0.146862844432343 
2238	 0.146801585600872 
2239	 0.14672724154651 
2240	 0.146637478455984 
2241	 0.146547357112303 
2242	 0.146440799265503 
2243	 0.146348097721841 
2244	 0.146265770910977 
2245	 0.146179331973765 
2246	 0.146087677249143 
2247	 0.145974058888459 
2248	 0.145863190275108 
2249	 0.145731772818732 
2250	 0.14561877831898 
2251	 0.145518145275496 
2252	 0.145403525695804 
2253	 0.145279505754738 
2254	 0.145166237083906 
2255	 0.145044141690379 
2256	 0.144942259023031 
2257	 0.144863645992296 
2258	 0.14477165081006 
2259	 0.144684769625492 
2260	 0.144590955694786 
2261	 0.14449205004127 
2262	 0.144392814474992 
2263	 0.144301461257629 
2264	 0.144189792855855 
2265	 0.144052177945521 
2266	 0.143929399757695 
2267	 0.143800857651213 
2268	 0.143677765986849 
2269	 0.143556565245223 
2270	 0.143462157639868 
2271	 0.143363672167758 
2272	 0.143248683188315 
2273	 0.143148107444969 
2274	 0.14299854941748 
2275	 0.142845018585796 
2276	 0.142644619512884 
2277	 0.142510120310992 
2278	 0.142393774682542 
2279	 0.142275899401164 
2280	 0.142205908741731 
2281	 0.14207226385091 
2282	 0.141896918903252 
2283	 0.141752774465647 
2284	 0.141593485611566 
2285	 0.14144638687531 
2286	 0.141329133331972 
2287	 0.141175833461923 
2288	 0.141009401982648 
2289	 0.140843772559771 
2290	 0.140654921904786 
2291	 0.140481035786871 
2292	 0.140305237558116 
2293	 0.140132674725222 
2294	 0.139988488851723 
2295	 0.139811237646 
2296	 0.139622320147198 
2297	 0.139418830973281 
2298	 0.139200453220307 
2299	 0.138984841792649 
2300	 0.138777981431012 
2301	 0.1385940243658 
2302	 0.138411716155655 
2303	 0.138226760892978 
2304	 0.138053805169124 
2305	 0.137860546027945 
2306	 0.137651523276818 
2307	 0.137423997893267 
2308	 0.137204051110593 
2309	 0.136966995063596 
2310	 0.136741943762151 
2311	 0.136534578917764 
2312	 0.13628249200586 
2313	 0.136001184418044 
2314	 0.135753953093269 
2315	 0.135489321146661 
2316	 0.135247866260599 
2317	 0.13504885177814 
2318	 0.13482090219693 
2319	 0.134575408458159 
2320	 0.134347176881536 
2321	 0.134148100256141 
2322	 0.133894671684568 
2323	 0.133603248240141 
2324	 0.133336140931805 
2325	 0.1330394101553 
2326	 0.132767663243307 
2327	 0.132526693345232 
2328	 0.132291019421899 
2329	 0.132026210817396 
2330	 0.131747619334037 
2331	 0.131483288619003 
2332	 0.131205650453788 
2333	 0.130946724566789 
2334	 0.130719826302902 
2335	 0.13049780636128 
2336	 0.13029274974276 
2337	 0.130050273679919 
2338	 0.129769374006544 
2339	 0.12950039527133 
2340	 0.129212996889922 
2341	 0.128955986924331 
2342	 0.128712546518963 
2343	 0.128421555892057 
2344	 0.128118781773147 
2345	 0.127806641169526 
2346	 0.127474393674903 
2347	 0.127128456843516 
2348	 0.126761449537168 
2349	 0.126411322259121 
2350	 0.126035169031948 
2351	 0.125711379597667 
2352	 0.125433165974523 
2353	 0.125127834636842 
2354	 0.124852754185221 
2355	 0.124533449334147 
2356	 0.124182755824041 
2357	 0.123825202086455 
2358	 0.123421519157674 
2359	 0.123069522981175 
2360	 0.122725711870598 
2361	 0.122397812282056 
2362	 0.122126245451109 
2363	 0.12182205958028 
2364	 0.121511763872146 
2365	 0.121190943720334 
2366	 0.12087835312919 
2367	 0.120510081053641 
2368	 0.120066446458767 
2369	 0.119686957633673 
2370	 0.119319150234203 
2371	 0.118928462795803 
2372	 0.118604154181465 
2373	 0.118262001056636 
2374	 0.117859321766035 
2375	 0.117536042295865 
2376	 0.117170905657858 
2377	 0.116798907974181 
2378	 0.116501462419957 
2379	 0.116123434142917 
2380	 0.115797725693349 
2381	 0.115493043083391 
2382	 0.115091080288305 
2383	 0.114766722281579 
2384	 0.114393944258981 
2385	 0.113960677802127 
2386	 0.11354891133952 
2387	 0.113108141325474 
2388	 0.112657906136083 
2389	 0.112244320030044 
2390	 0.111900236235852 
2391	 0.111543549748358 
2392	 0.111225800606412 
2393	 0.110869727876607 
2394	 0.110439940845349 
2395	 0.11005666755079 
2396	 0.109669610753352 
2397	 0.109312668168981 
2398	 0.108969106505887 
2399	 0.108613508657901 
2400	 0.108198849545428 
2401	 0.107783075443331 
2402	 0.10749740597576 
2403	 0.107145111491787 
2404	 0.106747071950094 
2405	 0.106344974504186 
2406	 0.105881240894032 
2407	 0.105481929791968 
2408	 0.105063489637541 
2409	 0.104650594724049 
2410	 0.104282709192765 
2411	 0.103857373068994 
2412	 0.103505172068138 
2413	 0.103172123076086 
2414	 0.102757898860206 
2415	 0.102322754093796 
2416	 0.101897478844104 
2417	 0.101444346690474 
2418	 0.101033945385676 
2419	 0.100657020625703 
2420	 0.100264849697157 
2421	 9.98671468716964E-02 
2422	 9.94750986028073E-02 
2423	 9.90627449344629E-02 
2424	 9.86885691168378E-02 
2425	 9.83872080350672E-02 
2426	 9.79814515106406E-02 
2427	 9.75390442064437E-02 
2428	 9.71334532030687E-02 
2429	 9.66636189498259E-02 
2430	 9.62272761689071E-02 
2431	 9.58843944684604E-02 
2432	 9.54761034574471E-02 
2433	 9.49876209402159E-02 
2434	 9.45780491528139E-02 
2435	 9.41343814356699E-02 
2436	 9.37576747354582E-02 
2437	 9.35408582149542E-02 
2438	 9.31820307636789E-02 
2439	 0.092822355919838 
2440	 9.23895610531734E-02 
2441	 9.17597711215857E-02 
2442	 9.13164223373044E-02 
2443	 9.09381262622504E-02 
2444	 9.05879777789658E-02 
2445	 9.03267582520803E-02 
2446	 9.00136259750988E-02 
2447	 8.97848434342608E-02 
2448	 8.93975849332123E-02 
2449	 8.88838686539934E-02 
2450	 0.088452196459187 
2451	 8.79152451313289E-02 
2452	 8.74849228475627E-02 
2453	 8.71782642696002E-02 
2454	 8.68683023529417E-02 
2455	 8.66515630708542E-02 
2456	 8.62123259919998E-02 
2457	 8.56693336138565E-02 
2458	 8.52055619828019E-02 
2459	 8.45675792656488E-02 
2460	 0.084115047834879 
2461	 8.38603529559515E-02 
2462	 8.34857950328543E-02 
2463	 8.30708932756331E-02 
2464	 8.27773262702344E-02 
2465	 8.25405889049854E-02 
2466	 8.22512636600235E-02 
2467	 8.20467913563874E-02 
2468	 8.17173690374415E-02 
2469	 8.12908852780529E-02 
2470	 8.09135670066901E-02 
2471	 0.080473502520828 
2472	 8.01690880803539E-02 
2473	 7.97724219734911E-02 
2474	 7.92463274035918E-02 
2475	 7.88565847869654E-02 
2476	 7.85865933631158E-02 
2477	 7.83819448425557E-02 
2478	 7.81644981107785E-02 
2479	 7.79278946227746E-02 
2480	 7.76731039335937E-02 
2481	 7.71781104300903E-02 
2482	 7.67115836669787E-02 
2483	 0.076520434203631 
2484	 7.63076360893822E-02 
2485	 7.60759847835132E-02 
2486	 7.57934768776216E-02 
2487	 7.54697076527173E-02 
2488	 7.51866461043573E-02 
2489	 7.48863057446588E-02 
2490	 7.47006718863655E-02 
2491	 7.44991429276515E-02 
2492	 7.41311988264218E-02 
2493	 7.37750761344616E-02 
2494	 7.35909099938581E-02 
2495	 7.33955095641946E-02 
2496	 7.32095903799632E-02 
2497	 7.32102232150785E-02 
2498	 7.30327943978928E-02 
2499	 7.27862738151813E-02 
2500	 7.27980854622737E-02 
