Wavelength	mm1300002.asd
350	 7.68267542997601E-02 
351	 7.61239514095343E-02 
352	 6.66082506041331E-02 
353	 5.25837891512146E-02 
354	 0.059701424985378 
355	 6.86193533381261E-02 
356	 0.069991374415602 
357	 0.062825944104333 
358	 6.34007347252467E-02 
359	 6.21169751444103E-02 
360	 6.05690368461693E-02 
361	 6.62184295737705E-02 
362	 6.28172092984205E-02 
363	 6.21012093300482E-02 
364	 6.77559773214726E-02 
365	 6.59997983379374E-02 
366	 6.31017495396997E-02 
367	 6.31235579371087E-02 
368	 6.68165608017481E-02 
369	 6.47983127250762E-02 
370	 6.38343960153683E-02 
371	 6.56949195385486E-02 
372	 6.78776449937267E-02 
373	 6.40384810687746E-02 
374	 6.16209713471963E-02 
375	 6.39807411668811E-02 
376	 6.46101893475062E-02 
377	 0.063942851038645 
378	 6.40386230086804E-02 
379	 6.66123980539209E-02 
380	 6.96067746424033E-02 
381	 6.97583794670064E-02 
382	 0.068768038772821 
383	 7.13884377952152E-02 
384	 7.12751327258732E-02 
385	 0.069671275461037 
386	 6.92152739804029E-02 
387	 7.34789848225873E-02 
388	 7.39328766679144E-02 
389	 7.26667623291562E-02 
390	 7.37731145504354E-02 
391	 7.29803170186903E-02 
392	 7.26995305999034E-02 
393	 7.40989151579512E-02 
394	 0.076773417190549 
395	 7.62040232785556E-02 
396	 7.50855709846337E-02 
397	 7.56458266136919E-02 
398	 7.66257737540815E-02 
399	 7.66480298861347E-02 
400	 7.68558405277834E-02 
401	 7.86326688578991E-02 
402	 7.90878590301274E-02 
403	 7.82940673086675E-02 
404	 7.75718525592765E-02 
405	 7.90690028015131E-02 
406	 7.87635576514436E-02 
407	 7.83689254129943E-02 
408	 7.91878528043225E-02 
409	 7.83775054395769E-02 
410	 7.83464762713715E-02 
411	 7.93631752154864E-02 
412	 8.05749015860932E-02 
413	 8.13360809412934E-02 
414	 0.080539622037909 
415	 7.89453258599703E-02 
416	 7.96064394348334E-02 
417	 8.02163544328805E-02 
418	 8.05520878814941E-02 
419	 8.08738132755842E-02 
420	 0.081404118847494 
421	 0.080870094144514 
422	 8.02919225401302E-02 
423	 8.17111158737312E-02 
424	 8.09884462849507E-02 
425	 8.05929357530894E-02 
426	 8.16578978577639E-02 
427	 0.08143454644963 
428	 8.09182402026575E-02 
429	 8.07965698580806E-02 
430	 8.13663886112322E-02 
431	 8.13767750692123E-02 
432	 8.11011458911908E-02 
433	 0.080930520134567 
434	 0.081250221656811 
435	 8.15770128434995E-02 
436	 8.18282860322056E-02 
437	 8.19080219454534E-02 
438	 0.081333934067414 
439	 0.081366486898613 
440	 8.18217793089961E-02 
441	 8.19007532394595E-02 
442	 8.23671797315274E-02 
443	 8.27545733822883E-02 
444	 8.27596582247355E-02 
445	 8.24647758917536E-02 
446	 8.24517871540459E-02 
447	 8.26960835242822E-02 
448	 8.29453649407004E-02 
449	 8.28943863597929E-02 
450	 0.082787409820485 
451	 8.29123399560084E-02 
452	 8.35038871181403E-02 
453	 0.083490065217787 
454	 8.32686875325477E-02 
455	 8.33074910513848E-02 
456	 8.36296905064326E-02 
457	 0.083582038582966 
458	 8.33140929116347E-02 
459	 8.33274089480847E-02 
460	 8.36704117232525E-02 
461	 8.36573021273853E-02 
462	 8.32296692545511E-02 
463	 8.32732044874614E-02 
464	 8.35879566732675E-02 
465	 8.38455131956471E-02 
466	 8.38234759612804E-02 
467	 8.39402093230437E-02 
468	 8.39937087773743E-02 
469	 8.39907608005173E-02 
470	 8.41056486061478E-02 
471	 8.42455182731986E-02 
472	 8.42686911968332E-02 
473	 8.41729826531446E-02 
474	 8.43127121294611E-02 
475	 8.43342655340503E-02 
476	 8.42922063180607E-02 
477	 8.43910782319691E-02 
478	 8.45306554530565E-02 
479	 8.46308032193845E-02 
480	 8.46586529491136E-02 
481	 8.46354121773583E-02 
482	 8.48786689764746E-02 
483	 8.51197837023303E-02 
484	 0.085042864781793 
485	 8.48180429582283E-02 
486	 8.48081098606932E-02 
487	 8.49881634085167E-02 
488	 8.50254689766576E-02 
489	 8.51671981375413E-02 
490	 8.53444413943176E-02 
491	 8.54437922485641E-02 
492	 8.53701131017848E-02 
493	 8.51822756413891E-02 
494	 8.50848767898116E-02 
495	 8.53019584598537E-02 
496	 8.56871166515385E-02 
497	 8.57854208436324E-02 
498	 8.55987083192425E-02 
499	 8.58393826184002E-02 
500	 8.58427672586066E-02 
501	 8.57176641436179E-02 
502	 8.57380127753028E-02 
503	 8.58737490976402E-02 
504	 8.58706133123141E-02 
505	 8.57614887230395E-02 
506	 8.58326177899797E-02 
507	 8.59162588957412E-02 
508	 8.59991241372754E-02 
509	 8.60830734247381E-02 
510	 8.61360461319691E-02 
511	 8.61657513702643E-02 
512	 0.086163439714834 
513	 0.086132878013233 
514	 8.62626066267619E-02 
515	 8.63966442064732E-02 
516	 8.64582319524843E-02 
517	 8.65808592919376E-02 
518	 8.65734383411082E-02 
519	 8.65156432031294E-02 
520	 8.65542436345875E-02 
521	 8.66745526082856E-02 
522	 0.086847232364294 
523	 8.69592523385185E-02 
524	 8.68228715619547E-02 
525	 8.68408066863202E-02 
526	 8.69428451288641E-02 
527	 8.69939824803122E-02 
528	 8.70214738144654E-02 
529	 8.70585776039948E-02 
530	 8.70768272120108E-02 
531	 8.70230098715701E-02 
532	 8.70473047541959E-02 
533	 8.72078000001289E-02 
534	 8.74452029820506E-02 
535	 0.087490126389922 
536	 8.75002737543274E-02 
537	 8.75593812210825E-02 
538	 8.76978896302607E-02 
539	 8.77744303341252E-02 
540	 8.77810443367375E-02 
541	 8.77660660722871E-02 
542	 8.78335896937601E-02 
543	 8.79276676004929E-02 
544	 8.80423882089832E-02 
545	 8.81640728703692E-02 
546	 8.81986207503527E-02 
547	 8.82373719037432E-02 
548	 8.83262578324445E-02 
549	 8.84627771232172E-02 
550	 8.85747763944221E-02 
551	 8.86403168453441E-02 
552	 8.86897643386529E-02 
553	 8.88718127284412E-02 
554	 8.89608878835135E-02 
555	 8.90285806891531E-02 
556	 8.92690926197682E-02 
557	 8.94464691889055E-02 
558	 8.96209827569507E-02 
559	 8.98407476904122E-02 
560	 9.00790076105514E-02 
561	 9.02578855942593E-02 
562	 9.04340313895911E-02 
563	 9.06914554316849E-02 
564	 9.09919879206123E-02 
565	 9.11588411526197E-02 
566	 9.12029315317686E-02 
567	 9.13482461790626E-02 
568	 9.15596398239177E-02 
569	 9.18475207821702E-02 
570	 9.22180869003753E-02 
571	 9.26653043907074E-02 
572	 9.30831009012897E-02 
573	 9.34424207193814E-02 
574	 9.37725443918251E-02 
575	 9.40493004351825E-02 
576	 9.44265749401442E-02 
577	 0.094933614227578 
578	 9.52679005102132E-02 
579	 9.56067915861096E-02 
580	 0.0959702084652 
581	 9.63151785310725E-02 
582	 9.66066198467909E-02 
583	 9.69450369754807E-02 
584	 0.097390340267828 
585	 9.79322243257261E-02 
586	 9.85630204380174E-02 
587	 9.91732791781451E-02 
588	 9.96880023396097E-02 
589	 0.100311356445869 
590	 0.100910271533955 
591	 0.101482276736696 
592	 0.102144833746006 
593	 0.102704956770732 
594	 0.103196995554622 
595	 0.103651598371339 
596	 0.103949338381351 
597	 0.104244553650243 
598	 0.104598748500776 
599	 0.105016357638932 
600	 0.105481395843912 
601	 0.105933083529256 
602	 0.106362562847516 
603	 0.106864018549036 
604	 0.107380643847925 
605	 0.107885072876783 
606	 0.108363480117028 
607	 0.108823818738958 
608	 0.109277410040834 
609	 0.109742400549722 
610	 0.110243218188999 
611	 0.110668617807843 
612	 0.111018632959551 
613	 0.111314137755455 
614	 0.111532997148408 
615	 0.111770300557942 
616	 0.112043875486564 
617	 0.112314616879454 
618	 0.112598397198166 
619	 0.112868076062849 
620	 0.113099228080451 
621	 0.113270918686308 
622	 0.113509207789743 
623	 0.113755078628996 
624	 0.113900133801573 
625	 0.114064513739126 
626	 0.114266229919535 
627	 0.114483023009461 
628	 0.114651153707886 
629	 0.114834061086443 
630	 0.11503723284505 
631	 0.115240327600898 
632	 0.115389476285714 
633	 0.115509862122249 
634	 0.115637526807116 
635	 0.11581012407954 
636	 0.115965336568334 
637	 0.116116847786985 
638	 0.116276315915038 
639	 0.116414362856734 
640	 0.116568289342886 
641	 0.116744761000683 
642	 0.116931664227278 
643	 0.117101004551465 
644	 0.117260629735876 
645	 0.11741406347095 
646	 0.117551653885878 
647	 0.117700749457888 
648	 0.1178886410418 
649	 0.118111220151278 
650	 0.118237173283663 
651	 0.118402689820278 
652	 0.118621203316223 
653	 0.118797956645027 
654	 0.118997926948701 
655	 0.119170545082244 
656	 0.119304299756727 
657	 0.119535209040758 
658	 0.119781064374911 
659	 0.119982628853207 
660	 0.120112251591861 
661	 0.120293989174615 
662	 0.120548172928158 
663	 0.120825082303589 
664	 0.120990116129982 
665	 0.121199773951576 
666	 0.121441757747414 
667	 0.121669126081179 
668	 0.121907605426372 
669	 0.122140680394302 
670	 0.122400033339461 
671	 0.122740740922845 
672	 0.122916248316224 
673	 0.123092178293241 
674	 0.123393118325769 
675	 0.123679929704933 
676	 0.123931317923408 
677	 0.124190443981433 
678	 0.124511472120436 
679	 0.124773893423626 
680	 0.125034039030315 
681	 0.125323023467857 
682	 0.125618972377882 
683	 0.125926302879048 
684	 0.126254421458474 
685	 0.126594737099421 
686	 0.126866806512576 
687	 0.127167864615732 
688	 0.127503567365199 
689	 0.1278154605839 
690	 0.128138080080444 
691	 0.128475941545392 
692	 0.128823702206246 
693	 0.129168239067341 
694	 0.129481218293772 
695	 0.129804984833105 
696	 0.13018286344649 
697	 0.130503392862296 
698	 0.130836351899811 
699	 0.13120973059161 
700	 0.131594699785493 
701	 0.131942802334608 
702	 0.132297582899726 
703	 0.132683077038754 
704	 0.133006923183538 
705	 0.133335900592245 
706	 0.133684179790421 
707	 0.134037017718791 
708	 0.134387083849286 
709	 0.134761000014121 
710	 0.135154235728468 
711	 0.13551410971403 
712	 0.135872482085025 
713	 0.136192796273609 
714	 0.136462703251629 
715	 0.136825625558842 
716	 0.137193030982199 
717	 0.137531916993081 
718	 0.13785626080169 
719	 0.138183874005315 
720	 0.138501214816103 
721	 0.13879700638158 
722	 0.139072062932402 
723	 0.139375164402508 
724	 0.139665156500871 
725	 0.139895360919697 
726	 0.140161129943714 
727	 0.14041311343181 
728	 0.140635712164945 
729	 0.140852469484371 
730	 0.14109794545325 
731	 0.141343497962387 
732	 0.141557010961449 
733	 0.141723959644281 
734	 0.141901297008454 
735	 0.142065186001884 
736	 0.142178034854241 
737	 0.142344043093217 
738	 0.142502166551215 
739	 0.142618707647957 
740	 0.142704698189495 
741	 0.142796563067612 
742	 0.142866517844642 
743	 0.142904967283372 
744	 0.142997293175062 
745	 0.143040054112328 
746	 0.143059692776219 
747	 0.143122243783847 
748	 0.143099161338337 
749	 0.14303947582006 
750	 0.143007134464588 
751	 0.143059700225681 
752	 0.14299317594515 
753	 0.142870406848805 
754	 0.142790089548346 
755	 0.142759992733681 
756	 0.142720226231499 
757	 0.142634535484666 
758	 0.142498306874264 
759	 0.142420090855565 
760	 0.142329227241053 
761	 0.142195778341574 
762	 0.142062346928278 
763	 0.141908733421332 
764	 0.141748238402478 
765	 0.141593023493814 
766	 0.141427315804678 
767	 0.141273296447851 
768	 0.141140577546795 
769	 0.14102002623205 
770	 0.140829827091209 
771	 0.140637374045798 
772	 0.140460431146136 
773	 0.140242743769284 
774	 0.140050861896752 
775	 0.139872016465742 
776	 0.139683819679576 
777	 0.13948964845816 
778	 0.139282679580093 
779	 0.139089646909388 
780	 0.138935098780732 
781	 0.138730314486524 
782	 0.138522528949437 
783	 0.138335083041461 
784	 0.138153756610408 
785	 0.137945855821903 
786	 0.13772460567614 
787	 0.13751222738397 
788	 0.137327479251721 
789	 0.137167785740111 
790	 0.13697802815388 
791	 0.136719865745045 
792	 0.136543569973365 
793	 0.136379431813138 
794	 0.136196230271252 
795	 0.136005869304131 
796	 0.135786956367916 
797	 0.135605102425899 
798	 0.135473460014846 
799	 0.135287065068928 
800	 0.1351158492569 
801	 0.134935994165354 
802	 0.134721474828499 
803	 0.134543418657328 
804	 0.134388159561095 
805	 0.134240125572024 
806	 0.134082566633636 
807	 0.133892290067698 
808	 0.133731011032188 
809	 0.133607988876439 
810	 0.133453577768639 
811	 0.133279242214108 
812	 0.133113991537036 
813	 0.132982221776531 
814	 0.132886398844289 
815	 0.132781371082553 
816	 0.132660363803467 
817	 0.132530068349069 
818	 0.132359796619805 
819	 0.132232473885156 
820	 0.132149587594907 
821	 0.132041435618071 
822	 0.131931245409044 
823	 0.131828217923527 
824	 0.131734261015617 
825	 0.131641762792883 
826	 0.131528449651998 
827	 0.131404991336177 
828	 0.13129409838997 
829	 0.131228142269836 
830	 0.131111913109181 
831	 0.130996746517306 
832	 0.130979241277901 
833	 0.130956034114929 
834	 0.130903347080063 
835	 0.130824662314752 
836	 0.130746687649709 
837	 0.130712062455978 
838	 0.130663694375062 
839	 0.130574397542111 
840	 0.130496432696773 
841	 0.130407495031046 
842	 0.130344858592118 
843	 0.130336662471264 
844	 0.130341480503552 
845	 0.13032300676145 
846	 0.130269579254918 
847	 0.130200877588782 
848	 0.13021883776747 
849	 0.130218883890511 
850	 0.130162840494949 
851	 0.130086138381341 
852	 0.130020609312729 
853	 0.130039141846159 
854	 0.130127214097789 
855	 0.130144813476164 
856	 0.130176222378307 
857	 0.130207410627076 
858	 0.130211979782666 
859	 0.130182044654827 
860	 0.13019488097053 
861	 0.13021828735722 
862	 0.130201858091884 
863	 0.130202954804108 
864	 0.130248988172204 
865	 0.130321978593141 
866	 0.130374778157168 
867	 0.130373437003079 
868	 0.130403948255596 
869	 0.130477417926881 
870	 0.130521814385228 
871	 0.130572546422019 
872	 0.130638167044047 
873	 0.13071383530382 
874	 0.130780087516858 
875	 0.130864481722507 
876	 0.130933478496377 
877	 0.130960927993605 
878	 0.130967003516813 
879	 0.131081242226368 
880	 0.131219192398628 
881	 0.131275275731831 
882	 0.131410403251484 
883	 0.131526767150091 
884	 0.131605055670275 
885	 0.131682365573953 
886	 0.131821346825223 
887	 0.131965058551795 
888	 0.132067169373921 
889	 0.132115460356643 
890	 0.132228524821666 
891	 0.132370389954886 
892	 0.132519076311654 
893	 0.132693433402295 
894	 0.132811863689176 
895	 0.132930800948946 
896	 0.13308395326185 
897	 0.133213693498321 
898	 0.133383174354607 
899	 0.133563471523854 
900	 0.133716141039235 
901	 0.133839584430494 
902	 0.134003924060248 
903	 0.134198945849073 
904	 0.134389488895872 
905	 0.134574648451579 
906	 0.134731917981287 
907	 0.134902388502751 
908	 0.135141541539789 
909	 0.135428404336176 
910	 0.135599751967651 
911	 0.135689374245951 
912	 0.135851955076932 
913	 0.136044113113474 
914	 0.136318963966622 
915	 0.136606393750836 
916	 0.136757386997259 
917	 0.136970066696044 
918	 0.137219712974389 
919	 0.137464563260563 
920	 0.137683578487409 
921	 0.137957324260761 
922	 0.138239598362532 
923	 0.13847868848443 
924	 0.138656029602722 
925	 0.138885466377792 
926	 0.139168810444566 
927	 0.139469003049233 
928	 0.139730834968947 
929	 0.140063934730927 
930	 0.140389679264696 
931	 0.140644133956119 
932	 0.140907582749347 
933	 0.141252707591242 
934	 0.141579431995826 
935	 0.14181957546828 
936	 0.14215657260832 
937	 0.142440572589865 
938	 0.142713704642487 
939	 0.143053630067454 
940	 0.143435507239564 
941	 0.143732156742202 
942	 0.144056841013445 
943	 0.144525865657968 
944	 0.144869813979045 
945	 0.145180896619836 
946	 0.145512823511016 
947	 0.145881855416267 
948	 0.146240922017654 
949	 0.146569946236924 
950	 0.146883858704672 
951	 0.147229667530513 
952	 0.147715356511205 
953	 0.148074807742849 
954	 0.148415730141046 
955	 0.148965477285499 
956	 0.149335536172324 
957	 0.149669416596027 
958	 0.150025517266465 
959	 0.150400613841792 
960	 0.150855993376446 
961	 0.151381269405226 
962	 0.151874761527925 
963	 0.152219204481668 
964	 0.152513436088815 
965	 0.152964276718297 
966	 0.153491039570401 
967	 0.153873035592081 
968	 0.154333896913497 
969	 0.154783980559456 
970	 0.155165567418284 
971	 0.15549618998363 
972	 0.155989006562307 
973	 0.156534469429626 
974	 0.157016025530684 
975	 0.157384899893219 
976	 0.157870924422055 
977	 0.158357204402663 
978	 0.158849010084602 
979	 0.159400753365802 
980	 0.159775610109888 
981	 0.160282697377825 
982	 0.160808040732042 
983	 0.16108120930997 
984	 0.16159083778005 
985	 0.162009885915117 
986	 0.162373898964435 
987	 0.16290304707858 
988	 0.16352251722578 
989	 0.16390525464126 
990	 0.164276237158178 
991	 0.164970756337811 
992	 0.165427483526596 
993	 0.165819928592937 
994	 0.166202721082486 
995	 0.166606881912784 
996	 0.167228963799083 
997	 0.167834954728393 
998	 0.168277937683613 
999	 0.168574528401607 
1000	 0.169091558603401 
1001	 0.169151800154344 
1002	 0.169567166708516 
1003	 0.170045420007975 
1004	 0.170482600869347 
1005	 0.170885518013389 
1006	 0.171300768580051 
1007	 0.171746841932581 
1008	 0.172112931135763 
1009	 0.172428955711714 
1010	 0.172770489928929 
1011	 0.173212634000615 
1012	 0.173603659302916 
1013	 0.173965774775033 
1014	 0.174414640506374 
1015	 0.174810112959087 
1016	 0.175138421935997 
1017	 0.175507970567774 
1018	 0.17593035035433 
1019	 0.176272670861856 
1020	 0.176545861166182 
1021	 0.176951278902114 
1022	 0.177307889712474 
1023	 0.177618262040155 
1024	 0.178031432146417 
1025	 0.178335761151971 
1026	 0.178604959124577 
1027	 0.178928647442445 
1028	 0.179182356352442 
1029	 0.179446897350371 
1030	 0.179804202613805 
1031	 0.180129945807709 
1032	 0.180444987857705 
1033	 0.180762353095932 
1034	 0.181133507733519 
1035	 0.18141997646718 
1036	 0.181712114213957 
1037	 0.182039227030548 
1038	 0.182324179419714 
1039	 0.182633312970763 
1040	 0.182951555600651 
1041	 0.183258843713831 
1042	 0.183554782165137 
1043	 0.183806750565666 
1044	 0.184078471275569 
1045	 0.184336270098264 
1046	 0.184631192724031 
1047	 0.184943635272857 
1048	 0.185305053943731 
1049	 0.185670590573879 
1050	 0.185991251920368 
1051	 0.186325204294055 
1052	 0.186612965872422 
1053	 0.186868910377184 
1054	 0.187138889663684 
1055	 0.187386775456462 
1056	 0.18766493648669 
1057	 0.18795769340652 
1058	 0.188287580149887 
1059	 0.188604828871804 
1060	 0.188934993075636 
1061	 0.189237142688192 
1062	 0.189545675977824 
1063	 0.189855119819012 
1064	 0.190135549523017 
1065	 0.190420359125681 
1066	 0.190716928274471 
1067	 0.191016846304357 
1068	 0.191302265488207 
1069	 0.191555538316415 
1070	 0.191818373106325 
1071	 0.192048672622853 
1072	 0.192314036115368 
1073	 0.19263605563795 
1074	 0.192900194410556 
1075	 0.193160080843711 
1076	 0.193369239848739 
1077	 0.193544512565052 
1078	 0.193720102206631 
1079	 0.193959027642433 
1080	 0.194208362128849 
1081	 0.194434543421402 
1082	 0.19466685589985 
1083	 0.194915698775088 
1084	 0.195172971750394 
1085	 0.195406095472669 
1086	 0.195643148164575 
1087	 0.195869140236975 
1088	 0.196063554114285 
1089	 0.196263903659099 
1090	 0.196483110631707 
1091	 0.196751442815998 
1092	 0.197003289004781 
1093	 0.197177445065671 
1094	 0.197331165258775 
1095	 0.197514026446734 
1096	 0.197708315889612 
1097	 0.197889618657433 
1098	 0.198093921798738 
1099	 0.198346919466149 
1100	 0.198548977203886 
1101	 0.198733470798228 
1102	 0.198927018093996 
1103	 0.199116160243979 
1104	 0.199279130806278 
1105	 0.199469907793428 
1106	 0.199641584401107 
1107	 0.199804168327886 
1108	 0.199990979023406 
1109	 0.20017896499088 
1110	 0.200367315658178 
1111	 0.200564740302075 
1112	 0.200792892265434 
1113	 0.200975489402791 
1114	 0.201133800115384 
1115	 0.201309165748293 
1116	 0.201454486302958 
1117	 0.201630045623618 
1118	 0.201822257822783 
1119	 0.202040057279831 
1120	 0.202242917010715 
1121	 0.202435614112107 
1122	 0.202614155705606 
1123	 0.202787979781419 
1124	 0.202973766647741 
1125	 0.203166336929514 
1126	 0.203339488280249 
1127	 0.203505988690098 
1128	 0.203681689959611 
1129	 0.203839647905904 
1130	 0.20402285051421 
1131	 0.204248961865712 
1132	 0.204430103664717 
1133	 0.204590047967535 
1134	 0.204759159056935 
1135	 0.204909265748426 
1136	 0.205064945815964 
1137	 0.205242992923318 
1138	 0.205402779228034 
1139	 0.205578090413783 
1140	 0.205769126491468 
1141	 0.205926413228781 
1142	 0.206080478359921 
1143	 0.206229350398111 
1144	 0.206343151736738 
1145	 0.206480012988168 
1146	 0.206643932872775 
1147	 0.206778601466171 
1148	 0.206890797628713 
1149	 0.207020130359891 
1150	 0.20715122594412 
1151	 0.207271681419791 
1152	 0.207402915502466 
1153	 0.207548947619095 
1154	 0.207675213621672 
1155	 0.207778784547087 
1156	 0.20791164145675 
1157	 0.20805229542601 
1158	 0.208192726732253 
1159	 0.208357193789763 
1160	 0.208500286866092 
1161	 0.208629479230317 
1162	 0.208759809477973 
1163	 0.208886660431428 
1164	 0.209009118359185 
1165	 0.209117437472066 
1166	 0.209250739343341 
1167	 0.209357373178604 
1168	 0.209477256488651 
1169	 0.209606082907406 
1170	 0.209744047011595 
1171	 0.20987310504156 
1172	 0.2100087809427 
1173	 0.210141389279376 
1174	 0.210270099768022 
1175	 0.210396245213154 
1176	 0.210526870070975 
1177	 0.210651966668782 
1178	 0.210769226225136 
1179	 0.21088546123957 
1180	 0.211000065586605 
1181	 0.211115167721147 
1182	 0.21122312268865 
1183	 0.21133921833768 
1184	 0.211450059474682 
1185	 0.211568285356864 
1186	 0.211665657868123 
1187	 0.211742002827531 
1188	 0.211844515845306 
1189	 0.211948390298526 
1190	 0.212053068876681 
1191	 0.212180733187179 
1192	 0.212288894374094 
1193	 0.212383491162035 
1194	 0.212478474403218 
1195	 0.212552508454442 
1196	 0.212655467775706 
1197	 0.212780662083512 
1198	 0.21289066083345 
1199	 0.213002473852768 
1200	 0.213140565405604 
1201	 0.213234762076307 
1202	 0.213296651417192 
1203	 0.21337634107157 
1204	 0.213443103078048 
1205	 0.213525263645558 
1206	 0.213617659969263 
1207	 0.213705704409165 
1208	 0.213794865236321 
1209	 0.213888297166628 
1210	 0.213988578698397 
1211	 0.214080068356229 
1212	 0.214172608757559 
1213	 0.214261873893005 
1214	 0.214341459261181 
1215	 0.214423314304646 
1216	 0.214505502405617 
1217	 0.214589646205272 
1218	 0.214672002013612 
1219	 0.214750063199614 
1220	 0.214836316948508 
1221	 0.214931135459958 
1222	 0.215014902377858 
1223	 0.21509858384158 
1224	 0.215179984811851 
1225	 0.21525899954794 
1226	 0.215328450364559 
1227	 0.215391381942419 
1228	 0.215457334301705 
1229	 0.215507530988261 
1230	 0.215571595603713 
1231	 0.215655935253851 
1232	 0.215726443763795 
1233	 0.215793618624496 
1234	 0.215859537649611 
1235	 0.215926087384904 
1236	 0.215983148912055 
1237	 0.216051109026367 
1238	 0.216130587881461 
1239	 0.216197999399325 
1240	 0.216265425358898 
1241	 0.216326559826752 
1242	 0.21637662777763 
1243	 0.216433370356421 
1244	 0.216486621576861 
1245	 0.216545121815705 
1246	 0.216612241034081 
1247	 0.216674292899706 
1248	 0.216741494703769 
1249	 0.216798085726502 
1250	 0.216851083389345 
1251	 0.216907536014867 
1252	 0.21696594976521 
1253	 0.217029114305289 
1254	 0.217083067783272 
1255	 0.21714183909109 
1256	 0.217183435200763 
1257	 0.217206807198947 
1258	 0.217238707221549 
1259	 0.217260314294891 
1260	 0.217293281872831 
1261	 0.217337489001877 
1262	 0.21737606115815 
1263	 0.217416690686474 
1264	 0.217455093315507 
1265	 0.217479052076323 
1266	 0.217520573853732 
1267	 0.217572896352676 
1268	 0.217631190140798 
1269	 0.217679176410907 
1270	 0.217732398431726 
1271	 0.217781396923303 
1272	 0.21781496182727 
1273	 0.217867595437993 
1274	 0.217932802677465 
1275	 0.218000280117788 
1276	 0.218065820154957 
1277	 0.21814549176323 
1278	 0.218240905378117 
1279	 0.218328288856938 
1280	 0.218421941226907 
1281	 0.218517317523068 
1282	 0.218604266176452 
1283	 0.218704604672825 
1284	 0.218818959526871 
1285	 0.218932779162584 
1286	 0.219037875479994 
1287	 0.21913814900183 
1288	 0.219243995007001 
1289	 0.219345723507907 
1290	 0.219446893746988 
1291	 0.219556355515932 
1292	 0.219655259527403 
1293	 0.21974525537706 
1294	 0.219827067732033 
1295	 0.219905264993164 
1296	 0.219982309304522 
1297	 0.220061900653045 
1298	 0.220122477633633 
1299	 0.220174563683863 
1300	 0.220214535110528 
1301	 0.220221382014309 
1302	 0.220241296817768 
1303	 0.220250837409934 
1304	 0.220292447580811 
1305	 0.220327080726663 
1306	 0.220351678678716 
1307	 0.2203500811972 
1308	 0.220334116377916 
1309	 0.220319356208114 
1310	 0.220279894217744 
1311	 0.220259331088492 
1312	 0.220249768500354 
1313	 0.220235270690772 
1314	 0.22022661357607 
1315	 0.220204592479836 
1316	 0.220178839635139 
1317	 0.220146199357001 
1318	 0.220096574589248 
1319	 0.220057193163994 
1320	 0.220013037869053 
1321	 0.219982040658015 
1322	 0.219964748799165 
1323	 0.219943266822362 
1324	 0.219913163042307 
1325	 0.219881308231773 
1326	 0.219832399047792 
1327	 0.219772595892757 
1328	 0.219717438599663 
1329	 0.219668046915957 
1330	 0.219612694916721 
1331	 0.219554897006724 
1332	 0.219494705798818 
1333	 0.219429004933349 
1334	 0.219369083343858 
1335	 0.219300296207983 
1336	 0.219257019343341 
1337	 0.219231525884856 
1338	 0.219198165633841 
1339	 0.219186376786845 
1340	 0.219150341585023 
1341	 0.219091471561043 
1342	 0.219047944131273 
1343	 0.218997662211829 
1344	 0.218959704716935 
1345	 0.218940835494277 
1346	 0.218905182475695 
1347	 0.218862503505394 
1348	 0.218829687435216 
1349	 0.218754956035876 
1350	 0.218673303913403 
1351	 0.218608432577102 
1352	 0.218532204192371 
1353	 0.21847060785546 
1354	 0.218437976913319 
1355	 0.218379565475128 
1356	 0.218303644891521 
1357	 0.218248295699101 
1358	 0.2181902422616 
1359	 0.218141347341365 
1360	 0.218105184756414 
1361	 0.21807193957148 
1362	 0.218050559142731 
1363	 0.2180192953025 
1364	 0.217997959395199 
1365	 0.217962037739642 
1366	 0.217907671804444 
1367	 0.21785121207062 
1368	 0.217819594299149 
1369	 0.217784231818812 
1370	 0.217754730833059 
1371	 0.21772607357721 
1372	 0.217669211046386 
1373	 0.217597374699143 
1374	 0.217507009899892 
1375	 0.217403875629036 
1376	 0.217274993065828 
1377	 0.217123520159839 
1378	 0.216956219451064 
1379	 0.216758338850624 
1380	 0.216566189425017 
1381	 0.216363548495755 
1382	 0.216154112365999 
1383	 0.215956882845057 
1384	 0.215722151337593 
1385	 0.215466230460474 
1386	 0.215198047571761 
1387	 0.214902816348122 
1388	 0.214600101883695 
1389	 0.21429962764422 
1390	 0.213965078720009 
1391	 0.213602821538356 
1392	 0.21323476275428 
1393	 0.212818899260553 
1394	 0.212387339376996 
1395	 0.211955054016233 
1396	 0.211495514987804 
1397	 0.211039407365239 
1398	 0.21058057200179 
1399	 0.210112971428788 
1400	 0.209627627034403 
1401	 0.209165310208734 
1402	 0.208698191713186 
1403	 0.208253125218772 
1404	 0.207814857320874 
1405	 0.207399510269303 
1406	 0.207007613185218 
1407	 0.206625517086639 
1408	 0.206249767766175 
1409	 0.205908257467378 
1410	 0.205575646115133 
1411	 0.205276179251311 
1412	 0.205000199537451 
1413	 0.204770467127163 
1414	 0.204585941626667 
1415	 0.204414892321084 
1416	 0.204261969603917 
1417	 0.20413656097447 
1418	 0.204004560211444 
1419	 0.203881639039298 
1420	 0.20378590806442 
1421	 0.203705355606939 
1422	 0.203635818903471 
1423	 0.203571468964842 
1424	 0.203484591682095 
1425	 0.203380555731604 
1426	 0.203301582935627 
1427	 0.203203773953828 
1428	 0.203143042514521 
1429	 0.203123929627207 
1430	 0.203090331994697 
1431	 0.203063217917064 
1432	 0.20303775726939 
1433	 0.203015826191969 
1434	 0.202994409457989 
1435	 0.202967977163494 
1436	 0.202959184035174 
1437	 0.20295296905244 
1438	 0.202959949115747 
1439	 0.202992346512989 
1440	 0.203014543562892 
1441	 0.203030335907025 
1442	 0.203044468265611 
1443	 0.2030437956033 
1444	 0.2030601884939 
1445	 0.203086301104719 
1446	 0.203117463090777 
1447	 0.203166158729173 
1448	 0.203205533030078 
1449	 0.20323029088876 
1450	 0.203269277649801 
1451	 0.203303990861765 
1452	 0.203329196277338 
1453	 0.203366328613467 
1454	 0.203408425391721 
1455	 0.203455011057436 
1456	 0.203506048411137 
1457	 0.203559900586291 
1458	 0.203623631464388 
1459	 0.20368563123301 
1460	 0.203739816586769 
1461	 0.203814818326743 
1462	 0.203902061366123 
1463	 0.203986604853634 
1464	 0.204078680049668 
1465	 0.204177845207118 
1466	 0.204277446830157 
1467	 0.204386675263145 
1468	 0.204504433789222 
1469	 0.204632533040991 
1470	 0.204770922413505 
1471	 0.204910540152509 
1472	 0.205055841835152 
1473	 0.20520948211014 
1474	 0.205356236091452 
1475	 0.205500106931589 
1476	 0.205645025507773 
1477	 0.205796365677299 
1478	 0.205946349050553 
1479	 0.206093240818595 
1480	 0.206246417168815 
1481	 0.206393115521979 
1482	 0.206546212903753 
1483	 0.206702641329035 
1484	 0.206856942790983 
1485	 0.207011427862013 
1486	 0.207175203870323 
1487	 0.207340863682066 
1488	 0.207508477247091 
1489	 0.207686901228218 
1490	 0.207854232478302 
1491	 0.208021255143648 
1492	 0.208178451742149 
1493	 0.208334316160897 
1494	 0.208478538822631 
1495	 0.208604727248844 
1496	 0.208738591794861 
1497	 0.208866655713587 
1498	 0.208996592708812 
1499	 0.209137680336451 
1500	 0.209266871420188 
1501	 0.209374853137573 
1502	 0.209504221471606 
1503	 0.209651251883034 
1504	 0.209769875097441 
1505	 0.209907916856774 
1506	 0.210064848684256 
1507	 0.210196287389272 
1508	 0.210327655378028 
1509	 0.210456256610027 
1510	 0.21057944834447 
1511	 0.210694132227117 
1512	 0.21079929741526 
1513	 0.210909967429467 
1514	 0.21102459373104 
1515	 0.211134920604418 
1516	 0.211253995976429 
1517	 0.211371518151226 
1518	 0.211487806081317 
1519	 0.211604946266764 
1520	 0.211729694697691 
1521	 0.211842625442123 
1522	 0.211946471331371 
1523	 0.2120557000447 
1524	 0.21216094083074 
1525	 0.212268614381048 
1526	 0.212379617856158 
1527	 0.212491741126194 
1528	 0.212605374443908 
1529	 0.212718721369193 
1530	 0.212841687622549 
1531	 0.212946575859954 
1532	 0.213044700228804 
1533	 0.213129196854977 
1534	 0.213198284242151 
1535	 0.213268965911174 
1536	 0.213324262742028 
1537	 0.213392697070755 
1538	 0.213468879022144 
1539	 0.213536118840294 
1540	 0.21360320503557 
1541	 0.213672820797243 
1542	 0.213731022713603 
1543	 0.213799451424289 
1544	 0.213891351326606 
1545	 0.213961103468476 
1546	 0.214017792950313 
1547	 0.214076945807835 
1548	 0.214145714499243 
1549	 0.21420851849797 
1550	 0.214274662911748 
1551	 0.214366003978056 
1552	 0.214437702001827 
1553	 0.214488292839711 
1554	 0.214554705405613 
1555	 0.21461205388096 
1556	 0.214661067538416 
1557	 0.214727381847195 
1558	 0.214795947380843 
1559	 0.214855747093787 
1560	 0.214914250878633 
1561	 0.214978528860605 
1562	 0.215020865600095 
1563	 0.215041862264389 
1564	 0.215089776198992 
1565	 0.215135809290496 
1566	 0.215189292931188 
1567	 0.215269539157187 
1568	 0.215317642579101 
1569	 0.215343077880027 
1570	 0.215390866821591 
1571	 0.215435574128313 
1572	 0.215488388551168 
1573	 0.215561820673621 
1574	 0.215617522083549 
1575	 0.215673006171428 
1576	 0.215711133402546 
1577	 0.215731282635459 
1578	 0.215762567918355 
1579	 0.21577718284993 
1580	 0.215811268684856 
1581	 0.215869183504451 
1582	 0.215911124552827 
1583	 0.215947198175963 
1584	 0.215992858336179 
1585	 0.216045768249265 
1586	 0.216084074918002 
1587	 0.216121996567586 
1588	 0.216155808440997 
1589	 0.216176215694665 
1590	 0.216195229337952 
1591	 0.216217812197306 
1592	 0.216236578123275 
1593	 0.216235576826793 
1594	 0.216253030611047 
1595	 0.216273225747065 
1596	 0.216307027225026 
1597	 0.216367160964335 
1598	 0.216413014825819 
1599	 0.216474297706264 
1600	 0.216510417897933 
1601	 0.216505070937568 
1602	 0.216530894309248 
1603	 0.216560724548725 
1604	 0.216592915919127 
1605	 0.216654897502795 
1606	 0.216703796463154 
1607	 0.216750191116284 
1608	 0.216777982664877 
1609	 0.216817110094059 
1610	 0.216828602782761 
1611	 0.216835521229003 
1612	 0.216859208391686 
1613	 0.216860526246701 
1614	 0.216866950772566 
1615	 0.216884174271734 
1616	 0.216878453368189 
1617	 0.216886350604238 
1618	 0.216912929505385 
1619	 0.216926987715869 
1620	 0.216960599454038 
1621	 0.216990448962616 
1622	 0.217032039705057 
1623	 0.217055067552218 
1624	 0.217069936472654 
1625	 0.217090451957097 
1626	 0.217108657485139 
1627	 0.217120766173872 
1628	 0.217130918632517 
1629	 0.217148152289487 
1630	 0.217160202550896 
1631	 0.217174593103297 
1632	 0.217199326572724 
1633	 0.217217533062324 
1634	 0.21722644708252 
1635	 0.217244414447713 
1636	 0.217277765007393 
1637	 0.217285334383809 
1638	 0.217276292728592 
1639	 0.217282754855619 
1640	 0.217278497890922 
1641	 0.217287988037912 
1642	 0.217313265957391 
1643	 0.217336765903387 
1644	 0.21735358129507 
1645	 0.217393107599925 
1646	 0.217462387745868 
1647	 0.21749565161932 
1648	 0.217532560232998 
1649	 0.217545568154234 
1650	 0.217514070729914 
1651	 0.217522984920664 
1652	 0.217544056313524 
1653	 0.2175580045899 
1654	 0.217586784443752 
1655	 0.21760308894689 
1656	 0.217611019548122 
1657	 0.217612752944294 
1658	 0.217623223230947 
1659	 0.217601944961542 
1660	 0.217538379842003 
1661	 0.217518559343103 
1662	 0.217503035013647 
1663	 0.217488021661501 
1664	 0.217500689772084 
1665	 0.217497150966183 
1666	 0.217467472461963 
1667	 0.217468027462531 
1668	 0.217484430945499 
1669	 0.217506297292331 
1670	 0.217556178351737 
1671	 0.217571247069449 
1672	 0.217571120896798 
1673	 0.217583148064996 
1674	 0.217586699591882 
1675	 0.217583627825347 
1676	 0.21759423946391 
1677	 0.217586297663115 
1678	 0.217537796226187 
1679	 0.21753224224083 
1680	 0.217544949562206 
1681	 0.217557818346774 
1682	 0.217587484818457 
1683	 0.217617204240844 
1684	 0.217667379885273 
1685	 0.217676901457554 
1686	 0.217668127771563 
1687	 0.217668039790594 
1688	 0.2176380749963 
1689	 0.217627989408103 
1690	 0.217638771525019 
1691	 0.217645207294853 
1692	 0.217651691677499 
1693	 0.217649361634541 
1694	 0.217645529249854 
1695	 0.217649357403438 
1696	 0.217637924498044 
1697	 0.217649521979248 
1698	 0.217697457582336 
1699	 0.217710039877389 
1700	 0.217713487964244 
1701	 0.217712605068109 
1702	 0.217696869741681 
1703	 0.217678565355713 
1704	 0.217660209441657 
1705	 0.217634420819186 
1706	 0.217592075229467 
1707	 0.217557050138395 
1708	 0.217512322233447 
1709	 0.217494377905814 
1710	 0.217490826604806 
1711	 0.217487651286068 
1712	 0.217516479040806 
1713	 0.217503790250444 
1714	 0.217468973922762 
1715	 0.217437127500129 
1716	 0.217380983451987 
1717	 0.21735048985562 
1718	 0.21732134506578 
1719	 0.217313726850095 
1720	 0.217335686157976 
1721	 0.21732961356305 
1722	 0.217331904708236 
1723	 0.21732255248335 
1724	 0.217291292280299 
1725	 0.217266709129013 
1726	 0.217250641757315 
1727	 0.217213335996908 
1728	 0.217157890578589 
1729	 0.21710867149169 
1730	 0.217048192033376 
1731	 0.217003675787316 
1732	 0.216968235862937 
1733	 0.21692792954942 
1734	 0.216898716594722 
1735	 0.216848454950161 
1736	 0.216779794402938 
1737	 0.216733654685498 
1738	 0.216682644428796 
1739	 0.216649105421188 
1740	 0.216643035969371 
1741	 0.216608260449281 
1742	 0.21656677959478 
1743	 0.216526444677374 
1744	 0.216487440533573 
1745	 0.216414750892286 
1746	 0.216321310450182 
1747	 0.21621968902979 
1748	 0.216138574537517 
1749	 0.216113034494247 
1750	 0.216099696058879 
1751	 0.216050013480924 
1752	 0.215988237761086 
1753	 0.215920130771937 
1754	 0.215844992008165 
1755	 0.215793550532666 
1756	 0.215743875099459 
1757	 0.215695430023192 
1758	 0.215650580954002 
1759	 0.215600447450052 
1760	 0.21555870891442 
1761	 0.215495641266992 
1762	 0.215433456096543 
1763	 0.215391372916999 
1764	 0.215324425105299 
1765	 0.21525447140236 
1766	 0.21518708293885 
1767	 0.215108313994154 
1768	 0.215058930294602 
1769	 0.215029229872219 
1770	 0.214992316600944 
1771	 0.214962474654631 
1772	 0.214921674065742 
1773	 0.214874646882826 
1774	 0.214846599462709 
1775	 0.214805933760534 
1776	 0.214765063253724 
1777	 0.214756577447454 
1778	 0.214706543760921 
1779	 0.214625472581427 
1780	 0.214587808457232 
1781	 0.214528163956902 
1782	 0.214492991724963 
1783	 0.214539742762405 
1784	 0.214544047849825 
1785	 0.214551015615392 
1786	 0.214543508930116 
1787	 0.214518430185149 
1788	 0.214489441472231 
1789	 0.214448712886138 
1790	 0.214419893630594 
1791	 0.214381307800723 
1792	 0.214355830304365 
1793	 0.214335801971574 
1794	 0.214332402772415 
1795	 0.214334179453336 
1796	 0.21434653807227 
1797	 0.214399925303013 
1798	 0.214412906160831 
1799	 0.214413145710447 
1800	 0.214408909619735 
1801	 0.214903185533456 
1802	 0.21496900465259 
1803	 0.2150639363322 
1804	 0.215189053362787 
1805	 0.21531806917975 
1806	 0.215448127030341 
1807	 0.215583982065336 
1808	 0.215684566930972 
1809	 0.215761619960991 
1810	 0.21581808346589 
1811	 0.215855767597432 
1812	 0.215880223589952 
1813	 0.215874035309204 
1814	 0.215863703443246 
1815	 0.215852942888546 
1816	 0.215845218112719 
1817	 0.215832333685179 
1818	 0.215807952682161 
1819	 0.215803774269814 
1820	 0.215812786855811 
1821	 0.215799728569539 
1822	 0.215806630620727 
1823	 0.215814768326145 
1824	 0.215799785038185 
1825	 0.215791449571206 
1826	 0.215801769681838 
1827	 0.215807714204807 
1828	 0.215798133788968 
1829	 0.2157910544719 
1830	 0.215768957684015 
1831	 0.215718507893033 
1832	 0.215690722609533 
1833	 0.215656933526371 
1834	 0.215606095043054 
1835	 0.215587666972769 
1836	 0.215554579439086 
1837	 0.215538258129191 
1838	 0.215563750705004 
1839	 0.215562903417479 
1840	 0.215559182831307 
1841	 0.215549344340699 
1842	 0.215537301616529 
1843	 0.215499435711874 
1844	 0.215459249905411 
1845	 0.215410714521617 
1846	 0.215331573284289 
1847	 0.215258050943942 
1848	 0.215203378499584 
1849	 0.215136471188078 
1850	 0.21506782608981 
1851	 0.215007822279457 
1852	 0.214940775685533 
1853	 0.214852611410471 
1854	 0.214741864598052 
1855	 0.214612054972511 
1856	 0.214467155106046 
1857	 0.214306344959679 
1858	 0.21414831625887 
1859	 0.213977859902737 
1860	 0.213769432563639 
1861	 0.213537006719409 
1862	 0.213272854425149 
1863	 0.212973993224853 
1864	 0.21264055518215 
1865	 0.212307892927625 
1866	 0.211939138793834 
1867	 0.211524367430266 
1868	 0.211094157994737 
1869	 0.2106092824304 
1870	 0.210082593701675 
1871	 0.209540145020073 
1872	 0.208979852717667 
1873	 0.208393637212834 
1874	 0.207758739850025 
1875	 0.207084016575408 
1876	 0.20638074833408 
1877	 0.205624418427412 
1878	 0.204813499780208 
1879	 0.2039750030054 
1880	 0.203043025024981 
1881	 0.202018521679133 
1882	 0.20094165340609 
1883	 0.199804463425236 
1884	 0.198575666739943 
1885	 0.197323082582317 
1886	 0.196009612211766 
1887	 0.19458330165232 
1888	 0.193118790615522 
1889	 0.191563593873315 
1890	 0.189956685392787 
1891	 0.188385179636608 
1892	 0.186794861274029 
1893	 0.185214928068071 
1894	 0.183626519737446 
1895	 0.182083367648891 
1896	 0.180538316726908 
1897	 0.17904189321429 
1898	 0.177584415697467 
1899	 0.176178000425151 
1900	 0.174835054275463 
1901	 0.17353509031972 
1902	 0.172311800146586 
1903	 0.171177819657947 
1904	 0.170079324128105 
1905	 0.16902896346714 
1906	 0.168047906712234 
1907	 0.167129713653871 
1908	 0.166290216914612 
1909	 0.165518567863589 
1910	 0.164806210590727 
1911	 0.16414487173376 
1912	 0.163529596577666 
1913	 0.16295231311181 
1914	 0.162417254441619 
1915	 0.161925147432693 
1916	 0.16147384999531 
1917	 0.161064063886612 
1918	 0.160707295394127 
1919	 0.160395417520617 
1920	 0.160123663797835 
1921	 0.159866643120517 
1922	 0.159642654352584 
1923	 0.159448433673217 
1924	 0.159275406716314 
1925	 0.159122181083538 
1926	 0.159016560031814 
1927	 0.158937798657555 
1928	 0.158895699969461 
1929	 0.158904873106019 
1930	 0.158924066703988 
1931	 0.158970443370431 
1932	 0.15903857112461 
1933	 0.159100587321689 
1934	 0.159205495459082 
1935	 0.159312695990559 
1936	 0.159416260051188 
1937	 0.159550084222964 
1938	 0.15970561988372 
1939	 0.159878472484639 
1940	 0.160068694525966 
1941	 0.16028341673214 
1942	 0.160520587747772 
1943	 0.160789681532081 
1944	 0.161064042223574 
1945	 0.161342071287252 
1946	 0.161615707584527 
1947	 0.161879164571102 
1948	 0.162160624464489 
1949	 0.162436303538107 
1950	 0.162739342578281 
1951	 0.163061158170639 
1952	 0.163401177229732 
1953	 0.163741445756209 
1954	 0.164103378446146 
1955	 0.164477733950966 
1956	 0.164863940171581 
1957	 0.165239001359524 
1958	 0.165622456323674 
1959	 0.165998492126303 
1960	 0.1663601057024 
1961	 0.1667273389896 
1962	 0.167096300313813 
1963	 0.167474649569498 
1964	 0.167847996764497 
1965	 0.168232844384152 
1966	 0.168654720362567 
1967	 0.169083199049145 
1968	 0.169509971011291 
1969	 0.169961257596807 
1970	 0.17039315533003 
1971	 0.170815143966257 
1972	 0.171241384313568 
1973	 0.171667142366656 
1974	 0.172089674744942 
1975	 0.172515475306289 
1976	 0.172919881893056 
1977	 0.173347021434933 
1978	 0.173794674402305 
1979	 0.174231309663213 
1980	 0.174657543716425 
1981	 0.175069560140336 
1982	 0.175452335473747 
1983	 0.175855361301798 
1984	 0.176250933494794 
1985	 0.176664329287852 
1986	 0.177097921153801 
1987	 0.177514252373294 
1988	 0.177930637868672 
1989	 0.178353505528341 
1990	 0.178752145863605 
1991	 0.179143641236531 
1992	 0.179544975040677 
1993	 0.17994718727228 
1994	 0.180344824489634 
1995	 0.180744877552371 
1996	 0.181144990901693 
1997	 0.181544339047211 
1998	 0.181937818645506 
1999	 0.182318866785367 
2000	 0.18272027012394 
2001	 0.183134578247396 
2002	 0.183541416492793 
2003	 0.183939485387797 
2004	 0.184332321554893 
2005	 0.184718596693048 
2006	 0.185077303523541 
2007	 0.185448487415833 
2008	 0.185833077285424 
2009	 0.186203547333031 
2010	 0.186559955165873 
2011	 0.186920603395544 
2012	 0.187293432552156 
2013	 0.187641834939565 
2014	 0.187969688357021 
2015	 0.188304963723753 
2016	 0.188624318579887 
2017	 0.188940404299979 
2018	 0.189278925436838 
2019	 0.189640848880704 
2020	 0.189982365708406 
2021	 0.19032952360894 
2022	 0.190670323380393 
2023	 0.190998571132998 
2024	 0.191331005782307 
2025	 0.191667691278463 
2026	 0.191999241422447 
2027	 0.192327415552292 
2028	 0.19264946309953 
2029	 0.192979647612897 
2030	 0.193313852077246 
2031	 0.193639034221379 
2032	 0.193965200514742 
2033	 0.194288018391012 
2034	 0.194619648453799 
2035	 0.194918973419823 
2036	 0.195214000554391 
2037	 0.195482708682285 
2038	 0.195689320629738 
2039	 0.195935909912398 
2040	 0.196183199539776 
2041	 0.196442867735793 
2042	 0.196730223686126 
2043	 0.197002724129256 
2044	 0.197256922287269 
2045	 0.197488789313244 
2046	 0.197742158702367 
2047	 0.197988364316839 
2048	 0.198241648100251 
2049	 0.198532011824892 
2050	 0.198774031453377 
2051	 0.198984481852997 
2052	 0.199203160862833 
2053	 0.19939025943228 
2054	 0.199594663719626 
2055	 0.19981268309242 
2056	 0.200034320383057 
2057	 0.200243293400307 
2058	 0.200454489824623 
2059	 0.200656885755769 
2060	 0.200841325113707 
2061	 0.201040357101057 
2062	 0.2012416993174 
2063	 0.20144430888585 
2064	 0.201652605842417 
2065	 0.20186078711046 
2066	 0.20208003934116 
2067	 0.202280612092383 
2068	 0.202471909810387 
2069	 0.202661275540361 
2070	 0.20285184726757 
2071	 0.203029661081644 
2072	 0.203217747198327 
2073	 0.203417425255151 
2074	 0.20360664343686 
2075	 0.203792601129726 
2076	 0.203973744360366 
2077	 0.204140525372832 
2078	 0.20432556448956 
2079	 0.204520807616989 
2080	 0.204706163686955 
2081	 0.204900299422831 
2082	 0.20509054904443 
2083	 0.205258555274077 
2084	 0.205444310411764 
2085	 0.205639308494944 
2086	 0.205853526966976 
2087	 0.206044310071271 
2088	 0.206240415697286 
2089	 0.206417405351413 
2090	 0.206571676288119 
2091	 0.206733953040869 
2092	 0.20689208365101 
2093	 0.207050175442609 
2094	 0.207210805801008 
2095	 0.207362056410789 
2096	 0.207481976769584 
2097	 0.207642849253261 
2098	 0.207822645575825 
2099	 0.2080023509562 
2100	 0.208193064308118 
2101	 0.208425901273054 
2102	 0.208614218682993 
2103	 0.208779037500418 
2104	 0.208957612152802 
2105	 0.209121324631959 
2106	 0.209307056391289 
2107	 0.209517476903686 
2108	 0.209704853185074 
2109	 0.209889682914436 
2110	 0.210076000668272 
2111	 0.210246953641262 
2112	 0.21042497236335 
2113	 0.210605299241365 
2114	 0.210805378337415 
2115	 0.210976406519233 
2116	 0.211134915995265 
2117	 0.211296328320894 
2118	 0.211440335046669 
2119	 0.211604731991014 
2120	 0.211784117101659 
2121	 0.211951895935525 
2122	 0.212126407151755 
2123	 0.21228833505089 
2124	 0.212452410827792 
2125	 0.212589055857301 
2126	 0.21271436554543 
2127	 0.212824078239782 
2128	 0.212893821402266 
2129	 0.21297759750929 
2130	 0.213066750133647 
2131	 0.213137877343785 
2132	 0.213215939871016 
2133	 0.213302836085711 
2134	 0.213369938148602 
2135	 0.213420842637359 
2136	 0.213484690725465 
2137	 0.213549027846948 
2138	 0.213601968136736 
2139	 0.213682371588401 
2140	 0.21370564447898 
2141	 0.213678541518975 
2142	 0.213667446555771 
2143	 0.213630770886897 
2144	 0.213598268241747 
2145	 0.213581506057576 
2146	 0.213548298379259 
2147	 0.213503093023446 
2148	 0.213438511177782 
2149	 0.213389282293149 
2150	 0.213335298815959 
2151	 0.213290392042972 
2152	 0.213264841788221 
2153	 0.213208426565892 
2154	 0.213143650096069 
2155	 0.213073220935689 
2156	 0.212994727319588 
2157	 0.21289518286667 
2158	 0.212792889181501 
2159	 0.212665527015612 
2160	 0.21249825529329 
2161	 0.212339474146586 
2162	 0.212150162188496 
2163	 0.21199267406197 
2164	 0.211854491876786 
2165	 0.211717766758699 
2166	 0.211571246368552 
2167	 0.211438729102314 
2168	 0.211293500808664 
2169	 0.211131875754806 
2170	 0.210973089282842 
2171	 0.210816158415983 
2172	 0.210662475074019 
2173	 0.210508388552257 
2174	 0.210343484358463 
2175	 0.210187472462831 
2176	 0.210015636988145 
2177	 0.209816193361701 
2178	 0.209626922706747 
2179	 0.209438569279341 
2180	 0.209248316697499 
2181	 0.209067371606185 
2182	 0.208870370378759 
2183	 0.208639741751864 
2184	 0.208443925488089 
2185	 0.20825451020052 
2186	 0.208057607407991 
2187	 0.207887394958178 
2188	 0.207754212672274 
2189	 0.207600409001556 
2190	 0.207443132215793 
2191	 0.207296253843594 
2192	 0.207145366631982 
2193	 0.207013258357588 
2194	 0.206903238010581 
2195	 0.20678327896572 
2196	 0.206678756005298 
2197	 0.206558395386763 
2198	 0.206407327029453 
2199	 0.206286727762807 
2200	 0.206177177849941 
2201	 0.206071509117152 
2202	 0.205967405701526 
2203	 0.205896800522033 
2204	 0.205836079461578 
2205	 0.20577320123456 
2206	 0.205746356017223 
2207	 0.205767454399515 
2208	 0.205759257809185 
2209	 0.205754653650757 
2210	 0.205756518809183 
2211	 0.205752021317918 
2212	 0.205760396178766 
2213	 0.205770929187586 
2214	 0.205805479491145 
2215	 0.205868700092384 
2216	 0.205912892044572 
2217	 0.20597188025884 
2218	 0.20602146646268 
2219	 0.206044630509311 
2220	 0.2060838809796 
2221	 0.206136079202462 
2222	 0.206191380823814 
2223	 0.206220480070977 
2224	 0.206260822614335 
2225	 0.206294515038916 
2226	 0.206312373569897 
2227	 0.206346592867764 
2228	 0.206405315057985 
2229	 0.206417743931602 
2230	 0.206411158368076 
2231	 0.206405688635513 
2232	 0.206375094861226 
2233	 0.206354144221586 
2234	 0.206333924603838 
2235	 0.206319933094249 
2236	 0.206302912474219 
2237	 0.206283928073277 
2238	 0.206263276487836 
2239	 0.206262688261998 
2240	 0.206258013327053 
2241	 0.206271506574512 
2242	 0.20633726922244 
2243	 0.206360751294217 
2244	 0.206359899101786 
2245	 0.206384362430239 
2246	 0.206349044928108 
2247	 0.206301174581602 
2248	 0.206279715994459 
2249	 0.206254627060856 
2250	 0.206245460138526 
2251	 0.206268031798122 
2252	 0.206252871440323 
2253	 0.206206930866049 
2254	 0.206198268703384 
2255	 0.206202062514875 
2256	 0.206194921141879 
2257	 0.206221974353238 
2258	 0.206212893009046 
2259	 0.206150887333783 
2260	 0.206130135194918 
2261	 0.20611784342092 
2262	 0.20610848373679 
2263	 0.206128665566178 
2264	 0.206127998236735 
2265	 0.206119041200739 
2266	 0.206105861762925 
2267	 0.206069593054871 
2268	 0.206057434466511 
2269	 0.206059277391749 
2270	 0.206054583330189 
2271	 0.206067927460777 
2272	 0.206076839937517 
2273	 0.206061019618708 
2274	 0.206049080143126 
2275	 0.206008053061644 
2276	 0.205936869042759 
2277	 0.205895760089631 
2278	 0.205846618918999 
2279	 0.20579841776577 
2280	 0.205759247474647 
2281	 0.205735702450963 
2282	 0.205697069331584 
2283	 0.20569945666403 
2284	 0.205762618987117 
2285	 0.205777623471652 
2286	 0.205804268302135 
2287	 0.205785943556311 
2288	 0.20569826850374 
2289	 0.205673705284141 
2290	 0.205649796786459 
2291	 0.205643503405214 
2292	 0.205713140276423 
2293	 0.205720363828949 
2294	 0.205716697486311 
2295	 0.205670448522955 
2296	 0.205573898738826 
2297	 0.205453287898373 
2298	 0.205367678041443 
2299	 0.205300782541904 
2300	 0.205269787557969 
2301	 0.205251537448534 
2302	 0.205201311493505 
2303	 0.205167362561543 
2304	 0.205159883109204 
2305	 0.205139543168108 
2306	 0.205078633170098 
2307	 0.204990591142965 
2308	 0.204914518110457 
2309	 0.204806014931405 
2310	 0.204720724173163 
2311	 0.204652917526355 
2312	 0.204584757311061 
2313	 0.204514603227797 
2314	 0.204435597016572 
2315	 0.204377977853592 
2316	 0.204297519427463 
2317	 0.204188541400836 
2318	 0.204078367169588 
2319	 0.203944849710076 
2320	 0.203847194018534 
2321	 0.203765434901697 
2322	 0.203675496984498 
2323	 0.203607090152791 
2324	 0.203539583662031 
2325	 0.203448737541521 
2326	 0.203379731512994 
2327	 0.203350814280136 
2328	 0.203285610700769 
2329	 0.203225381643616 
2330	 0.203176107166365 
2331	 0.203141520793392 
2332	 0.203089673403659 
2333	 0.202967262438774 
2334	 0.202881946573487 
2335	 0.20283406386355 
2336	 0.202756517087113 
2337	 0.202704166018814 
2338	 0.202689567526508 
2339	 0.202637626182898 
2340	 0.202566269095111 
2341	 0.202544974388623 
2342	 0.202506788507712 
2343	 0.202397903743448 
2344	 0.202279917451619 
2345	 0.202149401525174 
2346	 0.201959236883358 
2347	 0.201834899416757 
2348	 0.201751339931303 
2349	 0.201622858885824 
2350	 0.201520023833132 
2351	 0.201372422932078 
2352	 0.201156507010602 
2353	 0.200987255625119 
2354	 0.200819212074264 
2355	 0.200660927924137 
2356	 0.200516746048004 
2357	 0.200381683385893 
2358	 0.200262076163361 
2359	 0.200127221708934 
2360	 0.199993558895548 
2361	 0.199864390757942 
2362	 0.199764476698008 
2363	 0.199607609147965 
2364	 0.199385857061206 
2365	 0.199214591047917 
2366	 0.199025566707382 
2367	 0.198856658670231 
2368	 0.198740382839637 
2369	 0.198628862803364 
2370	 0.198524562053441 
2371	 0.198413934307976 
2372	 0.198242164009481 
2373	 0.198123157427076 
2374	 0.19799395656174 
2375	 0.197743183104994 
2376	 0.197586457415932 
2377	 0.197427286377065 
2378	 0.197210539466525 
2379	 0.197001226369035 
2380	 0.196710423481233 
2381	 0.196408943986831 
2382	 0.19616517326575 
2383	 0.19595912294885 
2384	 0.195820103985537 
2385	 0.195704133907015 
2386	 0.195496032350482 
2387	 0.195265698733752 
2388	 0.19502309233318 
2389	 0.194770017022618 
2390	 0.194523569871494 
2391	 0.194200125099181 
2392	 0.193982023596721 
2393	 0.193774562619734 
2394	 0.193513783686245 
2395	 0.19336980455521 
2396	 0.193210185537228 
2397	 0.19310446305355 
2398	 0.193043302140257 
2399	 0.192933032449093 
2400	 0.192772832660052 
2401	 0.192504722679826 
2402	 0.192225101788647 
2403	 0.191961198544295 
2404	 0.191693008930253 
2405	 0.191419342775566 
2406	 0.191130241799368 
2407	 0.19085143553038 
2408	 0.190579817423107 
2409	 0.19034325026948 
2410	 0.190115616327867 
2411	 0.189898991629772 
2412	 0.189655390978293 
2413	 0.189301322685409 
2414	 0.189043336991965 
2415	 0.188839617793925 
2416	 0.188571819754948 
2417	 0.188315921777979 
2418	 0.188097452399886 
2419	 0.187840527601681 
2420	 0.18756238906822 
2421	 0.187344984447674 
2422	 0.187048563612544 
2423	 0.186682665295203 
2424	 0.186327827313306 
2425	 0.185935921284598 
2426	 0.185596935091188 
2427	 0.185226670922153 
2428	 0.184891722966959 
2429	 0.184634412010498 
2430	 0.184346237341443 
2431	 0.184040216224573 
2432	 0.183772630469078 
2433	 0.183562290611423 
2434	 0.183305153042049 
2435	 0.183031146499156 
2436	 0.182735183670515 
2437	 0.182392715497154 
2438	 0.182109079588801 
2439	 0.18185480048488 
2440	 0.181540821616562 
2441	 0.181257250975239 
2442	 0.180938418567836 
2443	 0.180496657266648 
2444	 0.180195423357481 
2445	 0.179944214647548 
2446	 0.179686907963359 
2447	 0.1795470970005 
2448	 0.179305468430695 
2449	 0.179027096702 
2450	 0.178767140553328 
2451	 0.178394732673347 
2452	 0.178121821893913 
2453	 0.178013342671036 
2454	 0.177738939647972 
2455	 0.177404376777985 
2456	 0.177119185552601 
2457	 0.176746471096248 
2458	 0.176387634952064 
2459	 0.176060058922238 
2460	 0.175726553904158 
2461	 0.175393286225438 
2462	 0.175042620670745 
2463	 0.174672501622959 
2464	 0.17435633290485 
2465	 0.174013126837255 
2466	 0.173777581429274 
2467	 0.173711625756108 
2468	 0.173409027057468 
2469	 0.1730472717945 
2470	 0.172625592685482 
2471	 0.172127223129011 
2472	 0.171853298600967 
2473	 0.171656106711399 
2474	 0.171260547159356 
2475	 0.171044384165387 
2476	 0.170989647824075 
2477	 0.170732893424367 
2478	 0.170377295840317 
2479	 0.169991956215994 
2480	 0.169524970754159 
2481	 0.169128395574845 
2482	 0.169018232502298 
2483	 0.16900281170097 
2484	 0.168853136654494 
2485	 0.168603264847273 
2486	 0.168183881164619 
2487	 0.167726611041021 
2488	 0.167414792657711 
2489	 0.167189754868679 
2490	 0.16695456127945 
2491	 0.166726591121959 
2492	 0.166572766018062 
2493	 0.16632072136463 
2494	 0.166163714553288 
2495	 0.166144135896385 
2496	 0.165967552201364 
2497	 0.165877635071161 
2498	 0.165671401785162 
2499	 0.165305161450133 
2500	 0.165069753397723 
