Wavelength	mm1300006.asd
350	 6.74921472171443E-02 
351	 7.27294689190732E-02 
352	 6.89906437528679E-02 
353	 0.064694428831923 
354	 6.88635156990651E-02 
355	 7.08791498209256E-02 
356	 6.67680907122023E-02 
357	 5.92513565075054E-02 
358	 0.068369632552057 
359	 7.12821087477591E-02 
360	 6.65506875308096E-02 
361	 6.65859307694931E-02 
362	 6.74355484488449E-02 
363	 0.067138152080217 
364	 6.57729723109867E-02 
365	 6.65016287504903E-02 
366	 6.18526876872618E-02 
367	 5.91834472736669E-02 
368	 6.47931299868937E-02 
369	 6.54675364225997E-02 
370	 6.39195990719122E-02 
371	 0.064310870424026 
372	 7.01270046329675E-02 
373	 0.06916232536768 
374	 0.067995489868125 
375	 7.00459981619034E-02 
376	 6.90396109924005E-02 
377	 6.78222305684716E-02 
378	 6.82077286096325E-02 
379	 7.05321939633074E-02 
380	 7.01675438811539E-02 
381	 7.05482725944552E-02 
382	 7.09387584209881E-02 
383	 6.79780448657293E-02 
384	 0.068768256241483 
385	 7.07090370698179E-02 
386	 7.15720095360462E-02 
387	 7.26510683865817E-02 
388	 7.37337001498641E-02 
389	 0.074353100599795 
390	 7.41261551568167E-02 
391	 0.0735373721588 
392	 7.25497093618643E-02 
393	 7.26939674402963E-02 
394	 7.62700285824751E-02 
395	 7.57590593206226E-02 
396	 7.44407266047362E-02 
397	 7.52412853576426E-02 
398	 7.64731325877035E-02 
399	 7.76076845388754E-02 
400	 7.92659384014691E-02 
401	 0.081621862041107 
402	 7.95431856842175E-02 
403	 0.078519676049184 
404	 7.94478442347241E-02 
405	 7.81634168952159E-02 
406	 7.85281469120521E-02 
407	 8.03092069274886E-02 
408	 8.19949147031448E-02 
409	 8.08419905844794E-02 
410	 7.99635872614511E-02 
411	 7.98148191886579E-02 
412	 7.97867846002318E-02 
413	 8.18676835563761E-02 
414	 8.22387384899991E-02 
415	 8.04270448944744E-02 
416	 8.06972811596515E-02 
417	 8.11624170029161E-02 
418	 8.17873392186756E-02 
419	 8.26138645675454E-02 
420	 8.26808059279136E-02 
421	 8.16409584671684E-02 
422	 0.081011120236103 
423	 8.29574995436284E-02 
424	 8.32229050623216E-02 
425	 8.25519412160381E-02 
426	 8.20982638644139E-02 
427	 8.25498720611983E-02 
428	 8.27295349672121E-02 
429	 8.27261813517795E-02 
430	 8.29220147406781E-02 
431	 8.29808734517578E-02 
432	 8.27207849708594E-02 
433	 8.24651009315928E-02 
434	 8.29448806856989E-02 
435	 8.31045858803377E-02 
436	 8.30854640933705E-02 
437	 8.30610889697355E-02 
438	 8.25008305748604E-02 
439	 0.082825544994731 
440	 8.35997851694903E-02 
441	 8.35919623943173E-02 
442	 8.33982359295161E-02 
443	 8.35924177345542E-02 
444	 8.41298588434987E-02 
445	 8.40697431326704E-02 
446	 8.39220057473361E-02 
447	 8.38493930653217E-02 
448	 8.39068082356199E-02 
449	 8.40809677710612E-02 
450	 0.084409389811264 
451	 8.47085808480702E-02 
452	 8.46437308492858E-02 
453	 8.45524002591019E-02 
454	 8.45507730424609E-02 
455	 8.46592727473207E-02 
456	 8.47855680155752E-02 
457	 8.49346538335363E-02 
458	 0.084904079229337 
459	 8.45347541708233E-02 
460	 8.46514204640105E-02 
461	 8.48517158386833E-02 
462	 8.49258996280079E-02 
463	 8.50984357727809E-02 
464	 8.51270438316337E-02 
465	 8.51964891111631E-02 
466	 8.54628887050424E-02 
467	 8.54985069653749E-02 
468	 8.54428815316464E-02 
469	 8.53825224017556E-02 
470	 0.085355065181443 
471	 0.08552648033053 
472	 8.55640496895553E-02 
473	 8.53806897713949E-02 
474	 8.56836299177947E-02 
475	 8.59002585382031E-02 
476	 8.58802234502342E-02 
477	 0.085718589927395 
478	 0.085841187658949 
479	 8.59163772122498E-02 
480	 8.58616444818816E-02 
481	 8.60311119622579E-02 
482	 8.61921638431724E-02 
483	 8.63232754823318E-02 
484	 8.64448402773455E-02 
485	 8.65303373764693E-02 
486	 8.64610309704222E-02 
487	 8.62936683256013E-02 
488	 0.086226332775924 
489	 8.62645416093746E-02 
490	 0.086317177857344 
491	 8.63555242381257E-02 
492	 8.65797135655842E-02 
493	 8.66534566662791E-02 
494	 8.66150280832733E-02 
495	 8.66639770106974E-02 
496	 8.67305418489647E-02 
497	 8.67682647416809E-02 
498	 8.67976493950606E-02 
499	 8.69384135283724E-02 
500	 8.70533316537769E-02 
501	 8.71201419339862E-02 
502	 8.71352161337338E-02 
503	 8.69922314721014E-02 
504	 8.69438728575877E-02 
505	 8.70515750249631E-02 
506	 8.71911081709054E-02 
507	 8.73398359188055E-02 
508	 8.73970284840986E-02 
509	 8.73536806442699E-02 
510	 8.74882692447663E-02 
511	 8.74310333670957E-02 
512	 8.73163971627424E-02 
513	 8.74948518833894E-02 
514	 8.76522793366036E-02 
515	 8.77066765403386E-02 
516	 8.76955072418102E-02 
517	 8.78158008542813E-02 
518	 8.78305747401644E-02 
519	 8.78192658212453E-02 
520	 8.79209373979194E-02 
521	 8.80195660215476E-02 
522	 8.80619641384594E-02 
523	 8.80689667850772E-02 
524	 8.81316215685251E-02 
525	 8.81379071849602E-02 
526	 8.81519298760928E-02 
527	 8.82305147436552E-02 
528	 8.82901561691855E-02 
529	 8.82945505868451E-02 
530	 8.83118611153911E-02 
531	 8.84511403420422E-02 
532	 0.088413517646083 
533	 8.84269909723033E-02 
534	 8.86120421568698E-02 
535	 8.87303245871613E-02 
536	 8.87141968791027E-02 
537	 8.86816858390374E-02 
538	 8.87962000125868E-02 
539	 8.89092594535245E-02 
540	 8.90304995031337E-02 
541	 8.91441441852722E-02 
542	 8.91838009077535E-02 
543	 8.92059907833057E-02 
544	 8.92665145580362E-02 
545	 8.93833147137307E-02 
546	 8.94324613379391E-02 
547	 8.94666961017977E-02 
548	 8.95421564537583E-02 
549	 8.97039096908267E-02 
550	 8.98035965986596E-02 
551	 8.99116498758103E-02 
552	 9.00645487402499E-02 
553	 9.00888675352752E-02 
554	 9.01669366477308E-02 
555	 9.03144242974812E-02 
556	 9.04656094325067E-02 
557	 9.06784873138283E-02 
558	 9.09083901383135E-02 
559	 9.11273530771473E-02 
560	 9.13643926707739E-02 
561	 9.14620629560311E-02 
562	 0.091567841377127 
563	 9.18671506482329E-02 
564	 0.092137833125769 
565	 9.22780273235504E-02 
566	 9.23431462214436E-02 
567	 9.25494363664446E-02 
568	 9.27688150049266E-02 
569	 9.29961671021535E-02 
570	 9.32828309058058E-02 
571	 9.38011995036882E-02 
572	 9.42337093114151E-02 
573	 9.45321954367423E-02 
574	 9.48481933347766E-02 
575	 9.51943477100164E-02 
576	 9.56190796042875E-02 
577	 9.60839642313861E-02 
578	 9.63319122964283E-02 
579	 9.67183027712946E-02 
580	 9.71603221916906E-02 
581	 9.74343057464812E-02 
582	 9.77633401089902E-02 
583	 9.81045802825687E-02 
584	 9.84652899618815E-02 
585	 9.89564988433898E-02 
586	 9.95737521375662E-02 
587	 0.10020594596674 
588	 0.100758298620456 
589	 0.101363634048707 
590	 0.101992700260498 
591	 0.102591435188266 
592	 0.103097917218965 
593	 0.103631441145441 
594	 0.104156474584402 
595	 0.104605766667866 
596	 0.104899640774978 
597	 0.105212174412395 
598	 0.105570159910492 
599	 0.105927791002224 
600	 0.106366094940426 
601	 0.106857458596731 
602	 0.107359718436929 
603	 0.107831001450814 
604	 0.108284784900533 
605	 0.108756677165266 
606	 0.109271774446175 
607	 0.109747210189962 
608	 0.110203305342823 
609	 0.110671978870163 
610	 0.111188923344269 
611	 0.11155793870389 
612	 0.111858722736289 
613	 0.112186132358712 
614	 0.112433167143405 
615	 0.112704488024841 
616	 0.112987646678387 
617	 0.11319921451003 
618	 0.113486668243341 
619	 0.113775665873458 
620	 0.11400724428421 
621	 0.114223874231562 
622	 0.114429985810417 
623	 0.114624307084625 
624	 0.114803283979664 
625	 0.114963212477413 
626	 0.115185824533225 
627	 0.115451905675503 
628	 0.115602583662085 
629	 0.115782074971888 
630	 0.115972127204465 
631	 0.116124860122025 
632	 0.116245207823155 
633	 0.116415439658742 
634	 0.116623230569692 
635	 0.116780455855921 
636	 0.116909970552662 
637	 0.11704537676618 
638	 0.117202141373795 
639	 0.117340125131619 
640	 0.117532470098252 
641	 0.117728936682741 
642	 0.117843756809303 
643	 0.117999974978187 
644	 0.118172950948755 
645	 0.118334198812941 
646	 0.118469883870544 
647	 0.118604368734503 
648	 0.118782605011798 
649	 0.119012763526868 
650	 0.119124518682152 
651	 0.119290753889378 
652	 0.119517912594186 
653	 0.119668718033453 
654	 0.119858143999686 
655	 0.120051571291062 
656	 0.120222556243577 
657	 0.120432313749037 
658	 0.120642307311118 
659	 0.120838936091086 
660	 0.121025530280992 
661	 0.121241784927372 
662	 0.121461084684581 
663	 0.121670817262458 
664	 0.121888324251134 
665	 0.122093256263087 
666	 0.1223004345371 
667	 0.122526873293486 
668	 0.122754175501396 
669	 0.122993297537228 
670	 0.123246851164241 
671	 0.123507317887207 
672	 0.123737761453235 
673	 0.123953546807323 
674	 0.124192647719655 
675	 0.124540666654277 
676	 0.124777502375825 
677	 0.124977823523369 
678	 0.125309735832107 
679	 0.125584685882487 
680	 0.125881074423955 
681	 0.126208153215038 
682	 0.126457287294435 
683	 0.126744218038353 
684	 0.127059401782165 
685	 0.127365718200304 
686	 0.12765028799675 
687	 0.127965970940859 
688	 0.128306231153992 
689	 0.128622438280156 
690	 0.128915650415694 
691	 0.129232899567514 
692	 0.129593551141805 
693	 0.129955026961478 
694	 0.130274212900071 
695	 0.130571513535406 
696	 0.130891928536799 
697	 0.131251834561293 
698	 0.131628090679184 
699	 0.131999481886899 
700	 0.132350518799703 
701	 0.13268764696383 
702	 0.133025183720731 
703	 0.133370064296895 
704	 0.133703218941578 
705	 0.134037222822026 
706	 0.134390121769022 
707	 0.134772336041112 
708	 0.135115054563664 
709	 0.135465001616392 
710	 0.135837138540614 
711	 0.136184920939283 
712	 0.136491219523368 
713	 0.136796158868146 
714	 0.137137363234757 
715	 0.137470943162387 
716	 0.137817877468236 
717	 0.138170462939743 
718	 0.138500636034145 
719	 0.138807114947816 
720	 0.13909794214045 
721	 0.13938396481677 
722	 0.139681538723663 
723	 0.13994788102095 
724	 0.140220154109144 
725	 0.140534511962594 
726	 0.140776843817536 
727	 0.14101230737183 
728	 0.141256499811883 
729	 0.141473735301144 
730	 0.141713023670653 
731	 0.141935142758859 
732	 0.142119462870983 
733	 0.142330784401483 
734	 0.142511512008824 
735	 0.14265966496771 
736	 0.142799130482301 
737	 0.142960135129178 
738	 0.143102501816248 
739	 0.143204954213431 
740	 0.143274327160473 
741	 0.143347152437326 
742	 0.143425075533158 
743	 0.14349906081783 
744	 0.143558598979906 
745	 0.143586239706431 
746	 0.143614922249524 
747	 0.143680311575649 
748	 0.143655888055864 
749	 0.143607998697187 
750	 0.143587165035001 
751	 0.14360108267822 
752	 0.143560065081387 
753	 0.143468361027395 
754	 0.143363687456837 
755	 0.143305777001879 
756	 0.143256933964472 
757	 0.14318149312386 
758	 0.143062039111078 
759	 0.143006371172382 
760	 0.14291646194271 
761	 0.142758801986874 
762	 0.14260440373613 
763	 0.142479770615324 
764	 0.142361818256145 
765	 0.142220832667276 
766	 0.142047473380975 
767	 0.141882171772494 
768	 0.14173734474902 
769	 0.141603878582732 
770	 0.141445895307222 
771	 0.141269025778198 
772	 0.141077777474745 
773	 0.140870603303754 
774	 0.140663858588416 
775	 0.140482428787426 
776	 0.140325851633608 
777	 0.140122819441513 
778	 0.139914308458264 
779	 0.139733501896122 
780	 0.139590506967633 
781	 0.139376996530929 
782	 0.139172492430997 
783	 0.139004833986368 
784	 0.138831176068459 
785	 0.13862004057955 
786	 0.138398571888819 
787	 0.138197147873721 
788	 0.138024911988203 
789	 0.137856024485196 
790	 0.137643960151496 
791	 0.137375014985235 
792	 0.137231262576442 
793	 0.137084784240052 
794	 0.136895757121568 
795	 0.136712382603146 
796	 0.136485585550722 
797	 0.136297889239953 
798	 0.136179217168064 
799	 0.136030926901481 
800	 0.135869155209775 
801	 0.135687478348785 
802	 0.1354857127588 
803	 0.135295577643748 
804	 0.13514650478627 
805	 0.135013544888957 
806	 0.134844076513614 
807	 0.13467001480067 
808	 0.134497051243886 
809	 0.134330388312742 
810	 0.134176877537298 
811	 0.134045732455216 
812	 0.13390440927839 
813	 0.133748255041704 
814	 0.133678935005037 
815	 0.133575398059818 
816	 0.133430070095073 
817	 0.133281965681176 
818	 0.133127097399501 
819	 0.133022271050922 
820	 0.132940415726994 
821	 0.132794608557889 
822	 0.132709899670278 
823	 0.132618486794088 
824	 0.132488720998751 
825	 0.132394162443633 
826	 0.132321461378413 
827	 0.132226056722741 
828	 0.132087967595603 
829	 0.131995573768504 
830	 0.131885125797861 
831	 0.13177206981424 
832	 0.131708977955001 
833	 0.131725241530258 
834	 0.131697758549778 
835	 0.131607168698853 
836	 0.131541203428783 
837	 0.131501447979439 
838	 0.131452742605919 
839	 0.131377428822423 
840	 0.131300436846157 
841	 0.131202130077915 
842	 0.131122680901133 
843	 0.131102789517423 
844	 0.131145712389591 
845	 0.13112577460784 
846	 0.131050326758049 
847	 0.130999608295954 
848	 0.131052590233405 
849	 0.131043164687211 
850	 0.130947440065985 
851	 0.130875682718373 
852	 0.130831500900906 
853	 0.130841824462196 
854	 0.130899438039271 
855	 0.13094905177811 
856	 0.130963276201492 
857	 0.13097312833968 
858	 0.130998161651881 
859	 0.130983680055861 
860	 0.130998809970791 
861	 0.13102454004599 
862	 0.131019442085184 
863	 0.130987143214255 
864	 0.131024837798724 
865	 0.13109777279983 
866	 0.131107850334897 
867	 0.131156146647808 
868	 0.131188793104565 
869	 0.131203190593305 
870	 0.131257880752698 
871	 0.131325300339465 
872	 0.131411295326278 
873	 0.131506084087812 
874	 0.131569236233066 
875	 0.131632832809451 
876	 0.131689728333633 
877	 0.131731756668291 
878	 0.131765889304246 
879	 0.131867936348205 
880	 0.13199139524975 
881	 0.132069451959034 
882	 0.132151468372314 
883	 0.132265755708751 
884	 0.132387609127761 
885	 0.132477372268505 
886	 0.132608548933177 
887	 0.132704360626168 
888	 0.132772869065964 
889	 0.13289527284786 
890	 0.133041895054318 
891	 0.133154445967541 
892	 0.133250256099567 
893	 0.133433963325916 
894	 0.133555997795026 
895	 0.133666856471502 
896	 0.133808980032657 
897	 0.133938105751762 
898	 0.134086281761346 
899	 0.134290133615284 
900	 0.134523523605354 
901	 0.134589330774912 
902	 0.134723106936698 
903	 0.134931417206791 
904	 0.135140664749274 
905	 0.135317662825024 
906	 0.135423249276646 
907	 0.135578961125116 
908	 0.135904299622256 
909	 0.136117297572261 
910	 0.136287052135636 
911	 0.136435791246437 
912	 0.136560705582767 
913	 0.136761620770537 
914	 0.137063546973895 
915	 0.137357637121894 
916	 0.137470346987292 
917	 0.137667138643497 
918	 0.137917549974954 
919	 0.138150656991449 
920	 0.138311435844004 
921	 0.13858962260336 
922	 0.138878984488713 
923	 0.139114804973841 
924	 0.139368517022458 
925	 0.139559414307255 
926	 0.139800257981668 
927	 0.140125669661393 
928	 0.140358019704707 
929	 0.140692167543043 
930	 0.141020345707681 
931	 0.141255414948708 
932	 0.141535906987451 
933	 0.141840598686727 
934	 0.142138605264848 
935	 0.142421400993947 
936	 0.142762388269399 
937	 0.143068315305557 
938	 0.143362262475903 
939	 0.143681119477672 
940	 0.143958554699574 
941	 0.144280396159424 
942	 0.144671489009719 
943	 0.14509185844636 
944	 0.145369545172917 
945	 0.145690936251571 
946	 0.146104845654636 
947	 0.146547250471595 
948	 0.146812709583066 
949	 0.147089936979857 
950	 0.147427243232279 
951	 0.147791223716673 
952	 0.148199149440699 
953	 0.148510410097702 
954	 0.148822403971676 
955	 0.149303115439981 
956	 0.149714938451377 
957	 0.150133050797904 
958	 0.15053397003947 
959	 0.150868962166461 
960	 0.151342209667947 
961	 0.151816968570056 
962	 0.152245406301909 
963	 0.152643372381815 
964	 0.152913354906828 
965	 0.153443187757407 
966	 0.154060575383819 
967	 0.154324051304392 
968	 0.154696080712225 
969	 0.155167270114009 
970	 0.155611607645119 
971	 0.15590904318297 
972	 0.156328102630424 
973	 0.156847497084397 
974	 0.157342763580751 
975	 0.15771586221752 
976	 0.158357035203153 
977	 0.158844081724609 
978	 0.159164736754919 
979	 0.159576932928182 
980	 0.159977663850745 
981	 0.160463713246624 
982	 0.1610126461092 
983	 0.161516677628043 
984	 0.161872242918278 
985	 0.162358888637669 
986	 0.162871240531618 
987	 0.163193314282925 
988	 0.163799539167024 
989	 0.164262931283558 
990	 0.164602258968546 
991	 0.165071529016594 
992	 0.165748723816049 
993	 0.166101857172194 
994	 0.166387645550608 
995	 0.167031428396049 
996	 0.167532786554673 
997	 0.167920946074467 
998	 0.168331842448842 
999	 0.168872804834949 
1000	 0.169403681031091 
1001	 0.169397705591128 
1002	 0.169829776569308 
1003	 0.170238218259516 
1004	 0.170622036634921 
1005	 0.170964254166291 
1006	 0.171381093300525 
1007	 0.171810638826218 
1008	 0.172207732025343 
1009	 0.17268373677131 
1010	 0.173076570921991 
1011	 0.173440590731609 
1012	 0.173835503965671 
1013	 0.174209303573023 
1014	 0.174645196709652 
1015	 0.175086458533235 
1016	 0.17543961665288 
1017	 0.175828342451382 
1018	 0.176237286091799 
1019	 0.176623424935736 
1020	 0.176891294689748 
1021	 0.177230552170618 
1022	 0.177567607496861 
1023	 0.177804778495774 
1024	 0.178144916298491 
1025	 0.178541127149248 
1026	 0.178849139686095 
1027	 0.179125168343073 
1028	 0.179411050135487 
1029	 0.179719451370295 
1030	 0.180042942213155 
1031	 0.18034450858686 
1032	 0.180670908956651 
1033	 0.181008021031309 
1034	 0.18128104342008 
1035	 0.181522235948333 
1036	 0.181847766740397 
1037	 0.182188285803879 
1038	 0.182521089461982 
1039	 0.182871642216046 
1040	 0.183171233646331 
1041	 0.183443935040252 
1042	 0.183732458689116 
1043	 0.183993580742074 
1044	 0.184269304920284 
1045	 0.184553148293458 
1046	 0.184873824506999 
1047	 0.185164533364713 
1048	 0.185464872576042 
1049	 0.185795985248822 
1050	 0.186083455577413 
1051	 0.186357401564639 
1052	 0.186651333891604 
1053	 0.186929378839767 
1054	 0.187191977468472 
1055	 0.187526090928794 
1056	 0.187911465550304 
1057	 0.188238574230618 
1058	 0.188600793351983 
1059	 0.18890274439339 
1060	 0.18915047266077 
1061	 0.189328067466566 
1062	 0.189599652374295 
1063	 0.189870956851083 
1064	 0.190154086155186 
1065	 0.190467547543944 
1066	 0.190749192696092 
1067	 0.191032587681649 
1068	 0.191342998789616 
1069	 0.191651095767307 
1070	 0.191924720528238 
1071	 0.192166109152974 
1072	 0.192426094233522 
1073	 0.192668191011961 
1074	 0.192921517182701 
1075	 0.193202068872354 
1076	 0.193443047598815 
1077	 0.193679093429748 
1078	 0.193907678080382 
1079	 0.194064197117733 
1080	 0.194275474240156 
1081	 0.194530605808123 
1082	 0.194741904762924 
1083	 0.194983802454455 
1084	 0.195285941792175 
1085	 0.19552925151089 
1086	 0.195749589593922 
1087	 0.1959599460575 
1088	 0.196136879457353 
1089	 0.196356297827097 
1090	 0.196560669743184 
1091	 0.196763734542234 
1092	 0.196973661500171 
1093	 0.197143201120359 
1094	 0.197320351405448 
1095	 0.197519120522007 
1096	 0.197732398269194 
1097	 0.197939492330355 
1098	 0.198155988433876 
1099	 0.198397086503976 
1100	 0.19859399013426 
1101	 0.198773847546167 
1102	 0.198962202049328 
1103	 0.199143000970256 
1104	 0.199281085668059 
1105	 0.199449673140206 
1106	 0.199656982560137 
1107	 0.199860519426144 
1108	 0.200068511293867 
1109	 0.200289416848211 
1110	 0.200487584046958 
1111	 0.200675926430624 
1112	 0.200846367918036 
1113	 0.201020623977189 
1114	 0.201186416039809 
1115	 0.201354596817972 
1116	 0.201512270180866 
1117	 0.20168629762478 
1118	 0.201869406393693 
1119	 0.202049764576292 
1120	 0.202235117217211 
1121	 0.202418003065418 
1122	 0.202594345742054 
1123	 0.202777559767429 
1124	 0.20295607010571 
1125	 0.203130221203381 
1126	 0.203315359981895 
1127	 0.203501889659705 
1128	 0.203694542867658 
1129	 0.203909562668091 
1130	 0.204099656201279 
1131	 0.204289509524149 
1132	 0.204455955944496 
1133	 0.204586789118833 
1134	 0.204741561682909 
1135	 0.20489155980834 
1136	 0.205042199533235 
1137	 0.20522825975411 
1138	 0.205424609922813 
1139	 0.205590670629848 
1140	 0.205759062993261 
1141	 0.205904479114262 
1142	 0.206001830986699 
1143	 0.206146331997894 
1144	 0.20632295361164 
1145	 0.206457986400172 
1146	 0.206592778755487 
1147	 0.206722816616494 
1148	 0.20681247430881 
1149	 0.20692291663919 
1150	 0.207048982744987 
1151	 0.207174831385043 
1152	 0.207292966637687 
1153	 0.207438030618623 
1154	 0.207587817362398 
1155	 0.207756810400641 
1156	 0.207916310531174 
1157	 0.208094944894503 
1158	 0.208235422006817 
1159	 0.208351443900773 
1160	 0.208480101677861 
1161	 0.208593240792859 
1162	 0.208714802855982 
1163	 0.208851482307946 
1164	 0.208978826222368 
1165	 0.209102066550554 
1166	 0.209219038041728 
1167	 0.209325302239407 
1168	 0.209438429384526 
1169	 0.209562764704476 
1170	 0.209688606864759 
1171	 0.209814246454708 
1172	 0.209958258667593 
1173	 0.210086243558558 
1174	 0.210204054353116 
1175	 0.210322298620867 
1176	 0.210436954176 
1177	 0.210552483271682 
1178	 0.210659926657086 
1179	 0.210776575675176 
1180	 0.210910667727683 
1181	 0.211027948869989 
1182	 0.211140942724984 
1183	 0.211249999778776 
1184	 0.211352583556624 
1185	 0.211438935589933 
1186	 0.211535593438237 
1187	 0.211632274589595 
1188	 0.211734597554725 
1189	 0.211837072157293 
1190	 0.211945742189682 
1191	 0.212069251886973 
1192	 0.212176177485121 
1193	 0.212271767131269 
1194	 0.212379768783853 
1195	 0.212488074097833 
1196	 0.212594306739881 
1197	 0.212723049529919 
1198	 0.212827323279784 
1199	 0.212918947140478 
1200	 0.212984805331364 
1201	 0.213083057161601 
1202	 0.213180163218411 
1203	 0.213284245769964 
1204	 0.213413438106824 
1205	 0.213522694734451 
1206	 0.213632610841261 
1207	 0.213719749670643 
1208	 0.213787420046722 
1209	 0.213865966465957 
1210	 0.213918251943646 
1211	 0.213996745930129 
1212	 0.214103339550318 
1213	 0.214198947136017 
1214	 0.214306250001625 
1215	 0.214400032659519 
1216	 0.214486690955599 
1217	 0.214562187500287 
1218	 0.214646130942147 
1219	 0.214730407030664 
1220	 0.214803624175811 
1221	 0.214871355666526 
1222	 0.214947100785249 
1223	 0.215013432479462 
1224	 0.21508809934375 
1225	 0.215183851492595 
1226	 0.215260329556425 
1227	 0.215320194730488 
1228	 0.215391219572212 
1229	 0.21547030428244 
1230	 0.215535247065928 
1231	 0.21558823846528 
1232	 0.215654634630167 
1233	 0.215722442259583 
1234	 0.215782261857515 
1235	 0.215848699769048 
1236	 0.215932242430165 
1237	 0.21599969272103 
1238	 0.216052444855003 
1239	 0.216117023545831 
1240	 0.2161888987256 
1241	 0.216253568150701 
1242	 0.216320260227952 
1243	 0.216381022237897 
1244	 0.216420586671011 
1245	 0.216486540609621 
1246	 0.216577073690883 
1247	 0.216645521708087 
1248	 0.216714129732818 
1249	 0.216792943645037 
1250	 0.216824845291272 
1251	 0.216865383598687 
1252	 0.216913353848241 
1253	 0.216971240666992 
1254	 0.21700808040622 
1255	 0.217033385423349 
1256	 0.21707803986351 
1257	 0.217120234634783 
1258	 0.217160779154046 
1259	 0.217219153662523 
1260	 0.217266285487739 
1261	 0.217298061858722 
1262	 0.217334915655826 
1263	 0.217379217288896 
1264	 0.217419143077493 
1265	 0.21744746551685 
1266	 0.217484718241801 
1267	 0.217528826443005 
1268	 0.217570552489392 
1269	 0.217615362476125 
1270	 0.217661224816503 
1271	 0.217709472498322 
1272	 0.217756190988589 
1273	 0.217814861902703 
1274	 0.217883934424497 
1275	 0.217947202830401 
1276	 0.218009605326341 
1277	 0.218084558489635 
1278	 0.218159138662772 
1279	 0.21824499765089 
1280	 0.218346683369825 
1281	 0.218448617790641 
1282	 0.218558519215283 
1283	 0.218665440179184 
1284	 0.218783622089595 
1285	 0.218887134774406 
1286	 0.218992072690974 
1287	 0.219089271238061 
1288	 0.219185371724517 
1289	 0.219278907034706 
1290	 0.21937262594467 
1291	 0.219460590800677 
1292	 0.219554083008686 
1293	 0.219656479052211 
1294	 0.219740144807091 
1295	 0.219825071059195 
1296	 0.219890176850967 
1297	 0.219929059439939 
1298	 0.219978706500879 
1299	 0.220030194752779 
1300	 0.22006801451373 
1301	 0.22009636341748 
1302	 0.220129145447794 
1303	 0.220161320365139 
1304	 0.220174357759426 
1305	 0.220198735440128 
1306	 0.220214712603524 
1307	 0.220207745808748 
1308	 0.22019991294321 
1309	 0.220189420098912 
1310	 0.220173225519995 
1311	 0.220155190626647 
1312	 0.220138416768404 
1313	 0.220111402619004 
1314	 0.220070401425498 
1315	 0.220041108473217 
1316	 0.220017869102641 
1317	 0.219980833365797 
1318	 0.219938520504923 
1319	 0.219905315210076 
1320	 0.219856313139942 
1321	 0.219823441817511 
1322	 0.219811544632239 
1323	 0.219799276778769 
1324	 0.219769568636568 
1325	 0.21972777951528 
1326	 0.219674805167369 
1327	 0.219620197415124 
1328	 0.219561493998602 
1329	 0.219517488057314 
1330	 0.219462638599441 
1331	 0.219405262728719 
1332	 0.219343217256957 
1333	 0.219274000156346 
1334	 0.219208837338169 
1335	 0.219131271380237 
1336	 0.219078074444421 
1337	 0.219044531647594 
1338	 0.219001147737142 
1339	 0.218972663316112 
1340	 0.218929847577384 
1341	 0.218870899188891 
1342	 0.218817510988261 
1343	 0.218762845280024 
1344	 0.218707281566477 
1345	 0.218660286105497 
1346	 0.218618560696756 
1347	 0.218587223689488 
1348	 0.218564840613977 
1349	 0.218514672168247 
1350	 0.218453108866082 
1351	 0.218395423762286 
1352	 0.218325548091099 
1353	 0.218253327946061 
1354	 0.218176900778179 
1355	 0.218110966742996 
1356	 0.218038084365816 
1357	 0.217976310740697 
1358	 0.217933698465485 
1359	 0.217885485158952 
1360	 0.217829571869205 
1361	 0.217778940736583 
1362	 0.217735854391589 
1363	 0.217691637134902 
1364	 0.217647328618056 
1365	 0.217605708747973 
1366	 0.217564348147543 
1367	 0.217527815654467 
1368	 0.217493419091909 
1369	 0.217476777073487 
1370	 0.217436450509887 
1371	 0.217360835616634 
1372	 0.217275407815347 
1373	 0.217164070519466 
1374	 0.217050958668162 
1375	 0.216938513327362 
1376	 0.216800876551298 
1377	 0.216643455589823 
1378	 0.216472176150116 
1379	 0.216280004944951 
1380	 0.216081946370666 
1381	 0.215872844016176 
1382	 0.215653509761655 
1383	 0.215436276573991 
1384	 0.215187468277428 
1385	 0.214921467354817 
1386	 0.214637213107841 
1387	 0.214326041449622 
1388	 0.213997731889936 
1389	 0.213652153630403 
1390	 0.213304571698263 
1391	 0.21290678151509 
1392	 0.212495306955946 
1393	 0.212060039623514 
1394	 0.211566962148881 
1395	 0.211046677604692 
1396	 0.210543770635787 
1397	 0.210053364288451 
1398	 0.209558074138573 
1399	 0.209072298167885 
1400	 0.208612577705146 
1401	 0.208127491349649 
1402	 0.207613947727864 
1403	 0.207141822577921 
1404	 0.206678002951249 
1405	 0.2062334489046 
1406	 0.205810448941158 
1407	 0.205395080231917 
1408	 0.204977601640524 
1409	 0.204601015849275 
1410	 0.204240840569031 
1411	 0.203922005200408 
1412	 0.203643251330238 
1413	 0.203379685687938 
1414	 0.203157980274485 
1415	 0.202960051578034 
1416	 0.202784205348626 
1417	 0.202641243572988 
1418	 0.20250031293987 
1419	 0.202375881674144 
1420	 0.202291169523008 
1421	 0.202205977315197 
1422	 0.202130505591811 
1423	 0.202064257022886 
1424	 0.201966798181521 
1425	 0.20182632042769 
1426	 0.201737259447069 
1427	 0.201648993671133 
1428	 0.201584069467972 
1429	 0.201563780029512 
1430	 0.201518006658239 
1431	 0.201460329133066 
1432	 0.201424957859072 
1433	 0.201396449223131 
1434	 0.201372890298809 
1435	 0.201361663488703 
1436	 0.20135353637902 
1437	 0.201342642675479 
1438	 0.201347130145851 
1439	 0.201368711018348 
1440	 0.201394713006321 
1441	 0.201412638566633 
1442	 0.201419205389831 
1443	 0.201420864358259 
1444	 0.201434609423248 
1445	 0.201462968516344 
1446	 0.20150570308367 
1447	 0.201560670118657 
1448	 0.201606441922176 
1449	 0.201626699362086 
1450	 0.201650024076157 
1451	 0.201691064755989 
1452	 0.201727994510893 
1453	 0.20177642534497 
1454	 0.201854317959906 
1455	 0.201906453581243 
1456	 0.201938917599628 
1457	 0.20199757730342 
1458	 0.20206634380797 
1459	 0.202133308442077 
1460	 0.202207321248384 
1461	 0.202281946691363 
1462	 0.202345957838674 
1463	 0.202431255167596 
1464	 0.202533481439373 
1465	 0.202640262481287 
1466	 0.202761443314942 
1467	 0.202881752934907 
1468	 0.202991648498977 
1469	 0.20312978587596 
1470	 0.203289402728411 
1471	 0.203445071918835 
1472	 0.203615293959062 
1473	 0.203796626968163 
1474	 0.203951957761369 
1475	 0.204104603776878 
1476	 0.204253569433344 
1477	 0.204399960577576 
1478	 0.204556099822171 
1479	 0.20471578655042 
1480	 0.204889575575023 
1481	 0.205071507582461 
1482	 0.205244983656321 
1483	 0.20542027142711 
1484	 0.205587055471918 
1485	 0.20573961732015 
1486	 0.205911735041473 
1487	 0.206086933584886 
1488	 0.20627072182133 
1489	 0.206479225842056 
1490	 0.206656725316148 
1491	 0.20682923563507 
1492	 0.2069917548337 
1493	 0.207126180208058 
1494	 0.207285121656611 
1495	 0.20745051145174 
1496	 0.207609755506493 
1497	 0.207785368217305 
1498	 0.20793792226028 
1499	 0.208071356608567 
1500	 0.208211620388916 
1501	 0.208334745206119 
1502	 0.20847656651095 
1503	 0.208635279354779 
1504	 0.208784963064598 
1505	 0.208936759191944 
1506	 0.209096400498601 
1507	 0.209241361213399 
1508	 0.209378478017733 
1509	 0.209502231903575 
1510	 0.209621823233755 
1511	 0.209745617399464 
1512	 0.209866801929679 
1513	 0.209994364457182 
1514	 0.21012459039384 
1515	 0.210254995282591 
1516	 0.210390977917209 
1517	 0.210524273901726 
1518	 0.210669108796608 
1519	 0.210793471068229 
1520	 0.210905088364724 
1521	 0.211022053093249 
1522	 0.211130433529385 
1523	 0.21124417727468 
1524	 0.211358495603036 
1525	 0.211478237415125 
1526	 0.211599642493759 
1527	 0.211723903893457 
1528	 0.211867426652613 
1529	 0.211979972796624 
1530	 0.21207809284884 
1531	 0.21217926190729 
1532	 0.212260679125345 
1533	 0.212349222182558 
1534	 0.212443628313611 
1535	 0.212534187261666 
1536	 0.212621153936193 
1537	 0.212708887519823 
1538	 0.212795832713195 
1539	 0.212885084981665 
1540	 0.212984879045438 
1541	 0.213064505554627 
1542	 0.213127885744338 
1543	 0.21320162047633 
1544	 0.21326630888081 
1545	 0.213333541495658 
1546	 0.213403940244726 
1547	 0.213491058051399 
1548	 0.213571446484803 
1549	 0.213630229704265 
1550	 0.213698732506377 
1551	 0.213763219193896 
1552	 0.213824325941247 
1553	 0.213911021863823 
1554	 0.214003428549802 
1555	 0.214083156963053 
1556	 0.214139440332366 
1557	 0.214177020613101 
1558	 0.214217811194814 
1559	 0.214268571138337 
1560	 0.214324554239211 
1561	 0.214401567941427 
1562	 0.214455696977196 
1563	 0.214497341434469 
1564	 0.214551053523945 
1565	 0.214598016861646 
1566	 0.214660009463067 
1567	 0.214744180775398 
1568	 0.214803387507643 
1569	 0.214854197988337 
1570	 0.214913606469343 
1571	 0.21496468398095 
1572	 0.215017637888232 
1573	 0.215080454571733 
1574	 0.215136922501605 
1575	 0.215191444410124 
1576	 0.215233006547995 
1577	 0.215275425817442 
1578	 0.215303487080298 
1579	 0.215297196056177 
1580	 0.215326819112217 
1581	 0.21535790712044 
1582	 0.215408667821147 
1583	 0.21549630358684 
1584	 0.215560510625675 
1585	 0.215636464885219 
1586	 0.215690244627764 
1587	 0.215723923007904 
1588	 0.215756216172801 
1589	 0.215771113266353 
1590	 0.215795501028193 
1591	 0.215818515979435 
1592	 0.215846373163667 
1593	 0.21588629242594 
1594	 0.215912845143903 
1595	 0.215927729086419 
1596	 0.215953178961406 
1597	 0.215973015097495 
1598	 0.216000795889277 
1599	 0.216051866446446 
1600	 0.216084527954571 
1601	 0.216101138935231 
1602	 0.216129824288668 
1603	 0.216153726572039 
1604	 0.21618323770032 
1605	 0.216226240798129 
1606	 0.216268138494876 
1607	 0.216318112298311 
1608	 0.216350753974122 
1609	 0.216388500801039 
1610	 0.216422966563133 
1611	 0.21644105495126 
1612	 0.216469440296438 
1613	 0.216487028912945 
1614	 0.21649552373844 
1615	 0.216498474554347 
1616	 0.216506309038163 
1617	 0.216521396804246 
1618	 0.216538545303234 
1619	 0.216576017395667 
1620	 0.216601243746918 
1621	 0.216625456786172 
1622	 0.216653515336521 
1623	 0.216672543093964 
1624	 0.216682402277915 
1625	 0.216693708649895 
1626	 0.216700853273497 
1627	 0.216714180177087 
1628	 0.216725764537971 
1629	 0.216743391667828 
1630	 0.216766989644848 
1631	 0.216794515086276 
1632	 0.216823149919588 
1633	 0.216857257207899 
1634	 0.216901268801098 
1635	 0.216933896809047 
1636	 0.21697533246562 
1637	 0.216987382599857 
1638	 0.216979132064339 
1639	 0.216981384699151 
1640	 0.216957292186443 
1641	 0.216972859707181 
1642	 0.217014762214203 
1643	 0.217044713910355 
1644	 0.217090972522062 
1645	 0.217120008897116 
1646	 0.217140996395223 
1647	 0.21715673691532 
1648	 0.217171620780522 
1649	 0.217172485648661 
1650	 0.217144878688176 
1651	 0.217155702005504 
1652	 0.21718171016438 
1653	 0.217192842222175 
1654	 0.217223319145872 
1655	 0.217236465180946 
1656	 0.217227503115285 
1657	 0.217222987486426 
1658	 0.217219368907518 
1659	 0.217219756044303 
1660	 0.217221299834878 
1661	 0.21720705106468 
1662	 0.217182250504736 
1663	 0.217178984698783 
1664	 0.217168312191175 
1665	 0.217166870941936 
1666	 0.217185869445669 
1667	 0.217209802619232 
1668	 0.217247271901021 
1669	 0.217251338404247 
1670	 0.217256044867004 
1671	 0.217253948260369 
1672	 0.217211840199638 
1673	 0.217194715173244 
1674	 0.217200743165033 
1675	 0.217193046645826 
1676	 0.217166048436369 
1677	 0.21716660301016 
1678	 0.21718303763489 
1679	 0.217196028634751 
1680	 0.217228294087137 
1681	 0.217241847456854 
1682	 0.217233620023455 
1683	 0.217253488810714 
1684	 0.217285536966715 
1685	 0.21730892660791 
1686	 0.217362516518415 
1687	 0.217370355922699 
1688	 0.217339212294158 
1689	 0.217326323889557 
1690	 0.21729014912218 
1691	 0.217281771375902 
1692	 0.217300653233515 
1693	 0.217301278253672 
1694	 0.217300196641457 
1695	 0.217304920368989 
1696	 0.217298521767625 
1697	 0.21731062436153 
1698	 0.217346678687613 
1699	 0.217364480686585 
1700	 0.217384523765959 
1701	 0.217394602714776 
1702	 0.217397269763287 
1703	 0.21738749219194 
1704	 0.217375190539391 
1705	 0.217344379909344 
1706	 0.217284028267266 
1707	 0.217243926765901 
1708	 0.217190268003502 
1709	 0.217163486706827 
1710	 0.217159981521446 
1711	 0.217152506122711 
1712	 0.217174466616403 
1713	 0.217153175152623 
1714	 0.217109201656996 
1715	 0.217069654763211 
1716	 0.216988371077558 
1717	 0.216963019439541 
1718	 0.216969324999137 
1719	 0.216969228654456 
1720	 0.217009364208549 
1721	 0.216999425814773 
1722	 0.21695805457802 
1723	 0.216942544709882 
1724	 0.216918551595606 
1725	 0.216892504930394 
1726	 0.21688564204376 
1727	 0.2168538413229 
1728	 0.216793603044073 
1729	 0.216755213709444 
1730	 0.216722765770867 
1731	 0.216685077731135 
1732	 0.216647818621392 
1733	 0.216617829970029 
1734	 0.216595042574332 
1735	 0.216555004005779 
1736	 0.216516370518902 
1737	 0.21646609002944 
1738	 0.216394282344373 
1739	 0.216327896629423 
1740	 0.216250961820508 
1741	 0.216211120218045 
1742	 0.21619190098158 
1743	 0.216153203696746 
1744	 0.216143623154917 
1745	 0.216079781088102 
1746	 0.215965723666345 
1747	 0.21588530328432 
1748	 0.215812333433754 
1749	 0.215759552282452 
1750	 0.215705703498646 
1751	 0.215648302900923 
1752	 0.21557894076203 
1753	 0.215537134656982 
1754	 0.2154837270263 
1755	 0.215381175627971 
1756	 0.21531568044623 
1757	 0.215232520777501 
1758	 0.215153818375477 
1759	 0.215122862310505 
1760	 0.215077274035929 
1761	 0.215049945242172 
1762	 0.215010477699554 
1763	 0.214961249913249 
1764	 0.214930090883132 
1765	 0.214862070987696 
1766	 0.214767626537811 
1767	 0.214703263825388 
1768	 0.214653125301939 
1769	 0.214614721967168 
1770	 0.214597683702146 
1771	 0.214560013256654 
1772	 0.214527064598285 
1773	 0.214495449436393 
1774	 0.214456674931629 
1775	 0.214403605428887 
1776	 0.214329260543205 
1777	 0.214278155420319 
1778	 0.214236253437279 
1779	 0.214232134631505 
1780	 0.214223544011661 
1781	 0.214160429373092 
1782	 0.214138094953517 
1783	 0.214129462443137 
1784	 0.214108957392172 
1785	 0.214108321378519 
1786	 0.214092968788748 
1787	 0.214068975591219 
1788	 0.214038413535056 
1789	 0.213999455864894 
1790	 0.213966301211459 
1791	 0.213906635215599 
1792	 0.213880205092432 
1793	 0.213880960342786 
1794	 0.213885888718052 
1795	 0.213910291931746 
1796	 0.213918859322841 
1797	 0.21393701489502 
1798	 0.213935948510413 
1799	 0.213916430178368 
1800	 0.213908159778162 
1801	 0.214247323774429 
1802	 0.214351666514626 
1803	 0.214463972968802 
1804	 0.214565222018219 
1805	 0.21468668302415 
1806	 0.214817923664255 
1807	 0.214906288723635 
1808	 0.214994900977901 
1809	 0.215086601877892 
1810	 0.215145001414361 
1811	 0.215168908495713 
1812	 0.215223287781175 
1813	 0.215262806786638 
1814	 0.215225751948751 
1815	 0.215175660016817 
1816	 0.215162951275674 
1817	 0.215154339988266 
1818	 0.215143131346044 
1819	 0.215148905922354 
1820	 0.215198793582842 
1821	 0.215179735534537 
1822	 0.215174069781414 
1823	 0.215175541363543 
1824	 0.215176298829439 
1825	 0.215208053571572 
1826	 0.215223087867033 
1827	 0.215212619649089 
1828	 0.2151998768895 
1829	 0.215176743528243 
1830	 0.215140357815378 
1831	 0.215078675596384 
1832	 0.215059339339944 
1833	 0.215011583895373 
1834	 0.21495978434321 
1835	 0.21496897450941 
1836	 0.214934957925348 
1837	 0.214905208439236 
1838	 0.214893347637729 
1839	 0.2148614791907 
1840	 0.214807787375673 
1841	 0.214766419091498 
1842	 0.21472329248014 
1843	 0.214695614409859 
1844	 0.214673975940138 
1845	 0.214614167617468 
1846	 0.214545358158174 
1847	 0.214481915163525 
1848	 0.214403505279425 
1849	 0.21433193259622 
1850	 0.214254065430279 
1851	 0.214190667994389 
1852	 0.214076897871338 
1853	 0.213957087055947 
1854	 0.21384902868479 
1855	 0.213711065054178 
1856	 0.213565717272038 
1857	 0.213397486547551 
1858	 0.213191627192227 
1859	 0.212977661672107 
1860	 0.212752606284253 
1861	 0.212520859212007 
1862	 0.21227565979869 
1863	 0.211976716675256 
1864	 0.211628315343037 
1865	 0.211232610044891 
1866	 0.210784817742785 
1867	 0.210346354459923 
1868	 0.209875022348712 
1869	 0.209343427335254 
1870	 0.208801005568383 
1871	 0.20822801308278 
1872	 0.207617652771325 
1873	 0.206984537016238 
1874	 0.206339870480672 
1875	 0.205622234503917 
1876	 0.204831485900626 
1877	 0.204012335297875 
1878	 0.203135528624484 
1879	 0.202186217328373 
1880	 0.201160523430749 
1881	 0.200063028901836 
1882	 0.198902467558046 
1883	 0.197669796053915 
1884	 0.196344541715322 
1885	 0.194995533196269 
1886	 0.193566328339759 
1887	 0.192028142975648 
1888	 0.190473049819582 
1889	 0.188835378690734 
1890	 0.187148813107345 
1891	 0.185504618826787 
1892	 0.183838674019959 
1893	 0.182186390794838 
1894	 0.180539840164306 
1895	 0.178946822449163 
1896	 0.177313691422365 
1897	 0.175714095741994 
1898	 0.174169086826865 
1899	 0.172669182299104 
1900	 0.171258262400223 
1901	 0.169926970081611 
1902	 0.168663815501971 
1903	 0.16749345445833 
1904	 0.16637548959107 
1905	 0.165313896913003 
1906	 0.164334307631265 
1907	 0.163413321308574 
1908	 0.162555935047812 
1909	 0.161770785143084 
1910	 0.161038799501189 
1911	 0.160371031869959 
1912	 0.15974952974601 
1913	 0.159163165852651 
1914	 0.158613095327647 
1915	 0.158106331955957 
1916	 0.157636248925136 
1917	 0.157221365496289 
1918	 0.156849830400495 
1919	 0.15649151838792 
1920	 0.156203459298128 
1921	 0.155950486567918 
1922	 0.155703461808285 
1923	 0.155516452407321 
1924	 0.155360355218487 
1925	 0.155230394604414 
1926	 0.155138638592066 
1927	 0.155093577892353 
1928	 0.155077977427997 
1929	 0.155082445264749 
1930	 0.15509865321335 
1931	 0.155151156296324 
1932	 0.155234522433645 
1933	 0.155329794302929 
1934	 0.155441215435539 
1935	 0.155559039499306 
1936	 0.155677592703798 
1937	 0.155821920270418 
1938	 0.155978679528775 
1939	 0.156156736258024 
1940	 0.156358319106 
1941	 0.156569422307716 
1942	 0.156797876364114 
1943	 0.157066379046331 
1944	 0.157348041858202 
1945	 0.157638315730784 
1946	 0.1579373413032 
1947	 0.158252970792324 
1948	 0.158563107897355 
1949	 0.158871442133009 
1950	 0.159195647367944 
1951	 0.159522248168162 
1952	 0.159866231599557 
1953	 0.160213970853737 
1954	 0.160592592876169 
1955	 0.160973028490582 
1956	 0.161346437658748 
1957	 0.161735837550169 
1958	 0.162135821461519 
1959	 0.162536467639398 
1960	 0.162961729046359 
1961	 0.163359908199255 
1962	 0.163743308071652 
1963	 0.164138379224137 
1964	 0.164524937327705 
1965	 0.164901225544978 
1966	 0.165315799177845 
1967	 0.165765197804829 
1968	 0.166200114113553 
1969	 0.166656324701038 
1970	 0.167091458222084 
1971	 0.167503839213141 
1972	 0.167938267605592 
1973	 0.16837849216407 
1974	 0.168823571980225 
1975	 0.169279857300719 
1976	 0.169744974294499 
1977	 0.170195640133519 
1978	 0.17064174413373 
1979	 0.171110882994979 
1980	 0.171568557146164 
1981	 0.171997775543895 
1982	 0.172410432115002 
1983	 0.172824119431849 
1984	 0.173181528646613 
1985	 0.173601510225917 
1986	 0.174068234697043 
1987	 0.174511585715551 
1988	 0.174957196964877 
1989	 0.175435238781121 
1990	 0.175892709411517 
1991	 0.176320694125132 
1992	 0.176736415344596 
1993	 0.177135520121988 
1994	 0.177545348562863 
1995	 0.17793105670133 
1996	 0.178340263898389 
1997	 0.178774675635151 
1998	 0.179195050588336 
1999	 0.179616652378781 
2000	 0.180028523874593 
2001	 0.180433533820844 
2002	 0.180844207044887 
2003	 0.18124766212365 
2004	 0.18163088339052 
2005	 0.182017400100855 
2006	 0.182399397264262 
2007	 0.182781201890046 
2008	 0.183145145913307 
2009	 0.183534885193027 
2010	 0.183949532222556 
2011	 0.184344870251699 
2012	 0.184754298007293 
2013	 0.185144387541375 
2014	 0.185519499047695 
2015	 0.185878028532513 
2016	 0.186232211640655 
2017	 0.186568293576151 
2018	 0.186926486384394 
2019	 0.187287173247909 
2020	 0.18764039499158 
2021	 0.188013118676595 
2022	 0.188366025617578 
2023	 0.188690475478887 
2024	 0.189033462370998 
2025	 0.189392016544528 
2026	 0.189728869493514 
2027	 0.190048465608119 
2028	 0.190383747963124 
2029	 0.190721335805528 
2030	 0.191049446767693 
2031	 0.191386874817299 
2032	 0.191752321243142 
2033	 0.192082147746172 
2034	 0.192401438811394 
2035	 0.192704953076945 
2036	 0.192980943386262 
2037	 0.193267692565763 
2038	 0.193556434965874 
2039	 0.193824708084869 
2040	 0.194075469841503 
2041	 0.19434012315674 
2042	 0.1945826685653 
2043	 0.194833077332808 
2044	 0.195101410990605 
2045	 0.195391327709976 
2046	 0.19567316324214 
2047	 0.195972943089473 
2048	 0.196250077120474 
2049	 0.19653189810148 
2050	 0.196787459047205 
2051	 0.197005038003846 
2052	 0.197242555296594 
2053	 0.197479905513641 
2054	 0.197708064404213 
2055	 0.197944643535158 
2056	 0.198178783042908 
2057	 0.198384885229636 
2058	 0.198554861351332 
2059	 0.198757565726974 
2060	 0.198947213158305 
2061	 0.199165884348562 
2062	 0.19941651279311 
2063	 0.199653148455233 
2064	 0.199910740752005 
2065	 0.200138882660964 
2066	 0.200356764037334 
2067	 0.200562771300852 
2068	 0.200739472700897 
2069	 0.20093069867922 
2070	 0.201108269290283 
2071	 0.201261206983562 
2072	 0.201461846225149 
2073	 0.201686873179662 
2074	 0.201888112081719 
2075	 0.20211393476061 
2076	 0.2023149935678 
2077	 0.20246982757197 
2078	 0.202661317255245 
2079	 0.202869431911432 
2080	 0.203078334260709 
2081	 0.203311366016115 
2082	 0.203525358482164 
2083	 0.203729115811354 
2084	 0.203941360476205 
2085	 0.204137162430764 
2086	 0.204316609994075 
2087	 0.20450129094942 
2088	 0.20467822036451 
2089	 0.204866391424563 
2090	 0.205065562114154 
2091	 0.205245123243231 
2092	 0.2054302354521 
2093	 0.205594630671997 
2094	 0.205705831317931 
2095	 0.205870008651959 
2096	 0.206057822253606 
2097	 0.206241209776592 
2098	 0.206450176032758 
2099	 0.206664951907231 
2100	 0.206859142798755 
2101	 0.207034751521313 
2102	 0.207219350429627 
2103	 0.207400088120837 
2104	 0.207588373464017 
2105	 0.207780139679252 
2106	 0.207968446924912 
2107	 0.208156805788327 
2108	 0.208350341965062 
2109	 0.208554603976726 
2110	 0.208740130025476 
2111	 0.208921751159861 
2112	 0.209100474386729 
2113	 0.209266161462847 
2114	 0.209420473142602 
2115	 0.209594782260717 
2116	 0.209782281156945 
2117	 0.209959925561817 
2118	 0.21013576820913 
2119	 0.210318711979576 
2120	 0.210509340015002 
2121	 0.210684802391915 
2122	 0.210864695277306 
2123	 0.211033785688967 
2124	 0.211194944722955 
2125	 0.211338386341291 
2126	 0.211474795463133 
2127	 0.21159863801046 
2128	 0.211692295906787 
2129	 0.21179247727682 
2130	 0.211881725056881 
2131	 0.211989992808361 
2132	 0.212075860644651 
2133	 0.212153831088856 
2134	 0.212232961631401 
2135	 0.212309774920765 
2136	 0.212368667997544 
2137	 0.212437419589401 
2138	 0.212463888073491 
2139	 0.212440306290917 
2140	 0.212445521432131 
2141	 0.212434449780578 
2142	 0.212433834849867 
2143	 0.212463584213355 
2144	 0.212466986771826 
2145	 0.212459775855061 
2146	 0.212443510281169 
2147	 0.212410294955503 
2148	 0.21237819153423 
2149	 0.212332320698902 
2150	 0.212269262594408 
2151	 0.212217884436642 
2152	 0.212163053271251 
2153	 0.21210650532035 
2154	 0.212064520982335 
2155	 0.211995907730069 
2156	 0.211925341171611 
2157	 0.211823133226997 
2158	 0.211680939438195 
2159	 0.211555308745969 
2160	 0.211414191584452 
2161	 0.211274283253133 
2162	 0.211165008767463 
2163	 0.211016908968576 
2164	 0.210827289261956 
2165	 0.210646573882598 
2166	 0.210478260421365 
2167	 0.210292529920702 
2168	 0.210131143955783 
2169	 0.210000257557841 
2170	 0.209854327589773 
2171	 0.209707404326604 
2172	 0.209556705354369 
2173	 0.209405114716368 
2174	 0.209256182386458 
2175	 0.209104865211693 
2176	 0.2089533280614 
2177	 0.208822869931784 
2178	 0.208659253686186 
2179	 0.208469699592507 
2180	 0.208284063729484 
2181	 0.208066990959488 
2182	 0.207873356113716 
2183	 0.20768304788 
2184	 0.207524689580834 
2185	 0.207343797239326 
2186	 0.20716081672782 
2187	 0.206992058173742 
2188	 0.20681845486156 
2189	 0.206659993650869 
2190	 0.206524221857379 
2191	 0.206381699850069 
2192	 0.206232506764112 
2193	 0.206097593213662 
2194	 0.205980843592287 
2195	 0.205853538226579 
2196	 0.205730262818547 
2197	 0.205604322642038 
2198	 0.205455747052204 
2199	 0.205335054220992 
2200	 0.205237512957576 
2201	 0.20513404851854 
2202	 0.205039883717247 
2203	 0.204947497322025 
2204	 0.204870766548275 
2205	 0.204777180227776 
2206	 0.204746689184602 
2207	 0.204765796094037 
2208	 0.204767018831411 
2209	 0.204807585157928 
2210	 0.204812969632877 
2211	 0.20478815309146 
2212	 0.204793839715275 
2213	 0.204798423178529 
2214	 0.204820538554243 
2215	 0.204872255490932 
2216	 0.204912534858823 
2217	 0.20495230481556 
2218	 0.204997170107993 
2219	 0.205035756593463 
2220	 0.20509013525524 
2221	 0.20515718565852 
2222	 0.20523621793115 
2223	 0.20530369388476 
2224	 0.205366133125493 
2225	 0.205403879232428 
2226	 0.205413569198323 
2227	 0.205435216855475 
2228	 0.205446496487143 
2229	 0.205460969289524 
2230	 0.205490162163243 
2231	 0.205487084923402 
2232	 0.205452917566253 
2233	 0.205445719692265 
2234	 0.205428405303732 
2235	 0.205422396832257 
2236	 0.205461122695729 
2237	 0.205454749414741 
2238	 0.205400280985858 
2239	 0.205384069933505 
2240	 0.205350914559569 
2241	 0.205352968182472 
2242	 0.205423422027024 
2243	 0.205453794032815 
2244	 0.205502125303859 
2245	 0.205504604310971 
2246	 0.20546441729805 
2247	 0.205418593179882 
2248	 0.205387166545985 
2249	 0.205347125112775 
2250	 0.205310425609657 
2251	 0.205281819283621 
2252	 0.20525595738806 
2253	 0.205210939621415 
2254	 0.205193371113404 
2255	 0.205215811365889 
2256	 0.205200220001315 
2257	 0.205175250913013 
2258	 0.205160543172414 
2259	 0.20511251619198 
2260	 0.205108151651681 
2261	 0.205156263095503 
2262	 0.205158180154188 
2263	 0.20517948582401 
2264	 0.205158162071899 
2265	 0.205060131918637 
2266	 0.205006814481375 
2267	 0.204939254465203 
2268	 0.204907913857831 
2269	 0.204912764733263 
2270	 0.204947178622402 
2271	 0.204948009894549 
2272	 0.20492122813733 
2273	 0.204867570613708 
2274	 0.204833433747989 
2275	 0.204823171295246 
2276	 0.204846714419003 
2277	 0.204835172310685 
2278	 0.204836872734895 
2279	 0.204801652167891 
2280	 0.204723374679538 
2281	 0.204675212525226 
2282	 0.204616380750154 
2283	 0.204578680640075 
2284	 0.204564891066275 
2285	 0.204547520766254 
2286	 0.204537481388367 
2287	 0.204522011305106 
2288	 0.204508014993699 
2289	 0.204489992708494 
2290	 0.20448378976139 
2291	 0.2044487924406 
2292	 0.204392886955829 
2293	 0.204342463928255 
2294	 0.204271928033161 
2295	 0.204205481092154 
2296	 0.204134317472332 
2297	 0.204084737439533 
2298	 0.204031754563529 
2299	 0.203983044883534 
2300	 0.203965401409697 
2301	 0.20393804729874 
2302	 0.20388967157618 
2303	 0.203847437405874 
2304	 0.203827617245424 
2305	 0.203748114539513 
2306	 0.203659775451982 
2307	 0.203545666646821 
2308	 0.203461101334072 
2309	 0.203362391190262 
2310	 0.203282472386559 
2311	 0.203243875356539 
2312	 0.203150162347488 
2313	 0.203006531413678 
2314	 0.202912413968936 
2315	 0.202816629603657 
2316	 0.202744009165265 
2317	 0.202734848892062 
2318	 0.202657862867875 
2319	 0.202556638538377 
2320	 0.202450394420217 
2321	 0.20226563436244 
2322	 0.20217852381295 
2323	 0.202166071905963 
2324	 0.202108138893556 
2325	 0.202086686980264 
2326	 0.202032919343864 
2327	 0.20192627739369 
2328	 0.201832048818404 
2329	 0.201783941094452 
2330	 0.201748396612735 
2331	 0.20174028369321 
2332	 0.201701880389445 
2333	 0.201574620907964 
2334	 0.201472963826396 
2335	 0.201421421615027 
2336	 0.201352288099919 
2337	 0.201223601821642 
2338	 0.201177244443635 
2339	 0.201123883569475 
2340	 0.200940782902552 
2341	 0.200890048560925 
2342	 0.200873179144844 
2343	 0.200737010537718 
2344	 0.200608098303527 
2345	 0.20047283044481 
2346	 0.200288463145009 
2347	 0.200148443018046 
2348	 0.200050579490691 
2349	 0.199915205514432 
2350	 0.199779603719693 
2351	 0.199627630857236 
2352	 0.199439704086773 
2353	 0.19927930538723 
2354	 0.199133922576245 
2355	 0.198953559106408 
2356	 0.198766988318867 
2357	 0.198580669921712 
2358	 0.198335891661756 
2359	 0.198174177717146 
2360	 0.198062056678746 
2361	 0.197948134077596 
2362	 0.197928556867389 
2363	 0.197803547038087 
2364	 0.197588878649064 
2365	 0.197435824788611 
2366	 0.197255337114675 
2367	 0.19710751230313 
2368	 0.197044368810553 
2369	 0.196920162721194 
2370	 0.196764170004996 
2371	 0.19658025104176 
2372	 0.196454701092769 
2373	 0.19632676087911 
2374	 0.196163657327892 
2375	 0.195974827394059 
2376	 0.195719302743885 
2377	 0.195470936895243 
2378	 0.195247446179157 
2379	 0.195039532769152 
2380	 0.194821624475544 
2381	 0.194560026250738 
2382	 0.19430604534358 
2383	 0.194107053616141 
2384	 0.193884213759058 
2385	 0.193627473676853 
2386	 0.193421032704969 
2387	 0.193169826302445 
2388	 0.192946633861392 
2389	 0.192863098467041 
2390	 0.192742438937951 
2391	 0.192549939463549 
2392	 0.192366115290293 
2393	 0.192107249178778 
2394	 0.191823171418917 
2395	 0.191565792400244 
2396	 0.191294207980729 
2397	 0.19108171104857 
2398	 0.190795453031691 
2399	 0.190529997559639 
2400	 0.19036432125768 
2401	 0.190081363416567 
2402	 0.189817683779137 
2403	 0.189641020999508 
2404	 0.189415437292138 
2405	 0.189247552664658 
2406	 0.189055883192648 
2407	 0.188691148084152 
2408	 0.188357605827596 
2409	 0.187962968886454 
2410	 0.187539177347893 
2411	 0.187364790815798 
2412	 0.187216758435336 
2413	 0.186964198275372 
2414	 0.186678181283009 
2415	 0.186326213331123 
2416	 0.186043543130264 
2417	 0.185695227114174 
2418	 0.185424317465223 
2419	 0.185319229478147 
2420	 0.185075495759462 
2421	 0.184726127718485 
2422	 0.184481337033689 
2423	 0.184268366638049 
2424	 0.184004902248269 
2425	 0.183809413417275 
2426	 0.183477105228259 
2427	 0.182975364123489 
2428	 0.18263791068797 
2429	 0.182322709545963 
2430	 0.181995373719305 
2431	 0.181772585854189 
2432	 0.181449371564978 
2433	 0.181024282108433 
2434	 0.180635720669694 
2435	 0.180229200599922 
2436	 0.179886981753314 
2437	 0.179599542897496 
2438	 0.179327875744497 
2439	 0.179118341895726 
2440	 0.178807339102549 
2441	 0.17844456278548 
2442	 0.178081720868348 
2443	 0.177648155328369 
2444	 0.177356680609105 
2445	 0.177101670830045 
2446	 0.176861927356354 
2447	 0.176767894168404 
2448	 0.176485690536775 
2449	 0.176129676314473 
2450	 0.175802396949963 
2451	 0.175320643053446 
2452	 0.17499894331885 
2453	 0.174859175150957 
2454	 0.174612650825735 
2455	 0.174388582867854 
2456	 0.174082687324725 
2457	 0.173610966717336 
2458	 0.173259716196816 
2459	 0.172949882766918 
2460	 0.172617422727921 
2461	 0.172332862601711 
2462	 0.172089483505434 
2463	 0.17187840813328 
2464	 0.171657250672452 
2465	 0.171528284697262 
2466	 0.171159279053867 
2467	 0.17048860628559 
2468	 0.170108107545069 
2469	 0.169851224247872 
2470	 0.169736205696185 
2471	 0.169488183718938 
2472	 0.169188941172429 
2473	 0.168804778200867 
2474	 0.168229549542837 
2475	 0.167936984529959 
2476	 0.167771947291731 
2477	 0.167458919623142 
2478	 0.167301957517825 
2479	 0.167127013020589 
2480	 0.166794903225502 
2481	 0.166488791001034 
2482	 0.166140428752737 
2483	 0.165772870301453 
2484	 0.16555792553276 
2485	 0.165279806677738 
2486	 0.164944510665138 
2487	 0.164712944976001 
2488	 0.16431469915697 
2489	 0.163848439066695 
2490	 0.163380836173933 
2491	 0.162787826005987 
2492	 0.16230304933154 
2493	 0.1619649401063 
2494	 0.161709115508619 
2495	 0.161659000871037 
2496	 0.161769057264856 
2497	 0.161779497953662 
2498	 0.161693210710708 
2499	 0.161520196972214 
2500	 0.161153562902761 
