Wavelength	mm1400005.asd
350	 5.71456448440768E-02 
351	 5.87862325116011E-02 
352	 5.02830216076192E-02 
353	 4.29672671583531E-02 
354	 4.94550669971566E-02 
355	 5.14231115166485E-02 
356	 5.03649249079839E-02 
357	 5.12067073241819E-02 
358	 4.96682112130163E-02 
359	 4.96474305079687E-02 
360	 5.24341993639027E-02 
361	 5.64285559707082E-02 
362	 4.90791805674364E-02 
363	 4.66390173725383E-02 
364	 5.38406945487913E-02 
365	 5.26451715961891E-02 
366	 5.16376743676264E-02 
367	 5.13847526458164E-02 
368	 5.12856688362427E-02 
369	 5.49935925378169E-02 
370	 5.48657621770779E-02 
371	 5.21737588523876E-02 
372	 5.37865105860916E-02 
373	 5.42003923633298E-02 
374	 5.47191377903165E-02 
375	 5.63202779309099E-02 
376	 5.82082923856024E-02 
377	 5.57944343374344E-02 
378	 5.42281269992834E-02 
379	 5.83588814194651E-02 
380	 0.058845612441243 
381	 5.70358438465078E-02 
382	 5.56094748749288E-02 
383	 5.75128070381122E-02 
384	 6.02486502205489E-02 
385	 0.060938105538512 
386	 5.95969379042125E-02 
387	 6.19218662930288E-02 
388	 6.18651941200911E-02 
389	 6.01821683954748E-02 
390	 5.93976083624742E-02 
391	 5.90939606906882E-02 
392	 6.03675086964252E-02 
393	 6.30670524296012E-02 
394	 6.57853294237375E-02 
395	 6.44200414333122E-02 
396	 6.33409737925102E-02 
397	 6.51981843127228E-02 
398	 6.61308354311144E-02 
399	 6.61861344007404E-02 
400	 6.68013367469732E-02 
401	 6.89802088520579E-02 
402	 6.79468643180124E-02 
403	 6.64085427854807E-02 
404	 6.62811043476165E-02 
405	 6.80294594670133E-02 
406	 6.79135563773131E-02 
407	 6.81434417180177E-02 
408	 6.99248681156507E-02 
409	 6.86062172864026E-02 
410	 6.82111711631398E-02 
411	 6.90130926744063E-02 
412	 6.95695755195793E-02 
413	 7.00517653020245E-02 
414	 7.01982511263798E-02 
415	 6.98037879192805E-02 
416	 6.86851090094967E-02 
417	 6.96806299614289E-02 
418	 7.10286051441022E-02 
419	 7.07355031107465E-02 
420	 6.99533568442148E-02 
421	 6.98237091956468E-02 
422	 0.070054327363558 
423	 6.96146005644929E-02 
424	 7.04043918653718E-02 
425	 7.09647832275055E-02 
426	 7.05682822288288E-02 
427	 7.05480956619144E-02 
428	 7.00868617484272E-02 
429	 6.97577086348374E-02 
430	 7.02087671278819E-02 
431	 7.03431045119985E-02 
432	 7.00175999441287E-02 
433	 6.96032450272484E-02 
434	 6.98514738239372E-02 
435	 7.00194230617739E-02 
436	 7.02477972619391E-02 
437	 7.05714000859377E-02 
438	 7.02222488379038E-02 
439	 7.01939207875327E-02 
440	 0.070388537153778 
441	 0.070260347207737 
442	 7.04647163018781E-02 
443	 7.08160502928272E-02 
444	 7.10394950639011E-02 
445	 7.08403604952196E-02 
446	 7.07820649504538E-02 
447	 7.08627701647922E-02 
448	 0.070934725445763 
449	 7.09833058861324E-02 
450	 7.12841075686491E-02 
451	 0.071586318860013 
452	 7.12733359743117E-02 
453	 7.15626753997524E-02 
454	 7.17525551464623E-02 
455	 0.071448426131174 
456	 7.18781590364799E-02 
457	 7.20891573313863E-02 
458	 7.20566443179203E-02 
459	 7.21335588744288E-02 
460	 7.21621744436782E-02 
461	 7.20329891703177E-02 
462	 7.18596208395431E-02 
463	 7.20614564705529E-02 
464	 7.21414250832514E-02 
465	 0.072132828224634 
466	 7.21936813071045E-02 
467	 7.23629560390438E-02 
468	 7.24177579570529E-02 
469	 7.23874312958661E-02 
470	 7.24792780608459E-02 
471	 7.21860785642384E-02 
472	 7.21535031443419E-02 
473	 0.072629021354511 
474	 7.24634487786178E-02 
475	 7.24503113370282E-02 
476	 7.25384479968316E-02 
477	 7.24038626205075E-02 
478	 7.25184735628719E-02 
479	 7.26832132993867E-02 
480	 7.27521229663561E-02 
481	 7.27315907018104E-02 
482	 7.28106217475006E-02 
483	 7.28851359169092E-02 
484	 7.28384191012629E-02 
485	 7.28513954939944E-02 
486	 7.29515768115972E-02 
487	 7.30150469268828E-02 
488	 7.28270549693479E-02 
489	 7.27703079327627E-02 
490	 7.28043329491623E-02 
491	 7.28738540535214E-02 
492	 7.31242128765267E-02 
493	 7.31455574475161E-02 
494	 7.30548413663254E-02 
495	 7.31776125990362E-02 
496	 7.33228734894977E-02 
497	 7.33370343139745E-02 
498	 0.073252606429675 
499	 7.33683726810604E-02 
500	 7.34649661183766E-02 
501	 7.35018948482726E-02 
502	 7.35088454916872E-02 
503	 7.35849373027537E-02 
504	 7.36609458437826E-02 
505	 7.36702034161824E-02 
506	 7.35666555136182E-02 
507	 7.35773638915341E-02 
508	 7.36804197083088E-02 
509	 7.37756525973809E-02 
510	 7.36661425224751E-02 
511	 7.38080037802216E-02 
512	 7.40227306081082E-02 
513	 7.38690809025076E-02 
514	 0.07387907475417 
515	 7.38717698039176E-02 
516	 0.073810840584816 
517	 7.40677047040572E-02 
518	 0.074126994676621 
519	 7.40259346843376E-02 
520	 7.39779040893311E-02 
521	 7.40454389698259E-02 
522	 7.42269721069568E-02 
523	 7.44047496509136E-02 
524	 0.074356854324804 
525	 7.44266788981045E-02 
526	 7.44972391357153E-02 
527	 7.44608400462689E-02 
528	 7.45915348272226E-02 
529	 7.46406930463379E-02 
530	 7.46186461143661E-02 
531	 0.074693941138991 
532	 7.47271039273923E-02 
533	 0.074789011251923 
534	 7.49166897717918E-02 
535	 7.50308274254089E-02 
536	 7.50471016971449E-02 
537	 7.50472330735652E-02 
538	 7.51516410853014E-02 
539	 7.52268464133915E-02 
540	 0.075261361761012 
541	 7.52947699662716E-02 
542	 7.54212283459245E-02 
543	 7.54862791047478E-02 
544	 7.55607850181685E-02 
545	 7.57229687542948E-02 
546	 7.58190979330657E-02 
547	 7.59414860493333E-02 
548	 7.60812648740136E-02 
549	 7.61454971449738E-02 
550	 7.62210300182219E-02 
551	 0.07633974091096 
552	 7.64955193367567E-02 
553	 7.66165831312108E-02 
554	 7.67193982337078E-02 
555	 7.68491120846753E-02 
556	 7.70525892913656E-02 
557	 0.077229940716876 
558	 7.74205900472689E-02 
559	 0.077645303560539 
560	 7.78647215036164E-02 
561	 7.80857533597216E-02 
562	 7.83194285507264E-02 
563	 0.078580504067882 
564	 7.88984752090182E-02 
565	 0.079156620249576 
566	 7.93400182785234E-02 
567	 7.95551847572629E-02 
568	 0.079855079432952 
569	 8.01810556634424E-02 
570	 8.05067775075387E-02 
571	 8.10393256265748E-02 
572	 8.15073189243533E-02 
573	 8.18771016518735E-02 
574	 8.22875601050317E-02 
575	 8.27214329759074E-02 
576	 0.083200788900128 
577	 0.083729333800231 
578	 8.42763514043743E-02 
579	 8.47390886458656E-02 
580	 8.51823213461368E-02 
581	 0.08572128989489 
582	 8.62330403769217E-02 
583	 8.67201571659394E-02 
584	 8.72298472805236E-02 
585	 8.78573170005374E-02 
586	 0.088588298449711 
587	 8.93738334395532E-02 
588	 9.01604469427008E-02 
589	 9.09489807319776E-02 
590	 9.17215637565848E-02 
591	 9.24540440136779E-02 
592	 9.31241736865606E-02 
593	 9.38085754924555E-02 
594	 9.44712773959993E-02 
595	 9.50668068006413E-02 
596	 9.55802967168115E-02 
597	 9.60941851066991E-02 
598	 9.66253437567828E-02 
599	 9.71654799197722E-02 
600	 9.78247396748881E-02 
601	 0.098487305777261 
602	 9.90861390252782E-02 
603	 9.96900466310671E-02 
604	 0.100281056342208 
605	 0.100890071584724 
606	 0.101545384233178 
607	 0.10218056734989 
608	 0.102763522980812 
609	 0.103318023810561 
610	 0.103926122269459 
611	 0.104405544977024 
612	 0.104801885060832 
613	 0.105189535153738 
614	 0.105539699823635 
615	 0.10584447382715 
616	 0.106158557539649 
617	 0.106561371155458 
618	 0.106895919063441 
619	 0.107185122907574 
620	 0.107463998447844 
621	 0.107726977189808 
622	 0.107998806790122 
623	 0.108260523556308 
624	 0.108483828776635 
625	 0.1087042570502 
626	 0.108946205556189 
627	 0.109203334871159 
628	 0.109431404224396 
629	 0.109608771014663 
630	 0.109777809659312 
631	 0.109984244361905 
632	 0.1102130117894 
633	 0.110394313102069 
634	 0.110537451513858 
635	 0.110716569866238 
636	 0.110930596687682 
637	 0.111143783042467 
638	 0.111329007294838 
639	 0.111488881486936 
640	 0.111717003022697 
641	 0.111957068325916 
642	 0.112107399187857 
643	 0.112321855682668 
644	 0.112544283548957 
645	 0.112735194549528 
646	 0.112907101664448 
647	 0.113091046699662 
648	 0.113290773073931 
649	 0.113506199951489 
650	 0.113768831246604 
651	 0.114005863277386 
652	 0.114214148742351 
653	 0.114451824194121 
654	 0.114695921450948 
655	 0.114926471596144 
656	 0.115142685192867 
657	 0.115385423061369 
658	 0.115672269305756 
659	 0.115968467725338 
660	 0.11621988844287 
661	 0.116443137466621 
662	 0.116737481416311 
663	 0.117085767034504 
664	 0.117289997520014 
665	 0.117593510614439 
666	 0.117938926747371 
667	 0.118226221449826 
668	 0.118561683548119 
669	 0.118898313883469 
670	 0.119222982169588 
671	 0.119553535968413 
672	 0.119895834400227 
673	 0.120243846492372 
674	 0.120593908069089 
675	 0.120949696754121 
676	 0.121349931499822 
677	 0.121751602129693 
678	 0.122098275762923 
679	 0.122512973607764 
680	 0.122936679750162 
681	 0.123346037234431 
682	 0.123784636722678 
683	 0.12420494249633 
684	 0.124605904445271 
685	 0.125014338478852 
686	 0.125517970817671 
687	 0.125972018755587 
688	 0.126391656976251 
689	 0.126896557875611 
690	 0.127377720609333 
691	 0.127862774010643 
692	 0.128370073119622 
693	 0.12886302189845 
694	 0.129330936957631 
695	 0.129820086288042 
696	 0.130369137940824 
697	 0.13084163849975 
698	 0.131349827764367 
699	 0.131912720055828 
700	 0.132438720917832 
701	 0.13298887981343 
702	 0.133559834691597 
703	 0.134125828036079 
704	 0.134635672095528 
705	 0.135131240558688 
706	 0.135657356162469 
707	 0.136241445716448 
708	 0.13676464621505 
709	 0.137324819237648 
710	 0.137923938950046 
711	 0.138393563201591 
712	 0.138915491369033 
713	 0.139450718389288 
714	 0.139942186166922 
715	 0.140509731245223 
716	 0.14107333540639 
717	 0.141584635633351 
718	 0.142034759267659 
719	 0.142542185624966 
720	 0.143066167069963 
721	 0.143556736915292 
722	 0.143994549338254 
723	 0.144439404303511 
724	 0.144877855398798 
725	 0.145282883417436 
726	 0.145697839815898 
727	 0.146100122275951 
728	 0.146488282608914 
729	 0.146881297704248 
730	 0.147255062893045 
731	 0.147574850594031 
732	 0.147842338558751 
733	 0.148146910409977 
734	 0.14845063999024 
735	 0.148706655323943 
736	 0.148887764756412 
737	 0.14911653905963 
738	 0.149340848593618 
739	 0.149532133568187 
740	 0.149701466969548 
741	 0.149806278129105 
742	 0.149886514072443 
743	 0.149972568265076 
744	 0.150019340495793 
745	 0.150038919966167 
746	 0.15006016293116 
747	 0.150107055499374 
748	 0.150116006450256 
749	 0.150057381067603 
750	 0.149962026615568 
751	 0.149925032533187 
752	 0.149814262026375 
753	 0.149647872197649 
754	 0.149484040375069 
755	 0.149392720964267 
756	 0.149275708059928 
757	 0.149109816729036 
758	 0.148917271755371 
759	 0.14873160999991 
760	 0.148513257535417 
761	 0.148262332106106 
762	 0.148035763963281 
763	 0.147771408302827 
764	 0.147501177046021 
765	 0.14725052414956 
766	 0.146958015107498 
767	 0.146657722234356 
768	 0.146369639148941 
769	 0.146097573450223 
770	 0.14578948262802 
771	 0.145474840335011 
772	 0.145155192555278 
773	 0.144792106181139 
774	 0.144470702904333 
775	 0.144157628597125 
776	 0.143815520456068 
777	 0.143473165071045 
778	 0.143122665488767 
779	 0.142790270207474 
780	 0.142495761486285 
781	 0.142122331749742 
782	 0.141757758502138 
783	 0.141430076909432 
784	 0.141089165140464 
785	 0.140745045374013 
786	 0.140409838376536 
787	 0.140085573812378 
788	 0.139743245312325 
789	 0.139452528601691 
790	 0.139138707328045 
791	 0.138725890175644 
792	 0.13842982290425 
793	 0.138138422104077 
794	 0.137824079431636 
795	 0.137539934432865 
796	 0.137195124430802 
797	 0.136874960035655 
798	 0.136611685150318 
799	 0.136290471329843 
800	 0.13600406779745 
801	 0.13571740522844 
802	 0.135391433955826 
803	 0.135127403110998 
804	 0.134850122786595 
805	 0.134550661351991 
806	 0.134265950257533 
807	 0.134009545949811 
808	 0.13377416814276 
809	 0.133536280694912 
810	 0.133257641371631 
811	 0.133010282570423 
812	 0.13277127973892 
813	 0.132521118609644 
814	 0.132311620280075 
815	 0.132114691982946 
816	 0.131907349533455 
817	 0.131674343870227 
818	 0.131420815214635 
819	 0.13123497856673 
820	 0.131088524380133 
821	 0.13086533497823 
822	 0.130696751878126 
823	 0.130517192310617 
824	 0.130306110926591 
825	 0.130162869251299 
826	 0.129997681388161 
827	 0.129833490165765 
828	 0.129700521329325 
829	 0.129554992830154 
830	 0.129373129048468 
831	 0.129185947460836 
832	 0.129051173328047 
833	 0.129011506457764 
834	 0.128903831017698 
835	 0.128721517180362 
836	 0.128611266892788 
837	 0.128513510391336 
838	 0.128433444197821 
839	 0.128358100051016 
840	 0.128229380984203 
841	 0.128141248834268 
842	 0.128068366019599 
843	 0.127977459027993 
844	 0.127921822773315 
845	 0.127886848771697 
846	 0.127811830180134 
847	 0.12766334518909 
848	 0.127680847088415 
849	 0.127652185950839 
850	 0.127551821185006 
851	 0.127525179937308 
852	 0.127483224454376 
853	 0.127466098154228 
854	 0.127488909189234 
855	 0.12750722663213 
856	 0.127492756738851 
857	 0.127480801260687 
858	 0.127495595192075 
859	 0.127488449410685 
860	 0.127497147793792 
861	 0.127532670507529 
862	 0.127577630655537 
863	 0.12753654863229 
864	 0.127556885100365 
865	 0.127622591913659 
866	 0.127629698453194 
867	 0.127665453613697 
868	 0.127711195842431 
869	 0.127757449931469 
870	 0.127815098047779 
871	 0.127917741203895 
872	 0.128029625570968 
873	 0.128127387844306 
874	 0.1282274797218 
875	 0.128292216164293 
876	 0.128338548109302 
877	 0.128396248443087 
878	 0.128479243020445 
879	 0.128687102445042 
880	 0.128880349422116 
881	 0.128924943491118 
882	 0.129078242940584 
883	 0.129254609606251 
884	 0.129406512267658 
885	 0.12952294774007 
886	 0.1296504461481 
887	 0.129791428821119 
888	 0.12994434107452 
889	 0.130106251643341 
890	 0.130273699490447 
891	 0.130446052649653 
892	 0.13063101716307 
893	 0.130842943061051 
894	 0.131040659098219 
895	 0.131220161466164 
896	 0.131402176331885 
897	 0.131633942599521 
898	 0.131916576870584 
899	 0.132173837040286 
900	 0.132358268971275 
901	 0.132543671059356 
902	 0.132809181068818 
903	 0.133091532860917 
904	 0.133310460575767 
905	 0.133530243926223 
906	 0.133824475577 
907	 0.13411496873156 
908	 0.134314442017096 
909	 0.134693337831165 
910	 0.135027233593938 
911	 0.135262488217261 
912	 0.135492606982163 
913	 0.135829931910035 
914	 0.136248590592681 
915	 0.136634753973534 
916	 0.136855131951814 
917	 0.137175437637566 
918	 0.137554009368295 
919	 0.13791567862038 
920	 0.138211401933638 
921	 0.138639822103325 
922	 0.13905052823976 
923	 0.139377126477561 
924	 0.139761728582018 
925	 0.14016205562925 
926	 0.140583506494841 
927	 0.141009319134871 
928	 0.14137053863795 
929	 0.141805455735031 
930	 0.142307891292768 
931	 0.142810279708733 
932	 0.143205112834371 
933	 0.143635455280901 
934	 0.144122830938754 
935	 0.144632892422806 
936	 0.145087167606846 
937	 0.145570854011276 
938	 0.146043660564868 
939	 0.146480447566165 
940	 0.147056939582831 
941	 0.147575065276325 
942	 0.148120095602853 
943	 0.148801701483926 
944	 0.14936699823267 
945	 0.149829678001761 
946	 0.150326197527033 
947	 0.150965702445364 
948	 0.151490060984873 
949	 0.152048924482114 
950	 0.152668268100981 
951	 0.15330336625158 
952	 0.153950630114969 
953	 0.154510440104118 
954	 0.155090514755477 
955	 0.155854550300022 
956	 0.156611709203531 
957	 0.157260682858302 
958	 0.157841517680505 
959	 0.158474252594188 
960	 0.159192378713844 
961	 0.159851249976423 
962	 0.16050570490759 
963	 0.161283813300598 
964	 0.161889559503392 
965	 0.162642965711805 
966	 0.163487337885265 
967	 0.164167204926081 
968	 0.165044734565834 
969	 0.16575626945086 
970	 0.166363161986498 
971	 0.167174520742196 
972	 0.167925569877629 
973	 0.168789278534423 
974	 0.169706833767922 
975	 0.170485027243434 
976	 0.171231066121279 
977	 0.171974638856336 
978	 0.172764336145937 
979	 0.173631129416629 
980	 0.174462295054339 
981	 0.175258639757793 
982	 0.1760738657245 
983	 0.17694638742042 
984	 0.177677134703085 
985	 0.178483965817658 
986	 0.179416577781166 
987	 0.180386593366343 
988	 0.181282521421259 
989	 0.181972165195419 
990	 0.182698629703911 
991	 0.183741556342208 
992	 0.184650327813594 
993	 0.185498518990822 
994	 0.186374095114816 
995	 0.187298605733482 
996	 0.188034081506121 
997	 0.188860403985504 
998	 0.189726373135378 
999	 0.190532767179841 
1000	 0.191529700230713 
1001	 0.189751218392001 
1002	 0.190447000937558 
1003	 0.191266188057518 
1004	 0.192092535034594 
1005	 0.193003946351957 
1006	 0.19382830986963 
1007	 0.194653470074909 
1008	 0.195433514741793 
1009	 0.19616138501158 
1010	 0.196857029366493 
1011	 0.197624840565687 
1012	 0.198382867629014 
1013	 0.199158213764432 
1014	 0.199938967005172 
1015	 0.200681408367124 
1016	 0.201453549982476 
1017	 0.202209217883677 
1018	 0.202938023511933 
1019	 0.203657573028197 
1020	 0.204423128987746 
1021	 0.205144425771871 
1022	 0.205847980122533 
1023	 0.206597781304643 
1024	 0.20729699480662 
1025	 0.207997794766596 
1026	 0.208691646077575 
1027	 0.209306623656216 
1028	 0.209966003325838 
1029	 0.210647872170087 
1030	 0.211307031792662 
1031	 0.211959087474946 
1032	 0.212629210732614 
1033	 0.213284813518869 
1034	 0.213942290948721 
1035	 0.214567108245165 
1036	 0.215208214889122 
1037	 0.215868030651117 
1038	 0.216439174638989 
1039	 0.217035407415355 
1040	 0.217685580470928 
1041	 0.21831667375085 
1042	 0.218972322956717 
1043	 0.219611310168404 
1044	 0.220221915284064 
1045	 0.220808865570418 
1046	 0.221355336476515 
1047	 0.221898462316957 
1048	 0.222513375440463 
1049	 0.223102911858023 
1050	 0.223766650984289 
1051	 0.224518932469562 
1052	 0.225150233153791 
1053	 0.225728769674175 
1054	 0.226345160220928 
1055	 0.22696380595104 
1056	 0.227622568465439 
1057	 0.228247792034766 
1058	 0.228923551234294 
1059	 0.229530259215923 
1060	 0.23006731929616 
1061	 0.230596830096238 
1062	 0.231184258098089 
1063	 0.23179709556417 
1064	 0.23244169931993 
1065	 0.233100954902089 
1066	 0.233719430652697 
1067	 0.234331102736959 
1068	 0.234862088408457 
1069	 0.235398847753064 
1070	 0.235974072551443 
1071	 0.236551029166033 
1072	 0.237155520547541 
1073	 0.237825091018107 
1074	 0.238410254270768 
1075	 0.238967136916297 
1076	 0.239524036610017 
1077	 0.240036946789264 
1078	 0.240577491408429 
1079	 0.241080328719061 
1080	 0.241621945536233 
1081	 0.242164746922125 
1082	 0.2427185719167 
1083	 0.243290854966615 
1084	 0.243905602609491 
1085	 0.244461381441489 
1086	 0.244993353711456 
1087	 0.245539013858448 
1088	 0.246040818904793 
1089	 0.246629889184724 
1090	 0.247231277228012 
1091	 0.247793292211409 
1092	 0.248362909852865 
1093	 0.248916676841163 
1094	 0.249462045972185 
1095	 0.249995271659949 
1096	 0.250537745957 
1097	 0.251078492170666 
1098	 0.251616670332481 
1099	 0.252143748072593 
1100	 0.252695209657332 
1101	 0.253259848888316 
1102	 0.253807331129903 
1103	 0.254354011201987 
1104	 0.254907295402816 
1105	 0.25544925670289 
1106	 0.256028547721185 
1107	 0.256606805777568 
1108	 0.257156449225529 
1109	 0.257730678384245 
1110	 0.258306540975049 
1111	 0.258864042573775 
1112	 0.259418638477544 
1113	 0.259984227304252 
1114	 0.260531582171993 
1115	 0.261095858120348 
1116	 0.261695908216482 
1117	 0.262266500177256 
1118	 0.262830751374329 
1119	 0.263367984341493 
1120	 0.263924909359751 
1121	 0.264492168261654 
1122	 0.265043667704812 
1123	 0.26562804927113 
1124	 0.266214389715274 
1125	 0.266802231795079 
1126	 0.267388549374798 
1127	 0.267997241230948 
1128	 0.268580267407455 
1129	 0.269133997164867 
1130	 0.2697155430943 
1131	 0.270323962986317 
1132	 0.270899013068293 
1133	 0.271462288037221 
1134	 0.272030062581308 
1135	 0.27259262195723 
1136	 0.273128568229692 
1137	 0.273655756350691 
1138	 0.274199988446073 
1139	 0.274759363346119 
1140	 0.275327829901864 
1141	 0.275866202323635 
1142	 0.27641249580409 
1143	 0.276957450671426 
1144	 0.277470636520278 
1145	 0.27799254924366 
1146	 0.278542052231499 
1147	 0.279071590853395 
1148	 0.279572339032434 
1149	 0.280083431186474 
1150	 0.280592933296067 
1151	 0.281118872294613 
1152	 0.28163818279908 
1153	 0.282154274127519 
1154	 0.282663322341291 
1155	 0.283171595408159 
1156	 0.283674243689019 
1157	 0.284164565956129 
1158	 0.284662979736654 
1159	 0.285177974636461 
1160	 0.285670276263111 
1161	 0.286148756909896 
1162	 0.286629286812461 
1163	 0.287093092594694 
1164	 0.28756635183439 
1165	 0.288032979167353 
1166	 0.288534543817991 
1167	 0.289016445299335 
1168	 0.289487344957972 
1169	 0.289951070770783 
1170	 0.29040730705968 
1171	 0.290854316274119 
1172	 0.291290646489382 
1173	 0.291728271853999 
1174	 0.292152884635119 
1175	 0.292589348685144 
1176	 0.293047009464953 
1177	 0.293475577286938 
1178	 0.293905876464258 
1179	 0.294311382383858 
1180	 0.29465754458424 
1181	 0.295049157084978 
1182	 0.29544775116466 
1183	 0.295868730319906 
1184	 0.296269370500975 
1185	 0.296701896970049 
1186	 0.297082777263259 
1187	 0.297419193775899 
1188	 0.297780250115635 
1189	 0.298142746800594 
1190	 0.298493500430539 
1191	 0.298840601989659 
1192	 0.299187889881627 
1193	 0.299525823390016 
1194	 0.299863026538563 
1195	 0.300207695553764 
1196	 0.300540938898905 
1197	 0.30085809251419 
1198	 0.301181661350966 
1199	 0.30150545160832 
1200	 0.30183100416839 
1201	 0.302147648546446 
1202	 0.302468086254437 
1203	 0.302772889398767 
1204	 0.303060315330569 
1205	 0.303358246858606 
1206	 0.303650270024622 
1207	 0.303949867848423 
1208	 0.304277196001822 
1209	 0.304561916957415 
1210	 0.304825224294109 
1211	 0.305090740265929 
1212	 0.305321874260265 
1213	 0.305571179857983 
1214	 0.305846513103898 
1215	 0.306101225364036 
1216	 0.306348286924759 
1217	 0.306593591015146 
1218	 0.306822540171455 
1219	 0.307035297973919 
1220	 0.307247446088742 
1221	 0.307437522767429 
1222	 0.307657308954285 
1223	 0.307893872955615 
1224	 0.308112912454457 
1225	 0.308356718420663 
1226	 0.308563811739239 
1227	 0.308733235397835 
1228	 0.308913799251683 
1229	 0.30907786949653 
1230	 0.309253171549124 
1231	 0.309442789721354 
1232	 0.309620507243162 
1233	 0.30979472784547 
1234	 0.309966941897272 
1235	 0.310142302558078 
1236	 0.310315346603999 
1237	 0.310480572743516 
1238	 0.31064722802326 
1239	 0.31081024089201 
1240	 0.31096310561737 
1241	 0.311117661498884 
1242	 0.311281125067653 
1243	 0.311430907928472 
1244	 0.311562762479259 
1245	 0.311704679187013 
1246	 0.311844195148509 
1247	 0.311988167011341 
1248	 0.312138232548958 
1249	 0.31229086729875 
1250	 0.31244471179262 
1251	 0.312584355606959 
1252	 0.312726691989475 
1253	 0.3128723595019 
1254	 0.313000719724747 
1255	 0.313121399460462 
1256	 0.313235578694477 
1257	 0.313333245993848 
1258	 0.313434608581347 
1259	 0.313531672318744 
1260	 0.31363267499931 
1261	 0.313728184612601 
1262	 0.313829280045573 
1263	 0.313943419161902 
1264	 0.31404568045375 
1265	 0.314145427321025 
1266	 0.314244055771478 
1267	 0.314349480255995 
1268	 0.314418922506432 
1269	 0.314511539653228 
1270	 0.31460453865919 
1271	 0.314706801242944 
1272	 0.314817278134981 
1273	 0.314926543125381 
1274	 0.315038821626103 
1275	 0.31515551543029 
1276	 0.315273355933204 
1277	 0.315395549578867 
1278	 0.315517796879221 
1279	 0.315651764604275 
1280	 0.315793852943101 
1281	 0.315939039228481 
1282	 0.316102227523127 
1283	 0.316258323829466 
1284	 0.31642045493914 
1285	 0.316559449350451 
1286	 0.316719284648623 
1287	 0.316876593884805 
1288	 0.317029820956458 
1289	 0.317194187011177 
1290	 0.317332313843199 
1291	 0.31744691102181 
1292	 0.317579212129188 
1293	 0.317716740352031 
1294	 0.317831099831252 
1295	 0.317942277126436 
1296	 0.318047621463121 
1297	 0.318140178833614 
1298	 0.318217243835788 
1299	 0.318297498344683 
1300	 0.318356824337537 
1301	 0.318375949254755 
1302	 0.318406661028414 
1303	 0.318435499307857 
1304	 0.318461560550066 
1305	 0.318493602816732 
1306	 0.318513143258334 
1307	 0.318511918925977 
1308	 0.31852005945341 
1309	 0.318518186599283 
1310	 0.31849651650453 
1311	 0.318490075128419 
1312	 0.318499737955155 
1313	 0.318484071498123 
1314	 0.318463808960371 
1315	 0.318437771907472 
1316	 0.318391048806091 
1317	 0.318352589027789 
1318	 0.318315461630057 
1319	 0.318275163957657 
1320	 0.318227901167139 
1321	 0.318186465179926 
1322	 0.318146517331376 
1323	 0.318110546339806 
1324	 0.318067048173041 
1325	 0.31804442076744 
1326	 0.318022764059617 
1327	 0.317995007045202 
1328	 0.317956270258963 
1329	 0.317921268945228 
1330	 0.317877882161839 
1331	 0.317823946521089 
1332	 0.317766163885239 
1333	 0.317707724513043 
1334	 0.317639961424281 
1335	 0.317545324149078 
1336	 0.317482626349395 
1337	 0.317433074751808 
1338	 0.317386381593626 
1339	 0.31736287771848 
1340	 0.317320358070578 
1341	 0.31727142777018 
1342	 0.317219861783916 
1343	 0.317147439551492 
1344	 0.317101212483119 
1345	 0.317078877202683 
1346	 0.317032466946638 
1347	 0.317001447139011 
1348	 0.316977234700223 
1349	 0.316903151984609 
1350	 0.316836416134964 
1351	 0.316785625122055 
1352	 0.316728989093088 
1353	 0.316685970805552 
1354	 0.316673472187824 
1355	 0.316636099229581 
1356	 0.316594502283724 
1357	 0.316541382176949 
1358	 0.316462123984988 
1359	 0.316413247940536 
1360	 0.31637353608282 
1361	 0.316330220132082 
1362	 0.316310392702232 
1363	 0.316276243381464 
1364	 0.316219896034744 
1365	 0.316176407633125 
1366	 0.316142768570659 
1367	 0.316104292474957 
1368	 0.316070797692474 
1369	 0.316024931983828 
1370	 0.315951397455685 
1371	 0.315867493226885 
1372	 0.315773268220762 
1373	 0.315674385677248 
1374	 0.315556642630182 
1375	 0.315442922092869 
1376	 0.31528464312887 
1377	 0.315102564774123 
1378	 0.314885754901877 
1379	 0.31462379360299 
1380	 0.314376294878038 
1381	 0.314113432996637 
1382	 0.313827853001264 
1383	 0.313558247459555 
1384	 0.313229849633704 
1385	 0.312868024820691 
1386	 0.312472078223513 
1387	 0.312038137256018 
1388	 0.311576854405678 
1389	 0.311084315615386 
1390	 0.310556052006609 
1391	 0.310007923190549 
1392	 0.309427804041957 
1393	 0.308787734107652 
1394	 0.308108852634042 
1395	 0.307381331893282 
1396	 0.306622885188814 
1397	 0.305879363660139 
1398	 0.305128628024582 
1399	 0.304362147573779 
1400	 0.303588493136496 
1401	 0.30281400732997 
1402	 0.302013408933462 
1403	 0.301240347394496 
1404	 0.300460184052549 
1405	 0.299728808620178 
1406	 0.299023018873796 
1407	 0.298327321264943 
1408	 0.297654157148884 
1409	 0.297014511210747 
1410	 0.296358192010754 
1411	 0.295789669750745 
1412	 0.295284227289649 
1413	 0.294812876190361 
1414	 0.294406941685632 
1415	 0.29405583175797 
1416	 0.293743340081608 
1417	 0.29347220022716 
1418	 0.293222543921293 
1419	 0.293000770566334 
1420	 0.292815126931121 
1421	 0.29265220636936 
1422	 0.292488201734 
1423	 0.292324046961886 
1424	 0.292148735291617 
1425	 0.291946154691169 
1426	 0.291771900871426 
1427	 0.291596497345035 
1428	 0.291451621063718 
1429	 0.291327729607036 
1430	 0.291211371582336 
1431	 0.291125669889562 
1432	 0.291024902405213 
1433	 0.290917810502993 
1434	 0.290827186886051 
1435	 0.290729219330841 
1436	 0.290658157807221 
1437	 0.290603144252884 
1438	 0.290564214106286 
1439	 0.29054476211309 
1440	 0.290546883817806 
1441	 0.290532391046605 
1442	 0.290523631985111 
1443	 0.290509990520603 
1444	 0.290488484554789 
1445	 0.290500861185381 
1446	 0.290531442329659 
1447	 0.290553647901129 
1448	 0.290591397988219 
1449	 0.290613338110258 
1450	 0.290615129529531 
1451	 0.290636393368671 
1452	 0.290658900658858 
1453	 0.290686685275353 
1454	 0.290723658662153 
1455	 0.290763778231669 
1456	 0.290805519592322 
1457	 0.290852851753006 
1458	 0.290906951909788 
1459	 0.290967643677121 
1460	 0.291029524098943 
1461	 0.291100274509696 
1462	 0.291189488002231 
1463	 0.291263925689239 
1464	 0.291337057839792 
1465	 0.291410659974856 
1466	 0.291458110057213 
1467	 0.291543674151331 
1468	 0.291633416235765 
1469	 0.291758022535726 
1470	 0.291920004446244 
1471	 0.29209476741719 
1472	 0.292282736530003 
1473	 0.292483614507498 
1474	 0.292677580586211 
1475	 0.292874818123892 
1476	 0.293072271156438 
1477	 0.293277745462664 
1478	 0.293468053662234 
1479	 0.293663535598534 
1480	 0.293873576485228 
1481	 0.294072088010868 
1482	 0.294283591037202 
1483	 0.294512611077349 
1484	 0.29472835780173 
1485	 0.294936765757619 
1486	 0.295160696471538 
1487	 0.295382607663459 
1488	 0.295618260020803 
1489	 0.295883581706102 
1490	 0.296115243774139 
1491	 0.296344617056306 
1492	 0.296559238445923 
1493	 0.296743101621311 
1494	 0.296943649412916 
1495	 0.297142243285919 
1496	 0.297347485732441 
1497	 0.297568583956294 
1498	 0.297769290299535 
1499	 0.297967726573485 
1500	 0.298154123124436 
1501	 0.298312078868601 
1502	 0.2984882833423 
1503	 0.298666402324147 
1504	 0.298850258915643 
1505	 0.299038024822039 
1506	 0.299227680984202 
1507	 0.29940867467155 
1508	 0.299576442543685 
1509	 0.299724291559894 
1510	 0.299875096972688 
1511	 0.300024097898815 
1512	 0.300172220751612 
1513	 0.300333455629085 
1514	 0.300506858206227 
1515	 0.300688956306189 
1516	 0.300864573176449 
1517	 0.301029615533764 
1518	 0.30119629869797 
1519	 0.301347374027743 
1520	 0.301480264620737 
1521	 0.301618483361095 
1522	 0.301746471780053 
1523	 0.301890375901552 
1524	 0.302037187940631 
1525	 0.302187550627232 
1526	 0.302353778402136 
1527	 0.302508019403497 
1528	 0.302662448952186 
1529	 0.302803086159865 
1530	 0.30294016938964 
1531	 0.303063854254462 
1532	 0.303174703462061 
1533	 0.303275651595092 
1534	 0.303358068576557 
1535	 0.303449729338286 
1536	 0.30353530053628 
1537	 0.303621715322096 
1538	 0.303706493648994 
1539	 0.303799547102682 
1540	 0.303885289377614 
1541	 0.303991687032018 
1542	 0.304129776427518 
1543	 0.304243016433109 
1544	 0.304357188992084 
1545	 0.3044650821736 
1546	 0.304552058524239 
1547	 0.304653020302593 
1548	 0.304748528897499 
1549	 0.304815585742191 
1550	 0.304884561128258 
1551	 0.304957774452582 
1552	 0.305028520040664 
1553	 0.305112815991167 
1554	 0.305204961240982 
1555	 0.305286817753083 
1556	 0.3053616461119 
1557	 0.305446693213564 
1558	 0.305538031327519 
1559	 0.3056189341729 
1560	 0.305715025944223 
1561	 0.305836582360146 
1562	 0.305933868463415 
1563	 0.306026034653532 
1564	 0.306109388995212 
1565	 0.306183441101756 
1566	 0.306252791481073 
1567	 0.306318748823759 
1568	 0.306368893100082 
1569	 0.306397656993151 
1570	 0.306446116415707 
1571	 0.306490519027405 
1572	 0.306544557483501 
1573	 0.306613176713398 
1574	 0.306679346999555 
1575	 0.306751054359627 
1576	 0.306807037254889 
1577	 0.306861064572092 
1578	 0.306916737399824 
1579	 0.306947037106242 
1580	 0.307009184315032 
1581	 0.307093355641201 
1582	 0.307171503266018 
1583	 0.307278281799612 
1584	 0.307347751406251 
1585	 0.307396579223507 
1586	 0.307446838225819 
1587	 0.307485913967452 
1588	 0.307512584683371 
1589	 0.307529418224036 
1590	 0.307550175399533 
1591	 0.307553878173614 
1592	 0.307561752772375 
1593	 0.307568236190695 
1594	 0.307591071731392 
1595	 0.307617399313445 
1596	 0.307650012920728 
1597	 0.307707984698521 
1598	 0.307750182208094 
1599	 0.307786571845523 
1600	 0.30782041575212 
1601	 0.307853453081084 
1602	 0.307880859877677 
1603	 0.307897468641115 
1604	 0.307916898512368 
1605	 0.307913125622357 
1606	 0.307943518964988 
1607	 0.307988183918503 
1608	 0.308056004243128 
1609	 0.308140000377858 
1610	 0.308212050546791 
1611	 0.308255803093531 
1612	 0.308276627062438 
1613	 0.308273496891424 
1614	 0.308268028971846 
1615	 0.308263865757113 
1616	 0.308268062948898 
1617	 0.308294722743089 
1618	 0.308334169716953 
1619	 0.308374174806079 
1620	 0.308391737887652 
1621	 0.308406223512619 
1622	 0.308407535396099 
1623	 0.308407571929317 
1624	 0.308401307875195 
1625	 0.308399605154361 
1626	 0.308387065019052 
1627	 0.308392233571001 
1628	 0.308402066678794 
1629	 0.308428526364961 
1630	 0.30847364002338 
1631	 0.308509042814298 
1632	 0.308556786447067 
1633	 0.308586105040106 
1634	 0.308609105512207 
1635	 0.308617309945511 
1636	 0.308619102865086 
1637	 0.308605655700875 
1638	 0.308555323897622 
1639	 0.308556256267235 
1640	 0.308565838651052 
1641	 0.308588077311972 
1642	 0.308649265186252 
1643	 0.30868660338474 
1644	 0.308717494696073 
1645	 0.30874687563658 
1646	 0.308780331605889 
1647	 0.308800075598915 
1648	 0.30880860799038 
1649	 0.308818699434237 
1650	 0.308823404284281 
1651	 0.308826228642655 
1652	 0.308830718457021 
1653	 0.308823077591843 
1654	 0.308803018382255 
1655	 0.308790843549679 
1656	 0.308778810489385 
1657	 0.308757948263394 
1658	 0.308738449991705 
1659	 0.308711443520011 
1660	 0.308671324150384 
1661	 0.308634377673776 
1662	 0.308592146789686 
1663	 0.308561035254493 
1664	 0.308525530962059 
1665	 0.308507064325471 
1666	 0.308502603689423 
1667	 0.308503737988389 
1668	 0.308528737848024 
1669	 0.308524281268031 
1670	 0.308514436845691 
1671	 0.308500180166931 
1672	 0.308457881102226 
1673	 0.308440728360593 
1674	 0.30843556879172 
1675	 0.30843238729228 
1676	 0.308443457756829 
1677	 0.308439365982846 
1678	 0.308435996496564 
1679	 0.308423140221818 
1680	 0.308394798780627 
1681	 0.308374799662303 
1682	 0.308347405446026 
1683	 0.30833615890633 
1684	 0.308335198454435 
1685	 0.308332939341255 
1686	 0.308359446046205 
1687	 0.308338919595932 
1688	 0.308282989876194 
1689	 0.308252675444092 
1690	 0.308198910511617 
1691	 0.308174078007553 
1692	 0.308190689422071 
1693	 0.308175142150706 
1694	 0.308153050785634 
1695	 0.308125204657195 
1696	 0.308081124519956 
1697	 0.30804803144371 
1698	 0.308012016647434 
1699	 0.307984229225211 
1700	 0.307971071502839 
1701	 0.307940948526348 
1702	 0.307893185613303 
1703	 0.307878685548079 
1704	 0.307878506415544 
1705	 0.307862912341375 
1706	 0.307879410726355 
1707	 0.307850977858417 
1708	 0.307770849886439 
1709	 0.307725054757988 
1710	 0.307688617815821 
1711	 0.307635438325746 
1712	 0.307579912779047 
1713	 0.307535380400564 
1714	 0.307485337436579 
1715	 0.307429661378649 
1716	 0.307383457920869 
1717	 0.30733234159804 
1718	 0.307267121101343 
1719	 0.307206658626413 
1720	 0.307151591273879 
1721	 0.307101778132775 
1722	 0.307046685948973 
1723	 0.306999603258005 
1724	 0.306969732173756 
1725	 0.306926198391738 
1726	 0.306884365911252 
1727	 0.306818061476553 
1728	 0.306731182339541 
1729	 0.306663941242834 
1730	 0.306592574833018 
1731	 0.30651244824109 
1732	 0.306444560744779 
1733	 0.306365888956703 
1734	 0.306267642879625 
1735	 0.306172735293617 
1736	 0.306081414108467 
1737	 0.305985183696206 
1738	 0.305877214451217 
1739	 0.305775639019869 
1740	 0.305675606780021 
1741	 0.305592273768434 
1742	 0.305514131067749 
1743	 0.305433336289638 
1744	 0.305375603968186 
1745	 0.305278803279632 
1746	 0.305152140458307 
1747	 0.305051880812429 
1748	 0.304952165652225 
1749	 0.304876112746969 
1750	 0.304799759075473 
1751	 0.304703509908405 
1752	 0.304608725801481 
1753	 0.304525907966392 
1754	 0.304440316865044 
1755	 0.304333615923204 
1756	 0.304225207886505 
1757	 0.304097360799378 
1758	 0.303964620276026 
1759	 0.30386275566799 
1760	 0.303781907577104 
1761	 0.303693588069022 
1762	 0.303592556776199 
1763	 0.303512088314334 
1764	 0.30341134518592 
1765	 0.303308163906847 
1766	 0.303217504135462 
1767	 0.303086615741696 
1768	 0.302951251574454 
1769	 0.302842576437081 
1770	 0.302753752076591 
1771	 0.302711684543544 
1772	 0.302682621978093 
1773	 0.30261673902076 
1774	 0.302562749721797 
1775	 0.30249449283134 
1776	 0.302407637316686 
1777	 0.302358410021571 
1778	 0.30227656047983 
1779	 0.3021580075517 
1780	 0.302070642111526 
1781	 0.301991812299023 
1782	 0.30195306441848 
1783	 0.30195718822201 
1784	 0.301929225888426 
1785	 0.301897946746781 
1786	 0.301850683401795 
1787	 0.301800633450277 
1788	 0.301742511470292 
1789	 0.3016524981964 
1790	 0.301574629398296 
1791	 0.301480455784489 
1792	 0.301409626702889 
1793	 0.301354260332464 
1794	 0.301335264242347 
1795	 0.30135398622699 
1796	 0.301353389013853 
1797	 0.301366744219013 
1798	 0.301368159691916 
1799	 0.30136157769034 
1800	 0.301357462340952 
1801	 0.300567545269647 
1802	 0.300731629221905 
1803	 0.300900603117872 
1804	 0.301104145365698 
1805	 0.301333732693729 
1806	 0.301524797452263 
1807	 0.301679096137622 
1808	 0.301824757354434 
1809	 0.301949731175614 
1810	 0.302053115268454 
1811	 0.302140014508998 
1812	 0.30222668476739 
1813	 0.30226778999288 
1814	 0.302285364929571 
1815	 0.302272972170489 
1816	 0.302248916828054 
1817	 0.302241730697038 
1818	 0.302215553106094 
1819	 0.30222071108873 
1820	 0.302252515447843 
1821	 0.302278223113186 
1822	 0.302293795708269 
1823	 0.302295113575647 
1824	 0.302300620437799 
1825	 0.302316231767849 
1826	 0.302359485310967 
1827	 0.30242249802279 
1828	 0.30242540257409 
1829	 0.302406653479925 
1830	 0.302364386628213 
1831	 0.302270630658254 
1832	 0.302172280143078 
1833	 0.302116218321777 
1834	 0.302061349202017 
1835	 0.302034088845721 
1836	 0.302017267493288 
1837	 0.301984606359273 
1838	 0.301947870792844 
1839	 0.301921575336929 
1840	 0.301910470235642 
1841	 0.301875459446939 
1842	 0.301818393982434 
1843	 0.301779010590637 
1844	 0.301712057492251 
1845	 0.30161185326028 
1846	 0.301509619397174 
1847	 0.301417750762468 
1848	 0.301308041237134 
1849	 0.301195414419562 
1850	 0.301084428320991 
1851	 0.300989426043779 
1852	 0.300853292241762 
1853	 0.300711711703715 
1854	 0.30057229012782 
1855	 0.300403119631961 
1856	 0.300208333059021 
1857	 0.299998772851863 
1858	 0.299780184501282 
1859	 0.2995283096027 
1860	 0.299241242615924 
1861	 0.298931424766908 
1862	 0.298599948626707 
1863	 0.298219902794138 
1864	 0.297795015291173 
1865	 0.297365989717486 
1866	 0.2968707252558 
1867	 0.296320590393744 
1868	 0.295761271010829 
1869	 0.295138238441762 
1870	 0.294492326322864 
1871	 0.293806453996263 
1872	 0.293091255485274 
1873	 0.292331277409506 
1874	 0.291532302401465 
1875	 0.290648822007674 
1876	 0.289718016280467 
1877	 0.288720331123649 
1878	 0.287616748462297 
1879	 0.286447227952297 
1880	 0.285193677748656 
1881	 0.283847464611676 
1882	 0.282417777578584 
1883	 0.280911486512043 
1884	 0.279307340801809 
1885	 0.277640643033809 
1886	 0.275880006620237 
1887	 0.273999054353656 
1888	 0.272052720504905 
1889	 0.269987437459325 
1890	 0.26784744589311 
1891	 0.265702124837176 
1892	 0.263479923180235 
1893	 0.261279636212817 
1894	 0.259071026231227 
1895	 0.256835393602479 
1896	 0.254586014409441 
1897	 0.252380289069862 
1898	 0.250173052428675 
1899	 0.248036414995965 
1900	 0.24596797963768 
1901	 0.243935233260413 
1902	 0.241993987013721 
1903	 0.2401316919529 
1904	 0.238345218144495 
1905	 0.236622202333035 
1906	 0.235007127689215 
1907	 0.233484538399195 
1908	 0.23203603489091 
1909	 0.230695736481675 
1910	 0.229425116548723 
1911	 0.228227366935508 
1912	 0.227104945666458 
1913	 0.226049137717514 
1914	 0.225054178240077 
1915	 0.224139004657807 
1916	 0.223300288498336 
1917	 0.222537405791874 
1918	 0.221820427208474 
1919	 0.221179823924681 
1920	 0.220591446287721 
1921	 0.220023000289455 
1922	 0.219529225642954 
1923	 0.219097207007582 
1924	 0.218722667968327 
1925	 0.218427166911328 
1926	 0.21816014756956 
1927	 0.21793170394798 
1928	 0.217767366462179 
1929	 0.217655750182898 
1930	 0.217562595176628 
1931	 0.217536310337094 
1932	 0.217538841778498 
1933	 0.217546614570116 
1934	 0.217584842229257 
1935	 0.217641072975063 
1936	 0.217696718319709 
1937	 0.217807737549523 
1938	 0.217962051697176 
1939	 0.218138166013538 
1940	 0.218354265920229 
1941	 0.218594816106977 
1942	 0.21884992132796 
1943	 0.219095562800457 
1944	 0.219367561100892 
1945	 0.219678083245967 
1946	 0.219994560107717 
1947	 0.220323663254656 
1948	 0.220684440490001 
1949	 0.221086665704397 
1950	 0.221466988115595 
1951	 0.221858004909741 
1952	 0.222256198928198 
1953	 0.222641324444017 
1954	 0.223035043729714 
1955	 0.223484551753296 
1956	 0.223946909967601 
1957	 0.224404433260081 
1958	 0.224881940620944 
1959	 0.225353948901755 
1960	 0.225813089727283 
1961	 0.226291259499657 
1962	 0.226787988113625 
1963	 0.227280100424948 
1964	 0.227764283013029 
1965	 0.228270494185154 
1966	 0.228798177207785 
1967	 0.229338338748444 
1968	 0.229886468123301 
1969	 0.230467898048779 
1970	 0.231024259847056 
1971	 0.231570241802631 
1972	 0.232131116227378 
1973	 0.232699768558488 
1974	 0.233261292441339 
1975	 0.233841352662072 
1976	 0.234389729754047 
1977	 0.234923388419392 
1978	 0.235465084597991 
1979	 0.236006879046655 
1980	 0.23657304874608 
1981	 0.237133299341742 
1982	 0.237703037430848 
1983	 0.238268084538968 
1984	 0.238834420416339 
1985	 0.239394822667984 
1986	 0.239962265969888 
1987	 0.240521483349775 
1988	 0.241064071213381 
1989	 0.241617526977467 
1990	 0.242184483459427 
1991	 0.242735672888848 
1992	 0.243297530432033 
1993	 0.243873807334404 
1994	 0.244436108958915 
1995	 0.244992920523421 
1996	 0.245548991101865 
1997	 0.246109522705886 
1998	 0.246654366912401 
1999	 0.247188636121953 
2000	 0.247724758034671 
2001	 0.248256965867549 
2002	 0.24877252108349 
2003	 0.249307416507426 
2004	 0.249842581836956 
2005	 0.25035855189158 
2006	 0.250863963467783 
2007	 0.251374479001093 
2008	 0.251862922065011 
2009	 0.252373018783806 
2010	 0.252902036102549 
2011	 0.253418170328847 
2012	 0.253952981914345 
2013	 0.254460268779459 
2014	 0.254942961209551 
2015	 0.255433930941938 
2016	 0.255917641471443 
2017	 0.25636384636016 
2018	 0.256827599709981 
2019	 0.257285783700424 
2020	 0.257757936497642 
2021	 0.258238411423756 
2022	 0.258713047584423 
2023	 0.259198036571723 
2024	 0.259669689423681 
2025	 0.26012187812169 
2026	 0.260590081884857 
2027	 0.261055264411848 
2028	 0.261541135986425 
2029	 0.262015126673856 
2030	 0.262508072401846 
2031	 0.262956366647336 
2032	 0.263384162776581 
2033	 0.263804361025992 
2034	 0.264195392722346 
2035	 0.26459653010412 
2036	 0.265008617792732 
2037	 0.265391941356402 
2038	 0.265750521919498 
2039	 0.266114331142219 
2040	 0.266466796459183 
2041	 0.266812901180278 
2042	 0.267144810896193 
2043	 0.267480694781442 
2044	 0.267837045427038 
2045	 0.268194261017607 
2046	 0.268552443249392 
2047	 0.26894981109615 
2048	 0.269306028857962 
2049	 0.269643910704633 
2050	 0.269964290373525 
2051	 0.270255908299902 
2052	 0.270558675256622 
2053	 0.270838882961678 
2054	 0.271133278393802 
2055	 0.271435289520299 
2056	 0.271750931922977 
2057	 0.272059953652417 
2058	 0.272368681356397 
2059	 0.272682241546723 
2060	 0.273009658386445 
2061	 0.273313338257122 
2062	 0.273612432980172 
2063	 0.273900740993453 
2064	 0.274166962206842 
2065	 0.274440223552898 
2066	 0.274714407160724 
2067	 0.274984738528996 
2068	 0.275248822478213 
2069	 0.275509437241295 
2070	 0.275786443140331 
2071	 0.276073420823962 
2072	 0.27634206198808 
2073	 0.276616276833623 
2074	 0.276880219420122 
2075	 0.277122338694389 
2076	 0.277377992962605 
2077	 0.27765354812162 
2078	 0.277901811683271 
2079	 0.278117157895319 
2080	 0.278363288084193 
2081	 0.278623708569496 
2082	 0.278866889459347 
2083	 0.279115032426397 
2084	 0.279366922748634 
2085	 0.279620371822782 
2086	 0.279857637150598 
2087	 0.280104459463287 
2088	 0.280365674251198 
2089	 0.280626867204951 
2090	 0.28088186873227 
2091	 0.281134282348836 
2092	 0.281408363888653 
2093	 0.28165844388208 
2094	 0.281880705468792 
2095	 0.282115767508845 
2096	 0.282344440772275 
2097	 0.282580883346496 
2098	 0.282819378771958 
2099	 0.283067089874233 
2100	 0.283314194223513 
2101	 0.283570427990933 
2102	 0.283816846107338 
2103	 0.284057112219154 
2104	 0.28430735535721 
2105	 0.284555683471589 
2106	 0.284810081707751 
2107	 0.285075633375512 
2108	 0.285337200270409 
2109	 0.285597236066629 
2110	 0.285861689918125 
2111	 0.286139659060396 
2112	 0.286401512831545 
2113	 0.286660417915633 
2114	 0.286909291746391 
2115	 0.287157887488729 
2116	 0.287393018325123 
2117	 0.287636636968236 
2118	 0.287886652872076 
2119	 0.288126520681389 
2120	 0.288367555308883 
2121	 0.28859345302494 
2122	 0.288800117957295 
2123	 0.289021687688557 
2124	 0.289252317322661 
2125	 0.289461801426792 
2126	 0.289686151909492 
2127	 0.289876481857018 
2128	 0.290025760429147 
2129	 0.290176683133824 
2130	 0.290323273293219 
2131	 0.290442642294577 
2132	 0.290565709330994 
2133	 0.290690775524108 
2134	 0.290791260928672 
2135	 0.290886052009457 
2136	 0.290947007435697 
2137	 0.290971671679937 
2138	 0.291004480435457 
2139	 0.291015222228045 
2140	 0.291029698030426 
2141	 0.291048373595453 
2142	 0.291057093085713 
2143	 0.291069776211859 
2144	 0.291053659190045 
2145	 0.291031483360451 
2146	 0.290983237122782 
2147	 0.290892185214806 
2148	 0.290793906061929 
2149	 0.290716414049773 
2150	 0.290627269570315 
2151	 0.290562926731861 
2152	 0.290538224289522 
2153	 0.290469600189956 
2154	 0.290405304080768 
2155	 0.290302711196458 
2156	 0.290181686177561 
2157	 0.290024919142007 
2158	 0.289829511982791 
2159	 0.289625846430205 
2160	 0.289386015499956 
2161	 0.289143237392725 
2162	 0.28887134706311 
2163	 0.288621491450944 
2164	 0.288377444196218 
2165	 0.288121570244932 
2166	 0.287884645997995 
2167	 0.287668763458411 
2168	 0.287444803065265 
2169	 0.28721868980535 
2170	 0.287000007409863 
2171	 0.286790905968694 
2172	 0.286574796588167 
2173	 0.286360018969973 
2174	 0.28614090600778 
2175	 0.285928871219935 
2176	 0.285696855370761 
2177	 0.285466652980654 
2178	 0.285208870467961 
2179	 0.284915772685081 
2180	 0.284628840978616 
2181	 0.284321638214525 
2182	 0.284020325935862 
2183	 0.28369871125479 
2184	 0.283422413750714 
2185	 0.283136910807838 
2186	 0.282849252356293 
2187	 0.282580440552093 
2188	 0.282323738587167 
2189	 0.282080258280228 
2190	 0.281860774433745 
2191	 0.281625148854294 
2192	 0.281386903151925 
2193	 0.281163727968908 
2194	 0.280929662767599 
2195	 0.280718906300242 
2196	 0.280523721116014 
2197	 0.280353790190372 
2198	 0.280189611066336 
2199	 0.280061765181674 
2200	 0.279977443412312 
2201	 0.279901582662981 
2202	 0.279865290059089 
2203	 0.279819131570035 
2204	 0.279768340852502 
2205	 0.279709004589027 
2206	 0.279687618506218 
2207	 0.279665024582461 
2208	 0.279678591483319 
2209	 0.279733543725685 
2210	 0.2797921702261 
2211	 0.279873634186564 
2212	 0.27994665461781 
2213	 0.280021368321423 
2214	 0.28012644360539 
2215	 0.280257117727613 
2216	 0.280367414380794 
2217	 0.280513565409775 
2218	 0.280617537063124 
2219	 0.280665596557271 
2220	 0.280739361473006 
2221	 0.28080863649631 
2222	 0.280892753415434 
2223	 0.280952291736455 
2224	 0.281035729349537 
2225	 0.281108380712618 
2226	 0.281179918530601 
2227	 0.281220956298177 
2228	 0.28125701656683 
2229	 0.281278878323875 
2230	 0.281263075449285 
2231	 0.28126822017107 
2232	 0.281287545022577 
2233	 0.281290886450289 
2234	 0.281281237532684 
2235	 0.281272589217211 
2236	 0.281267853120085 
2237	 0.281243268088597 
2238	 0.281208305634669 
2239	 0.281169967019049 
2240	 0.281112557682798 
2241	 0.281059285014357 
2242	 0.280978149777193 
2243	 0.280941331366227 
2244	 0.280941225666472 
2245	 0.280922531206386 
2246	 0.280927109909099 
2247	 0.280947818942565 
2248	 0.280904104785151 
2249	 0.28081240950735 
2250	 0.280742596321332 
2251	 0.280641971412859 
2252	 0.280564479138374 
2253	 0.280492225713138 
2254	 0.280440662662183 
2255	 0.280394270964553 
2256	 0.280367080130693 
2257	 0.280380356062522 
2258	 0.280360806956001 
2259	 0.280323931191034 
2260	 0.280315008392068 
2261	 0.280315290749495 
2262	 0.280300245247858 
2263	 0.28031008865698 
2264	 0.28029440032776 
2265	 0.280240204145171 
2266	 0.280208578174962 
2267	 0.280171207714172 
2268	 0.280146697649813 
2269	 0.280129816789906 
2270	 0.280127184877554 
2271	 0.28012100588397 
2272	 0.280136367395184 
2273	 0.280160456075144 
2274	 0.280156716626162 
2275	 0.280125105527893 
2276	 0.280069326919543 
2277	 0.280019397512993 
2278	 0.279920366882962 
2279	 0.279886970785721 
2280	 0.279900280945637 
2281	 0.279882693084931 
2282	 0.279875143751883 
2283	 0.279868083130265 
2284	 0.279846911371001 
2285	 0.279823685143518 
2286	 0.279839381730838 
2287	 0.279796753948036 
2288	 0.279697274139516 
2289	 0.279630812632431 
2290	 0.279562303672924 
2291	 0.279477145095506 
2292	 0.279370676108951 
2293	 0.279305633901908 
2294	 0.279228066324051 
2295	 0.279175572324717 
2296	 0.27918599020911 
2297	 0.27918534182274 
2298	 0.279129182788014 
2299	 0.279085872599752 
2300	 0.279074718204868 
2301	 0.279040009442353 
2302	 0.27893389967196 
2303	 0.278833639396494 
2304	 0.278694075409707 
2305	 0.278550047923607 
2306	 0.278443814782073 
2307	 0.278406281128033 
2308	 0.278315539698819 
2309	 0.278199794669856 
2310	 0.278096107172867 
2311	 0.278009678357205 
2312	 0.277875799409019 
2313	 0.277713581462088 
2314	 0.277571558059509 
2315	 0.277408713776399 
2316	 0.277247960257445 
2317	 0.277104816679552 
2318	 0.276947245993439 
2319	 0.276740439909371 
2320	 0.27658805326851 
2321	 0.276490932737167 
2322	 0.276347982676011 
2323	 0.276209390796839 
2324	 0.2760718576994 
2325	 0.275886279896126 
2326	 0.275746910200527 
2327	 0.275650532422931 
2328	 0.275533757161713 
2329	 0.275411571944398 
2330	 0.275286329143796 
2331	 0.275154602029456 
2332	 0.274993782959117 
2333	 0.274846928038622 
2334	 0.274733344971107 
2335	 0.27462085766018 
2336	 0.274491176699382 
2337	 0.274365034637623 
2338	 0.274242834047609 
2339	 0.274077400740364 
2340	 0.273916989621175 
2341	 0.273751961536301 
2342	 0.273547422773101 
2343	 0.273344492612737 
2344	 0.273133838770563 
2345	 0.272947625931433 
2346	 0.272801045898626 
2347	 0.272588390512035 
2348	 0.272355978643318 
2349	 0.272130684133814 
2350	 0.271858869108333 
2351	 0.271606171059274 
2352	 0.271362999166167 
2353	 0.271137005484514 
2354	 0.270897507517251 
2355	 0.270684377740799 
2356	 0.270547035172807 
2357	 0.270351798729159 
2358	 0.270134389138513 
2359	 0.269890963818002 
2360	 0.269594119572394 
2361	 0.269329197157259 
2362	 0.269054523286936 
2363	 0.268830381101037 
2364	 0.268648934208626 
2365	 0.268427871630831 
2366	 0.268230352663843 
2367	 0.267989800195117 
2368	 0.267726105961912 
2369	 0.267456872534513 
2370	 0.267144124624263 
2371	 0.266859031359761 
2372	 0.266652854169035 
2373	 0.266331475999809 
2374	 0.26599051169836 
2375	 0.265689148072575 
2376	 0.265337167728037 
2377	 0.265043793463248 
2378	 0.264833692125018 
2379	 0.264540186698349 
2380	 0.264146249109434 
2381	 0.263762259763385 
2382	 0.263476547413256 
2383	 0.263210545995083 
2384	 0.262944871343506 
2385	 0.262667011515007 
2386	 0.262226616152545 
2387	 0.261782951466715 
2388	 0.261451422123638 
2389	 0.261211328707819 
2390	 0.26100615230505 
2391	 0.260719018200321 
2392	 0.260400726083759 
2393	 0.260026823805751 
2394	 0.259625431140834 
2395	 0.259298424024296 
2396	 0.259005804208572 
2397	 0.258662054433646 
2398	 0.258259087927878 
2399	 0.257870963117218 
2400	 0.257467007358291 
2401	 0.257054231005753 
2402	 0.256693716633908 
2403	 0.256404329047385 
2404	 0.256101567552446 
2405	 0.255685184700738 
2406	 0.255325247713507 
2407	 0.254937972610435 
2408	 0.254436083988548 
2409	 0.254041815558592 
2410	 0.253683743593822 
2411	 0.253268315904413 
2412	 0.252810804235683 
2413	 0.252349930820996 
2414	 0.251880334619379 
2415	 0.251386625240359 
2416	 0.250999151046109 
2417	 0.250761726102439 
2418	 0.250451685797952 
2419	 0.25019966282373 
2420	 0.24982920824851 
2421	 0.24939828468345 
2422	 0.248979626436716 
2423	 0.248486325468642 
2424	 0.248031518449901 
2425	 0.247607284551199 
2426	 0.247096809394698 
2427	 0.246514170706815 
2428	 0.245979333971997 
2429	 0.24540333727205 
2430	 0.24493880765838 
2431	 0.244580124284922 
2432	 0.244200181224279 
2433	 0.243884531728778 
2434	 0.243505448899778 
2435	 0.243048211096275 
2436	 0.242654444536531 
2437	 0.242299465214881 
2438	 0.24188776349722 
2439	 0.241518229322817 
2440	 0.241067829573899 
2441	 0.240501222673634 
2442	 0.240020808052867 
2443	 0.23956874901016 
2444	 0.239132678395995 
2445	 0.238731441101767 
2446	 0.238269579528441 
2447	 0.237764347076304 
2448	 0.237302378050673 
2449	 0.236840539934002 
2450	 0.236400900738396 
2451	 0.235977240887711 
2452	 0.235551871779593 
2453	 0.235121101925139 
2454	 0.234710887705179 
2455	 0.234360702310443 
2456	 0.233996197244657 
2457	 0.233649373210218 
2458	 0.233247583354108 
2459	 0.232856824180886 
2460	 0.232400048684051 
2461	 0.231786387768592 
2462	 0.23134274752829 
2463	 0.230978422929082 
2464	 0.230538400973889 
2465	 0.230120402777581 
2466	 0.229736650347119 
2467	 0.229264394302674 
2468	 0.228949212533907 
2469	 0.228889118832931 
2470	 0.228589765051359 
2471	 0.228283106596133 
2472	 0.227849439011666 
2473	 0.227218226211391 
2474	 0.226672005885137 
2475	 0.226174299469778 
2476	 0.225678366394492 
2477	 0.225373000610244 
2478	 0.225153472160815 
2479	 0.224748473611886 
2480	 0.224338545220733 
2481	 0.22408405624462 
2482	 0.22377423292722 
2483	 0.223531551324451 
2484	 0.223344471824874 
2485	 0.222933485460598 
2486	 0.222501951341048 
2487	 0.222019551198199 
2488	 0.22158200893797 
2489	 0.221411269801631 
2490	 0.221046053830836 
2491	 0.220709871488349 
2492	 0.220412455380799 
2493	 0.219864024331745 
2494	 0.21939319436429 
2495	 0.218902667475518 
2496	 0.218764864875931 
2497	 0.218781284058994 
2498	 0.21858676398335 
2499	 0.218433855380353 
2500	 0.217982577641188 
