Wavelength	mm1500000.asd
350	 6.24053222692669E-02 
351	 7.35600302781359E-02 
352	 0.079872881859643 
353	 6.63411571265359E-02 
354	 6.91396979766975E-02 
355	 7.33312365018299E-02 
356	 7.39316759677391E-02 
357	 7.09052425150312E-02 
358	 0.072435406971151 
359	 7.22315264969148E-02 
360	 7.10964673954107E-02 
361	 7.37812335988417E-02 
362	 7.29753174547457E-02 
363	 7.29876418528602E-02 
364	 7.55579549853549E-02 
365	 7.67480305263534E-02 
366	 0.071363329684441 
367	 0.069019314619246 
368	 7.70249252930374E-02 
369	 7.88084642117349E-02 
370	 7.45257049063963E-02 
371	 7.05063768801561E-02 
372	 7.54347918896827E-02 
373	 7.80191749555603E-02 
374	 0.07997816083826 
375	 8.25210619227526E-02 
376	 8.30014832035141E-02 
377	 8.09631398768728E-02 
378	 8.03646024470685E-02 
379	 0.084133373357577 
380	 8.54214935534348E-02 
381	 8.39430473304721E-02 
382	 0.082991654543193 
383	 8.72206686146065E-02 
384	 8.54010080001113E-02 
385	 8.36807018996698E-02 
386	 8.62662451156247E-02 
387	 8.89267442165782E-02 
388	 9.21161209293271E-02 
389	 9.28397429486636E-02 
390	 8.94842404490739E-02 
391	 9.12346654202748E-02 
392	 9.27524116644867E-02 
393	 9.31082439890766E-02 
394	 9.53509909645701E-02 
395	 9.55131936031836E-02 
396	 9.60654695086972E-02 
397	 9.86428835804768E-02 
398	 0.101099716979534 
399	 0.102735523799147 
400	 0.103719584953199 
401	 0.104595995875216 
402	 0.105446510369283 
403	 0.105862427915533 
404	 0.106108132728828 
405	 0.107106000612291 
406	 0.108427002309102 
407	 0.10937303872012 
408	 0.109725565633108 
409	 0.110590922099317 
410	 0.111031783315579 
411	 0.111381029974882 
412	 0.112384693954888 
413	 0.113396220156502 
414	 0.113301185810252 
415	 0.112424729072061 
416	 0.112886007626388 
417	 0.113336249507959 
418	 0.114037588082659 
419	 0.115161903356802 
420	 0.115357715560928 
421	 0.115127598304863 
422	 0.114912377061012 
423	 0.115063347122083 
424	 0.115819654374746 
425	 0.115990387118303 
426	 0.11524721580598 
427	 0.115059505619051 
428	 0.11492993175558 
429	 0.114500502050087 
430	 0.113717546234126 
431	 0.113918593755481 
432	 0.113905233680176 
433	 0.113699150176321 
434	 0.11451421987276 
435	 0.114555131992421 
436	 0.114362486492826 
437	 0.114567924648753 
438	 0.114801559905229 
439	 0.115101823374472 
440	 0.115500540505116 
441	 0.116029090049243 
442	 0.116765437203163 
443	 0.117278996326359 
444	 0.117478126062926 
445	 0.117813777933071 
446	 0.118484799534187 
447	 0.119182376426359 
448	 0.119600549497767 
449	 0.120158230754684 
450	 0.120806192012828 
451	 0.121434254135048 
452	 0.121904421532509 
453	 0.122278308013361 
454	 0.122467828727223 
455	 0.122581706820456 
456	 0.123307420507387 
457	 0.123841173472591 
458	 0.124118283185627 
459	 0.124420511439601 
460	 0.124890732708337 
461	 0.125091412740158 
462	 0.12508386482132 
463	 0.125696496530799 
464	 0.126040369875671 
465	 0.126184163077178 
466	 0.126415501568335 
467	 0.126775887053372 
468	 0.127009847515897 
469	 0.127058969614749 
470	 0.127050430987516 
471	 0.127289174459505 
472	 0.127571836764815 
473	 0.127702920033443 
474	 0.127683888955076 
475	 0.127914123310141 
476	 0.128211800363933 
477	 0.128215652609435 
478	 0.128329134997055 
479	 0.128632678308344 
480	 0.129005221917143 
481	 0.129093732901716 
482	 0.129292308956285 
483	 0.129585803948579 
484	 0.129864050701427 
485	 0.130149976609968 
486	 0.130289850808905 
487	 0.130302022875601 
488	 0.130355909955002 
489	 0.130621601764015 
490	 0.130848483673342 
491	 0.130911242295932 
492	 0.131205174332413 
493	 0.131286085322144 
494	 0.131265985230817 
495	 0.131495839312028 
496	 0.131990722344587 
497	 0.132369957437295 
498	 0.132469505946518 
499	 0.132485065319053 
500	 0.132601723233097 
501	 0.132810327921792 
502	 0.133030391019937 
503	 0.133221251535762 
504	 0.133312201568819 
505	 0.133331457985797 
506	 0.13339352095427 
507	 0.133482344320365 
508	 0.133697885651704 
509	 0.134024737877336 
510	 0.134079490830259 
511	 0.134237571746027 
512	 0.134478352988815 
513	 0.134592012057447 
514	 0.134707525353265 
515	 0.134877994257315 
516	 0.135105955536765 
517	 0.135335779895967 
518	 0.135459894656049 
519	 0.135538235869853 
520	 0.135664430603453 
521	 0.135760872298598 
522	 0.135904450146355 
523	 0.136064430157834 
524	 0.136096795247038 
525	 0.136371024266291 
526	 0.136590466732629 
527	 0.136539106064594 
528	 0.13674015765118 
529	 0.136899791406759 
530	 0.13703440483973 
531	 0.137333241648116 
532	 0.137448255784505 
533	 0.137565577708304 
534	 0.137786931304382 
535	 0.137870735401899 
536	 0.137987157975219 
537	 0.138185354736245 
538	 0.13843747842031 
539	 0.138521654200173 
540	 0.138714707500571 
541	 0.13903787626451 
542	 0.13912595979554 
543	 0.139183910123119 
544	 0.139334187459673 
545	 0.13961260240491 
546	 0.139805890088003 
547	 0.139978283404087 
548	 0.140177502985804 
549	 0.140426241824161 
550	 0.14066421818382 
551	 0.140907353560522 
552	 0.141167088263315 
553	 0.141410602280112 
554	 0.141599114943337 
555	 0.141757593454695 
556	 0.141962269939589 
557	 0.142400795614123 
558	 0.142825026573296 
559	 0.143138704245189 
560	 0.143609072016698 
561	 0.143911824024747 
562	 0.144178161041563 
563	 0.144639253913875 
564	 0.145164347091056 
565	 0.145562785906514 
566	 0.145823081770064 
567	 0.146134720575862 
568	 0.146504941054593 
569	 0.146978202808045 
570	 0.147578151802631 
571	 0.148280383555493 
572	 0.148923546104543 
573	 0.14945296006656 
574	 0.149912827207418 
575	 0.150504948304391 
576	 0.15123658878132 
577	 0.152032953429582 
578	 0.152726904654346 
579	 0.153361541027375 
580	 0.153901419800631 
581	 0.154322509361942 
582	 0.154844337889868 
583	 0.155434664752902 
584	 0.156103487431946 
585	 0.156960234791328 
586	 0.157931838325357 
587	 0.158939508762911 
588	 0.15991598848527 
589	 0.160864350090123 
590	 0.16181170078686 
591	 0.162731467446554 
592	 0.163554901635599 
593	 0.164335677252702 
594	 0.16505392816541 
595	 0.165666667234659 
596	 0.166087862653038 
597	 0.166516391720652 
598	 0.167030072883213 
599	 0.167636646588171 
600	 0.168366507441357 
601	 0.169123162981184 
602	 0.169841348597414 
603	 0.170537079907428 
604	 0.171232900739804 
605	 0.171943870022654 
606	 0.172680735086369 
607	 0.173455164627518 
608	 0.174220399629032 
609	 0.174926765098255 
610	 0.175529076629697 
611	 0.176103800700363 
612	 0.176620006429314 
613	 0.177042466477434 
614	 0.177407027965464 
615	 0.177793438391415 
616	 0.178203195323803 
617	 0.178583674297016 
618	 0.178994798310034 
619	 0.179360901034251 
620	 0.179661790562393 
621	 0.180042384227414 
622	 0.180372251017191 
623	 0.180659639219672 
624	 0.180958241716927 
625	 0.181224163228477 
626	 0.181479463277579 
627	 0.181752997154919 
628	 0.182076205672437 
629	 0.182345131362574 
630	 0.18258984732602 
631	 0.182854359620129 
632	 0.183066178761379 
633	 0.183334244941467 
634	 0.183652540525906 
635	 0.183920419271439 
636	 0.184144951947585 
637	 0.184371709042046 
638	 0.184620322250939 
639	 0.184821515803441 
640	 0.185068527496559 
641	 0.185351655846791 
642	 0.185611531820403 
643	 0.185818597452789 
644	 0.186038577480119 
645	 0.186301031242218 
646	 0.186570983412023 
647	 0.18679149229034 
648	 0.187019055880824 
649	 0.187313454518291 
650	 0.187598106246197 
651	 0.187836822810738 
652	 0.188070641265921 
653	 0.188395409734125 
654	 0.188646623315825 
655	 0.188901108534561 
656	 0.189226231228069 
657	 0.189556795975839 
658	 0.189873035675623 
659	 0.190167633603281 
660	 0.190445299558778 
661	 0.190725309186719 
662	 0.191023573459094 
663	 0.191344549249401 
664	 0.191677348737031 
665	 0.192031049530854 
666	 0.192368729616911 
667	 0.192669714030295 
668	 0.193033014081072 
669	 0.193385663752114 
670	 0.193742159912737 
671	 0.194180824485092 
672	 0.194546733239235 
673	 0.194876311651894 
674	 0.195230922290225 
675	 0.195654398975645 
676	 0.196043676266122 
677	 0.196426435609226 
678	 0.196867491281078 
679	 0.197246342709799 
680	 0.197640061863526 
681	 0.198086979544923 
682	 0.198554133131932 
683	 0.198950667731709 
684	 0.19936760035233 
685	 0.199888615976966 
686	 0.200399464100865 
687	 0.200834494273834 
688	 0.201239285374605 
689	 0.201725501596176 
690	 0.202171847399797 
691	 0.202642027660977 
692	 0.203166087597612 
693	 0.20365694506239 
694	 0.204142316430535 
695	 0.204628063461252 
696	 0.2051125575344 
697	 0.205577504963675 
698	 0.206081902281528 
699	 0.206605698408016 
700	 0.207048176263801 
701	 0.207584620890752 
702	 0.208161656636862 
703	 0.208696923060391 
704	 0.209170515988429 
705	 0.209628754818552 
706	 0.210117835786875 
707	 0.210665098756608 
708	 0.211166253219585 
709	 0.211656812938758 
710	 0.212165280524086 
711	 0.212690093449649 
712	 0.2131805775768 
713	 0.213632856994717 
714	 0.214081116523675 
715	 0.214653102520169 
716	 0.215118432192548 
717	 0.215498392515223 
718	 0.215992316580755 
719	 0.216530316753516 
720	 0.21699333838392 
721	 0.217347789997541 
722	 0.21773153979836 
723	 0.218181131272665 
724	 0.21861453923038 
725	 0.218946584346393 
726	 0.219321795129112 
727	 0.219678697501987 
728	 0.220012299556038 
729	 0.220374841313377 
730	 0.220723013695377 
731	 0.221015876323642 
732	 0.221254414287995 
733	 0.221536792328174 
734	 0.221801240041872 
735	 0.222011558138477 
736	 0.222165076737353 
737	 0.222393183660935 
738	 0.222626216330096 
739	 0.222808527723287 
740	 0.222920432495601 
741	 0.223033900647135 
742	 0.223120631522186 
743	 0.223172401640484 
744	 0.223309659986489 
745	 0.22334534153709 
746	 0.22333412135435 
747	 0.223414455415336 
748	 0.223422060954775 
749	 0.223371672123305 
750	 0.223318537301676 
751	 0.223342877509794 
752	 0.223288345460146 
753	 0.223145827747665 
754	 0.222975084051054 
755	 0.222924942317154 
756	 0.222873315583366 
757	 0.22274055431242 
758	 0.222504418587105 
759	 0.222365010173509 
760	 0.22224267260472 
761	 0.222075104392925 
762	 0.221858714799781 
763	 0.22163296388525 
764	 0.221412220097321 
765	 0.221196878481159 
766	 0.220963018511164 
767	 0.220767744274222 
768	 0.220571014808723 
769	 0.220300543973122 
770	 0.220041223024554 
771	 0.21976432522254 
772	 0.219469356734087 
773	 0.219199803312028 
774	 0.218925036426471 
775	 0.218655515316888 
776	 0.218390474068808 
777	 0.218069510863481 
778	 0.217770618311714 
779	 0.217514859403122 
780	 0.217277895938895 
781	 0.216938615738655 
782	 0.216657661248368 
783	 0.216435434213263 
784	 0.21609178767084 
785	 0.215789978698799 
786	 0.215504655266859 
787	 0.215196504245155 
788	 0.214873164625901 
789	 0.214626494660669 
790	 0.214383045675828 
791	 0.214051877251934 
792	 0.213818236719918 
793	 0.213545251938068 
794	 0.21321717341267 
795	 0.212930454971292 
796	 0.212612664896995 
797	 0.21235585072363 
798	 0.212171494930198 
799	 0.211881578292058 
800	 0.211618803147236 
801	 0.211372782539671 
802	 0.211105286802051 
803	 0.210843637624808 
804	 0.210583244391049 
805	 0.210337635472476 
806	 0.210123569522139 
807	 0.209887986505968 
808	 0.209636038606644 
809	 0.209376517878397 
810	 0.209113669913785 
811	 0.208914933609951 
812	 0.208696801260523 
813	 0.208424077931533 
814	 0.20828994931795 
815	 0.208155639475327 
816	 0.207978072734223 
817	 0.207759032064826 
818	 0.2075039286431 
819	 0.207296637658448 
820	 0.207126325674765 
821	 0.206908990465218 
822	 0.206753339001622 
823	 0.206580300293036 
824	 0.206368722288362 
825	 0.206235351717385 
826	 0.206112400840563 
827	 0.205962930497162 
828	 0.20577939936297 
829	 0.205618617521048 
830	 0.205449846616045 
831	 0.20529203017661 
832	 0.205184176237656 
833	 0.20513992384237 
834	 0.205063041850005 
835	 0.204916716537555 
836	 0.204739297423741 
837	 0.204668777842595 
838	 0.204618294446069 
839	 0.20451721484422 
840	 0.204390835038349 
841	 0.204272860118108 
842	 0.204183153486972 
843	 0.204125526272215 
844	 0.20408266298043 
845	 0.203991823909284 
846	 0.203878083719697 
847	 0.2038084242525 
848	 0.203817959900303 
849	 0.203791882964784 
850	 0.203708538395994 
851	 0.203632789624708 
852	 0.20354145272022 
853	 0.203511402988842 
854	 0.203546370080053 
855	 0.203530754408154 
856	 0.203527835007415 
857	 0.20355939164941 
858	 0.203608445909775 
859	 0.203583364192545 
860	 0.203551373644633 
861	 0.203541766485801 
862	 0.203553000928308 
863	 0.203511363512151 
864	 0.203506441370063 
865	 0.203552798035235 
866	 0.203610974766308 
867	 0.203654333294935 
868	 0.203682387187303 
869	 0.203700549844702 
870	 0.203720634380357 
871	 0.203806634489803 
872	 0.203898437127986 
873	 0.20396971731152 
874	 0.204081640606685 
875	 0.204237879773069 
876	 0.204320376115364 
877	 0.204286657133917 
878	 0.204360900855439 
879	 0.204490599967765 
880	 0.204588125785668 
881	 0.204613531189864 
882	 0.204783304648847 
883	 0.204994350296505 
884	 0.205144288988917 
885	 0.205183630351361 
886	 0.205327671499708 
887	 0.205492476827779 
888	 0.205629988423644 
889	 0.205753106233481 
890	 0.205961821150952 
891	 0.206136832460224 
892	 0.206259468525516 
893	 0.206463235675523 
894	 0.206646085777443 
895	 0.206813360896129 
896	 0.20698571652369 
897	 0.207171919437775 
898	 0.207447347055525 
899	 0.207718919234023 
900	 0.207907604205255 
901	 0.208090383904173 
902	 0.208308034845361 
903	 0.20852685229468 
904	 0.208710305491699 
905	 0.208921976528715 
906	 0.209176534236089 
907	 0.209467683067679 
908	 0.209776842358285 
909	 0.210094111271615 
910	 0.210419170266771 
911	 0.21067604778176 
912	 0.210797235690857 
913	 0.211087906304654 
914	 0.211451005219785 
915	 0.211777815834413 
916	 0.212010083258927 
917	 0.212305422681569 
918	 0.212654580443038 
919	 0.212990654168753 
920	 0.213229678861495 
921	 0.213618100333559 
922	 0.214024675955963 
923	 0.214364014827862 
924	 0.214715569103356 
925	 0.215004021087536 
926	 0.215347392001994 
927	 0.215786621387702 
928	 0.216152251545494 
929	 0.216620696844701 
930	 0.217031477874591 
931	 0.217307633304062 
932	 0.217755387111605 
933	 0.218169239760536 
934	 0.218602398111844 
935	 0.219113820514713 
936	 0.219573569121867 
937	 0.219917411171064 
938	 0.220297548406418 
939	 0.220851543666432 
940	 0.221406627949602 
941	 0.221886289827051 
942	 0.222341365624581 
943	 0.222847425254445 
944	 0.223336969340074 
945	 0.223791327350621 
946	 0.224270490870666 
947	 0.224834896209151 
948	 0.225398023974359 
949	 0.225860385393484 
950	 0.226306923664361 
951	 0.226868414564446 
952	 0.227385360943991 
953	 0.227934064344085 
954	 0.228518032178559 
955	 0.229096491409168 
956	 0.229664777029032 
957	 0.230209660233317 
958	 0.230770134819737 
959	 0.231389303267215 
960	 0.231947629385367 
961	 0.232567576304398 
962	 0.233257324213464 
963	 0.233924164907598 
964	 0.23443681996986 
965	 0.23502720210471 
966	 0.23568576108701 
967	 0.236263910173972 
968	 0.236952500284952 
969	 0.23755960055545 
970	 0.238092571342098 
971	 0.238713060560717 
972	 0.239538045236967 
973	 0.240207656113539 
974	 0.240778096102074 
975	 0.241547021475441 
976	 0.242309938024082 
977	 0.243043052807785 
978	 0.243681616926152 
979	 0.244191217926229 
980	 0.244827566887795 
981	 0.245649829602352 
982	 0.246449499390666 
983	 0.246978708049269 
984	 0.247608071667523 
985	 0.248407071602624 
986	 0.249252728480232 
987	 0.24997120452956 
988	 0.250692059352852 
989	 0.2514474977832 
990	 0.252060660369444 
991	 0.25243416867197 
992	 0.253259387668646 
993	 0.254014828327235 
994	 0.25467526680852 
995	 0.255381204067919 
996	 0.255832056619409 
997	 0.256621108475762 
998	 0.257556228801476 
999	 0.258280201968674 
1000	 0.25911473428086 
1001	 0.256509660584463 
1002	 0.257193948127706 
1003	 0.257880851246546 
1004	 0.258538154272404 
1005	 0.259182485154381 
1006	 0.259817735052828 
1007	 0.260418831101217 
1008	 0.261081773637292 
1009	 0.261669321055556 
1010	 0.26225922580517 
1011	 0.262933055589705 
1012	 0.263485041893247 
1013	 0.264047491511902 
1014	 0.26465123163513 
1015	 0.265149829037166 
1016	 0.2656891784493 
1017	 0.266261888819901 
1018	 0.266889225291026 
1019	 0.267466255394853 
1020	 0.267983084203711 
1021	 0.268500385482914 
1022	 0.268991965082754 
1023	 0.269435347467157 
1024	 0.269906439555464 
1025	 0.270370364562245 
1026	 0.27085211608245 
1027	 0.27138440166752 
1028	 0.271888359016172 
1029	 0.272387849319423 
1030	 0.272874512868221 
1031	 0.273330015464642 
1032	 0.273725121132273 
1033	 0.274190988337094 
1034	 0.274687821251301 
1035	 0.275111605361872 
1036	 0.275554980420432 
1037	 0.276036160387137 
1038	 0.276527627595214 
1039	 0.277034688113392 
1040	 0.277523330881941 
1041	 0.277996262338596 
1042	 0.278490431388253 
1043	 0.278979453182133 
1044	 0.27944728545482 
1045	 0.279932252433844 
1046	 0.280420232647121 
1047	 0.280847989275671 
1048	 0.281247964571266 
1049	 0.281680613312603 
1050	 0.282130892898373 
1051	 0.282583893352959 
1052	 0.283052614409505 
1053	 0.283546459624797 
1054	 0.28401968927845 
1055	 0.284474589296934 
1056	 0.284967126094016 
1057	 0.28541949652225 
1058	 0.285840232507848 
1059	 0.286277784025353 
1060	 0.286720455204367 
1061	 0.287105821201448 
1062	 0.287526455766572 
1063	 0.287998220414927 
1064	 0.28839947117147 
1065	 0.288820411944266 
1066	 0.289275137552284 
1067	 0.289677712985212 
1068	 0.290141162738136 
1069	 0.290633547644023 
1070	 0.291071622457981 
1071	 0.291482888842021 
1072	 0.291899505441203 
1073	 0.292293114381265 
1074	 0.292667343066507 
1075	 0.293026920058029 
1076	 0.293390965013873 
1077	 0.293739945485739 
1078	 0.294085596023875 
1079	 0.294446549938222 
1080	 0.29480425294612 
1081	 0.295111014564683 
1082	 0.295429411611874 
1083	 0.295781366294 
1084	 0.296143187485965 
1085	 0.296500218836587 
1086	 0.296896163904659 
1087	 0.297263077292183 
1088	 0.297610183073369 
1089	 0.297955490620238 
1090	 0.298285518457183 
1091	 0.298597264739184 
1092	 0.298940045736198 
1093	 0.299228149034151 
1094	 0.299512437569858 
1095	 0.299853048197348 
1096	 0.300134459986515 
1097	 0.300448961218446 
1098	 0.300783451240068 
1099	 0.301169342494221 
1100	 0.301499100256132 
1101	 0.301812128847284 
1102	 0.30212928959229 
1103	 0.302437106194216 
1104	 0.302727079931789 
1105	 0.303023070932556 
1106	 0.303343793711528 
1107	 0.303674340919371 
1108	 0.304022830054866 
1109	 0.304362022123697 
1110	 0.304699014345484 
1111	 0.305033954848117 
1112	 0.305351309533973 
1113	 0.305675035273691 
1114	 0.30601504488172 
1115	 0.306333217978297 
1116	 0.306624956675233 
1117	 0.306941672846027 
1118	 0.307261331144535 
1119	 0.30758731958439 
1120	 0.307907601550995 
1121	 0.308223695514704 
1122	 0.308552780547597 
1123	 0.308865740136943 
1124	 0.30918909177204 
1125	 0.309542977035282 
1126	 0.309861554169091 
1127	 0.310143628974059 
1128	 0.310463903187176 
1129	 0.310806276636883 
1130	 0.311121195174028 
1131	 0.311439363328559 
1132	 0.311753636094588 
1133	 0.312033661273448 
1134	 0.312336636117574 
1135	 0.312661522100665 
1136	 0.312979517887179 
1137	 0.313275905974567 
1138	 0.313590387595535 
1139	 0.313904126173938 
1140	 0.314219621402031 
1141	 0.314520954284061 
1142	 0.314826821363783 
1143	 0.315120039624204 
1144	 0.315395079230199 
1145	 0.315668881955134 
1146	 0.31594656153099 
1147	 0.316214678197079 
1148	 0.316461866919267 
1149	 0.316717360739869 
1150	 0.316963564841398 
1151	 0.317231392991837 
1152	 0.317506278971827 
1153	 0.317774645345128 
1154	 0.318041768247759 
1155	 0.318310943970032 
1156	 0.318581915941815 
1157	 0.318851257980149 
1158	 0.319118801028063 
1159	 0.319401039138266 
1160	 0.319661452751786 
1161	 0.319895748478816 
1162	 0.320148422660366 
1163	 0.320412489344443 
1164	 0.320659479067203 
1165	 0.32091019273143 
1166	 0.321156042349748 
1167	 0.321361857694053 
1168	 0.321561940266306 
1169	 0.321791214858401 
1170	 0.322029945027413 
1171	 0.322261945560963 
1172	 0.322519639895835 
1173	 0.322746017402025 
1174	 0.322940715844618 
1175	 0.323155189727518 
1176	 0.323371636304235 
1177	 0.323590276502416 
1178	 0.323827501343186 
1179	 0.324043026671292 
1180	 0.324241971512221 
1181	 0.32444776637941 
1182	 0.324649243854714 
1183	 0.32484424323936 
1184	 0.325039817975246 
1185	 0.325236988970266 
1186	 0.325439005332938 
1187	 0.325639939588053 
1188	 0.325837769960486 
1189	 0.326050814639937 
1190	 0.326242064655997 
1191	 0.326413007120717 
1192	 0.326592237562988 
1193	 0.326760418642983 
1194	 0.326942006645117 
1195	 0.327136780262641 
1196	 0.327321486451371 
1197	 0.327519609338257 
1198	 0.327698317073214 
1199	 0.327865945490445 
1200	 0.328013051502078 
1201	 0.328183317228225 
1202	 0.328348694653888 
1203	 0.328523348646849 
1204	 0.328714964007526 
1205	 0.328897807664063 
1206	 0.329078527287963 
1207	 0.329257828254872 
1208	 0.329449925020558 
1209	 0.329618804883551 
1210	 0.329769768743701 
1211	 0.329925593661584 
1212	 0.330065634792278 
1213	 0.330214776870997 
1214	 0.330383172421846 
1215	 0.330532396356512 
1216	 0.330673786375251 
1217	 0.330812991800049 
1218	 0.330937266205011 
1219	 0.331032031571558 
1220	 0.331161939002129 
1221	 0.331296316416327 
1222	 0.331438033176147 
1223	 0.331611194750893 
1224	 0.331755251144253 
1225	 0.331896151651423 
1226	 0.332020557784333 
1227	 0.332123266252753 
1228	 0.332231629542358 
1229	 0.332322922469601 
1230	 0.332427074753519 
1231	 0.332543469097932 
1232	 0.33265320206273 
1233	 0.332762723370355 
1234	 0.332873738487121 
1235	 0.332988314512638 
1236	 0.333103531246181 
1237	 0.333215080818322 
1238	 0.333333740001781 
1239	 0.333441647973138 
1240	 0.333540983196291 
1241	 0.333637495053044 
1242	 0.333722574158776 
1243	 0.333821707946243 
1244	 0.333921434342932 
1245	 0.334025403635348 
1246	 0.334150647676954 
1247	 0.334258189091294 
1248	 0.334359199509065 
1249	 0.334449577902803 
1250	 0.334547550616637 
1251	 0.334652951046791 
1252	 0.334749274087581 
1253	 0.334856394845678 
1254	 0.334941655986691 
1255	 0.335009195519807 
1256	 0.335078425947958 
1257	 0.335134512381573 
1258	 0.335202685367933 
1259	 0.335280133340395 
1260	 0.33534472638773 
1261	 0.335408485996991 
1262	 0.335466174523375 
1263	 0.335505562694876 
1264	 0.335557210094081 
1265	 0.335610256761485 
1266	 0.335671592140048 
1267	 0.335747733372768 
1268	 0.335806235013751 
1269	 0.335887583715946 
1270	 0.335981441217771 
1271	 0.336071667455695 
1272	 0.336167844946628 
1273	 0.336266240367264 
1274	 0.33635410158858 
1275	 0.336473648692822 
1276	 0.336610231891652 
1277	 0.33675721443028 
1278	 0.336937969988012 
1279	 0.337093996496589 
1280	 0.337250981990526 
1281	 0.337401679058396 
1282	 0.337527252805844 
1283	 0.337675598835929 
1284	 0.337837164445282 
1285	 0.337998554962786 
1286	 0.338159974514072 
1287	 0.338310875284638 
1288	 0.3384498512931 
1289	 0.338576275195917 
1290	 0.338688545152368 
1291	 0.338782492685279 
1292	 0.338891803278062 
1293	 0.338998079417496 
1294	 0.339091589214038 
1295	 0.339200828265215 
1296	 0.339277449308835 
1297	 0.339318254722671 
1298	 0.339367058144967 
1299	 0.339412890342495 
1300	 0.339446371405602 
1301	 0.339470840155606 
1302	 0.339487625492371 
1303	 0.339486991161385 
1304	 0.339491326061214 
1305	 0.339489182305446 
1306	 0.339496837636435 
1307	 0.339480031179796 
1308	 0.339436369437721 
1309	 0.339399443070464 
1310	 0.339346090426953 
1311	 0.33929415306891 
1312	 0.339246653139119 
1313	 0.33918814091622 
1314	 0.339107923907606 
1315	 0.339049234441069 
1316	 0.33899767690225 
1317	 0.338947615006105 
1318	 0.338904852254882 
1319	 0.338861308049113 
1320	 0.33881465845751 
1321	 0.338778423679493 
1322	 0.33875109397224 
1323	 0.338725635333529 
1324	 0.338702023001774 
1325	 0.338669999123405 
1326	 0.33863109883745 
1327	 0.338604094027946 
1328	 0.33855760129102 
1329	 0.338488524495481 
1330	 0.338429814520439 
1331	 0.338361388121069 
1332	 0.338292765872805 
1333	 0.338220079688749 
1334	 0.338169220264717 
1335	 0.338119081734901 
1336	 0.338074722816661 
1337	 0.338061151997234 
1338	 0.338020022390708 
1339	 0.337954792712919 
1340	 0.337907255027494 
1341	 0.337872979176711 
1342	 0.337823775979171 
1343	 0.337761927345896 
1344	 0.337713025614779 
1345	 0.337701803488459 
1346	 0.337666133481159 
1347	 0.337659825986323 
1348	 0.33767620493316 
1349	 0.337625162668013 
1350	 0.337560340468735 
1351	 0.337501705552997 
1352	 0.33742022300646 
1353	 0.33736450277818 
1354	 0.337326529960223 
1355	 0.337276189983055 
1356	 0.337226461888108 
1357	 0.337180827250052 
1358	 0.337130273824545 
1359	 0.337082012372026 
1360	 0.337039259528935 
1361	 0.336999815837548 
1362	 0.336969739468411 
1363	 0.33692755179115 
1364	 0.336872003447137 
1365	 0.336832881197683 
1366	 0.33680416685287 
1367	 0.336751900020334 
1368	 0.336721433377999 
1369	 0.336702405365259 
1370	 0.336631309967147 
1371	 0.336564109643882 
1372	 0.336482908648666 
1373	 0.336383533851872 
1374	 0.336297153593511 
1375	 0.336231726971964 
1376	 0.336105581626313 
1377	 0.335975006235356 
1378	 0.335794480586307 
1379	 0.335550124521151 
1380	 0.335322154978558 
1381	 0.335075962979076 
1382	 0.33481874982903 
1383	 0.334566981455638 
1384	 0.334278930201 
1385	 0.333982513690402 
1386	 0.333641147370049 
1387	 0.333268393169803 
1388	 0.332859303377305 
1389	 0.332414279730574 
1390	 0.33194124144274 
1391	 0.331423472853362 
1392	 0.330865318011605 
1393	 0.330255534074577 
1394	 0.329623988854096 
1395	 0.328950293660771 
1396	 0.32826119257464 
1397	 0.327593297585801 
1398	 0.326918320216791 
1399	 0.326243676444062 
1400	 0.325575889281997 
1401	 0.324919270715185 
1402	 0.324233000497361 
1403	 0.323612661400917 
1404	 0.323024299996548 
1405	 0.322468017403274 
1406	 0.321960040049989 
1407	 0.321453866937674 
1408	 0.32094038754048 
1409	 0.320502966198607 
1410	 0.320058642244555 
1411	 0.319733253154976 
1412	 0.319493928204569 
1413	 0.319318044526459 
1414	 0.319245910869066 
1415	 0.319238748741693 
1416	 0.319288130648079 
1417	 0.319397105226907 
1418	 0.319517176672006 
1419	 0.319641810561864 
1420	 0.319788883570608 
1421	 0.319925031715109 
1422	 0.320041794150434 
1423	 0.320147503642365 
1424	 0.320201343696192 
1425	 0.320205052997898 
1426	 0.320207338513159 
1427	 0.320157126377841 
1428	 0.320148411748669 
1429	 0.320147066776462 
1430	 0.320144711668202 
1431	 0.320171359915963 
1432	 0.32016566188011 
1433	 0.320129804450279 
1434	 0.320113588138128 
1435	 0.320075789479322 
1436	 0.320073902909737 
1437	 0.320103150125715 
1438	 0.320128825664875 
1439	 0.32018037550148 
1440	 0.320215005262579 
1441	 0.320229330193961 
1442	 0.320238331650644 
1443	 0.320222244119651 
1444	 0.320210775171135 
1445	 0.320227602117521 
1446	 0.320248134524469 
1447	 0.320267650859566 
1448	 0.320301977992214 
1449	 0.320306695414306 
1450	 0.320298363654389 
1451	 0.320307598355844 
1452	 0.320314048491906 
1453	 0.320335065588009 
1454	 0.32038127444912 
1455	 0.320399072780353 
1456	 0.320407645691287 
1457	 0.320427024257264 
1458	 0.320431264627024 
1459	 0.32045350643637 
1460	 0.32049543228954 
1461	 0.320535204748347 
1462	 0.320565646777486 
1463	 0.320619672235097 
1464	 0.320692746644392 
1465	 0.320761696804074 
1466	 0.320841666644419 
1467	 0.320928509547956 
1468	 0.320995058119816 
1469	 0.32110345647304 
1470	 0.321247239648235 
1471	 0.321385633881785 
1472	 0.321547049129231 
1473	 0.321737358759022 
1474	 0.321905585706061 
1475	 0.322084283349174 
1476	 0.322243713213834 
1477	 0.322392434558581 
1478	 0.322558959050469 
1479	 0.322713440708747 
1480	 0.322883604917842 
1481	 0.323063735572025 
1482	 0.323236435409961 
1483	 0.323402239270562 
1484	 0.323578484797651 
1485	 0.323758224842298 
1486	 0.323943777826068 
1487	 0.324130735347913 
1488	 0.324324790375816 
1489	 0.32454095661596 
1490	 0.324728812732309 
1491	 0.324915963302479 
1492	 0.325084023219009 
1493	 0.325220957028906 
1494	 0.325370798332083 
1495	 0.325507421253181 
1496	 0.325665125183803 
1497	 0.325844496099705 
1498	 0.326002187028513 
1499	 0.326165956535954 
1500	 0.326319167084887 
1501	 0.326451453753286 
1502	 0.326587996644884 
1503	 0.326723424579851 
1504	 0.326855728977666 
1505	 0.326996064574957 
1506	 0.327136545112774 
1507	 0.327290168352684 
1508	 0.327434657618878 
1509	 0.327550599896735 
1510	 0.327681313509113 
1511	 0.327789597260503 
1512	 0.327875479417277 
1513	 0.32799397535291 
1514	 0.328109824126828 
1515	 0.328231299119448 
1516	 0.328382420574782 
1517	 0.3285075879352 
1518	 0.328623485191846 
1519	 0.3287404366908 
1520	 0.328846704898048 
1521	 0.328961084907603 
1522	 0.329074730875966 
1523	 0.329196589299165 
1524	 0.329328930706695 
1525	 0.329450948171993 
1526	 0.329573999376355 
1527	 0.329696308493534 
1528	 0.329818453663713 
1529	 0.329925037522516 
1530	 0.330026982077336 
1531	 0.330130461458111 
1532	 0.330215528381528 
1533	 0.330312262543114 
1534	 0.330429614151488 
1535	 0.330519196333473 
1536	 0.330583876002967 
1537	 0.330670919727104 
1538	 0.330755151887157 
1539	 0.33084298616561 
1540	 0.330951788028923 
1541	 0.331050886282293 
1542	 0.331139818155146 
1543	 0.33123191353248 
1544	 0.331338588369199 
1545	 0.33141955100421 
1546	 0.331486211201029 
1547	 0.331550325907307 
1548	 0.331585855521336 
1549	 0.331621277046077 
1550	 0.331667672318359 
1551	 0.331723432680822 
1552	 0.331790498121968 
1553	 0.33186939537028 
1554	 0.33196278453194 
1555	 0.332040356155243 
1556	 0.332090293824534 
1557	 0.332147124410442 
1558	 0.332204335807244 
1559	 0.332241601713848 
1560	 0.332299974418027 
1561	 0.332385588672161 
1562	 0.332444844339262 
1563	 0.332490986438188 
1564	 0.332553451731425 
1565	 0.332611730533062 
1566	 0.332683289996602 
1567	 0.332777661978962 
1568	 0.332843246848095 
1569	 0.332904245463572 
1570	 0.332955984794597 
1571	 0.332989937727943 
1572	 0.333027234735271 
1573	 0.333054980434796 
1574	 0.333098891366663 
1575	 0.333146904903444 
1576	 0.333192793105017 
1577	 0.333260305839628 
1578	 0.333300084998994 
1579	 0.333305297148979 
1580	 0.333345202270483 
1581	 0.333388161564333 
1582	 0.333439057596792 
1583	 0.333533274860448 
1584	 0.333585532894538 
1585	 0.333610970778698 
1586	 0.333646548637079 
1587	 0.333663132937149 
1588	 0.333692660279967 
1589	 0.333731727048988 
1590	 0.333773354957582 
1591	 0.333824708873267 
1592	 0.333866851753682 
1593	 0.333903417439535 
1594	 0.333947658420991 
1595	 0.333983956934081 
1596	 0.334030706803721 
1597	 0.334108466190812 
1598	 0.334157732113112 
1599	 0.334206018598821 
1600	 0.334231519897908 
1601	 0.334216264976798 
1602	 0.334216512989195 
1603	 0.33419967851319 
1604	 0.334203907741645 
1605	 0.334212631463236 
1606	 0.334247759388975 
1607	 0.334313744926796 
1608	 0.334375707911198 
1609	 0.334463391315783 
1610	 0.334535333119286 
1611	 0.334544728418793 
1612	 0.334559656810749 
1613	 0.334570142051302 
1614	 0.334569428521963 
1615	 0.334589244241146 
1616	 0.334612750972671 
1617	 0.334636238127884 
1618	 0.334664918219251 
1619	 0.334712884958583 
1620	 0.334755490185894 
1621	 0.334786088875354 
1622	 0.334812576422443 
1623	 0.334818735356072 
1624	 0.334802808573878 
1625	 0.334814886132652 
1626	 0.334813238476281 
1627	 0.334846599140867 
1628	 0.334919531022775 
1629	 0.334959307803911 
1630	 0.33499923820963 
1631	 0.335034291710478 
1632	 0.335058763006833 
1633	 0.335081709496796 
1634	 0.335102258524428 
1635	 0.335126227463169 
1636	 0.335147187240332 
1637	 0.335162135363109 
1638	 0.335175073901009 
1639	 0.335199909580961 
1640	 0.335219669498535 
1641	 0.335247700305134 
1642	 0.335294901932842 
1643	 0.33532808334599 
1644	 0.335351457739111 
1645	 0.335382507733798 
1646	 0.335424757436133 
1647	 0.335444508033629 
1648	 0.335457795344548 
1649	 0.335463385921404 
1650	 0.335441851312679 
1651	 0.335449771247285 
1652	 0.335470211856771 
1653	 0.335483029547599 
1654	 0.335507328462764 
1655	 0.335521093637456 
1656	 0.335527758144142 
1657	 0.335529559752917 
1658	 0.335535378957121 
1659	 0.335522657194604 
1660	 0.335479527201154 
1661	 0.335471022970086 
1662	 0.335465647798981 
1663	 0.33547025144462 
1664	 0.335507291527755 
1665	 0.335518463764687 
1666	 0.335508216423293 
1667	 0.335525801239717 
1668	 0.335560682838736 
1669	 0.335573204225783 
1670	 0.335602902766648 
1671	 0.33559828707908 
1672	 0.335541629323561 
1673	 0.33553113569171 
1674	 0.335530758853671 
1675	 0.335530417453155 
1676	 0.335549539397035 
1677	 0.335563398778171 
1678	 0.335560274620918 
1679	 0.335586209100118 
1680	 0.335640149268167 
1681	 0.335678640972798 
1682	 0.335726626535935 
1683	 0.335765416358206 
1684	 0.33579112051273 
1685	 0.335824624087322 
1686	 0.335877948959818 
1687	 0.33589108954124 
1688	 0.335876652933208 
1689	 0.335879560929497 
1690	 0.335859443739008 
1691	 0.335859474928631 
1692	 0.335882046831688 
1693	 0.335899217706551 
1694	 0.335914514393923 
1695	 0.335932227090569 
1696	 0.335960017125196 
1697	 0.335979985136842 
1698	 0.335999487579009 
1699	 0.336009229025993 
1700	 0.336012902472369 
1701	 0.336016612326473 
1702	 0.336010943621658 
1703	 0.336006329267534 
1704	 0.336012968274482 
1705	 0.335993502197121 
1706	 0.335955836571264 
1707	 0.335923807126953 
1708	 0.335871684726826 
1709	 0.335840782916579 
1710	 0.335818906222259 
1711	 0.33580373332764 
1712	 0.335801535954849 
1713	 0.335791784995685 
1714	 0.335786729134197 
1715	 0.335781304789094 
1716	 0.335764377535633 
1717	 0.335766607818972 
1718	 0.335790449939071 
1719	 0.335790609563104 
1720	 0.335797420683222 
1721	 0.335780610552281 
1722	 0.335733003570614 
1723	 0.335705149681228 
1724	 0.335676143794248 
1725	 0.335647751173973 
1726	 0.335630504348886 
1727	 0.335592568656959 
1728	 0.335538511757342 
1729	 0.33549772461058 
1730	 0.335459783209324 
1731	 0.335410984851007 
1732	 0.335362020782055 
1733	 0.335310250193134 
1734	 0.33524666230819 
1735	 0.335183268618446 
1736	 0.335121966665443 
1737	 0.33506245522378 
1738	 0.335001673385183 
1739	 0.3349320307183 
1740	 0.33486099852213 
1741	 0.334793125016866 
1742	 0.334713990489807 
1743	 0.334643864313975 
1744	 0.334590595548978 
1745	 0.334518203738101 
1746	 0.334431148978196 
1747	 0.3343383999105 
1748	 0.334267858185423 
1749	 0.334206606122051 
1750	 0.334170259361558 
1751	 0.334146182407195 
1752	 0.33407900045953 
1753	 0.333990573690139 
1754	 0.333904392770668 
1755	 0.333812917185464 
1756	 0.333721671219877 
1757	 0.33365860115383 
1758	 0.333587950513287 
1759	 0.333515289200564 
1760	 0.333485584603057 
1761	 0.333435161896518 
1762	 0.333362657723986 
1763	 0.333288926583904 
1764	 0.333177598834558 
1765	 0.333078278284902 
1766	 0.332989507648268 
1767	 0.332872960760273 
1768	 0.33279641919406 
1769	 0.332731079799153 
1770	 0.332684003926961 
1771	 0.332703412495283 
1772	 0.332698585386647 
1773	 0.332681854504062 
1774	 0.332665769821483 
1775	 0.332619128456331 
1776	 0.332567935787496 
1777	 0.332502954215404 
1778	 0.332421208942585 
1779	 0.332343835158482 
1780	 0.332291029825737 
1781	 0.332268128236659 
1782	 0.332273430158344 
1783	 0.33224673122345 
1784	 0.332234277947935 
1785	 0.332234850971557 
1786	 0.332211105973107 
1787	 0.332194077363203 
1788	 0.332166135717952 
1789	 0.332110616052172 
1790	 0.332056225096197 
1791	 0.331995464428823 
1792	 0.331955634351558 
1793	 0.331889693526433 
1794	 0.331893044532661 
1795	 0.331951094645512 
1796	 0.331994327305131 
1797	 0.332101209454946 
1798	 0.332133433930347 
1799	 0.332126876585335 
1800	 0.332129099230193 
1801	 0.331347198934453 
1802	 0.331557511668984 
1803	 0.331808141206009 
1804	 0.332075035263616 
1805	 0.33237332374714 
1806	 0.332643813034761 
1807	 0.33289141379387 
1808	 0.33308775372938 
1809	 0.333238383246172 
1810	 0.333374444185 
1811	 0.333478367649348 
1812	 0.333566158001898 
1813	 0.333621313615914 
1814	 0.333670649958214 
1815	 0.33370853882217 
1816	 0.333685979088411 
1817	 0.333661693003721 
1818	 0.333615255837076 
1819	 0.333577131863823 
1820	 0.33350781420566 
1821	 0.333470575408567 
1822	 0.333488855573508 
1823	 0.333477521882426 
1824	 0.333518569591611 
1825	 0.333571988420963 
1826	 0.333613246331198 
1827	 0.33366448114716 
1828	 0.333674267175162 
1829	 0.333676430222734 
1830	 0.333650615941763 
1831	 0.333586554217069 
1832	 0.333501555365305 
1833	 0.333432974852093 
1834	 0.333350358357242 
1835	 0.333275722358919 
1836	 0.333210322960704 
1837	 0.333169042130433 
1838	 0.33316131374851 
1839	 0.333114277488782 
1840	 0.333050682703037 
1841	 0.332997893172745 
1842	 0.332961294575504 
1843	 0.332894351249682 
1844	 0.332861796443355 
1845	 0.332826897782224 
1846	 0.332765667416769 
1847	 0.332705609412319 
1848	 0.332654592373495 
1849	 0.332628089285003 
1850	 0.332592223221604 
1851	 0.332561614189855 
1852	 0.332522829173911 
1853	 0.332497746822861 
1854	 0.332432257252486 
1855	 0.332357606695572 
1856	 0.332269425276365 
1857	 0.332091503054996 
1858	 0.331889413222223 
1859	 0.331677382216508 
1860	 0.331434019499679 
1861	 0.331146466234695 
1862	 0.330857297988343 
1863	 0.330579025054072 
1864	 0.330263029890854 
1865	 0.329913633693456 
1866	 0.329567474477721 
1867	 0.329180359540399 
1868	 0.328750838757289 
1869	 0.328286409958603 
1870	 0.327773715300985 
1871	 0.327228409747658 
1872	 0.326645346676175 
1873	 0.326023352463988 
1874	 0.325358593236752 
1875	 0.324644830725366 
1876	 0.323898291885464 
1877	 0.323127083011002 
1878	 0.322254320425646 
1879	 0.321325233825109 
1880	 0.320307856148821 
1881	 0.319175232136576 
1882	 0.317984096002312 
1883	 0.316746500172109 
1884	 0.31539250445508 
1885	 0.313946456703049 
1886	 0.312414397779499 
1887	 0.310759556629504 
1888	 0.30904004920286 
1889	 0.307247260333465 
1890	 0.305397977232725 
1891	 0.303566160984388 
1892	 0.301691119095689 
1893	 0.299835650791119 
1894	 0.297976308802051 
1895	 0.296136342899299 
1896	 0.294272157392517 
1897	 0.292444994651176 
1898	 0.290672477174185 
1899	 0.288959123336671 
1900	 0.287362484761111 
1901	 0.285866127552062 
1902	 0.284443307710218 
1903	 0.283139663548583 
1904	 0.281881537122551 
1905	 0.28068620133488 
1906	 0.279559132968751 
1907	 0.27852234707384 
1908	 0.277549238809811 
1909	 0.276659172401743 
1910	 0.275856861427163 
1911	 0.275111720537255 
1912	 0.274407594481211 
1913	 0.273738936699222 
1914	 0.273112475028308 
1915	 0.272523114918456 
1916	 0.271963511967891 
1917	 0.271458068115709 
1918	 0.271007651014086 
1919	 0.270590799070417 
1920	 0.270197331659299 
1921	 0.269838405731031 
1922	 0.269543141620351 
1923	 0.269296890102606 
1924	 0.269083096358883 
1925	 0.268937264077598 
1926	 0.268805351673755 
1927	 0.268695668692848 
1928	 0.268616040753622 
1929	 0.268570896256648 
1930	 0.268555932470293 
1931	 0.268568096341857 
1932	 0.268607545277668 
1933	 0.268686174292944 
1934	 0.268792265172609 
1935	 0.268926090212251 
1936	 0.269102219517982 
1937	 0.269278377193044 
1938	 0.269469630460948 
1939	 0.269688495640998 
1940	 0.269940873864793 
1941	 0.270174075095543 
1942	 0.270431546564744 
1943	 0.270702794620099 
1944	 0.270939900602132 
1945	 0.271218807447249 
1946	 0.271512202959815 
1947	 0.271815883898169 
1948	 0.272138694606106 
1949	 0.272495822934286 
1950	 0.272845173364643 
1951	 0.273189401858428 
1952	 0.273577335192912 
1953	 0.273958576267379 
1954	 0.274343186533536 
1955	 0.274763455155479 
1956	 0.275193081725327 
1957	 0.275623147263948 
1958	 0.276080498988814 
1959	 0.276516900582098 
1960	 0.276930985997001 
1961	 0.277366863511897 
1962	 0.277805579586182 
1963	 0.278249457337501 
1964	 0.278694211380824 
1965	 0.279173584045391 
1966	 0.279645941880088 
1967	 0.280123508351498 
1968	 0.280610684126639 
1969	 0.281104505945041 
1970	 0.281612894717055 
1971	 0.282149936598222 
1972	 0.282659802004358 
1973	 0.283193719720652 
1974	 0.283685007346661 
1975	 0.284139087924866 
1976	 0.284580778442802 
1977	 0.285055061247781 
1978	 0.285498538101279 
1979	 0.285955092036155 
1980	 0.28643556900218 
1981	 0.286884762604046 
1982	 0.287290654461423 
1983	 0.287746332536815 
1984	 0.288202279191037 
1985	 0.288683183047524 
1986	 0.28921382160217 
1987	 0.289721950900763 
1988	 0.290233215989638 
1989	 0.290749175137754 
1990	 0.291248749135765 
1991	 0.291736940634604 
1992	 0.292220038095309 
1993	 0.29268916716301 
1994	 0.293165412862629 
1995	 0.293636455538809 
1996	 0.29410770357371 
1997	 0.294592832609286 
1998	 0.29506509698243 
1999	 0.295518767761746 
2000	 0.295984615257144 
2001	 0.296472527928099 
2002	 0.29691581194967 
2003	 0.297363797842143 
2004	 0.297827431950111 
2005	 0.298253235019538 
2006	 0.298642952277761 
2007	 0.299055228359589 
2008	 0.299443363803589 
2009	 0.299861294660752 
2010	 0.300311905947565 
2011	 0.300742007500123 
2012	 0.301185915404502 
2013	 0.301610728892566 
2014	 0.302027321374137 
2015	 0.302414798844261 
2016	 0.302803463112602 
2017	 0.303210642697302 
2018	 0.303616392623139 
2019	 0.304034464127274 
2020	 0.304435080354395 
2021	 0.304842964586294 
2022	 0.305224175960041 
2023	 0.305575574586566 
2024	 0.305942902763413 
2025	 0.306289945444624 
2026	 0.306658498279312 
2027	 0.307043453016124 
2028	 0.307427171154931 
2029	 0.307826001488114 
2030	 0.308253744495008 
2031	 0.308639752062398 
2032	 0.309017713135377 
2033	 0.30939217811325 
2034	 0.30975065127795 
2035	 0.310099161139312 
2036	 0.310461580273992 
2037	 0.310790274531931 
2038	 0.311078095428431 
2039	 0.311369163208871 
2040	 0.311643676638207 
2041	 0.311919906485825 
2042	 0.312175991687468 
2043	 0.312449103908244 
2044	 0.312726384848074 
2045	 0.312997906923657 
2046	 0.313288295163996 
2047	 0.313612761011031 
2048	 0.313901402462737 
2049	 0.314202004043054 
2050	 0.314465514865979 
2051	 0.31467430795698 
2052	 0.314914521249249 
2053	 0.315165256407854 
2054	 0.315391839900294 
2055	 0.315612742034804 
2056	 0.315835546271931 
2057	 0.316058570960149 
2058	 0.316252226366685 
2059	 0.316476086560202 
2060	 0.316736723605693 
2061	 0.316965264197792 
2062	 0.317179154128156 
2063	 0.317399925042743 
2064	 0.317604825862183 
2065	 0.317825682618789 
2066	 0.31806869971639 
2067	 0.318297118788676 
2068	 0.318528979146872 
2069	 0.318753414211134 
2070	 0.31896327560031 
2071	 0.319142491165408 
2072	 0.319365212267099 
2073	 0.319602868646991 
2074	 0.319828249281418 
2075	 0.320091118296288 
2076	 0.320302172266019 
2077	 0.320471308602689 
2078	 0.32065382616597 
2079	 0.320796929853723 
2080	 0.320986172635654 
2081	 0.321209554280858 
2082	 0.321417421972108 
2083	 0.321629684005623 
2084	 0.321862246920167 
2085	 0.322094577729024 
2086	 0.322331311003786 
2087	 0.322541797016921 
2088	 0.322762969467204 
2089	 0.322961940515305 
2090	 0.323120116593769 
2091	 0.323291360771452 
2092	 0.323469550106118 
2093	 0.323638704397943 
2094	 0.32380528696307 
2095	 0.323956217611086 
2096	 0.324080452695151 
2097	 0.324228968854513 
2098	 0.324402887133598 
2099	 0.324519708533463 
2100	 0.324674448385568 
2101	 0.324853557361983 
2102	 0.325025220784575 
2103	 0.325182683836132 
2104	 0.325372277265008 
2105	 0.325574326885636 
2106	 0.325796684916954 
2107	 0.326064473193827 
2108	 0.32629141819806 
2109	 0.326507850091351 
2110	 0.326738140911747 
2111	 0.326942097288176 
2112	 0.327169761817371 
2113	 0.327419653555487 
2114	 0.32769890956272 
2115	 0.327929812184487 
2116	 0.328145553743176 
2117	 0.328363537380873 
2118	 0.328561895860722 
2119	 0.328765111164614 
2120	 0.328984393375087 
2121	 0.329174417768864 
2122	 0.329342238708456 
2123	 0.329509682406894 
2124	 0.329650532822227 
2125	 0.329813436647766 
2126	 0.330000197786734 
2127	 0.330158303551267 
2128	 0.330329897957238 
2129	 0.330466190264114 
2130	 0.330567052340214 
2131	 0.330653444804277 
2132	 0.330728028608157 
2133	 0.33079046271375 
2134	 0.330827783727084 
2135	 0.330841348604484 
2136	 0.330849772591873 
2137	 0.330834375089281 
2138	 0.330815359690272 
2139	 0.330799059381814 
2140	 0.330756315395395 
2141	 0.330680870099681 
2142	 0.330618020289997 
2143	 0.330564607285534 
2144	 0.33047668952912 
2145	 0.330383652160513 
2146	 0.330268210961317 
2147	 0.33011731114721 
2148	 0.329943396289396 
2149	 0.329784219186914 
2150	 0.329618704763668 
2151	 0.329458293315641 
2152	 0.329298663729512 
2153	 0.329140963927898 
2154	 0.329008158310664 
2155	 0.32882114451669 
2156	 0.328627710324044 
2157	 0.328396440020729 
2158	 0.328126835338361 
2159	 0.327829613597567 
2160	 0.327493793570584 
2161	 0.327150339806192 
2162	 0.326737075450992 
2163	 0.326377456633861 
2164	 0.32602761490802 
2165	 0.325707839635144 
2166	 0.325384409343085 
2167	 0.325106843107858 
2168	 0.324763032586223 
2169	 0.324380473403181 
2170	 0.324027993959051 
2171	 0.323670100493592 
2172	 0.323298062635314 
2173	 0.322939247889802 
2174	 0.322565110150038 
2175	 0.322161645566434 
2176	 0.321762586291568 
2177	 0.321389222835941 
2178	 0.320969496853439 
2179	 0.320517333318712 
2180	 0.320057600238543 
2181	 0.319576223040823 
2182	 0.319078177207195 
2183	 0.318544645043341 
2184	 0.31802756733728 
2185	 0.317519067716673 
2186	 0.316983032807474 
2187	 0.316505742851177 
2188	 0.316074524829864 
2189	 0.315625728339602 
2190	 0.315181291557921 
2191	 0.314768986070554 
2192	 0.314354282309353 
2193	 0.313984323499801 
2194	 0.313654007325354 
2195	 0.313344472669768 
2196	 0.313055763154573 
2197	 0.312800837427728 
2198	 0.312573714396849 
2199	 0.312383104730794 
2200	 0.312242473018794 
2201	 0.312110578675018 
2202	 0.31199874969144 
2203	 0.311921443696027 
2204	 0.311863457884884 
2205	 0.311803271341256 
2206	 0.31182764960683 
2207	 0.311901721266163 
2208	 0.312012231828689 
2209	 0.312188213921695 
2210	 0.312376627353879 
2211	 0.31260409506006 
2212	 0.312844481307039 
2213	 0.313114026657653 
2214	 0.313403826487094 
2215	 0.313753086033179 
2216	 0.314039929884764 
2217	 0.314347189682334 
2218	 0.314597570497395 
2219	 0.314772830528558 
2220	 0.314960783212741 
2221	 0.315149415867992 
2222	 0.315300252608115 
2223	 0.315404757040698 
2224	 0.315511218137476 
2225	 0.315623920627685 
2226	 0.315711666600913 
2227	 0.315804054015231 
2228	 0.315935920619805 
2229	 0.315993104851241 
2230	 0.315999971715903 
2231	 0.316007637555028 
2232	 0.315970423995787 
2233	 0.31596522859121 
2234	 0.315968423763528 
2235	 0.315961258762454 
2236	 0.315977249214747 
2237	 0.315953455747288 
2238	 0.315889925510548 
2239	 0.315838348204521 
2240	 0.315774676675962 
2241	 0.31570867811596 
2242	 0.315649745784869 
2243	 0.315581842026716 
2244	 0.315502671557608 
2245	 0.315417872840976 
2246	 0.315340639511585 
2247	 0.315229361069292 
2248	 0.315138234491047 
2249	 0.315042083482665 
2250	 0.314957852071676 
2251	 0.314883767824701 
2252	 0.314805803826113 
2253	 0.314727232675195 
2254	 0.314655556530675 
2255	 0.314586440402992 
2256	 0.314524462719495 
2257	 0.314462747561459 
2258	 0.314419416843679 
2259	 0.314377114650562 
2260	 0.314361255819727 
2261	 0.314372006618861 
2262	 0.314388789546658 
2263	 0.314442194758712 
2264	 0.314466894969946 
2265	 0.314481411088835 
2266	 0.314502925721637 
2267	 0.314496387924332 
2268	 0.314522579848615 
2269	 0.314579148513815 
2270	 0.314640759606898 
2271	 0.314683483253184 
2272	 0.314730833993561 
2273	 0.31474173255817 
2274	 0.31472320029851 
2275	 0.314737474363104 
2276	 0.314738662804678 
2277	 0.314802360819881 
2278	 0.314921077090716 
2279	 0.314993400247311 
2280	 0.315093374276502 
2281	 0.315148817194863 
2282	 0.315153774510134 
2283	 0.315187365115789 
2284	 0.315235743306979 
2285	 0.31525567668322 
2286	 0.315264325356421 
2287	 0.315266049021871 
2288	 0.315222531188718 
2289	 0.315229105893932 
2290	 0.315251982087706 
2291	 0.315287045335665 
2292	 0.315382959504094 
2293	 0.315429510735118 
2294	 0.315453492604795 
2295	 0.315473399582636 
2296	 0.315476078186082 
2297	 0.315454980974667 
2298	 0.315449886153146 
2299	 0.315490794726029 
2300	 0.315525633771436 
2301	 0.315545354884461 
2302	 0.315489965485764 
2303	 0.315412450639818 
2304	 0.315346989396715 
2305	 0.315251550393842 
2306	 0.31518448958029 
2307	 0.315157871477216 
2308	 0.315102602149452 
2309	 0.31503244796126 
2310	 0.314968365501806 
2311	 0.314909595871488 
2312	 0.314842964868574 
2313	 0.314761248176929 
2314	 0.314698462353102 
2315	 0.314656102684757 
2316	 0.314591041281184 
2317	 0.314535858579414 
2318	 0.314442679227543 
2319	 0.314291252388129 
2320	 0.314183121454595 
2321	 0.314076722961166 
2322	 0.313976023845264 
2323	 0.313909783511085 
2324	 0.313831504999579 
2325	 0.313728018435337 
2326	 0.313653480072945 
2327	 0.313606944484001 
2328	 0.313540423712011 
2329	 0.313469343889205 
2330	 0.313411663720605 
2331	 0.313345304491817 
2332	 0.313246037621591 
2333	 0.313137652725376 
2334	 0.31305751365756 
2335	 0.312994979065703 
2336	 0.312981802931035 
2337	 0.312948832173227 
2338	 0.312866239567451 
2339	 0.312771103806966 
2340	 0.31258153256944 
2341	 0.312446622395639 
2342	 0.312377215696157 
2343	 0.312260689876028 
2344	 0.312151635638123 
2345	 0.312036909066913 
2346	 0.311913124670001 
2347	 0.311770114915643 
2348	 0.311638683230295 
2349	 0.311486800109087 
2350	 0.311290434514256 
2351	 0.311118688096566 
2352	 0.310942232026111 
2353	 0.310757602150103 
2354	 0.310569649836417 
2355	 0.310416228366289 
2356	 0.310287078655997 
2357	 0.310132604725555 
2358	 0.309965622465234 
2359	 0.309822992195217 
2360	 0.309676638507217 
2361	 0.309553193239796 
2362	 0.309490655554603 
2363	 0.309393853065254 
2364	 0.309265345398505 
2365	 0.309140515071764 
2366	 0.309033328138138 
2367	 0.308903324108898 
2368	 0.308747458407187 
2369	 0.308610344937505 
2370	 0.308518493815094 
2371	 0.308305460689755 
2372	 0.308044925402938 
2373	 0.307813899433345 
2374	 0.307550545484759 
2375	 0.30729592543207 
2376	 0.307067474542836 
2377	 0.306857018381504 
2378	 0.30661078688007 
2379	 0.306336260323875 
2380	 0.306139756762738 
2381	 0.30590226798993 
2382	 0.30559858824405 
2383	 0.305318413343308 
2384	 0.305006742408901 
2385	 0.304738241564667 
2386	 0.30450458925743 
2387	 0.304204051892502 
2388	 0.303915791897539 
2389	 0.303660273311089 
2390	 0.303428516456026 
2391	 0.303246367219567 
2392	 0.302980991811446 
2393	 0.302622003292418 
2394	 0.302276222910311 
2395	 0.301930171833111 
2396	 0.301657256461577 
2397	 0.30146038659965 
2398	 0.301158649545309 
2399	 0.300821578327545 
2400	 0.300509098320545 
2401	 0.300174997087142 
2402	 0.299856083643933 
2403	 0.299572603269572 
2404	 0.299328176922165 
2405	 0.299017979059647 
2406	 0.298693301312 
2407	 0.298352544175 
2408	 0.297934445853738 
2409	 0.297523623184662 
2410	 0.297103280165321 
2411	 0.296722698614944 
2412	 0.296414265770908 
2413	 0.296081343263846 
2414	 0.295732491193834 
2415	 0.295420539830528 
2416	 0.295079886453405 
2417	 0.294669061152981 
2418	 0.294319869633116 
2419	 0.294035534810222 
2420	 0.293636396401844 
2421	 0.293210705983726 
2422	 0.292783935811538 
2423	 0.292261242246532 
2424	 0.291825275238481 
2425	 0.291474842192574 
2426	 0.291001104824904 
2427	 0.290492681100769 
2428	 0.290023500437233 
2429	 0.289452779759538 
2430	 0.28896592611953 
2431	 0.288566815756212 
2432	 0.288140358402755 
2433	 0.287718532420926 
2434	 0.287353742096606 
2435	 0.286983428326229 
2436	 0.286707229081478 
2437	 0.286552358223851 
2438	 0.286299471650087 
2439	 0.286117128022712 
2440	 0.285818544005668 
2441	 0.285429653922692 
2442	 0.285025598810171 
2443	 0.284508654674122 
2444	 0.284021734741897 
2445	 0.283462312642278 
2446	 0.283008724239368 
2447	 0.282680548219561 
2448	 0.282332487413939 
2449	 0.282031920053678 
2450	 0.281732832035374 
2451	 0.281413085742 
2452	 0.281010861980133 
2453	 0.280600656441519 
2454	 0.28018189573369 
2455	 0.279620777296141 
2456	 0.279292492530117 
2457	 0.279168757647633 
2458	 0.278877495382411 
2459	 0.27863615254171 
2460	 0.278307597016395 
2461	 0.277859802799277 
2462	 0.277390577471641 
2463	 0.27682691494908 
2464	 0.276372353218089 
2465	 0.275905161193563 
2466	 0.275517621028673 
2467	 0.275254838062509 
2468	 0.274989115644368 
2469	 0.274758574247613 
2470	 0.274519493410857 
2471	 0.274243377555387 
2472	 0.273902159743565 
2473	 0.273517742849997 
2474	 0.273149508897276 
2475	 0.272748920228453 
2476	 0.272298212333587 
2477	 0.271988282500395 
2478	 0.271627040196485 
2479	 0.271283693892484 
2480	 0.271163035694712 
2481	 0.270976575504543 
2482	 0.270772721136156 
2483	 0.270579740053701 
2484	 0.270296312081887 
2485	 0.269931699293063 
2486	 0.269476775502583 
2487	 0.269110213831093 
2488	 0.268798484629876 
2489	 0.268611894206725 
2490	 0.268510702942562 
2491	 0.268252312474424 
2492	 0.267954376078788 
2493	 0.267510697137346 
2494	 0.26710178504832 
2495	 0.266989689921052 
2496	 0.266984351156152 
2497	 0.26690521584304 
2498	 0.266724858636704 
2499	 0.266478551731099 
2500	 0.266168371242412 
