Wavelength	mm1500001.asd
350	 8.22817859510441E-02 
351	 7.61356113438822E-02 
352	 0.069240688491314 
353	 7.18556362530856E-02 
354	 7.27118144167966E-02 
355	 7.35569721154015E-02 
356	 0.073517817602249 
357	 7.19704282051859E-02 
358	 7.08870404962844E-02 
359	 6.72154837840112E-02 
360	 6.47100283274901E-02 
361	 7.01639056976916E-02 
362	 7.39747860576009E-02 
363	 7.45037531996022E-02 
364	 7.27799534227828E-02 
365	 7.20352096873006E-02 
366	 7.10134130361111E-02 
367	 6.97902407160441E-02 
368	 6.96697512332276E-02 
369	 7.61862873616262E-02 
370	 7.89039657554986E-02 
371	 7.71275611819541E-02 
372	 0.077109883516566 
373	 7.97393163929458E-02 
374	 8.24799150923705E-02 
375	 8.26012726597416E-02 
376	 7.73190407878043E-02 
377	 0.077626728617295 
378	 8.17101351768633E-02 
379	 8.41163861125965E-02 
380	 8.25495417095634E-02 
381	 0.08295233515799 
382	 8.62164058311432E-02 
383	 8.90811209977288E-02 
384	 8.98365243808685E-02 
385	 8.86302472557542E-02 
386	 8.70628914472829E-02 
387	 8.88351138298348E-02 
388	 9.05749990642195E-02 
389	 9.15494828506141E-02 
390	 9.18792834159464E-02 
391	 9.09821421886298E-02 
392	 9.38403826700386E-02 
393	 9.83205043089751E-02 
394	 9.68530772310388E-02 
395	 9.64980149222036E-02 
396	 9.82081938225941E-02 
397	 0.101000089388509 
398	 0.102178102885293 
399	 0.102914629248732 
400	 0.103749512045366 
401	 0.104757996392498 
402	 0.104380027886107 
403	 0.105073448273776 
404	 0.106874227135711 
405	 0.107306841982517 
406	 0.108607218818883 
407	 0.109973383362601 
408	 0.110407797906768 
409	 0.109698851136188 
410	 0.10976042295743 
411	 0.110912449713953 
412	 0.112557434475795 
413	 0.114116206739296 
414	 0.114230551399734 
415	 0.113300437442395 
416	 0.113925280182141 
417	 0.114274514712723 
418	 0.114542595003616 
419	 0.115163069174809 
420	 0.115873866650262 
421	 0.115371683840692 
422	 0.114630693500527 
423	 0.115712748704429 
424	 0.115466888439261 
425	 0.115005584163573 
426	 0.115150926836286 
427	 0.115239341295023 
428	 0.115074713255638 
429	 0.114751197798427 
430	 0.114493283559933 
431	 0.114533405277395 
432	 0.114487688336502 
433	 0.114442614842117 
434	 0.114905403779252 
435	 0.114363119082049 
436	 0.113953457498276 
437	 0.114542749561864 
438	 0.114974324297664 
439	 0.115338660414681 
440	 0.11566222037349 
441	 0.115974085620813 
442	 0.116416406202725 
443	 0.116890683362448 
444	 0.11733832196466 
445	 0.117790170213345 
446	 0.118411699557845 
447	 0.119020071385214 
448	 0.119468974585009 
449	 0.120225597877459 
450	 0.121001258230759 
451	 0.121603560004371 
452	 0.121966579606128 
453	 0.122331358980787 
454	 0.12260791885825 
455	 0.122797758267646 
456	 0.123288224713197 
457	 0.123760633901135 
458	 0.124091481186637 
459	 0.124296706800617 
460	 0.124713818022316 
461	 0.12513758350659 
462	 0.125465186456003 
463	 0.125812600666418 
464	 0.125922688666472 
465	 0.126000075162586 
466	 0.126284124535476 
467	 0.126613784023219 
468	 0.126943150767217 
469	 0.127157826160978 
470	 0.127124882910418 
471	 0.127310462913761 
472	 0.127497351685453 
473	 0.127547291586438 
474	 0.127795486917657 
475	 0.128069253219952 
476	 0.128255209553353 
477	 0.128335963833812 
478	 0.128817245133868 
479	 0.129217456079904 
480	 0.129266854408578 
481	 0.12909070400339 
482	 0.129290031015064 
483	 0.129670963704269 
484	 0.129898499852748 
485	 0.13013203566845 
486	 0.130198178649797 
487	 0.13018908003045 
488	 0.130402259217003 
489	 0.130666472841138 
490	 0.130900337281636 
491	 0.131079158471188 
492	 0.131286068065031 
493	 0.131385300980136 
494	 0.131469250484684 
495	 0.131707551611884 
496	 0.131972117052764 
497	 0.132149080077184 
498	 0.132278414806244 
499	 0.13263027250426 
500	 0.132808282098944 
501	 0.132954952301251 
502	 0.133244536994202 
503	 0.133239861999927 
504	 0.133282822999482 
505	 0.133463605344061 
506	 0.13362120132347 
507	 0.133752586438442 
508	 0.133944997415297 
509	 0.134199751921322 
510	 0.134214596815885 
511	 0.134377296551181 
512	 0.134583902072445 
513	 0.134532895726721 
514	 0.134691599698468 
515	 0.134924852129751 
516	 0.135123014826422 
517	 0.135348860263142 
518	 0.135465661956388 
519	 0.135536092097477 
520	 0.135676264981585 
521	 0.13591290048684 
522	 0.136046625270644 
523	 0.136063338811106 
524	 0.136151489715426 
525	 0.136307637938423 
526	 0.136506977674176 
527	 0.136704363411932 
528	 0.136822750204258 
529	 0.136933443877604 
530	 0.137068201279501 
531	 0.137233367463144 
532	 0.13748057744779 
533	 0.137727137196448 
534	 0.137887737371938 
535	 0.137877710343892 
536	 0.138004519937479 
537	 0.138239227846278 
538	 0.138423499966811 
539	 0.13855737209405 
540	 0.13868982316731 
541	 0.138847270114606 
542	 0.139018683207915 
543	 0.139216484251399 
544	 0.139444320378105 
545	 0.139687725596353 
546	 0.139876309531864 
547	 0.140061173128441 
548	 0.140242708066978 
549	 0.140382572983031 
550	 0.140605607264614 
551	 0.14091382239359 
552	 0.141238681452958 
553	 0.141384132504513 
554	 0.141577951963943 
555	 0.141838616484247 
556	 0.142084838570031 
557	 0.142400082239504 
558	 0.142793257287575 
559	 0.143230714772539 
560	 0.143626504667827 
561	 0.143943680243922 
562	 0.144260459499348 
563	 0.144680423556516 
564	 0.145199021883082 
565	 0.145612196039826 
566	 0.145884593367067 
567	 0.146180363512315 
568	 0.146580333870473 
569	 0.14707080737338 
570	 0.147631276193643 
571	 0.148356062829795 
572	 0.14896162070857 
573	 0.149437679346354 
574	 0.149971756166465 
575	 0.150550588492695 
576	 0.151212282186246 
577	 0.151963118828011 
578	 0.152756039507704 
579	 0.153423382576745 
580	 0.153950660443322 
581	 0.154412378964813 
582	 0.154892609897691 
583	 0.155482210224351 
584	 0.156205185414357 
585	 0.156999385654668 
586	 0.157944174072341 
587	 0.158933233214472 
588	 0.159859040162639 
589	 0.160870417216659 
590	 0.161840694995043 
591	 0.162731756260716 
592	 0.163597482578386 
593	 0.164451219902796 
594	 0.165171936158605 
595	 0.165684471421896 
596	 0.166073123573165 
597	 0.166532547579308 
598	 0.167088012686147 
599	 0.167677531104466 
600	 0.168407390299155 
601	 0.169174038437025 
602	 0.16989494429053 
603	 0.170564857064522 
604	 0.171259096832536 
605	 0.172007628871739 
606	 0.172799597202017 
607	 0.173516391807358 
608	 0.174224283549857 
609	 0.174941565318144 
610	 0.175619985527818 
611	 0.17618654732511 
612	 0.176639389401101 
613	 0.177021458589008 
614	 0.177447967807819 
615	 0.177869279370504 
616	 0.178265784533983 
617	 0.178638912972763 
618	 0.179004727636734 
619	 0.179356093644752 
620	 0.179691842637573 
621	 0.18002754534436 
622	 0.180380853198438 
623	 0.180715367604846 
624	 0.180987462479498 
625	 0.181264227395679 
626	 0.181548390769865 
627	 0.18184242630592 
628	 0.182155630571774 
629	 0.1824464323277 
630	 0.182711562927467 
631	 0.18295858802445 
632	 0.183174558979669 
633	 0.183456276227555 
634	 0.183769816041505 
635	 0.183983283830739 
636	 0.184220075602335 
637	 0.184449574838733 
638	 0.184642887203561 
639	 0.184828365187513 
640	 0.185107134611897 
641	 0.185446994778057 
642	 0.185746112862539 
643	 0.185941724666091 
644	 0.186130073998859 
645	 0.186367227938404 
646	 0.186627089736199 
647	 0.186900514234483 
648	 0.18716749297414 
649	 0.187415239906657 
650	 0.187666380730271 
651	 0.187928600127564 
652	 0.188210597338465 
653	 0.188519157134245 
654	 0.188802183311611 
655	 0.189071210646993 
656	 0.189344420252673 
657	 0.189616351737604 
658	 0.189946733323854 
659	 0.190281152071036 
660	 0.190529629278511 
661	 0.190788008886552 
662	 0.191113984937959 
663	 0.191486430464752 
664	 0.191776579109416 
665	 0.192117565057918 
666	 0.192451256822512 
667	 0.192724382858265 
668	 0.193137213830336 
669	 0.193546279669541 
670	 0.193912030144235 
671	 0.194287202677788 
672	 0.19464632997475 
673	 0.194988833351668 
674	 0.195339300742377 
675	 0.195783193832119 
676	 0.196169389002262 
677	 0.196533880852599 
678	 0.196970150202822 
679	 0.197333830634933 
680	 0.197743609413498 
681	 0.198228266835957 
682	 0.198673373926896 
683	 0.199055004169388 
684	 0.199478783048427 
685	 0.200015330175275 
686	 0.200486625676294 
687	 0.20090671465811 
688	 0.201322198130324 
689	 0.201793023701074 
690	 0.202254546236094 
691	 0.202713841457348 
692	 0.203185200780698 
693	 0.203678509330974 
694	 0.204170565406335 
695	 0.204671106970648 
696	 0.205190082400421 
697	 0.205663779220289 
698	 0.206156480423614 
699	 0.206675528144488 
700	 0.207163457263747 
701	 0.207721677251051 
702	 0.208276670025601 
703	 0.208761378988984 
704	 0.209228852739517 
705	 0.20970382565835 
706	 0.210216566280149 
707	 0.210780118212902 
708	 0.211277540906592 
709	 0.21176658852145 
710	 0.212281519453358 
711	 0.212797840376885 
712	 0.21325394331703 
713	 0.213685328417804 
714	 0.214156955214012 
715	 0.214741895800046 
716	 0.21520228694984 
717	 0.215570519561703 
718	 0.216067795145405 
719	 0.216602596010182 
720	 0.217068240647584 
721	 0.217437757850939 
722	 0.217838342141955 
723	 0.218275665520939 
724	 0.218680124593215 
725	 0.218997118320175 
726	 0.219408606130954 
727	 0.219748620932663 
728	 0.220029702865508 
729	 0.220432202818562 
730	 0.220814341026212 
731	 0.221105316592066 
732	 0.221315239292659 
733	 0.221612715594393 
734	 0.221895761127127 
735	 0.222094259938815 
736	 0.222195107298576 
737	 0.222444919379234 
738	 0.222704338884035 
739	 0.222890240078767 
740	 0.223015811031781 
741	 0.223110853023772 
742	 0.223185294721336 
743	 0.223252959312815 
744	 0.223362082068516 
745	 0.223395147480602 
746	 0.22340811371282 
747	 0.223505812403399 
748	 0.223500706179821 
749	 0.223439529513796 
750	 0.223388052145378 
751	 0.223404828357364 
752	 0.223340821473503 
753	 0.223190527733793 
754	 0.223016860990192 
755	 0.222971183705973 
756	 0.222941774167694 
757	 0.222822314247853 
758	 0.222557608534977 
759	 0.222415418534339 
760	 0.222308462190534 
761	 0.222155980318528 
762	 0.221932946869196 
763	 0.221720512574244 
764	 0.221497280971453 
765	 0.221244450218031 
766	 0.221022387604512 
767	 0.220832898372359 
768	 0.220636549170374 
769	 0.220383472212678 
770	 0.22012157089209 
771	 0.219842320565404 
772	 0.219548402575909 
773	 0.219261280341148 
774	 0.219002497237989 
775	 0.218746940450046 
776	 0.218464077167379 
777	 0.218135087792156 
778	 0.217823791712908 
779	 0.217556122736109 
780	 0.217320978670468 
781	 0.217009429813169 
782	 0.2167499343718 
783	 0.216529806599746 
784	 0.216180390641705 
785	 0.215872538260452 
786	 0.21558559676958 
787	 0.215282859412956 
788	 0.214975848266439 
789	 0.214719908167408 
790	 0.214466283747147 
791	 0.2141550428371 
792	 0.213902415211762 
793	 0.213600199407682 
794	 0.213260766476192 
795	 0.212997311313059 
796	 0.212674018890648 
797	 0.212414219262105 
798	 0.212243682248702 
799	 0.211939366685579 
800	 0.211656752830852 
801	 0.211404817776619 
802	 0.211154470786615 
803	 0.210909021362442 
804	 0.210653485369087 
805	 0.210413480595752 
806	 0.210224029416116 
807	 0.209975268165893 
808	 0.209695210220212 
809	 0.209420622185155 
810	 0.209176315674683 
811	 0.209007152411685 
812	 0.208789448884949 
813	 0.208481192278744 
814	 0.208368438162095 
815	 0.208228983445795 
816	 0.208017504246848 
817	 0.207772767480269 
818	 0.207548070230218 
819	 0.207360362665477 
820	 0.207179315920734 
821	 0.206951486775241 
822	 0.20683070009975 
823	 0.206661650681276 
824	 0.206409025864939 
825	 0.206306259129125 
826	 0.206191669235855 
827	 0.206033290738738 
828	 0.205855777479796 
829	 0.205753677433715 
830	 0.205581852302452 
831	 0.205376634306669 
832	 0.205254926467821 
833	 0.20522504252259 
834	 0.205152557598776 
835	 0.204999494790599 
836	 0.204836850682544 
837	 0.204758704127511 
838	 0.204698746804019 
839	 0.204600775407281 
840	 0.204475621348683 
841	 0.204378183885539 
842	 0.204296719710641 
843	 0.204212365248701 
844	 0.204153141383863 
845	 0.204096058692043 
846	 0.204006922759214 
847	 0.203879296565367 
848	 0.203880198522536 
849	 0.203862932831193 
850	 0.203777400582707 
851	 0.203679457025195 
852	 0.203623143531912 
853	 0.203598638008234 
854	 0.203589356192669 
855	 0.203586287745139 
856	 0.203633872794911 
857	 0.203654983515085 
858	 0.203612111953279 
859	 0.203646091782237 
860	 0.20361939609753 
861	 0.2035913405175 
862	 0.2036413631881 
863	 0.203617565492134 
864	 0.203583944852961 
865	 0.203594748915408 
866	 0.203673026444561 
867	 0.203709095664333 
868	 0.203746822253727 
869	 0.203788352488351 
870	 0.203789804814721 
871	 0.203878589481257 
872	 0.203975354981022 
873	 0.204043448539098 
874	 0.204169574398977 
875	 0.204307877292063 
876	 0.20439323102918 
877	 0.204405913654288 
878	 0.204442370639084 
879	 0.204581189961911 
880	 0.204696431734279 
881	 0.204690740947689 
882	 0.204910167195072 
883	 0.205115691559352 
884	 0.205215566501581 
885	 0.205247086048462 
886	 0.205401133915057 
887	 0.205588234204735 
888	 0.205758894544712 
889	 0.205917400869079 
890	 0.206044956448032 
891	 0.206192390768064 
892	 0.206374537355969 
893	 0.206550954032142 
894	 0.206726350359281 
895	 0.206883235596526 
896	 0.20703809360107 
897	 0.207270259902584 
898	 0.20753553912923 
899	 0.207758722485876 
900	 0.207915158908974 
901	 0.208130922270577 
902	 0.208338815650035 
903	 0.208573147339779 
904	 0.208857395917385 
905	 0.209051507734274 
906	 0.209270399700841 
907	 0.209542463039419 
908	 0.209851961097385 
909	 0.210219501746272 
910	 0.21054437690833 
911	 0.21075766907172 
912	 0.21087061253916 
913	 0.211194659161759 
914	 0.211554134863927 
915	 0.211843688431491 
916	 0.212082658519346 
917	 0.212417158312341 
918	 0.212775162061748 
919	 0.213086765606187 
920	 0.213335591001599 
921	 0.213712743953679 
922	 0.214133305968717 
923	 0.214497891420861 
924	 0.214771544673242 
925	 0.215040558032066 
926	 0.215402413050671 
927	 0.215853362277475 
928	 0.21621221901522 
929	 0.216704217707809 
930	 0.217159793401397 
931	 0.217469839892175 
932	 0.2178964077993 
933	 0.218267577203951 
934	 0.218680265086523 
935	 0.219217433664867 
936	 0.219719174562567 
937	 0.220037046427206 
938	 0.220377862979995 
939	 0.220947236661714 
940	 0.221511078637368 
941	 0.221933016833672 
942	 0.222360919665608 
943	 0.222956291970319 
944	 0.223443227820076 
945	 0.223851216561698 
946	 0.224295028068703 
947	 0.224871265408189 
948	 0.225435807402334 
949	 0.22594488357093 
950	 0.226401686209487 
951	 0.226850690175563 
952	 0.227375271318987 
953	 0.227934057554921 
954	 0.228510188822084 
955	 0.229107565415476 
956	 0.229748689757143 
957	 0.230320445860669 
958	 0.230842577550325 
959	 0.231404885655501 
960	 0.231945384794036 
961	 0.232596186340358 
962	 0.233293588016063 
963	 0.233870742809713 
964	 0.234394680038034 
965	 0.235047830417811 
966	 0.235740652904506 
967	 0.236268451598996 
968	 0.236938213290958 
969	 0.237579225382445 
970	 0.238173010414401 
971	 0.238815677274939 
972	 0.23948572771485 
973	 0.240224121787641 
974	 0.240979783043964 
975	 0.241655227007847 
976	 0.242273266642034 
977	 0.242910255197123 
978	 0.243671012471311 
979	 0.244568595203228 
980	 0.245088019596046 
981	 0.245621407266986 
982	 0.246326527981199 
983	 0.24711719683594 
984	 0.247720833013043 
985	 0.248439286613826 
986	 0.249238109065864 
987	 0.249937262794505 
988	 0.250790214548613 
989	 0.251464905664957 
990	 0.252011293818062 
991	 0.252668893709321 
992	 0.253491306537015 
993	 0.25397382903354 
994	 0.254449269959564 
995	 0.255385416874888 
996	 0.256123241146184 
997	 0.256840894247829 
998	 0.257518075027433 
999	 0.258121817366978 
1000	 0.258835018858691 
1001	 0.256703832699143 
1002	 0.25735979201947 
1003	 0.258015209157736 
1004	 0.258648901564575 
1005	 0.259339654075365 
1006	 0.259998301417808 
1007	 0.260608519188518 
1008	 0.261230861783204 
1009	 0.261872908026006 
1010	 0.262428742356815 
1011	 0.262946903891706 
1012	 0.263433138128787 
1013	 0.264017025710117 
1014	 0.264634485241944 
1015	 0.265153398965547 
1016	 0.265739043122479 
1017	 0.266293223224198 
1018	 0.266792307815809 
1019	 0.267256266432995 
1020	 0.267807643237362 
1021	 0.268350257197402 
1022	 0.268903673189992 
1023	 0.269434974728086 
1024	 0.269972914240687 
1025	 0.270538484580344 
1026	 0.270984082772084 
1027	 0.271417663751019 
1028	 0.271931675694449 
1029	 0.272340463979349 
1030	 0.272750487301507 
1031	 0.273221417941546 
1032	 0.273751339793413 
1033	 0.274225681403264 
1034	 0.274697446895721 
1035	 0.275184699073161 
1036	 0.275681662459956 
1037	 0.27618324924547 
1038	 0.276690438960927 
1039	 0.277206792453619 
1040	 0.277661304874773 
1041	 0.278069056845156 
1042	 0.278527675746983 
1043	 0.278975828863912 
1044	 0.279435598832711 
1045	 0.279900279930027 
1046	 0.280425905356221 
1047	 0.280894675870517 
1048	 0.281365266429417 
1049	 0.281836508728049 
1050	 0.282234886417553 
1051	 0.282700890988027 
1052	 0.283181292918837 
1053	 0.283643450788556 
1054	 0.284167258243949 
1055	 0.284629689439024 
1056	 0.28506697540729 
1057	 0.285508105326909 
1058	 0.285914183050471 
1059	 0.286360022804469 
1060	 0.286830795011798 
1061	 0.287284756811368 
1062	 0.287719157484711 
1063	 0.28817889715624 
1064	 0.288607484809362 
1065	 0.28905011310404 
1066	 0.289482501705939 
1067	 0.289852178719609 
1068	 0.290210891207212 
1069	 0.290570098165287 
1070	 0.290931464193753 
1071	 0.291301189337389 
1072	 0.291696141181415 
1073	 0.292082682011619 
1074	 0.292483231407159 
1075	 0.29291219636486 
1076	 0.293353433529429 
1077	 0.293746128057724 
1078	 0.29408539884463 
1079	 0.294437688107515 
1080	 0.294769074894378 
1081	 0.295125478781706 
1082	 0.29555144284079 
1083	 0.295912862648594 
1084	 0.296245432405982 
1085	 0.296596201036387 
1086	 0.296920519269414 
1087	 0.297242074775553 
1088	 0.297567704247853 
1089	 0.297917643795481 
1090	 0.29820672519107 
1091	 0.298514997785109 
1092	 0.298865397594293 
1093	 0.299215744708419 
1094	 0.299564703280855 
1095	 0.299897779153282 
1096	 0.300220685127001 
1097	 0.300533886055767 
1098	 0.300863147380745 
1099	 0.301228097542821 
1100	 0.301559052455464 
1101	 0.301873761047283 
1102	 0.302187380448486 
1103	 0.302489787590646 
1104	 0.302783363380176 
1105	 0.303090572093678 
1106	 0.303396430152802 
1107	 0.303702512007985 
1108	 0.304027451750654 
1109	 0.30435651547613 
1110	 0.30469935131975 
1111	 0.305037541718166 
1112	 0.30539433960851 
1113	 0.305714595826568 
1114	 0.306006516803892 
1115	 0.306325596899692 
1116	 0.306627473036496 
1117	 0.306952002841089 
1118	 0.307304737924201 
1119	 0.30766022522661 
1120	 0.307984249266011 
1121	 0.308306149713507 
1122	 0.308640140367428 
1123	 0.308978733178301 
1124	 0.309311880761048 
1125	 0.309674534541098 
1126	 0.309983321853376 
1127	 0.310241699709882 
1128	 0.31054255695394 
1129	 0.310837040164644 
1130	 0.311142898750917 
1131	 0.311490778256572 
1132	 0.311798611779955 
1133	 0.312059814183763 
1134	 0.312363995596385 
1135	 0.312671233539418 
1136	 0.313002361761337 
1137	 0.313338323244426 
1138	 0.313658282995141 
1139	 0.313973094198458 
1140	 0.314270140259714 
1141	 0.314570576231802 
1142	 0.314879410093012 
1143	 0.315165546305005 
1144	 0.315427498383693 
1145	 0.315700438139769 
1146	 0.315976260683966 
1147	 0.316244492636923 
1148	 0.31650592258581 
1149	 0.316770199716611 
1150	 0.317016822708042 
1151	 0.317287354231356 
1152	 0.317552209614114 
1153	 0.317836136030608 
1154	 0.31811140396955 
1155	 0.318381353246144 
1156	 0.318655922399079 
1157	 0.31895091498313 
1158	 0.319207132431732 
1159	 0.319446223335919 
1160	 0.319694792497184 
1161	 0.319927170611162 
1162	 0.320159715183777 
1163	 0.320395380816504 
1164	 0.32063174688588 
1165	 0.320852213010181 
1166	 0.32108467324687 
1167	 0.321336880728942 
1168	 0.321600404768915 
1169	 0.321848019042251 
1170	 0.322101488625592 
1171	 0.322334089604514 
1172	 0.322554488316476 
1173	 0.322771932045426 
1174	 0.322973896058096 
1175	 0.323184227580494 
1176	 0.323391865554802 
1177	 0.323600815588189 
1178	 0.323809902325957 
1179	 0.324025710795307 
1180	 0.324246867647696 
1181	 0.324463291108843 
1182	 0.324682775479222 
1183	 0.324907012010608 
1184	 0.32511327152027 
1185	 0.325309929222639 
1186	 0.325505505175926 
1187	 0.325695500439388 
1188	 0.325876006030654 
1189	 0.326040831882283 
1190	 0.326224815972181 
1191	 0.326405540954171 
1192	 0.326595215622392 
1193	 0.326801113117368 
1194	 0.327004796024865 
1195	 0.327229869729572 
1196	 0.327419435133793 
1197	 0.327591713590603 
1198	 0.327765677139587 
1199	 0.327929026477424 
1200	 0.328055698865402 
1201	 0.328224262736699 
1202	 0.328411049131771 
1203	 0.328594813105991 
1204	 0.328793447317616 
1205	 0.328977905643899 
1206	 0.329160771797759 
1207	 0.329340996680114 
1208	 0.329528629121656 
1209	 0.329689993426557 
1210	 0.329834568018151 
1211	 0.329982045865721 
1212	 0.330095739865282 
1213	 0.330236838773783 
1214	 0.330409697259553 
1215	 0.330562460031253 
1216	 0.330711747675601 
1217	 0.330870828501718 
1218	 0.331004104680307 
1219	 0.331107013726675 
1220	 0.331238790900432 
1221	 0.331375597620238 
1222	 0.331506827793627 
1223	 0.331658432262036 
1224	 0.331781752527063 
1225	 0.331881344237391 
1226	 0.331988552800846 
1227	 0.332078666696284 
1228	 0.332186343571067 
1229	 0.332299497891993 
1230	 0.332420165641807 
1231	 0.332565113133477 
1232	 0.332693191999287 
1233	 0.332816811270744 
1234	 0.332938826672307 
1235	 0.333058551502188 
1236	 0.333165800109348 
1237	 0.333281738592473 
1238	 0.33340632300092 
1239	 0.333523335596215 
1240	 0.333644197243849 
1241	 0.33374859155085 
1242	 0.3338450821513 
1243	 0.333935240869267 
1244	 0.333996428411359 
1245	 0.334085031630614 
1246	 0.33418893763114 
1247	 0.334285514949779 
1248	 0.334388318559835 
1249	 0.334498167237186 
1250	 0.334596343576019 
1251	 0.334688572232837 
1252	 0.33478450284853 
1253	 0.334888061991459 
1254	 0.334976414963038 
1255	 0.335054304745579 
1256	 0.335138518606092 
1257	 0.335225381372876 
1258	 0.33529669054907 
1259	 0.335359396087591 
1260	 0.335427504669301 
1261	 0.335485818285149 
1262	 0.335545386374381 
1263	 0.335611630648123 
1264	 0.335677101813327 
1265	 0.335731189078155 
1266	 0.335793916510675 
1267	 0.335872102375533 
1268	 0.335939511434641 
1269	 0.336005338249206 
1270	 0.336056470949862 
1271	 0.336146168229888 
1272	 0.336251117086055 
1273	 0.336351564810598 
1274	 0.336479060441053 
1275	 0.336590209831414 
1276	 0.336669223718238 
1277	 0.336793265213869 
1278	 0.33693821281289 
1279	 0.337090687777638 
1280	 0.337282028289109 
1281	 0.337450060187641 
1282	 0.337622531014381 
1283	 0.337781362246143 
1284	 0.337930127913735 
1285	 0.338064430954144 
1286	 0.338200686609448 
1287	 0.338326926735348 
1288	 0.338474154389899 
1289	 0.338641021969111 
1290	 0.338771396683865 
1291	 0.338906020452346 
1292	 0.339022391650492 
1293	 0.3391074095177 
1294	 0.339193833712808 
1295	 0.339284291794392 
1296	 0.339349209753317 
1297	 0.339390006481564 
1298	 0.339432169704318 
1299	 0.339459495099361 
1300	 0.339488056880465 
1301	 0.339521196508095 
1302	 0.339536689334344 
1303	 0.339543570416772 
1304	 0.339544372923931 
1305	 0.339524301434859 
1306	 0.339487704237481 
1307	 0.339457686475651 
1308	 0.339426900271513 
1309	 0.339394935104784 
1310	 0.339366337868469 
1311	 0.33932911868711 
1312	 0.339284451357891 
1313	 0.33924378590379 
1314	 0.339212269351149 
1315	 0.339158079630735 
1316	 0.339085770347549 
1317	 0.339026274645856 
1318	 0.338935337690397 
1319	 0.338889878429513 
1320	 0.338895822487291 
1321	 0.338872371349547 
1322	 0.338863810845564 
1323	 0.338836337071817 
1324	 0.338776912435061 
1325	 0.338720813852953 
1326	 0.338676140925251 
1327	 0.338633684720715 
1328	 0.338584913499824 
1329	 0.338529208308672 
1330	 0.338474370981764 
1331	 0.338408246031709 
1332	 0.338346898950937 
1333	 0.338292595129989 
1334	 0.3382349204932 
1335	 0.338163084866544 
1336	 0.338112108776625 
1337	 0.338072612920863 
1338	 0.338029964524026 
1339	 0.337997776909073 
1340	 0.337961993193132 
1341	 0.337923785794039 
1342	 0.337889602360987 
1343	 0.337856358130569 
1344	 0.33782625397806 
1345	 0.337801876839301 
1346	 0.337764863710813 
1347	 0.337730404246977 
1348	 0.337690523528617 
1349	 0.337618224530688 
1350	 0.337553625277564 
1351	 0.337491787052349 
1352	 0.337414578331593 
1353	 0.337355473807394 
1354	 0.337324321633101 
1355	 0.337256226306492 
1356	 0.337167613662595 
1357	 0.337102867025706 
1358	 0.337015573075429 
1359	 0.336962356393177 
1360	 0.336951606765941 
1361	 0.336916853933558 
1362	 0.336890456313203 
1363	 0.336858890246077 
1364	 0.336809174490427 
1365	 0.336768527442549 
1366	 0.336735530287447 
1367	 0.336689732014207 
1368	 0.336661277776375 
1369	 0.336654732558563 
1370	 0.336622839239583 
1371	 0.336585234402856 
1372	 0.336528900055578 
1373	 0.336426416046877 
1374	 0.3363130145003 
1375	 0.33618348450377 
1376	 0.336030487808159 
1377	 0.335857238574083 
1378	 0.33565899920762 
1379	 0.335423719816117 
1380	 0.335195428492618 
1381	 0.334953111286874 
1382	 0.334696516203212 
1383	 0.334460059357371 
1384	 0.33417010136347 
1385	 0.333858555964478 
1386	 0.333499922876248 
1387	 0.333093750175693 
1388	 0.332664344555534 
1389	 0.332197905677317 
1390	 0.331713587505791 
1391	 0.331196199072575 
1392	 0.330639434866184 
1393	 0.330025083762938 
1394	 0.329362009437896 
1395	 0.328647612146599 
1396	 0.327936477859097 
1397	 0.327246537932869 
1398	 0.326546540250001 
1399	 0.325870979444757 
1400	 0.325225097174313 
1401	 0.324562695237546 
1402	 0.323886667135966 
1403	 0.323251488301941 
1404	 0.322611036667447 
1405	 0.322026060618235 
1406	 0.321477634849372 
1407	 0.320958163790311 
1408	 0.320455892523967 
1409	 0.320017989024599 
1410	 0.319594018818974 
1411	 0.319269615545295 
1412	 0.319011958442356 
1413	 0.31882887338656 
1414	 0.318740948732258 
1415	 0.318715870242253 
1416	 0.318751719533472 
1417	 0.318829273195844 
1418	 0.31892396656038 
1419	 0.31905174869936 
1420	 0.319178861356996 
1421	 0.319293936781644 
1422	 0.31940824233929 
1423	 0.319498739093534 
1424	 0.319553050175534 
1425	 0.319575638802373 
1426	 0.3195957907457 
1427	 0.319574912639062 
1428	 0.319573385347377 
1429	 0.319580663087434 
1430	 0.319575852179938 
1431	 0.319566282391894 
1432	 0.319552441809631 
1433	 0.319528424283508 
1434	 0.31951047737879 
1435	 0.319471225121547 
1436	 0.31946788831446 
1437	 0.319488942974179 
1438	 0.319502736846619 
1439	 0.319533376916305 
1440	 0.319574763176089 
1441	 0.319575390275591 
1442	 0.319576172501512 
1443	 0.319581551241635 
1444	 0.31957474186365 
1445	 0.319584379458964 
1446	 0.319613940744941 
1447	 0.319627778079479 
1448	 0.319637402061783 
1449	 0.319641741625119 
1450	 0.319635192948366 
1451	 0.319649739348557 
1452	 0.319670951873513 
1453	 0.31969837268103 
1454	 0.319746269067722 
1455	 0.319777701113156 
1456	 0.319813435826662 
1457	 0.319832212739682 
1458	 0.319830938511877 
1459	 0.319845802065432 
1460	 0.319838268202384 
1461	 0.319873617928807 
1462	 0.319941945953004 
1463	 0.320002188195648 
1464	 0.320086960476847 
1465	 0.320161693745668 
1466	 0.320215137198395 
1467	 0.320303153800571 
1468	 0.320394917306404 
1469	 0.320513945445999 
1470	 0.320663479807142 
1471	 0.320826755216995 
1472	 0.321001338061278 
1473	 0.321185150065532 
1474	 0.321361930214499 
1475	 0.321540361250952 
1476	 0.321696260111361 
1477	 0.321852789214579 
1478	 0.322015643894429 
1479	 0.322176615940706 
1480	 0.322362700943836 
1481	 0.32255110568995 
1482	 0.322739107871084 
1483	 0.322937237986853 
1484	 0.323120973648456 
1485	 0.323293068263347 
1486	 0.323481377211396 
1487	 0.323665280528812 
1488	 0.323864367232578 
1489	 0.324093021303907 
1490	 0.324290537012479 
1491	 0.324487288339057 
1492	 0.324665886548574 
1493	 0.324812860562673 
1494	 0.324977961685855 
1495	 0.32514199154922 
1496	 0.325303168048885 
1497	 0.325475117599444 
1498	 0.325634771822541 
1499	 0.325785100044084 
1500	 0.325936511602618 
1501	 0.326076942631702 
1502	 0.32622423543483 
1503	 0.326371791050862 
1504	 0.326523018800412 
1505	 0.32668671098368 
1506	 0.326835397022379 
1507	 0.326993474693513 
1508	 0.327149080025592 
1509	 0.327267649117808 
1510	 0.327394874031904 
1511	 0.327498565145204 
1512	 0.327579883524991 
1513	 0.32770154459507 
1514	 0.327841835931041 
1515	 0.327973765541815 
1516	 0.328112065136429 
1517	 0.328239608816927 
1518	 0.328346992230745 
1519	 0.328467596664875 
1520	 0.328598864742762 
1521	 0.328723860780764 
1522	 0.328841652968972 
1523	 0.328973528090618 
1524	 0.329117660813443 
1525	 0.329238002599096 
1526	 0.329357823448509 
1527	 0.329472977234237 
1528	 0.329570099818005 
1529	 0.329669891974033 
1530	 0.329771641079565 
1531	 0.329873760645059 
1532	 0.329967131144089 
1533	 0.330065138500776 
1534	 0.330180540610411 
1535	 0.330271913344754 
1536	 0.33033730860539 
1537	 0.330426163434635 
1538	 0.33051661346395 
1539	 0.330606786557212 
1540	 0.330704624619526 
1541	 0.330810447450291 
1542	 0.330926103406851 
1543	 0.331025548348115 
1544	 0.331143315074943 
1545	 0.331231833933903 
1546	 0.331283640666841 
1547	 0.331339357961892 
1548	 0.331411384751305 
1549	 0.331477847737437 
1550	 0.331542204768209 
1551	 0.331608508232561 
1552	 0.331665809960568 
1553	 0.331722125039742 
1554	 0.33180522271095 
1555	 0.331890753707877 
1556	 0.331948812219954 
1557	 0.331998447095184 
1558	 0.332056325577876 
1559	 0.332111742747912 
1560	 0.332171161010364 
1561	 0.332243722349319 
1562	 0.332311757527104 
1563	 0.332374673595721 
1564	 0.332441564866623 
1565	 0.33252468760426 
1566	 0.332583440419877 
1567	 0.332616367253759 
1568	 0.332673421138241 
1569	 0.332733293554464 
1570	 0.33279315810531 
1571	 0.332873967245433 
1572	 0.332934132666562 
1573	 0.332977592823241 
1574	 0.333027966853389 
1575	 0.333083083316102 
1576	 0.333119954228777 
1577	 0.333148076357794 
1578	 0.333170699011225 
1579	 0.333160415845877 
1580	 0.333193672219563 
1581	 0.333245877115605 
1582	 0.333300254438293 
1583	 0.33338848811398 
1584	 0.33345058645388 
1585	 0.333509059824857 
1586	 0.333555013451527 
1587	 0.333577839577416 
1588	 0.333616762159907 
1589	 0.333649062848472 
1590	 0.333687423006013 
1591	 0.333746830324559 
1592	 0.333790407518492 
1593	 0.333819669558402 
1594	 0.333859749001281 
1595	 0.333899257692976 
1596	 0.333939299984236 
1597	 0.333994418304305 
1598	 0.334035631117981 
1599	 0.334081364305694 
1600	 0.334101217766255 
1601	 0.334082524437034 
1602	 0.334089578027971 
1603	 0.334080101573321 
1604	 0.334094628603929 
1605	 0.334139178282302 
1606	 0.33418591158654 
1607	 0.33424803456446 
1608	 0.334303663386695 
1609	 0.334367860141882 
1610	 0.334440511281605 
1611	 0.334500484024134 
1612	 0.334550658163874 
1613	 0.334563835775037 
1614	 0.334562557617567 
1615	 0.334568236822212 
1616	 0.334579654610795 
1617	 0.33461026816359 
1618	 0.334650802904169 
1619	 0.334670323538118 
1620	 0.33467360155402 
1621	 0.334693276696812 
1622	 0.334714926787382 
1623	 0.334732652304902 
1624	 0.334755134862827 
1625	 0.334776531192469 
1626	 0.334791925303257 
1627	 0.334809888276885 
1628	 0.334833885762817 
1629	 0.334853203655587 
1630	 0.334861053916005 
1631	 0.334894231483889 
1632	 0.334943002264562 
1633	 0.334977969960881 
1634	 0.335020453695334 
1635	 0.335055578132044 
1636	 0.335087792600595 
1637	 0.335102040419551 
1638	 0.335105656326779 
1639	 0.33512131128882 
1640	 0.335111736693166 
1641	 0.335141615525579 
1642	 0.335204906820285 
1643	 0.335254039240871 
1644	 0.335320786887818 
1645	 0.335358766698765 
1646	 0.335387924342756 
1647	 0.33540752083424 
1648	 0.335411203791033 
1649	 0.335408362903749 
1650	 0.335386951323642 
1651	 0.335387794506199 
1652	 0.335383302218762 
1653	 0.335392464625247 
1654	 0.335428895527783 
1655	 0.335444690037349 
1656	 0.335458983308211 
1657	 0.335461006994274 
1658	 0.335446107759293 
1659	 0.335447489545451 
1660	 0.335443269850713 
1661	 0.335450372236214 
1662	 0.335477478516245 
1663	 0.335489703648222 
1664	 0.335494435574124 
1665	 0.335507044658153 
1666	 0.335517126150376 
1667	 0.335534772313714 
1668	 0.335572293674762 
1669	 0.335580782029637 
1670	 0.335582212864407 
1671	 0.335572782546281 
1672	 0.335531343532225 
1673	 0.335517217155228 
1674	 0.335505819400011 
1675	 0.335505877533017 
1676	 0.335529351125432 
1677	 0.335532711976812 
1678	 0.335526913835446 
1679	 0.335535234039053 
1680	 0.335538585244734 
1681	 0.335552897447492 
1682	 0.335575446155444 
1683	 0.33561552810655 
1684	 0.335672014658679 
1685	 0.335717806147787 
1686	 0.335799831645971 
1687	 0.335823191778649 
1688	 0.335796986955254 
1689	 0.335798662003354 
1690	 0.335778802204765 
1691	 0.33577919851343 
1692	 0.335804078412728 
1693	 0.335816781823079 
1694	 0.335823655495271 
1695	 0.335837228258533 
1696	 0.335853647049631 
1697	 0.335874625366127 
1698	 0.335904454167007 
1699	 0.335923635958277 
1700	 0.335950342651607 
1701	 0.335955169064189 
1702	 0.335939385569562 
1703	 0.33592896332246 
1704	 0.335906483636569 
1705	 0.335891742602611 
1706	 0.335884643135129 
1707	 0.335868900156908 
1708	 0.335849419793702 
1709	 0.335831642138665 
1710	 0.335812540470279 
1711	 0.335790751970296 
1712	 0.335767151820714 
1713	 0.335741026433619 
1714	 0.335702378761197 
1715	 0.335685970694883 
1716	 0.33568530924989 
1717	 0.335673120909139 
1718	 0.335668052131918 
1719	 0.335658156395402 
1720	 0.335635868975598 
1721	 0.335619622586723 
1722	 0.335614242276588 
1723	 0.335601385877256 
1724	 0.33558940628688 
1725	 0.335559669100696 
1726	 0.33551031832727 
1727	 0.335482226039868 
1728	 0.335459385556752 
1729	 0.335415322847889 
1730	 0.33538198847559 
1731	 0.335332129455537 
1732	 0.335244776497166 
1733	 0.335185144320249 
1734	 0.335138093916362 
1735	 0.335091226517708 
1736	 0.335060625016083 
1737	 0.334995985172714 
1738	 0.334915977654806 
1739	 0.334843895782644 
1740	 0.334736553716384 
1741	 0.334675300561704 
1742	 0.334662121587924 
1743	 0.334607845979433 
1744	 0.334551520295817 
1745	 0.334478547253964 
1746	 0.334374205150243 
1747	 0.334286997095462 
1748	 0.334230757758196 
1749	 0.33418069876042 
1750	 0.334123121612423 
1751	 0.334056658726843 
1752	 0.333981320279567 
1753	 0.333922464283061 
1754	 0.333869140769696 
1755	 0.333811593063893 
1756	 0.333736741255848 
1757	 0.333625691000804 
1758	 0.333520260412032 
1759	 0.33342660102785 
1760	 0.333346168530702 
1761	 0.333284562179772 
1762	 0.333209002477642 
1763	 0.333120721693879 
1764	 0.33305602220665 
1765	 0.333000975040719 
1766	 0.332908928867986 
1767	 0.332823189685839 
1768	 0.332749274827022 
1769	 0.332672207631511 
1770	 0.332639200625697 
1771	 0.332619871097532 
1772	 0.33258211455086 
1773	 0.332536608152397 
1774	 0.332492995578173 
1775	 0.332460331344756 
1776	 0.33240863608596 
1777	 0.332342241290587 
1778	 0.332266946131318 
1779	 0.332187587611935 
1780	 0.332159425989492 
1781	 0.332155617423109 
1782	 0.332141857344943 
1783	 0.332112105886353 
1784	 0.332092450712111 
1785	 0.33207968501483 
1786	 0.332077390600309 
1787	 0.332117385918076 
1788	 0.332091359901233 
1789	 0.332019774371003 
1790	 0.331958774176125 
1791	 0.33184585946918 
1792	 0.331794828287286 
1793	 0.331778024067537 
1794	 0.33178439236848 
1795	 0.331825479710959 
1796	 0.331847875169258 
1797	 0.331898913580594 
1798	 0.331922485907422 
1799	 0.331928837996864 
1800	 0.331940025192787 
1801	 0.331386604466803 
1802	 0.331588353883213 
1803	 0.331801889925632 
1804	 0.332019170605179 
1805	 0.332259696467 
1806	 0.332515901033624 
1807	 0.332733642917297 
1808	 0.332912984105284 
1809	 0.333092769111611 
1810	 0.33322708990031 
1811	 0.333293164689018 
1812	 0.333373135983977 
1813	 0.333482953947668 
1814	 0.333501930531229 
1815	 0.333473809091897 
1816	 0.333463902337695 
1817	 0.333458527307222 
1818	 0.3334157280836 
1819	 0.33341122682463 
1820	 0.333444507013343 
1821	 0.333463550418393 
1822	 0.333458237630286 
1823	 0.333442176157314 
1824	 0.333451137829805 
1825	 0.333436140881248 
1826	 0.33341993622673 
1827	 0.333453801410688 
1828	 0.333458174964741 
1829	 0.333468174720431 
1830	 0.33344787701467 
1831	 0.333423975982145 
1832	 0.333356017908982 
1833	 0.333245436628624 
1834	 0.333139862088411 
1835	 0.333067433339285 
1836	 0.332989518190602 
1837	 0.332944403425816 
1838	 0.332926437074655 
1839	 0.332885464675523 
1840	 0.332834384614154 
1841	 0.332778929600085 
1842	 0.332713361653426 
1843	 0.332666164352728 
1844	 0.33262273466057 
1845	 0.332552585048579 
1846	 0.332501952222934 
1847	 0.332445966735782 
1848	 0.332386772522518 
1849	 0.332356779327453 
1850	 0.332323397935363 
1851	 0.332309262962118 
1852	 0.332276753747859 
1853	 0.332221885421205 
1854	 0.332142559829339 
1855	 0.332039159096334 
1856	 0.331909895861365 
1857	 0.331742874742371 
1858	 0.331552325117326 
1859	 0.331365785955066 
1860	 0.331145033821696 
1861	 0.330902043149603 
1862	 0.330619735975962 
1863	 0.33031818776264 
1864	 0.329970962279266 
1865	 0.329597911798677 
1866	 0.329230603867365 
1867	 0.328826786395757 
1868	 0.328381977798505 
1869	 0.327910838360499 
1870	 0.32738880655784 
1871	 0.326817365254422 
1872	 0.326209859541721 
1873	 0.325565893994032 
1874	 0.324852922494673 
1875	 0.324079151571934 
1876	 0.323267450509078 
1877	 0.322424696134113 
1878	 0.321529663019814 
1879	 0.320577127641149 
1880	 0.319517284230886 
1881	 0.318375456425535 
1882	 0.317146875640264 
1883	 0.315829776710778 
1884	 0.314393224498665 
1885	 0.312915428763788 
1886	 0.311345563835882 
1887	 0.309636208080207 
1888	 0.307877275818486 
1889	 0.306032502048119 
1890	 0.304117795293689 
1891	 0.302225398580811 
1892	 0.30028518067031 
1893	 0.298365122941538 
1894	 0.296437971382305 
1895	 0.294544132239558 
1896	 0.292601700347063 
1897	 0.290743885215627 
1898	 0.288941628988674 
1899	 0.287187864849627 
1900	 0.285562323435302 
1901	 0.284016704401536 
1902	 0.282547494813099 
1903	 0.281168678047965 
1904	 0.279869405830295 
1905	 0.278646858875428 
1906	 0.277507854828332 
1907	 0.276464411321151 
1908	 0.275495690794902 
1909	 0.27458875411223 
1910	 0.273722387720716 
1911	 0.272906805121552 
1912	 0.272157271604718 
1913	 0.271452887738789 
1914	 0.270800745763234 
1915	 0.270200232233461 
1916	 0.269658024751553 
1917	 0.269147879230166 
1918	 0.268691960043136 
1919	 0.268286835396282 
1920	 0.267915084407814 
1921	 0.267570923346073 
1922	 0.267274381145216 
1923	 0.267011496496096 
1924	 0.266782629984495 
1925	 0.266583592430113 
1926	 0.266448763133316 
1927	 0.266355353855185 
1928	 0.266310438912317 
1929	 0.26630517489079 
1930	 0.266314324314449 
1931	 0.266352866310667 
1932	 0.266383014784192 
1933	 0.26644621954725 
1934	 0.266552147294886 
1935	 0.266680819534416 
1936	 0.266835584509535 
1937	 0.267008921562603 
1938	 0.267216213362464 
1939	 0.267437524577207 
1940	 0.267679345329105 
1941	 0.267917307276552 
1942	 0.26818925498519 
1943	 0.268469451766937 
1944	 0.268758124551423 
1945	 0.269090528423515 
1946	 0.269413835897962 
1947	 0.269758002361676 
1948	 0.27009438326852 
1949	 0.270414693693113 
1950	 0.270760481563117 
1951	 0.271117806694653 
1952	 0.271493255983488 
1953	 0.271863413501703 
1954	 0.272243378183425 
1955	 0.272652192323681 
1956	 0.273090126749864 
1957	 0.273538401880707 
1958	 0.27403776953425 
1959	 0.274510077698117 
1960	 0.274987738807937 
1961	 0.275447892046306 
1962	 0.27588486678694 
1963	 0.276348569971809 
1964	 0.276815620255366 
1965	 0.277275935730245 
1966	 0.277767634434473 
1967	 0.278281408335754 
1968	 0.278787893770801 
1969	 0.279295116080832 
1970	 0.279811918011886 
1971	 0.280342944461609 
1972	 0.280863150915424 
1973	 0.281397426828238 
1974	 0.281909862945278 
1975	 0.282405185597938 
1976	 0.282902666423322 
1977	 0.283400802166337 
1978	 0.283878681225049 
1979	 0.284358276316043 
1980	 0.284825063558741 
1981	 0.285283434753742 
1982	 0.28569951346339 
1983	 0.286173630872448 
1984	 0.286663351802508 
1985	 0.287165008383898 
1986	 0.287719904414269 
1987	 0.288241978169866 
1988	 0.288757693642048 
1989	 0.289267647633286 
1990	 0.289768489705994 
1991	 0.29025662357315 
1992	 0.290731180134338 
1993	 0.291173400769131 
1994	 0.291658846713212 
1995	 0.29214897656712 
1996	 0.292640771264157 
1997	 0.293176301604263 
1998	 0.293674240965649 
1999	 0.294137518108328 
2000	 0.294621434833925 
2001	 0.295121534687606 
2002	 0.295591113711664 
2003	 0.29606742491275 
2004	 0.296535339179765 
2005	 0.296983626056057 
2006	 0.297398742650679 
2007	 0.297838875446452 
2008	 0.298267295552887 
2009	 0.298716488753041 
2010	 0.299201021193204 
2011	 0.299650038492951 
2012	 0.300103689325673 
2013	 0.300535045079488 
2014	 0.300941082624467 
2015	 0.301328463696307 
2016	 0.301714527506795 
2017	 0.302113796744914 
2018	 0.302517303176759 
2019	 0.302925823218318 
2020	 0.303336821758831 
2021	 0.303774131169957 
2022	 0.304169795817133 
2023	 0.304534358377036 
2024	 0.304923253981629 
2025	 0.305287460052256 
2026	 0.305678313166352 
2027	 0.306106266821135 
2028	 0.30652954005011 
2029	 0.306934019696008 
2030	 0.3073319153278 
2031	 0.307733627733318 
2032	 0.308135105766443 
2033	 0.308515802915873 
2034	 0.30891036119067 
2035	 0.309258922638637 
2036	 0.309564535457788 
2037	 0.309874416605796 
2038	 0.310148291981202 
2039	 0.310441902931101 
2040	 0.310755813444878 
2041	 0.311038488567196 
2042	 0.31130217293605 
2043	 0.311586394412444 
2044	 0.311873449177291 
2045	 0.312149312903075 
2046	 0.312435448399364 
2047	 0.312744128876791 
2048	 0.313042979140637 
2049	 0.313356480628217 
2050	 0.31362809610928 
2051	 0.313876819402181 
2052	 0.314131228767387 
2053	 0.314341059530031 
2054	 0.31457485258393 
2055	 0.314827829622297 
2056	 0.315097457063634 
2057	 0.315341156884174 
2058	 0.315577420089203 
2059	 0.315813160648718 
2060	 0.316035560706756 
2061	 0.3162646777895 
2062	 0.316504622062386 
2063	 0.316725964713266 
2064	 0.316924330336354 
2065	 0.317146834304197 
2066	 0.317373539130947 
2067	 0.317597620552901 
2068	 0.317822179873044 
2069	 0.318073824976087 
2070	 0.318310147143983 
2071	 0.318542943344143 
2072	 0.318761744894632 
2073	 0.318978069283586 
2074	 0.319193742719128 
2075	 0.319398037903647 
2076	 0.319599049725959 
2077	 0.319799654096778 
2078	 0.320002573911527 
2079	 0.320189848948767 
2080	 0.32038748325325 
2081	 0.320594042656921 
2082	 0.320806287395296 
2083	 0.321019775807482 
2084	 0.321244702433792 
2085	 0.32145564160178 
2086	 0.321675639325903 
2087	 0.321878666606569 
2088	 0.322056482430243 
2089	 0.322256852390406 
2090	 0.322472688239539 
2091	 0.322665352250493 
2092	 0.322852724035528 
2093	 0.32304167624637 
2094	 0.323227865860342 
2095	 0.323395742287521 
2096	 0.323549690366716 
2097	 0.323715031527581 
2098	 0.323879517526714 
2099	 0.324020119596516 
2100	 0.324173542582988 
2101	 0.324332955343199 
2102	 0.32451118545406 
2103	 0.324680980681352 
2104	 0.324878002176635 
2105	 0.32511453989927 
2106	 0.325334319254997 
2107	 0.325551774526253 
2108	 0.32577926298876 
2109	 0.326017999750496 
2110	 0.326253391440713 
2111	 0.326491852977766 
2112	 0.326731426775685 
2113	 0.326965999099252 
2114	 0.32721735957502 
2115	 0.327446359622099 
2116	 0.327672103809551 
2117	 0.327892276049778 
2118	 0.328093514514412 
2119	 0.328309419298775 
2120	 0.32853609117033 
2121	 0.32875042502959 
2122	 0.328977703917799 
2123	 0.329170708537165 
2124	 0.329345587912547 
2125	 0.329508816457752 
2126	 0.329636008963653 
2127	 0.329776752919294 
2128	 0.329931988391195 
2129	 0.3300568308989 
2130	 0.330163551166708 
2131	 0.330278821613758 
2132	 0.330356570478009 
2133	 0.330403910498817 
2134	 0.330442446258867 
2135	 0.330461604195979 
2136	 0.330473684354454 
2137	 0.330469969398689 
2138	 0.330452091126281 
2139	 0.330438409737962 
2140	 0.33038361967654 
2141	 0.330279035887958 
2142	 0.330195613441218 
2143	 0.330093619305425 
2144	 0.3299927382514 
2145	 0.329925237602089 
2146	 0.329816333072577 
2147	 0.329667667678129 
2148	 0.329526205556093 
2149	 0.329375526702579 
2150	 0.329198289356629 
2151	 0.329038680055178 
2152	 0.328892090025869 
2153	 0.328728242840623 
2154	 0.328569743821752 
2155	 0.328381232008788 
2156	 0.328205698470409 
2157	 0.327958880403342 
2158	 0.327653503219716 
2159	 0.327345514580871 
2160	 0.326968583311513 
2161	 0.326624720631183 
2162	 0.326283413833214 
2163	 0.325953042497259 
2164	 0.325625288699566 
2165	 0.325317012977505 
2166	 0.325005768666638 
2167	 0.324713992252759 
2168	 0.324389795536242 
2169	 0.324057835449502 
2170	 0.32371534009611 
2171	 0.323352875442324 
2172	 0.32299017769623 
2173	 0.322620867137976 
2174	 0.322252222570808 
2175	 0.321886148718487 
2176	 0.321499595990053 
2177	 0.321127417097539 
2178	 0.320704609898828 
2179	 0.320228732590783 
2180	 0.319762671578974 
2181	 0.319273820641392 
2182	 0.318779103919095 
2183	 0.318275168215161 
2184	 0.317773308514593 
2185	 0.317281234916374 
2186	 0.316772059025051 
2187	 0.316293528199535 
2188	 0.31584323482562 
2189	 0.315383945028345 
2190	 0.314901337639698 
2191	 0.314485369757662 
2192	 0.314090816040522 
2193	 0.313730593906057 
2194	 0.313437192936125 
2195	 0.313128657989303 
2196	 0.312817957843775 
2197	 0.312547653395312 
2198	 0.31228736479043 
2199	 0.312066794911999 
2200	 0.311882654814201 
2201	 0.31173153676808 
2202	 0.311590386602249 
2203	 0.311522399971994 
2204	 0.311492029296131 
2205	 0.311506355257363 
2206	 0.311558466250103 
2207	 0.311671110802139 
2208	 0.311793772421808 
2209	 0.311945455970288 
2210	 0.31213193633397 
2211	 0.312348584474903 
2212	 0.312595143174328 
2213	 0.312904529507273 
2214	 0.313184513733209 
2215	 0.313501819892992 
2216	 0.313773289920802 
2217	 0.314020915260766 
2218	 0.31425435467387 
2219	 0.314474022137152 
2220	 0.314665481760359 
2221	 0.31482926079554 
2222	 0.314988595904654 
2223	 0.31510033785541 
2224	 0.315193521500249 
2225	 0.315301963774545 
2226	 0.315406621435525 
2227	 0.315490397096545 
2228	 0.315579724289419 
2229	 0.315637329731024 
2230	 0.315665541967951 
2231	 0.315675981536258 
2232	 0.315656600683056 
2233	 0.31565963514106 
2234	 0.315649527799081 
2235	 0.315641885215959 
2236	 0.315673109612858 
2237	 0.315646368781381 
2238	 0.315566419520917 
2239	 0.31550956442006 
2240	 0.315436466395189 
2241	 0.315365592933562 
2242	 0.315310868975841 
2243	 0.315242865996495 
2244	 0.315160503073028 
2245	 0.315078837534958 
2246	 0.314980705222123 
2247	 0.314885328039695 
2248	 0.314796426233658 
2249	 0.314699414413976 
2250	 0.314618873967948 
2251	 0.314554613295346 
2252	 0.314475360052302 
2253	 0.31439733169548 
2254	 0.314313944921864 
2255	 0.314219215370402 
2256	 0.314140911393745 
2257	 0.314039645914821 
2258	 0.31399976839195 
2259	 0.313997447635275 
2260	 0.314003492883923 
2261	 0.314070584841144 
2262	 0.31410069335322 
2263	 0.314127533535984 
2264	 0.31413828803716 
2265	 0.314120192032761 
2266	 0.314123621990457 
2267	 0.314121970423036 
2268	 0.314136172370001 
2269	 0.314178237888023 
2270	 0.31420140313375 
2271	 0.314251666572776 
2272	 0.31428871907319 
2273	 0.314344274438309 
2274	 0.314392553226169 
2275	 0.314428495694396 
2276	 0.314456967445485 
2277	 0.314486723407467 
2278	 0.314490719040591 
2279	 0.314547150579019 
2280	 0.314635332633097 
2281	 0.314698077055914 
2282	 0.314796546181897 
2283	 0.314840255315417 
2284	 0.314829596968997 
2285	 0.314849910909711 
2286	 0.314868937159324 
2287	 0.314882419457299 
2288	 0.314896901557748 
2289	 0.314921182565314 
2290	 0.314950081747974 
2291	 0.314957264340936 
2292	 0.314965317996264 
2293	 0.314968286215373 
2294	 0.314949804133549 
2295	 0.31493649116375 
2296	 0.314936351831859 
2297	 0.314914991925277 
2298	 0.314901297084057 
2299	 0.314871214444584 
2300	 0.314859789983595 
2301	 0.314880034939984 
2302	 0.314865614166284 
2303	 0.314829522379617 
2304	 0.314801471828389 
2305	 0.314752795792132 
2306	 0.314706618588791 
2307	 0.314667218792763 
2308	 0.314624819735089 
2309	 0.314574527108816 
2310	 0.314512450789167 
2311	 0.314465783608458 
2312	 0.31437175957841 
2313	 0.314211441742758 
2314	 0.31412753577592 
2315	 0.314062832332834 
2316	 0.313981893662325 
2317	 0.313940599287857 
2318	 0.31387078462579 
2319	 0.313760312968058 
2320	 0.31366957286136 
2321	 0.31360871169407 
2322	 0.31351743842942 
2323	 0.313392054136597 
2324	 0.313302632386368 
2325	 0.313218526264921 
2326	 0.313129878156693 
2327	 0.313087396556498 
2328	 0.312971983379465 
2329	 0.312828164171099 
2330	 0.312727056503559 
2331	 0.312655081017446 
2332	 0.312587234552732 
2333	 0.31253734704861 
2334	 0.312503011962668 
2335	 0.312401037709035 
2336	 0.31230120987046 
2337	 0.31219487356566 
2338	 0.312063476416791 
2339	 0.312001635160306 
2340	 0.311934585895913 
2341	 0.311847260088546 
2342	 0.311750142434513 
2343	 0.311550496937096 
2344	 0.311347925451053 
2345	 0.3111885051975 
2346	 0.311051624715564 
2347	 0.310863178491913 
2348	 0.310662874599188 
2349	 0.310523595233819 
2350	 0.310399346040338 
2351	 0.310255453367411 
2352	 0.310151493619942 
2353	 0.310028431370944 
2354	 0.309839381224964 
2355	 0.309683440222565 
2356	 0.309623252192723 
2357	 0.309450863041317 
2358	 0.309165466142002 
2359	 0.308980504871044 
2360	 0.308762532394225 
2361	 0.308620767004801 
2362	 0.308611654444675 
2363	 0.308520141460251 
2364	 0.308412309868291 
2365	 0.308325481533751 
2366	 0.308260508766166 
2367	 0.308119635413831 
2368	 0.30794690149933 
2369	 0.307776650698557 
2370	 0.307538634664307 
2371	 0.307325652901323 
2372	 0.307147320481642 
2373	 0.306901971103336 
2374	 0.306679196330283 
2375	 0.306439220713744 
2376	 0.306210613886674 
2377	 0.306039122626371 
2378	 0.305782126475414 
2379	 0.305456157065831 
2380	 0.305135275309416 
2381	 0.304856776430184 
2382	 0.304669237348322 
2383	 0.304513805706951 
2384	 0.304285680845368 
2385	 0.304064146183354 
2386	 0.303774573493808 
2387	 0.303429923272844 
2388	 0.303193190473697 
2389	 0.302903091112029 
2390	 0.302573981362728 
2391	 0.302262974291718 
2392	 0.301934419436171 
2393	 0.301646178211907 
2394	 0.301431228320859 
2395	 0.301249499466541 
2396	 0.301050327746949 
2397	 0.300797249928425 
2398	 0.300418544472636 
2399	 0.300036641694568 
2400	 0.299703169634554 
2401	 0.299342005746762 
2402	 0.299028202580903 
2403	 0.298774625442294 
2404	 0.29844140113293 
2405	 0.298049315901556 
2406	 0.297678836694751 
2407	 0.297249273726596 
2408	 0.296751791356396 
2409	 0.296355741190642 
2410	 0.296042565184128 
2411	 0.29564870620514 
2412	 0.295277041150035 
2413	 0.29495628452701 
2414	 0.294571135606454 
2415	 0.294198479204931 
2416	 0.293847893561367 
2417	 0.293525396274254 
2418	 0.293179328101687 
2419	 0.292859408537233 
2420	 0.292454563659218 
2421	 0.291994245543465 
2422	 0.291614150112625 
2423	 0.291225712556402 
2424	 0.290833085610054 
2425	 0.290539470364758 
2426	 0.290095674901299 
2427	 0.289505617144589 
2428	 0.289035911489099 
2429	 0.288537524220742 
2430	 0.28810241026979 
2431	 0.287768116358376 
2432	 0.28733399298479 
2433	 0.286860408668415 
2434	 0.286436195848614 
2435	 0.286035796359065 
2436	 0.285581757103067 
2437	 0.285099570240946 
2438	 0.284730126552655 
2439	 0.284319190264085 
2440	 0.283986116802081 
2441	 0.283899872902378 
2442	 0.283589174423039 
2443	 0.283150513759662 
2444	 0.282743048137498 
2445	 0.282193291048355 
2446	 0.281790249255356 
2447	 0.281479816889838 
2448	 0.281172515363767 
2449	 0.280982821737723 
2450	 0.280715500135029 
2451	 0.280461579784941 
2452	 0.280060300042332 
2453	 0.279515891779115 
2454	 0.279027883437096 
2455	 0.278424538363003 
2456	 0.277969256872211 
2457	 0.277638801809194 
2458	 0.277332412795653 
2459	 0.277060593569702 
2460	 0.276805749171372 
2461	 0.276662308599638 
2462	 0.276377341013177 
2463	 0.276053151021194 
2464	 0.275705740944756 
2465	 0.275258858775602 
2466	 0.274791469635002 
2467	 0.274258150090529 
2468	 0.27391061059107 
2469	 0.27361377041285 
2470	 0.273424476846711 
2471	 0.273171629694565 
2472	 0.272719832187892 
2473	 0.27237270063904 
2474	 0.272029293242753 
2475	 0.271769806334191 
2476	 0.271464519137997 
2477	 0.27110283406337 
2478	 0.270717709606253 
2479	 0.270179655429415 
2480	 0.26979701668322 
2481	 0.269469837362486 
2482	 0.269201998606884 
2483	 0.268951317815371 
2484	 0.268588611291719 
2485	 0.268341719187271 
2486	 0.268136382200399 
2487	 0.267847350782282 
2488	 0.267590263507031 
2489	 0.267341166028127 
2490	 0.267066593414226 
2491	 0.266784777154379 
2492	 0.266348439313331 
2493	 0.265990755207974 
2494	 0.265764206820049 
2495	 0.265549735902737 
2496	 0.265532449380336 
2497	 0.26533895746233 
2498	 0.265030182602452 
2499	 0.264857115306062 
2500	 0.264469290761257 
