Wavelength	mm1500007.asd
350	 7.51041204826903E-02 
351	 7.35526957027591E-02 
352	 6.92144794621399E-02 
353	 6.09835445910855E-02 
354	 6.31451147256813E-02 
355	 6.32142533805605E-02 
356	 6.69178214627642E-02 
357	 0.078114711198482 
358	 0.076738066179817 
359	 6.87988214128528E-02 
360	 0.06428242283765 
361	 7.23951842561554E-02 
362	 7.22847130821832E-02 
363	 7.12712339648863E-02 
364	 7.35883573246279E-02 
365	 7.32263697863562E-02 
366	 7.15301152978833E-02 
367	 7.15962958006761E-02 
368	 7.47070432969597E-02 
369	 7.31256615047934E-02 
370	 7.41588316205439E-02 
371	 0.076636108673358 
372	 7.43334870643839E-02 
373	 7.66180963225248E-02 
374	 7.78060202286336E-02 
375	 7.59643720598809E-02 
376	 7.92089779088137E-02 
377	 7.70212571027608E-02 
378	 7.65695409012523E-02 
379	 0.084814930672987 
380	 8.55270179281474E-02 
381	 0.081262807270356 
382	 7.82998125018213E-02 
383	 8.36823935482379E-02 
384	 8.51421011278635E-02 
385	 8.50267494959218E-02 
386	 8.56932697679103E-02 
387	 8.52308437724866E-02 
388	 8.45676370177695E-02 
389	 8.48839052123899E-02 
390	 8.68668537816263E-02 
391	 8.87347497044305E-02 
392	 8.97923811562141E-02 
393	 9.07723427510657E-02 
394	 9.32710803102094E-02 
395	 9.39354817819447E-02 
396	 9.39721718682041E-02 
397	 9.50477786961544E-02 
398	 9.85935158770705E-02 
399	 9.98633131329048E-02 
400	 0.099611272315848 
401	 0.10039543618135 
402	 0.102055065699087 
403	 0.102546221450306 
404	 0.101895529910064 
405	 0.102253903826482 
406	 0.10437677165316 
407	 0.106719348391673 
408	 0.10776888314527 
409	 0.107138949804068 
410	 0.106741814075733 
411	 0.106777857038615 
412	 0.106861665595303 
413	 0.109268164946215 
414	 0.110086215603659 
415	 0.108824349260291 
416	 0.109896564538638 
417	 0.110587418031917 
418	 0.110950546149879 
419	 0.111312059613313 
420	 0.110527541848709 
421	 0.11019860144591 
422	 0.11077598104761 
423	 0.111737319398533 
424	 0.110872188408819 
425	 0.110204507100819 
426	 0.110810629174797 
427	 0.11118346172609 
428	 0.111094424201193 
429	 0.11076548851299 
430	 0.110553980991472 
431	 0.110415710850191 
432	 0.110206558591577 
433	 0.110011644192592 
434	 0.110120378075495 
435	 0.110303962859351 
436	 0.110319501996257 
437	 0.110134625149013 
438	 0.110204593542587 
439	 0.110630852367563 
440	 0.111291023343008 
441	 0.111917166613015 
442	 0.112159032397702 
443	 0.11258624681669 
444	 0.113327575746577 
445	 0.113726807170056 
446	 0.114092628009881 
447	 0.114482932640072 
448	 0.114884326372307 
449	 0.115234000113247 
450	 0.115793174273511 
451	 0.1164864511653 
452	 0.116967195310413 
453	 0.117396668088009 
454	 0.117816262100033 
455	 0.11822466478468 
456	 0.118555059677751 
457	 0.118907609938525 
458	 0.119208740868025 
459	 0.119345523835043 
460	 0.119549172064347 
461	 0.119689425163282 
462	 0.119831746526362 
463	 0.120362809004486 
464	 0.120784214055319 
465	 0.121083954404135 
466	 0.121375528142074 
467	 0.121678912049882 
468	 0.121960838153443 
469	 0.122161097684651 
470	 0.122219376756757 
471	 0.122408838397496 
472	 0.122531837425888 
473	 0.12251404352299 
474	 0.122788930893248 
475	 0.122876533675163 
476	 0.122888686828158 
477	 0.123137112000981 
478	 0.123337038279063 
479	 0.123572292664718 
480	 0.123849513316634 
481	 0.124027655196624 
482	 0.124203087704213 
483	 0.124432380677379 
484	 0.124689588382962 
485	 0.124653620259069 
486	 0.124707893009792 
487	 0.124934759434558 
488	 0.125148850118155 
489	 0.125304747197507 
490	 0.125399523329513 
491	 0.125486335183019 
492	 0.12574198588027 
493	 0.125867986918075 
494	 0.125950965765709 
495	 0.126211315432959 
496	 0.126357264117875 
497	 0.126587202067237 
498	 0.126912763288166 
499	 0.127006501278238 
500	 0.127008147649127 
501	 0.127111205610255 
502	 0.127411657534135 
503	 0.127497649704061 
504	 0.127662767351898 
505	 0.12787341773125 
506	 0.127809301028674 
507	 0.128064581247977 
508	 0.128362853517756 
509	 0.128438477896612 
510	 0.12850921147669 
511	 0.128603768198153 
512	 0.12870685076869 
513	 0.128788524331267 
514	 0.12895824127761 
515	 0.129175412955343 
516	 0.129414539803517 
517	 0.12973131857076 
518	 0.12975208885067 
519	 0.129719593663709 
520	 0.129970782316065 
521	 0.130180520895204 
522	 0.130275419988263 
523	 0.130326612160375 
524	 0.130533449948229 
525	 0.130637755894923 
526	 0.130733610745065 
527	 0.130904294813271 
528	 0.130924422766269 
529	 0.131059889168958 
530	 0.13129635152913 
531	 0.131442696956476 
532	 0.131574264959509 
533	 0.131714806166546 
534	 0.131869719086461 
535	 0.132024542944217 
536	 0.132136229404972 
537	 0.132234077713617 
538	 0.13237111588713 
539	 0.132531694331644 
540	 0.132707103963777 
541	 0.132897077327415 
542	 0.133112998874422 
543	 0.133292417284471 
544	 0.133479708817993 
545	 0.133719487402159 
546	 0.133945773169986 
547	 0.134079450946175 
548	 0.134173848583114 
549	 0.134383370229857 
550	 0.134563530375615 
551	 0.134767906748039 
552	 0.1350332723342 
553	 0.135265187470663 
554	 0.135455165988465 
555	 0.135674315066996 
556	 0.136019218442562 
557	 0.136389529223153 
558	 0.136725695223084 
559	 0.137035974808433 
560	 0.137448374767061 
561	 0.137687446159568 
562	 0.137956008110422 
563	 0.138510387034911 
564	 0.138935556371314 
565	 0.139308670171992 
566	 0.139642553016001 
567	 0.139849925401324 
568	 0.140153463817295 
569	 0.140652995453759 
570	 0.141338024012303 
571	 0.141985094160109 
572	 0.142577778872041 
573	 0.143110779869191 
574	 0.14359912789666 
575	 0.144161144952895 
576	 0.144817665050557 
577	 0.145548058460974 
578	 0.146302238470363 
579	 0.146961741547805 
580	 0.147486978968488 
581	 0.147912612162006 
582	 0.14844358740605 
583	 0.149011364154571 
584	 0.149624739577717 
585	 0.150443358271046 
586	 0.151367229185815 
587	 0.152352442927272 
588	 0.153360027804911 
589	 0.154321899705188 
590	 0.155275419912946 
591	 0.156202484779874 
592	 0.157038236122609 
593	 0.157831028637173 
594	 0.158529171474465 
595	 0.159099105161179 
596	 0.159594494769784 
597	 0.160064165565503 
598	 0.160541696541894 
599	 0.161060546777589 
600	 0.161733890039466 
601	 0.162480692148961 
602	 0.163217041933975 
603	 0.163893525022513 
604	 0.164632005868655 
605	 0.165414601760926 
606	 0.166171760014645 
607	 0.166854762385925 
608	 0.167547768533339 
609	 0.168264483575327 
610	 0.16893067941651 
611	 0.169498254743298 
612	 0.169980635467958 
613	 0.170400541147837 
614	 0.170734196154149 
615	 0.171122378047299 
616	 0.171546525484037 
617	 0.171889215849486 
618	 0.172344065615988 
619	 0.172769573397653 
620	 0.173079495779417 
621	 0.173405254821634 
622	 0.173737319527612 
623	 0.174048471556528 
624	 0.174311075999456 
625	 0.174569672045944 
626	 0.174870425903569 
627	 0.175198173976672 
628	 0.175458409322239 
629	 0.175723274833161 
630	 0.175986565297998 
631	 0.176229252429793 
632	 0.176457942322803 
633	 0.176715424487301 
634	 0.176992224618566 
635	 0.177237966848436 
636	 0.177474696019668 
637	 0.177714708046201 
638	 0.17795832888462 
639	 0.178177396993808 
640	 0.178412839974519 
641	 0.178684687859472 
642	 0.178986628242486 
643	 0.179207821927249 
644	 0.179425832102469 
645	 0.17967278141772 
646	 0.179886343098837 
647	 0.180131515495404 
648	 0.180413260126827 
649	 0.180710273894645 
650	 0.180977617568111 
651	 0.1812206892078 
652	 0.181473707271675 
653	 0.181786870441926 
654	 0.182053514500756 
655	 0.182300018393278 
656	 0.182568260983174 
657	 0.182876778369398 
658	 0.183174833017663 
659	 0.183441951119814 
660	 0.183689250033162 
661	 0.184034135774419 
662	 0.184400009620661 
663	 0.18473064424245 
664	 0.185025932366245 
665	 0.18536122765117 
666	 0.185696337580145 
667	 0.185986666426682 
668	 0.186314231844673 
669	 0.186688843399569 
670	 0.187088131014986 
671	 0.187464046071673 
672	 0.187788108587765 
673	 0.188145878730154 
674	 0.188578097329888 
675	 0.188978166857679 
676	 0.189342690222734 
677	 0.189702657699196 
678	 0.190097883205893 
679	 0.190477242972222 
680	 0.190885263419635 
681	 0.191332505960572 
682	 0.191776140851546 
683	 0.192201238352063 
684	 0.192645748898386 
685	 0.193136775624691 
686	 0.193616240392827 
687	 0.194049981403796 
688	 0.194471511004835 
689	 0.194951896701962 
690	 0.195393269380588 
691	 0.19586011193619 
692	 0.196378851433525 
693	 0.196858079435074 
694	 0.197295335088478 
695	 0.197763084879499 
696	 0.198322060095871 
697	 0.198790838301934 
698	 0.199275559647324 
699	 0.199804667911191 
700	 0.200308351902264 
701	 0.200819374739931 
702	 0.201346536346518 
703	 0.201875148248546 
704	 0.202333175397682 
705	 0.202810736235294 
706	 0.203327378774229 
707	 0.203855412818466 
708	 0.204326667612742 
709	 0.204813218701161 
710	 0.205340894980614 
711	 0.205850003357736 
712	 0.20631291399973 
713	 0.206755661720269 
714	 0.20722782363194 
715	 0.207811128032095 
716	 0.208279846368624 
717	 0.208650657329005 
718	 0.209114762677907 
719	 0.209632645671525 
720	 0.210105561545863 
721	 0.210496536490165 
722	 0.210905735285056 
723	 0.211312015725438 
724	 0.211691959541417 
725	 0.212035191944724 
726	 0.212409711440286 
727	 0.212782006043828 
728	 0.213127811207969 
729	 0.21344011511358 
730	 0.213786509085413 
731	 0.214089144669491 
732	 0.214314293611532 
733	 0.214597435201898 
734	 0.214869833053433 
735	 0.2150920465491 
736	 0.215256395229101 
737	 0.215479713095614 
738	 0.215680288544719 
739	 0.215835658737701 
740	 0.216002400712157 
741	 0.216136977065714 
742	 0.216219057677335 
743	 0.216264546358252 
744	 0.216379376286347 
745	 0.216424099667974 
746	 0.216432362399164 
747	 0.216499284743777 
748	 0.216522417017068 
749	 0.216463647263494 
750	 0.216375248500677 
751	 0.216404626095377 
752	 0.216356410346917 
753	 0.216220448829159 
754	 0.216056699709919 
755	 0.215993830812049 
756	 0.215914490687543 
757	 0.215774910923152 
758	 0.215585583082375 
759	 0.215436894944406 
760	 0.215292685393623 
761	 0.215119546391711 
762	 0.214905235179607 
763	 0.214698521904605 
764	 0.214485587737414 
765	 0.214253656210658 
766	 0.214036225386291 
767	 0.213846483845586 
768	 0.213634417285856 
769	 0.213342059080421 
770	 0.213105745925637 
771	 0.212831853746654 
772	 0.212515898350356 
773	 0.212279466427507 
774	 0.211989447702423 
775	 0.211702152138234 
776	 0.211455779863446 
777	 0.211113078771991 
778	 0.21082383454475 
779	 0.210585460786374 
780	 0.210323440053092 
781	 0.209999118667628 
782	 0.209720180145588 
783	 0.209476313251453 
784	 0.209130772078723 
785	 0.20883312888115 
786	 0.20856598464573 
787	 0.208287794279839 
788	 0.207974992161402 
789	 0.207706138642047 
790	 0.207433291692286 
791	 0.207097768838846 
792	 0.20685801890515 
793	 0.206585239032125 
794	 0.206269573281108 
795	 0.206007535419611 
796	 0.205700751882275 
797	 0.20541806093243 
798	 0.205185595603643 
799	 0.20490533525291 
800	 0.204645052555343 
801	 0.204418352887237 
802	 0.204204746663853 
803	 0.203923217471114 
804	 0.203629249886037 
805	 0.203380248823623 
806	 0.20320851487148 
807	 0.202962290625588 
808	 0.202681633534225 
809	 0.202418890722201 
810	 0.202208731124038 
811	 0.202004703121854 
812	 0.201751575719115 
813	 0.201460156658777 
814	 0.201321554213868 
815	 0.201182373407763 
816	 0.200985457834006 
817	 0.20073513146062 
818	 0.200519612304807 
819	 0.200348218849727 
820	 0.200164909248727 
821	 0.199887821590304 
822	 0.199767275416001 
823	 0.199634170614178 
824	 0.199422467259557 
825	 0.199339511870575 
826	 0.199199589091495 
827	 0.198996587515118 
828	 0.198791965247204 
829	 0.198699745862855 
830	 0.198544604089276 
831	 0.198360989583612 
832	 0.198264425681698 
833	 0.198169802958792 
834	 0.19806796066028 
835	 0.197944549785573 
836	 0.197786146971748 
837	 0.197707567973488 
838	 0.197639424520841 
839	 0.197528532894624 
840	 0.197402676426031 
841	 0.197311618291481 
842	 0.197214924808173 
843	 0.19709186504966 
844	 0.197074429618589 
845	 0.197039938465732 
846	 0.196942834243806 
847	 0.196810579329224 
848	 0.196833496684054 
849	 0.196844217122592 
850	 0.196772059945865 
851	 0.196660261475371 
852	 0.196595600616 
853	 0.196562399654824 
854	 0.196552336832126 
855	 0.196591041428459 
856	 0.196608953590124 
857	 0.196596104173439 
858	 0.196565745655801 
859	 0.196543663371061 
860	 0.196547243718669 
861	 0.196570633088281 
862	 0.19659020351756 
863	 0.19655566882747 
864	 0.19653112288395 
865	 0.196553126332356 
866	 0.196623669182835 
867	 0.196667245209595 
868	 0.196719110950803 
869	 0.196763603626816 
870	 0.196737234235996 
871	 0.196783453894021 
872	 0.196877343405574 
873	 0.196986409982395 
874	 0.197114949766167 
875	 0.197239897432775 
876	 0.197310542321151 
877	 0.197321127594939 
878	 0.1973835673826 
879	 0.197547687843797 
880	 0.197683008510028 
881	 0.197679145964166 
882	 0.197788209919403 
883	 0.197951287423572 
884	 0.198101456454908 
885	 0.198196107711242 
886	 0.198349115775988 
887	 0.198510335915823 
888	 0.198652669609854 
889	 0.198782650472745 
890	 0.198926984123678 
891	 0.199052371338538 
892	 0.199169940848469 
893	 0.199352547171703 
894	 0.199634660735791 
895	 0.199853953489621 
896	 0.199958897446292 
897	 0.200159668435917 
898	 0.200444672071918 
899	 0.200703905918224 
900	 0.200867912549971 
901	 0.201050657099111 
902	 0.201245122956169 
903	 0.201442310566579 
904	 0.201644061602545 
905	 0.201908898265885 
906	 0.202180261135358 
907	 0.202444079891148 
908	 0.202715195554865 
909	 0.203032479084071 
910	 0.203342988162273 
911	 0.203597507744978 
912	 0.203785379915418 
913	 0.204083926181918 
914	 0.204406809689339 
915	 0.204733366651963 
916	 0.205105125217026 
917	 0.205364575996127 
918	 0.205623968962814 
919	 0.205934157189474 
920	 0.206237995037446 
921	 0.206616743084263 
922	 0.206978437370389 
923	 0.207281358628697 
924	 0.207600610658198 
925	 0.207964807178419 
926	 0.208353924103613 
927	 0.208746804147242 
928	 0.20914461509544 
929	 0.209546055253749 
930	 0.20994278225933 
931	 0.210330700978222 
932	 0.210722323699633 
933	 0.211072391011504 
934	 0.211492372894573 
935	 0.212039354593068 
936	 0.212491536761968 
937	 0.212926759651897 
938	 0.213339211293696 
939	 0.213744741488022 
940	 0.214314802210795 
941	 0.214840955975709 
942	 0.215272380761167 
943	 0.215668415313633 
944	 0.21622127225575 
945	 0.2166525534431 
946	 0.217105129097328 
947	 0.217793096508366 
948	 0.218348575567043 
949	 0.218732803990922 
950	 0.219124275493377 
951	 0.219716500159502 
952	 0.220210088983637 
953	 0.220736822232571 
954	 0.221318139723476 
955	 0.221898332218972 
956	 0.222428527882727 
957	 0.223005574252772 
958	 0.223609646104809 
959	 0.22415359998258 
960	 0.22462833403813 
961	 0.225215992627119 
962	 0.22592239794015 
963	 0.226614043691017 
964	 0.227168732617803 
965	 0.227733323868938 
966	 0.228328776864208 
967	 0.228909423092355 
968	 0.229672904809688 
969	 0.230364352880332 
970	 0.230926431452595 
971	 0.231487936092972 
972	 0.232257430812816 
973	 0.232960381234689 
974	 0.233535008864965 
975	 0.234112642013915 
976	 0.234849417037641 
977	 0.235609539465579 
978	 0.236295012142912 
979	 0.23690140203969 
980	 0.237672505982245 
981	 0.238386734673778 
982	 0.239069583886082 
983	 0.239846204034772 
984	 0.240388316300097 
985	 0.241061990580499 
986	 0.241805775542684 
987	 0.242379908647965 
988	 0.243083417044736 
989	 0.243799239021681 
990	 0.244493500930759 
991	 0.245192766907637 
992	 0.245942552416664 
993	 0.246562413588628 
994	 0.24715181804013 
995	 0.247873110140624 
996	 0.248571266400148 
997	 0.249317291389288 
998	 0.250016114248564 
999	 0.250635953501866 
1000	 0.251600924265495 
1001	 0.249883175848549 
1002	 0.250567435781617 
1003	 0.251213060775662 
1004	 0.251843766540282 
1005	 0.25252399290009 
1006	 0.253124818983062 
1007	 0.25364480327921 
1008	 0.254202082033332 
1009	 0.25476305719561 
1010	 0.255347293193627 
1011	 0.256023134807737 
1012	 0.256664064898995 
1013	 0.257309514215488 
1014	 0.257945319787706 
1015	 0.258557657430742 
1016	 0.259121877529672 
1017	 0.259654534478998 
1018	 0.260147917793197 
1019	 0.260639771287774 
1020	 0.261070100549248 
1021	 0.261541415818008 
1022	 0.262066442748766 
1023	 0.262553240819181 
1024	 0.263075889280411 
1025	 0.263632129128412 
1026	 0.264172899189802 
1027	 0.264663173953702 
1028	 0.265171421699808 
1029	 0.265707891013747 
1030	 0.266180719123439 
1031	 0.266640798448796 
1032	 0.2671048768978 
1033	 0.267552609855496 
1034	 0.267946894524607 
1035	 0.268382815380106 
1036	 0.26886406224399 
1037	 0.269325521690239 
1038	 0.269827799306747 
1039	 0.270324136697478 
1040	 0.270737123992392 
1041	 0.271192068628671 
1042	 0.271659494710166 
1043	 0.272095199199287 
1044	 0.272547025801564 
1045	 0.273031597959122 
1046	 0.273516865345547 
1047	 0.273980014255875 
1048	 0.274422993598524 
1049	 0.274916723502328 
1050	 0.275408096414934 
1051	 0.275840344357834 
1052	 0.276318457718983 
1053	 0.276800923672096 
1054	 0.277240189403091 
1055	 0.27769316837162 
1056	 0.278176929659104 
1057	 0.278644697491535 
1058	 0.279100692571948 
1059	 0.279560732259225 
1060	 0.280047209707524 
1061	 0.280455480570181 
1062	 0.280869940724509 
1063	 0.281315977774835 
1064	 0.281732391247364 
1065	 0.28217122296081 
1066	 0.282610113591973 
1067	 0.283044365493897 
1068	 0.283448538838801 
1069	 0.283859504566101 
1070	 0.284276745325468 
1071	 0.284688441662786 
1072	 0.285074910473466 
1073	 0.285447591064401 
1074	 0.285851185104554 
1075	 0.286261927165849 
1076	 0.286656113527124 
1077	 0.287034015440269 
1078	 0.28736569398477 
1079	 0.287657011527235 
1080	 0.287984480162746 
1081	 0.288354689994743 
1082	 0.288770623658012 
1083	 0.289157776101479 
1084	 0.289556507384043 
1085	 0.28990718039457 
1086	 0.290215502755603 
1087	 0.29054985986187 
1088	 0.290852471001059 
1089	 0.291214495566008 
1090	 0.291605770647363 
1091	 0.29195868656634 
1092	 0.292271640627733 
1093	 0.292557145761721 
1094	 0.292836808670314 
1095	 0.293164474656171 
1096	 0.293554185782111 
1097	 0.293933030603536 
1098	 0.29426906328419 
1099	 0.294572418608818 
1100	 0.294894621424227 
1101	 0.295180469018435 
1102	 0.295499760647096 
1103	 0.295860124532961 
1104	 0.296201436453134 
1105	 0.296482962752446 
1106	 0.296784528705708 
1107	 0.297122924325893 
1108	 0.297455516670056 
1109	 0.297790340412082 
1110	 0.298142979482115 
1111	 0.298479535778391 
1112	 0.298790621590841 
1113	 0.299097183849158 
1114	 0.299415437509523 
1115	 0.299713965973413 
1116	 0.29995358914933 
1117	 0.300256234878929 
1118	 0.300584278345155 
1119	 0.300921994735251 
1120	 0.301292967682998 
1121	 0.301646462196974 
1122	 0.301972711236913 
1123	 0.302294394066604 
1124	 0.302612647845761 
1125	 0.302911121312723 
1126	 0.303221380303521 
1127	 0.303541110560223 
1128	 0.303854346860011 
1129	 0.304164109058631 
1130	 0.304476668182741 
1131	 0.304793571771012 
1132	 0.30509330048179 
1133	 0.3053659316938 
1134	 0.305674495911561 
1135	 0.306003779314343 
1136	 0.306316857324762 
1137	 0.306636131540765 
1138	 0.306948271815627 
1139	 0.307239651283613 
1140	 0.307479012446832 
1141	 0.307773454908017 
1142	 0.308104234865627 
1143	 0.308394858960102 
1144	 0.308700517065582 
1145	 0.308970252068318 
1146	 0.309183556815776 
1147	 0.309426528663705 
1148	 0.309661341157657 
1149	 0.309913115152472 
1150	 0.31017420361719 
1151	 0.310467796881173 
1152	 0.310721979744181 
1153	 0.31094648397242 
1154	 0.311199284899325 
1155	 0.311425082581343 
1156	 0.311696312803398 
1157	 0.312026377701294 
1158	 0.31230521647377 
1159	 0.312584439229846 
1160	 0.312846563068591 
1161	 0.313064831371 
1162	 0.313314660064166 
1163	 0.313584521197996 
1164	 0.313838046996955 
1165	 0.314098218098608 
1166	 0.314347457921395 
1167	 0.314582753946749 
1168	 0.314829274094331 
1169	 0.315061217347433 
1170	 0.315297426613053 
1171	 0.315511209225203 
1172	 0.315694193814562 
1173	 0.315905689179599 
1174	 0.316123685473043 
1175	 0.316336806838086 
1176	 0.316560672682385 
1177	 0.316779119754929 
1178	 0.316989866859029 
1179	 0.317199776822008 
1180	 0.317414674108278 
1181	 0.317626048913633 
1182	 0.317837242901496 
1183	 0.318032392661909 
1184	 0.31823455249778 
1185	 0.318443917613594 
1186	 0.318637130014574 
1187	 0.31881570739489 
1188	 0.319006661324854 
1189	 0.319194369087401 
1190	 0.319385648282739 
1191	 0.319589222633236 
1192	 0.319783424508191 
1193	 0.319971326074524 
1194	 0.320159746148094 
1195	 0.320351891737564 
1196	 0.320534522006795 
1197	 0.32070153750245 
1198	 0.320882293235788 
1199	 0.321066174864882 
1200	 0.32124897590807 
1201	 0.321432666232561 
1202	 0.321629012548315 
1203	 0.321812623854619 
1204	 0.321990648518724 
1205	 0.322162801043781 
1206	 0.322330583432993 
1207	 0.322497494270129 
1208	 0.322657389748161 
1209	 0.322817139727931 
1210	 0.322991638395919 
1211	 0.323138588440368 
1212	 0.323244820909892 
1213	 0.323386934805799 
1214	 0.323546832802911 
1215	 0.323686992151851 
1216	 0.32382748818403 
1217	 0.323987631573576 
1218	 0.324132941902279 
1219	 0.324249726191595 
1220	 0.32439084302151 
1221	 0.324560572965827 
1222	 0.324699581902815 
1223	 0.324830516458192 
1224	 0.324951389799441 
1225	 0.325042708719258 
1226	 0.325161624633669 
1227	 0.325287296048308 
1228	 0.325412180260235 
1229	 0.325560300220489 
1230	 0.325691327131121 
1231	 0.325811798435176 
1232	 0.325927929301612 
1233	 0.326038861059817 
1234	 0.326138653504784 
1235	 0.326254766841485 
1236	 0.326373059240418 
1237	 0.326490191616265 
1238	 0.326623630215204 
1239	 0.326734125029883 
1240	 0.326829007229185 
1241	 0.326929844908444 
1242	 0.327029984958556 
1243	 0.327119269472391 
1244	 0.327192741720919 
1245	 0.327284531569937 
1246	 0.327375740244415 
1247	 0.327470485932674 
1248	 0.327582009636585 
1249	 0.327689824955551 
1250	 0.327798494917134 
1251	 0.327910497261648 
1252	 0.328011643307982 
1253	 0.328120475477129 
1254	 0.328210257152971 
1255	 0.328282704805855 
1256	 0.328354253017271 
1257	 0.328421325664344 
1258	 0.328480843235333 
1259	 0.328516412612922 
1260	 0.328578122981996 
1261	 0.328649435207833 
1262	 0.328717050826464 
1263	 0.328805481265047 
1264	 0.328878697448309 
1265	 0.328929681877332 
1266	 0.328997478676469 
1267	 0.329076715977136 
1268	 0.329146119466348 
1269	 0.329216483386604 
1270	 0.32928896666498 
1271	 0.329368607214493 
1272	 0.329441142952373 
1273	 0.329529866821163 
1274	 0.329631818066557 
1275	 0.329738092058218 
1276	 0.329838192762647 
1277	 0.329968574327961 
1278	 0.330118159585836 
1279	 0.330280578402314 
1280	 0.330497352843709 
1281	 0.330662422522083 
1282	 0.330804551635238 
1283	 0.330956821106254 
1284	 0.331085895038899 
1285	 0.331216618429899 
1286	 0.331376845883666 
1287	 0.331527734247208 
1288	 0.331666411716736 
1289	 0.331792631580434 
1290	 0.331917610266626 
1291	 0.332043842955955 
1292	 0.332149901843955 
1293	 0.332250707872157 
1294	 0.332332282582559 
1295	 0.332393113984722 
1296	 0.332446590394104 
1297	 0.332476270401227 
1298	 0.332516496691744 
1299	 0.332552202470697 
1300	 0.332586586422457 
1301	 0.332624136283513 
1302	 0.332658117225489 
1303	 0.332695411855479 
1304	 0.332721501164088 
1305	 0.332715647961253 
1306	 0.332704402445942 
1307	 0.332693395756978 
1308	 0.332654194427954 
1309	 0.332622853064479 
1310	 0.332600890026143 
1311	 0.332567318967592 
1312	 0.332514859276352 
1313	 0.33247832881457 
1314	 0.332453902248363 
1315	 0.332414197481169 
1316	 0.332377472238255 
1317	 0.332322233809653 
1318	 0.332232206857046 
1319	 0.332182462561412 
1320	 0.332144145290762 
1321	 0.332104472015016 
1322	 0.332096813345519 
1323	 0.33206917984315 
1324	 0.332002328744498 
1325	 0.331949026487498 
1326	 0.33191074555516 
1327	 0.331861327824224 
1328	 0.331824854527168 
1329	 0.331795009172459 
1330	 0.331746401959979 
1331	 0.331687048974284 
1332	 0.331618417554703 
1333	 0.33153963186253 
1334	 0.331456311449509 
1335	 0.33134462365288 
1336	 0.331270337039103 
1337	 0.331202656067542 
1338	 0.331150650326758 
1339	 0.331138430370352 
1340	 0.331098025067101 
1341	 0.331059488075063 
1342	 0.331010019890161 
1343	 0.330943037790665 
1344	 0.330870218107369 
1345	 0.330830803817088 
1346	 0.330787604718788 
1347	 0.330725153324425 
1348	 0.330667894568145 
1349	 0.330568197777991 
1350	 0.330457321008046 
1351	 0.330386924952147 
1352	 0.330341410638361 
1353	 0.330277744101084 
1354	 0.330237126807134 
1355	 0.33016767487613 
1356	 0.330063525747458 
1357	 0.329990211904847 
1358	 0.329929145898297 
1359	 0.329860095548779 
1360	 0.329795290787147 
1361	 0.32973213511644 
1362	 0.329669381769711 
1363	 0.329597206438138 
1364	 0.329516869096745 
1365	 0.32945314370933 
1366	 0.3293879379596 
1367	 0.32932375163209 
1368	 0.329289214310675 
1369	 0.329260185204851 
1370	 0.329201717175178 
1371	 0.329128308392401 
1372	 0.329025013413218 
1373	 0.328912703652671 
1374	 0.328792313580276 
1375	 0.328670808024696 
1376	 0.328505274380278 
1377	 0.32832973602654 
1378	 0.328101768437566 
1379	 0.327809524672095 
1380	 0.327546257684993 
1381	 0.327277223855196 
1382	 0.326980331771231 
1383	 0.326704239956276 
1384	 0.326356343607147 
1385	 0.325953400275208 
1386	 0.325535112398819 
1387	 0.325094003730701 
1388	 0.324608676915961 
1389	 0.324101764634172 
1390	 0.323543214195227 
1391	 0.322935564655209 
1392	 0.322282358064855 
1393	 0.321589447118834 
1394	 0.320872664340492 
1395	 0.320100384536494 
1396	 0.319317753417651 
1397	 0.318544142202816 
1398	 0.317744681209875 
1399	 0.316967989406115 
1400	 0.316200468154181 
1401	 0.315447321474953 
1402	 0.314684144496005 
1403	 0.313972474569483 
1404	 0.313274799710904 
1405	 0.312630502259005 
1406	 0.312039696928603 
1407	 0.311457991573148 
1408	 0.310882051085246 
1409	 0.310381899493169 
1410	 0.309892347613112 
1411	 0.309495667200254 
1412	 0.30916458114625 
1413	 0.308924242835181 
1414	 0.30876180363044 
1415	 0.308661004033994 
1416	 0.308661395457211 
1417	 0.308726778982726 
1418	 0.308802899572017 
1419	 0.308890856277998 
1420	 0.30899637497435 
1421	 0.309080211914419 
1422	 0.309162785760603 
1423	 0.309257097714073 
1424	 0.309290646477532 
1425	 0.30927387060341 
1426	 0.309272211522919 
1427	 0.309235796139456 
1428	 0.309211855393302 
1429	 0.309187680438389 
1430	 0.309171558805068 
1431	 0.309160598830621 
1432	 0.309142159593884 
1433	 0.309131077888616 
1434	 0.309115771709846 
1435	 0.309077976127269 
1436	 0.309061422832036 
1437	 0.309057385122984 
1438	 0.309054227330961 
1439	 0.309060606726123 
1440	 0.309068785969941 
1441	 0.309064052316194 
1442	 0.309066596223976 
1443	 0.309074434997942 
1444	 0.309082102377841 
1445	 0.309108075561096 
1446	 0.309135559562782 
1447	 0.309158731041641 
1448	 0.309188938112409 
1449	 0.309192879026878 
1450	 0.309195416809821 
1451	 0.309219225647642 
1452	 0.309242274102284 
1453	 0.309275018116155 
1454	 0.309336399523987 
1455	 0.309377920251997 
1456	 0.309407215167295 
1457	 0.309443867444563 
1458	 0.309480255887077 
1459	 0.309523638754222 
1460	 0.309560036587068 
1461	 0.30962129528374 
1462	 0.309699452654359 
1463	 0.309781367220765 
1464	 0.30987661183871 
1465	 0.309979217420586 
1466	 0.310087859526921 
1467	 0.310203567179199 
1468	 0.310317305772912 
1469	 0.310460243480591 
1470	 0.310619251831838 
1471	 0.310787203970821 
1472	 0.310994564165818 
1473	 0.311226071719362 
1474	 0.311434801223479 
1475	 0.311645147762486 
1476	 0.311853338268238 
1477	 0.312044691040983 
1478	 0.31224717456858 
1479	 0.312468291177666 
1480	 0.312682492199841 
1481	 0.312897624974912 
1482	 0.313110385873497 
1483	 0.313325574780427 
1484	 0.313533203808694 
1485	 0.313725599824445 
1486	 0.313942711301479 
1487	 0.314168611014979 
1488	 0.314396281478877 
1489	 0.314648765615305 
1490	 0.314879226430394 
1491	 0.315097373338685 
1492	 0.315316543117217 
1493	 0.315531069849834 
1494	 0.315741548252874 
1495	 0.315953138480792 
1496	 0.316152237541255 
1497	 0.316339557489424 
1498	 0.316529517488816 
1499	 0.316721315077123 
1500	 0.316901228617351 
1501	 0.317065407929606 
1502	 0.317239080814938 
1503	 0.317409169301971 
1504	 0.317575916983651 
1505	 0.317747274463283 
1506	 0.317942428937154 
1507	 0.318118927196332 
1508	 0.31827151354644 
1509	 0.318430044741173 
1510	 0.318577227285277 
1511	 0.318714050766421 
1512	 0.318862466735841 
1513	 0.31902179398296 
1514	 0.319177168913331 
1515	 0.319337277952899 
1516	 0.319505626966042 
1517	 0.319660744549693 
1518	 0.319804196407229 
1519	 0.319957781733763 
1520	 0.320110750846957 
1521	 0.320267033001492 
1522	 0.320433795711044 
1523	 0.320584717662813 
1524	 0.320728459967161 
1525	 0.320873871977193 
1526	 0.321015316117993 
1527	 0.321152448689975 
1528	 0.321289688795668 
1529	 0.321418567739051 
1530	 0.321538486929655 
1531	 0.321659903617918 
1532	 0.321772999612265 
1533	 0.321891837010098 
1534	 0.322016380868256 
1535	 0.322133251309873 
1536	 0.32225392154011 
1537	 0.322368427592859 
1538	 0.32246716259014 
1539	 0.322573289216468 
1540	 0.322678883943609 
1541	 0.322787233780555 
1542	 0.32290110859037 
1543	 0.323016064742989 
1544	 0.323141725469836 
1545	 0.323253669044644 
1546	 0.323371336637112 
1547	 0.323463282184154 
1548	 0.323536177105722 
1549	 0.323595571417022 
1550	 0.323649269662096 
1551	 0.323722986857868 
1552	 0.323821671376058 
1553	 0.323937466730802 
1554	 0.324062959957811 
1555	 0.324165213374676 
1556	 0.324240244635098 
1557	 0.324309543577722 
1558	 0.324377856307718 
1559	 0.324448280544018 
1560	 0.32451660994126 
1561	 0.324585369277139 
1562	 0.324659849149375 
1563	 0.324732766281477 
1564	 0.324812655343089 
1565	 0.324906227327934 
1566	 0.324989532640271 
1567	 0.325075406309638 
1568	 0.325139617083687 
1569	 0.325189616821475 
1570	 0.325249487479867 
1571	 0.325295164014985 
1572	 0.325352047962419 
1573	 0.325427224916787 
1574	 0.325485847769418 
1575	 0.325531889404305 
1576	 0.325587682034396 
1577	 0.325647803913208 
1578	 0.32569570568243 
1579	 0.325734536197237 
1580	 0.325790418013668 
1581	 0.325835443113442 
1582	 0.325906465914382 
1583	 0.326016548038102 
1584	 0.326095081764548 
1585	 0.326174424744733 
1586	 0.326242814786116 
1587	 0.32629455704877 
1588	 0.3263455180688 
1589	 0.326392518173475 
1590	 0.326435340069025 
1591	 0.326459828526786 
1592	 0.326502852597224 
1593	 0.326546247775146 
1594	 0.326601008095018 
1595	 0.326683256255926 
1596	 0.326745367962588 
1597	 0.326813272189669 
1598	 0.326864684504111 
1599	 0.32689573299398 
1600	 0.326926131047172 
1601	 0.326944159819865 
1602	 0.326967653550317 
1603	 0.326973288171196 
1604	 0.327004806636196 
1605	 0.327058199037744 
1606	 0.327106467904498 
1607	 0.327162293482127 
1608	 0.327234616005449 
1609	 0.327305999537006 
1610	 0.327356465208164 
1611	 0.327403988831552 
1612	 0.327442316134875 
1613	 0.327441339113394 
1614	 0.327431256039878 
1615	 0.327418284127315 
1616	 0.327426723727896 
1617	 0.327458150379201 
1618	 0.32749278416493 
1619	 0.327556002234141 
1620	 0.327602327866532 
1621	 0.327631538724688 
1622	 0.327648782479516 
1623	 0.327678073861499 
1624	 0.327698479730575 
1625	 0.327710935696502 
1626	 0.327729112279272 
1627	 0.327740951769347 
1628	 0.327723886650264 
1629	 0.327750520714704 
1630	 0.327806275132861 
1631	 0.327848115153362 
1632	 0.327897001533235 
1633	 0.327946073694585 
1634	 0.327994887380316 
1635	 0.32803977073293 
1636	 0.328100790679766 
1637	 0.328125700310792 
1638	 0.328121946901155 
1639	 0.32813957156894 
1640	 0.328138134863083 
1641	 0.328168797848115 
1642	 0.328229594811027 
1643	 0.328270169334596 
1644	 0.328313658373255 
1645	 0.328355998358571 
1646	 0.328401490079529 
1647	 0.328425534069452 
1648	 0.328442736237244 
1649	 0.328455921288451 
1650	 0.32844064926793 
1651	 0.328452377002728 
1652	 0.328484251886764 
1653	 0.328497656478484 
1654	 0.328510782455605 
1655	 0.328519399904084 
1656	 0.328520115330354 
1657	 0.3285171055795 
1658	 0.32850176050542 
1659	 0.328510202116069 
1660	 0.328533466374241 
1661	 0.328533433332131 
1662	 0.328541414564286 
1663	 0.32853821379665 
1664	 0.32849561363717 
1665	 0.328493559869198 
1666	 0.328523008654247 
1667	 0.328529900794006 
1668	 0.328542720597917 
1669	 0.328544223260078 
1670	 0.328522524085086 
1671	 0.328524210586868 
1672	 0.328540517886633 
1673	 0.328542400779942 
1674	 0.328536615686579 
1675	 0.32855262813713 
1676	 0.328566859742975 
1677	 0.328593653705037 
1678	 0.328659543230879 
1679	 0.328687636540051 
1680	 0.328697217394538 
1681	 0.328711209273492 
1682	 0.328702755970135 
1683	 0.328721524539952 
1684	 0.328750594374757 
1685	 0.328789859759266 
1686	 0.328865846427375 
1687	 0.328894514206366 
1688	 0.328905066456403 
1689	 0.328917932058873 
1690	 0.328901830165091 
1691	 0.32890310127526 
1692	 0.328909256091686 
1693	 0.328930166767782 
1694	 0.328950036620498 
1695	 0.328988172684988 
1696	 0.32907023412118 
1697	 0.329106046482178 
1698	 0.329137875494344 
1699	 0.32914043673894 
1700	 0.329106469022189 
1701	 0.329081133969521 
1702	 0.329031179694343 
1703	 0.329006441469572 
1704	 0.328987910203776 
1705	 0.328971508269839 
1706	 0.328972955992295 
1707	 0.328962239867827 
1708	 0.328956442637533 
1709	 0.328927143464215 
1710	 0.328882715997241 
1711	 0.328841122143241 
1712	 0.328768695848899 
1713	 0.328736941773345 
1714	 0.328727961517577 
1715	 0.328710890575118 
1716	 0.328706755520056 
1717	 0.328706239155469 
1718	 0.32870554402858 
1719	 0.328710937158826 
1720	 0.328742999699808 
1721	 0.328735341581672 
1722	 0.328704921811912 
1723	 0.32868371705448 
1724	 0.328644460267058 
1725	 0.328615758928583 
1726	 0.328610591265653 
1727	 0.328562117836103 
1728	 0.328486850529607 
1729	 0.328427330807561 
1730	 0.328349991944951 
1731	 0.328287045947109 
1732	 0.32823711868905 
1733	 0.328184097695262 
1734	 0.328132016159175 
1735	 0.328066114183001 
1736	 0.328001079623117 
1737	 0.327939464132727 
1738	 0.327870548584814 
1739	 0.327793908827238 
1740	 0.327718188356715 
1741	 0.327640017965633 
1742	 0.327541689561819 
1743	 0.327468037667295 
1744	 0.327416594907079 
1745	 0.327345713418504 
1746	 0.327275502288829 
1747	 0.327180735385686 
1748	 0.327099657192492 
1749	 0.327019640071105 
1750	 0.326926878254734 
1751	 0.326870294054891 
1752	 0.326799975380322 
1753	 0.326715447696962 
1754	 0.326645260131467 
1755	 0.326568265993489 
1756	 0.326476253571077 
1757	 0.326351829900855 
1758	 0.326248595058362 
1759	 0.32616123498587 
1760	 0.326078490567248 
1761	 0.326052498762683 
1762	 0.326026712370036 
1763	 0.325986923131165 
1764	 0.325923908835329 
1765	 0.325835165757882 
1766	 0.325717302539895 
1767	 0.325560862902169 
1768	 0.32546704505836 
1769	 0.325393430554472 
1770	 0.325324536517566 
1771	 0.325310107207417 
1772	 0.325260833492039 
1773	 0.325192565108104 
1774	 0.325171926966753 
1775	 0.325157962612431 
1776	 0.325117212493192 
1777	 0.325099012176535 
1778	 0.325066308269585 
1779	 0.324989861315389 
1780	 0.324915818308255 
1781	 0.324821310166001 
1782	 0.324758528083359 
1783	 0.324727962665054 
1784	 0.324706610432859 
1785	 0.324731519495471 
1786	 0.32471712009157 
1787	 0.324686740168065 
1788	 0.324662814547782 
1789	 0.324643005563697 
1790	 0.324600092993373 
1791	 0.324523656132337 
1792	 0.324485506092837 
1793	 0.324427478608006 
1794	 0.324428261036887 
1795	 0.324505144712001 
1796	 0.324544607637849 
1797	 0.3246087599548 
1798	 0.324625435306864 
1799	 0.324590820390595 
1800	 0.324603063224162 
1801	 0.323698226950164 
1802	 0.323868847534265 
1803	 0.324075771891524 
1804	 0.324285668434241 
1805	 0.324501121653117 
1806	 0.324730380950105 
1807	 0.324947684173195 
1808	 0.325140312967912 
1809	 0.325348220785145 
1810	 0.325487571131933 
1811	 0.32556960446913 
1812	 0.325673363572101 
1813	 0.325750385724963 
1814	 0.325764310428984 
1815	 0.325776001385062 
1816	 0.325760515103143 
1817	 0.325735904255113 
1818	 0.325657814014887 
1819	 0.325634850393368 
1820	 0.325625448338045 
1821	 0.325619953976046 
1822	 0.325653299670411 
1823	 0.325657869046162 
1824	 0.325685697165123 
1825	 0.325722811332506 
1826	 0.325737053219482 
1827	 0.325763314016854 
1828	 0.325743637741424 
1829	 0.325684921422084 
1830	 0.325631073762526 
1831	 0.325545882041752 
1832	 0.325467545934788 
1833	 0.325422510875265 
1834	 0.325369536434707 
1835	 0.325303467459999 
1836	 0.325231266962982 
1837	 0.325171609776609 
1838	 0.325130785210891 
1839	 0.325075081381415 
1840	 0.325036327535554 
1841	 0.324972916056389 
1842	 0.324870272971251 
1843	 0.32476370683145 
1844	 0.324676098507583 
1845	 0.324594132359542 
1846	 0.324499083923238 
1847	 0.324433179914482 
1848	 0.32436321466963 
1849	 0.324265063615576 
1850	 0.324193727671401 
1851	 0.324158812424523 
1852	 0.324099534417263 
1853	 0.32401190310766 
1854	 0.323922834642098 
1855	 0.323789604878533 
1856	 0.323601892983428 
1857	 0.323398543877646 
1858	 0.323199446981974 
1859	 0.322962571480626 
1860	 0.322677044356856 
1861	 0.322362213879201 
1862	 0.321999110212268 
1863	 0.32158428021041 
1864	 0.321152992020623 
1865	 0.320722606630014 
1866	 0.320260575525977 
1867	 0.319762938645819 
1868	 0.319222293457768 
1869	 0.318614121561832 
1870	 0.317962946358506 
1871	 0.317253619275483 
1872	 0.316488318273767 
1873	 0.31567704254852 
1874	 0.314833215150885 
1875	 0.313912551891854 
1876	 0.312946553986194 
1877	 0.311926354179931 
1878	 0.310770812832343 
1879	 0.309541117860417 
1880	 0.308226909705343 
1881	 0.306803423934265 
1882	 0.305305873406919 
1883	 0.303749858514503 
1884	 0.302065705991029 
1885	 0.300289306002957 
1886	 0.298420704573803 
1887	 0.296419828569457 
1888	 0.294360355357631 
1889	 0.292198544093216 
1890	 0.289980856869379 
1891	 0.287796356658247 
1892	 0.285555140782711 
1893	 0.283354780591131 
1894	 0.281167129261659 
1895	 0.279018623088633 
1896	 0.276845488177878 
1897	 0.274758663410073 
1898	 0.272732890079267 
1899	 0.2707845195438 
1900	 0.268954743702353 
1901	 0.267209763035602 
1902	 0.265578786363472 
1903	 0.264085962334675 
1904	 0.26265468932365 
1905	 0.261307418337208 
1906	 0.260068862676352 
1907	 0.258906059425861 
1908	 0.257815270115485 
1909	 0.256826033883077 
1910	 0.255911908835354 
1911	 0.25508608526358 
1912	 0.254325562580657 
1913	 0.253606329454336 
1914	 0.252957580485882 
1915	 0.252339480169751 
1916	 0.251762678952612 
1917	 0.251218636940211 
1918	 0.250744390177921 
1919	 0.250306043521945 
1920	 0.249920591427127 
1921	 0.249597676956254 
1922	 0.249316776173571 
1923	 0.249078909728197 
1924	 0.248870591399717 
1925	 0.248701119014978 
1926	 0.248574029461999 
1927	 0.248481260266638 
1928	 0.248423121952072 
1929	 0.248411148469887 
1930	 0.248425763689175 
1931	 0.248489510678444 
1932	 0.248583030227991 
1933	 0.248689139894887 
1934	 0.248833687100734 
1935	 0.248998623064441 
1936	 0.249164489184851 
1937	 0.249378598443639 
1938	 0.249659569618098 
1939	 0.249929140269344 
1940	 0.250220231817818 
1941	 0.250504031710343 
1942	 0.250820563814062 
1943	 0.251130521747607 
1944	 0.251468613594648 
1945	 0.251859240917132 
1946	 0.252236616181201 
1947	 0.252627820800855 
1948	 0.253016182816427 
1949	 0.253396982192873 
1950	 0.253801751603285 
1951	 0.254213717390365 
1952	 0.254646673302644 
1953	 0.2550865915426 
1954	 0.255545708267955 
1955	 0.256036115268155 
1956	 0.256532448709544 
1957	 0.25704548755518 
1958	 0.257600279998831 
1959	 0.258134126366164 
1960	 0.258666984853584 
1961	 0.259199196617297 
1962	 0.259729257137818 
1963	 0.260263978785906 
1964	 0.260785658001289 
1965	 0.261332629973609 
1966	 0.261910600245204 
1967	 0.262493459725815 
1968	 0.263073726759079 
1969	 0.263675921754397 
1970	 0.264262810962059 
1971	 0.264838246478121 
1972	 0.26542103721988 
1973	 0.266016713944173 
1974	 0.26659429731074 
1975	 0.267172325408915 
1976	 0.267727496987148 
1977	 0.268278743610342 
1978	 0.268824789142793 
1979	 0.269355796140179 
1980	 0.269893013167533 
1981	 0.270429517684752 
1982	 0.270948230601877 
1983	 0.271496069598606 
1984	 0.272057023858713 
1985	 0.272625383129129 
1986	 0.273216172517036 
1987	 0.273800689122893 
1988	 0.274393059568865 
1989	 0.274986407614734 
1990	 0.2755595383118 
1991	 0.276126068117141 
1992	 0.276687586036818 
1993	 0.277235223066284 
1994	 0.277779575599445 
1995	 0.278318889920426 
1996	 0.2788579091482 
1997	 0.279386651256356 
1998	 0.279925389074876 
1999	 0.280470425864567 
2000	 0.281011691077125 
2001	 0.281568475156071 
2002	 0.282100132448247 
2003	 0.282605266701048 
2004	 0.283116227231139 
2005	 0.283619246112052 
2006	 0.284104175461594 
2007	 0.284592984797371 
2008	 0.285076133373481 
2009	 0.285568894390853 
2010	 0.286071415269977 
2011	 0.28655397877662 
2012	 0.287044947406479 
2013	 0.287517804507335 
2014	 0.287969600372903 
2015	 0.288400793256949 
2016	 0.288836222745589 
2017	 0.289311124965369 
2018	 0.28977335525496 
2019	 0.290246885474066 
2020	 0.290711418023266 
2021	 0.291183379885469 
2022	 0.291629852061739 
2023	 0.292051337813551 
2024	 0.292493450983098 
2025	 0.292933233669945 
2026	 0.293372806355459 
2027	 0.293824826719316 
2028	 0.294270503006419 
2029	 0.29472473866632 
2030	 0.295180662746387 
2031	 0.295620664226777 
2032	 0.296072464241609 
2033	 0.296500184843247 
2034	 0.296901133934172 
2035	 0.297299599054367 
2036	 0.297701344856284 
2037	 0.298082256157309 
2038	 0.298444969175376 
2039	 0.298795548876027 
2040	 0.299137477802046 
2041	 0.299451361336601 
2042	 0.299758774991658 
2043	 0.300072342307571 
2044	 0.300402652006757 
2045	 0.300747557718168 
2046	 0.301083719661979 
2047	 0.301440195113521 
2048	 0.301771699130578 
2049	 0.302095049268679 
2050	 0.302396728556463 
2051	 0.302679218225568 
2052	 0.302958516636112 
2053	 0.303205458017355 
2054	 0.303474469294064 
2055	 0.303763376997458 
2056	 0.304029020928716 
2057	 0.304300798091952 
2058	 0.304583464126439 
2059	 0.304847675357971 
2060	 0.30509453702615 
2061	 0.305350995472015 
2062	 0.305599598005594 
2063	 0.305860804316554 
2064	 0.306126874660096 
2065	 0.306397557857821 
2066	 0.306687529186647 
2067	 0.306958748605595 
2068	 0.307215736766205 
2069	 0.30749140451764 
2070	 0.307747592504181 
2071	 0.3079841710657 
2072	 0.308242677275489 
2073	 0.308515291271915 
2074	 0.308763101362467 
2075	 0.309016866897308 
2076	 0.309248342140441 
2077	 0.309444521202991 
2078	 0.309657918112935 
2079	 0.309855145846573 
2080	 0.3100793274237 
2081	 0.310322210361737 
2082	 0.310564188279568 
2083	 0.310822886605597 
2084	 0.311077988196929 
2085	 0.311342544252893 
2086	 0.311614240029989 
2087	 0.311871982096035 
2088	 0.312149146173041 
2089	 0.312385079051179 
2090	 0.312580374468664 
2091	 0.31279809404884 
2092	 0.313008950093309 
2093	 0.313216808310896 
2094	 0.313442363900476 
2095	 0.313642929729859 
2096	 0.313823789310808 
2097	 0.314000283375471 
2098	 0.314151766019198 
2099	 0.314307345036326 
2100	 0.314501073863822 
2101	 0.314704717400511 
2102	 0.314923592931106 
2103	 0.315186765009493 
2104	 0.315422888624926 
2105	 0.315646950812198 
2106	 0.315883195978687 
2107	 0.316135984685425 
2108	 0.316369424544526 
2109	 0.316592684960374 
2110	 0.316825082891005 
2111	 0.317034021279783 
2112	 0.3172708660154 
2113	 0.317532595838542 
2114	 0.317803477113382 
2115	 0.318051077780292 
2116	 0.318302790544909 
2117	 0.318546243428685 
2118	 0.318766692704204 
2119	 0.319004058281653 
2120	 0.319261776944711 
2121	 0.31949370731726 
2122	 0.319722547625636 
2123	 0.319931198318009 
2124	 0.320122230734067 
2125	 0.320304761061166 
2126	 0.320475102617922 
2127	 0.320632864698249 
2128	 0.320784584690986 
2129	 0.320914814256646 
2130	 0.32100786222702 
2131	 0.321120253412579 
2132	 0.321214651369748 
2133	 0.321296283798618 
2134	 0.321368556416808 
2135	 0.321451722473944 
2136	 0.321483163085421 
2137	 0.32148365340618 
2138	 0.321470663085637 
2139	 0.321413750597367 
2140	 0.321367879352237 
2141	 0.321308192624409 
2142	 0.321253618010281 
2143	 0.321219520558113 
2144	 0.32114624653192 
2145	 0.321053110077279 
2146	 0.320953589200332 
2147	 0.320832338942973 
2148	 0.320684277050982 
2149	 0.320551035733117 
2150	 0.320415678626557 
2151	 0.320290523350942 
2152	 0.320178343905716 
2153	 0.32003562209225 
2154	 0.319904775466257 
2155	 0.319730790229052 
2156	 0.319526185986126 
2157	 0.319299644614773 
2158	 0.319052420441896 
2159	 0.31877856473064 
2160	 0.318461236906474 
2161	 0.318145699015158 
2162	 0.317783378163518 
2163	 0.317460577028342 
2164	 0.317145074995182 
2165	 0.31684879717289 
2166	 0.316557409144832 
2167	 0.316303158454687 
2168	 0.316003967832996 
2169	 0.315700222048465 
2170	 0.31536724234598 
2171	 0.315004231911769 
2172	 0.314648803216237 
2173	 0.314271851366296 
2174	 0.313904501395453 
2175	 0.313539596694281 
2176	 0.313170378658132 
2177	 0.31282515690637 
2178	 0.312430639689846 
2179	 0.312015473109666 
2180	 0.311582791133643 
2181	 0.311115947383478 
2182	 0.310629780682257 
2183	 0.310096848692957 
2184	 0.309590520265541 
2185	 0.309105423193347 
2186	 0.30860237175307 
2187	 0.308141089759103 
2188	 0.307737832041804 
2189	 0.307302926627974 
2190	 0.30685279918264 
2191	 0.306432811220299 
2192	 0.306002142902426 
2193	 0.305630105225343 
2194	 0.305293822231707 
2195	 0.304978210212596 
2196	 0.304708855019187 
2197	 0.30444886840535 
2198	 0.304191475213543 
2199	 0.303980240501651 
2200	 0.303801782131119 
2201	 0.303654970221926 
2202	 0.303544895666357 
2203	 0.303461061175334 
2204	 0.303423473019179 
2205	 0.303416119728142 
2206	 0.303455562453196 
2207	 0.303546719684213 
2208	 0.303665637888507 
2209	 0.303822107128519 
2210	 0.30401535618769 
2211	 0.304264434572765 
2212	 0.304505595073975 
2213	 0.304777708753795 
2214	 0.305054830959793 
2215	 0.30537044776561 
2216	 0.305634586272038 
2217	 0.305907872782562 
2218	 0.30613896531906 
2219	 0.306302042173881 
2220	 0.306482427345644 
2221	 0.306665135932512 
2222	 0.306824110283645 
2223	 0.306955853451048 
2224	 0.307106778607161 
2225	 0.307234335389434 
2226	 0.307357921207015 
2227	 0.307420139300529 
2228	 0.307457234404865 
2229	 0.307468639342541 
2230	 0.307401666920762 
2231	 0.307392202075811 
2232	 0.307391340612596 
2233	 0.307399862717205 
2234	 0.307427368481749 
2235	 0.307442718662689 
2236	 0.307483288427416 
2237	 0.307474517589719 
2238	 0.307436333529529 
2239	 0.307396009450263 
2240	 0.307313845091569 
2241	 0.307253259633376 
2242	 0.307216710852034 
2243	 0.307151721022119 
2244	 0.307071787704932 
2245	 0.306990594267866 
2246	 0.306909675911831 
2247	 0.306797993266147 
2248	 0.30671227594012 
2249	 0.306643735233 
2250	 0.306566976973533 
2251	 0.306494163596548 
2252	 0.30640564375928 
2253	 0.306299897249152 
2254	 0.306215431786346 
2255	 0.306120945483321 
2256	 0.306056212545644 
2257	 0.30601036763939 
2258	 0.305986114239173 
2259	 0.305992196153547 
2260	 0.305981459885218 
2261	 0.30598939073448 
2262	 0.305991029375816 
2263	 0.305985951791568 
2264	 0.305974921883903 
2265	 0.305945982660226 
2266	 0.305950276444405 
2267	 0.305956399337782 
2268	 0.305975735771644 
2269	 0.306034962102415 
2270	 0.306096713950657 
2271	 0.306130884039469 
2272	 0.306140912859928 
2273	 0.306143148734243 
2274	 0.306138844760918 
2275	 0.306142803915127 
2276	 0.30614178159406 
2277	 0.306158121814413 
2278	 0.306184384299448 
2279	 0.306211817986714 
2280	 0.306255009656598 
2281	 0.306281691379835 
2282	 0.306309556059243 
2283	 0.306322805227701 
2284	 0.306319370517715 
2285	 0.306325394575028 
2286	 0.30632712704144 
2287	 0.30631914112557 
2288	 0.306286792152011 
2289	 0.306302518421225 
2290	 0.306364677701569 
2291	 0.306380764189546 
2292	 0.306411144638346 
2293	 0.306420639405895 
2294	 0.306364799098381 
2295	 0.306336364207583 
2296	 0.306324817304622 
2297	 0.306321941324475 
2298	 0.306312984254709 
2299	 0.306282826380414 
2300	 0.306294234917984 
2301	 0.306291226324815 
2302	 0.30621051742592 
2303	 0.306171088472097 
2304	 0.306104242856334 
2305	 0.305968040391805 
2306	 0.305861717164768 
2307	 0.305769815265357 
2308	 0.305656175756347 
2309	 0.305507038424413 
2310	 0.30541060022253 
2311	 0.305346012379754 
2312	 0.30523213969692 
2313	 0.305110276008703 
2314	 0.30503468205531 
2315	 0.304953943153206 
2316	 0.304863950384726 
2317	 0.304835334659187 
2318	 0.304725901538897 
2319	 0.304519436564376 
2320	 0.304392786408617 
2321	 0.304283444575217 
2322	 0.304174137145253 
2323	 0.304112090395334 
2324	 0.304017476311745 
2325	 0.303891815849282 
2326	 0.303792764036032 
2327	 0.30371117807484 
2328	 0.303596687041272 
2329	 0.303502134944623 
2330	 0.303407757362046 
2331	 0.303296680111531 
2332	 0.303198308796894 
2333	 0.303115825674856 
2334	 0.303040875688479 
2335	 0.302952163544343 
2336	 0.302845070125884 
2337	 0.302752081012294 
2338	 0.302655822052878 
2339	 0.302593014114779 
2340	 0.302486868900249 
2341	 0.302320866429489 
2342	 0.302222443454076 
2343	 0.302071934871674 
2344	 0.301890446200339 
2345	 0.301724801965427 
2346	 0.301538473373762 
2347	 0.301377435991949 
2348	 0.30124746506142 
2349	 0.301063209628911 
2350	 0.300887326150198 
2351	 0.300696861019857 
2352	 0.300437335775624 
2353	 0.300240817179439 
2354	 0.300071473812031 
2355	 0.299877782302888 
2356	 0.299700922586449 
2357	 0.29951200451531 
2358	 0.299297408509019 
2359	 0.299138715057186 
2360	 0.298994356866013 
2361	 0.298851676586671 
2362	 0.298768384921816 
2363	 0.298636753911943 
2364	 0.298466174998866 
2365	 0.298320497428543 
2366	 0.298205962748963 
2367	 0.298038436668162 
2368	 0.297833288241441 
2369	 0.29763103335004 
2370	 0.29741245246056 
2371	 0.297163906685981 
2372	 0.296911663776017 
2373	 0.296691874907732 
2374	 0.296412354067903 
2375	 0.296123771026448 
2376	 0.29582331183911 
2377	 0.295550628862455 
2378	 0.295367041721799 
2379	 0.29510838943671 
2380	 0.294832363997388 
2381	 0.294621028529447 
2382	 0.294332407264748 
2383	 0.294021675021491 
2384	 0.293750342495218 
2385	 0.29344708558601 
2386	 0.293066843433739 
2387	 0.292709451859946 
2388	 0.292367081435885 
2389	 0.29199449289127 
2390	 0.291745477327912 
2391	 0.291527372283122 
2392	 0.291276304277875 
2393	 0.291009646630379 
2394	 0.290654810024691 
2395	 0.290289873094976 
2396	 0.289902568653536 
2397	 0.289531608508559 
2398	 0.289265246016248 
2399	 0.289016465779621 
2400	 0.288781406821778 
2401	 0.288500554121529 
2402	 0.288081558128138 
2403	 0.287655417922729 
2404	 0.287254390342312 
2405	 0.286783048025702 
2406	 0.286338778614876 
2407	 0.285919475575013 
2408	 0.285414488179293 
2409	 0.28497164372314 
2410	 0.284538053130266 
2411	 0.284120575388191 
2412	 0.283873453320406 
2413	 0.28350646455302 
2414	 0.283073767999681 
2415	 0.282754879709457 
2416	 0.282360603996476 
2417	 0.28182473670798 
2418	 0.281448855880549 
2419	 0.281179433580057 
2420	 0.28076143840689 
2421	 0.280338759526794 
2422	 0.27987065009015 
2423	 0.279281992686595 
2424	 0.278826187089896 
2425	 0.278432765002342 
2426	 0.277965364823172 
2427	 0.277520716795824 
2428	 0.27706530164136 
2429	 0.276541817755709 
2430	 0.27607613554996 
2431	 0.27564857955951 
2432	 0.275234976029387 
2433	 0.274861514474079 
2434	 0.274406064906105 
2435	 0.273909084757171 
2436	 0.27348110163925 
2437	 0.273035861547064 
2438	 0.272615684897131 
2439	 0.272300843583595 
2440	 0.271950885042576 
2441	 0.271519230272766 
2442	 0.271125014151904 
2443	 0.270761441644843 
2444	 0.270353832114776 
2445	 0.269969071197859 
2446	 0.269596488118259 
2447	 0.269287122942685 
2448	 0.268883244213694 
2449	 0.268323227042553 
2450	 0.267891167013901 
2451	 0.267442499066148 
2452	 0.267017691079414 
2453	 0.266745501742283 
2454	 0.266413870774862 
2455	 0.266014227490746 
2456	 0.265629753711975 
2457	 0.265309078188636 
2458	 0.264855241685007 
2459	 0.264285225242539 
2460	 0.263875522073584 
2461	 0.263488577141839 
2462	 0.263105878463315 
2463	 0.262840502884646 
2464	 0.262521915127988 
2465	 0.26205572420391 
2466	 0.261725975339254 
2467	 0.261519524521484 
2468	 0.261159802204484 
2469	 0.260822191349739 
2470	 0.260472344438703 
2471	 0.260032558912317 
2472	 0.259550230956632 
2473	 0.259114414548691 
2474	 0.258700546834473 
2475	 0.25842367663458 
2476	 0.25818484562231 
2477	 0.257891899703043 
2478	 0.257539862735546 
2479	 0.257166173026735 
2480	 0.256791181904288 
2481	 0.256303188355102 
2482	 0.255820777535628 
2483	 0.255375297480795 
2484	 0.254794212987411 
2485	 0.254253360073021 
2486	 0.253894410721328 
2487	 0.253494183259419 
2488	 0.2531473503876 
2489	 0.253090252471961 
2490	 0.253028724830005 
2491	 0.252598804873969 
2492	 0.252146678348362 
2493	 0.251895785465573 
2494	 0.25155690955403 
2495	 0.251397964726611 
2496	 0.251470833249956 
2497	 0.251334282255851 
2498	 0.251043588600321 
2499	 0.250750984601477 
2500	 0.250600909248449 
