Wavelength	mm1600003.asd
350	 7.25534135407932E-02 
351	 0.079030963577377 
352	 7.16741428053968E-02 
353	 5.45988713444717E-02 
354	 6.14385971752406E-02 
355	 6.55932541991393E-02 
356	 6.55835784702976E-02 
357	 6.65713055745112E-02 
358	 7.30125014303118E-02 
359	 6.73345640803742E-02 
360	 5.73091647483552E-02 
361	 6.40577415915301E-02 
362	 6.36922518921762E-02 
363	 0.06391888420261 
364	 6.72148525375013E-02 
365	 6.16168309102215E-02 
366	 5.89173120164081E-02 
367	 6.14122036502054E-02 
368	 6.69184863244052E-02 
369	 6.87886201688208E-02 
370	 6.57156029916924E-02 
371	 6.24902129047104E-02 
372	 6.67331338946813E-02 
373	 7.05649538655365E-02 
374	 7.11781593318361E-02 
375	 6.89130811299172E-02 
376	 6.79248968089294E-02 
377	 6.79517369424864E-02 
378	 6.96468434718765E-02 
379	 7.26763942024854E-02 
380	 7.23435392726068E-02 
381	 7.20259913775657E-02 
382	 7.32075579716208E-02 
383	 7.54070048832181E-02 
384	 7.51856180048116E-02 
385	 7.51461919073986E-02 
386	 7.69134278653827E-02 
387	 7.86415502759458E-02 
388	 0.080133531304662 
389	 8.01954340103664E-02 
390	 7.85367520398336E-02 
391	 8.00827567500104E-02 
392	 8.14131903752181E-02 
393	 8.20900292584872E-02 
394	 8.42759101320124E-02 
395	 8.50113845935585E-02 
396	 0.085891319499366 
397	 8.78069290258545E-02 
398	 8.85606190593025E-02 
399	 8.94489894768071E-02 
400	 9.04405719791834E-02 
401	 9.09869514301031E-02 
402	 9.02223342102785E-02 
403	 9.07611704104229E-02 
404	 9.23726356067589E-02 
405	 0.091975939809994 
406	 9.25662955276462E-02 
407	 9.44107909971267E-02 
408	 9.64346954516018E-02 
409	 9.53653569708166E-02 
410	 9.57346830053739E-02 
411	 0.097072750391996 
412	 9.70382823848379E-02 
413	 9.84951667868055E-02 
414	 9.91008748933877E-02 
415	 9.83792651392739E-02 
416	 0.098732020999735 
417	 9.90754428828061E-02 
418	 9.94216882731455E-02 
419	 9.99072802007717E-02 
420	 0.100343123006579 
421	 0.100217706161662 
422	 9.96912049592926E-02 
423	 9.93909346158121E-02 
424	 0.10006468838124 
425	 0.100520613767352 
426	 0.100151239496481 
427	 9.97652057506932E-02 
428	 0.099566943567167 
429	 9.95607979281082E-02 
430	 9.96036623693978E-02 
431	 9.93604796352166E-02 
432	 9.91067408274503E-02 
433	 9.91730883442998E-02 
434	 9.98643815822199E-02 
435	 0.100212159771828 
436	 0.100218915575855 
437	 0.100103831088501 
438	 9.99815748616326E-02 
439	 0.100555831638352 
440	 0.101478722980984 
441	 0.101910325057474 
442	 0.101734624746898 
443	 0.102157395633482 
444	 0.103265119149272 
445	 0.103310971839911 
446	 0.103296133692486 
447	 0.103663923789808 
448	 0.104477566443416 
449	 0.10489574492705 
450	 0.105322127469036 
451	 0.105877882787567 
452	 0.106403250241799 
453	 0.106680421704427 
454	 0.106857801860075 
455	 0.107111297429443 
456	 0.107512296898553 
457	 0.107966855079539 
458	 0.108427415798528 
459	 0.108829615240096 
460	 0.108828006630476 
461	 0.108897671690918 
462	 0.109226175121261 
463	 0.109499123651303 
464	 0.109937984815957 
465	 0.110227743487098 
466	 0.110147835831597 
467	 0.110425848769592 
468	 0.110617180288478 
469	 0.110731470899414 
470	 0.111125267072801 
471	 0.111277889334117 
472	 0.111313375626453 
473	 0.111405835904118 
474	 0.11157804000281 
475	 0.111779947585163 
476	 0.112004014106147 
477	 0.112244577162714 
478	 0.112361994636119 
479	 0.112561097175292 
480	 0.112868245935267 
481	 0.113027625102713 
482	 0.11319207401159 
483	 0.113285824418496 
484	 0.113265516478342 
485	 0.113474474785235 
486	 0.113536748935557 
487	 0.113475070991966 
488	 0.113639178568738 
489	 0.113845386217061 
490	 0.114114319489975 
491	 0.114419443993592 
492	 0.114528435389591 
493	 0.114675551691291 
494	 0.114831757777974 
495	 0.114891751631475 
496	 0.115199082083945 
497	 0.115341894619849 
498	 0.115261098546053 
499	 0.115524450186936 
500	 0.115648681689438 
501	 0.115732842108951 
502	 0.115958337123277 
503	 0.116107228045527 
504	 0.116155187057871 
505	 0.116235367783359 
506	 0.116591441534712 
507	 0.116843707936006 
508	 0.116959521552922 
509	 0.116999922351499 
510	 0.1170550752445 
511	 0.11720752408618 
512	 0.117388704289904 
513	 0.117457638478003 
514	 0.11742158417916 
515	 0.117546574665004 
516	 0.117862886708524 
517	 0.117957246594038 
518	 0.11812436939709 
519	 0.118251422487964 
520	 0.118207766173525 
521	 0.118458938893336 
522	 0.118703147990387 
523	 0.118815975460079 
524	 0.118904402569641 
525	 0.119092868597553 
526	 0.119232869515594 
527	 0.119231112496523 
528	 0.119380807060203 
529	 0.11945766750285 
530	 0.119528037618917 
531	 0.119809683245277 
532	 0.119884656458559 
533	 0.119978992764671 
534	 0.120216927838022 
535	 0.120312962569051 
536	 0.120449742865517 
537	 0.12061858723984 
538	 0.120753639144828 
539	 0.120916036092404 
540	 0.121101435251863 
541	 0.121285129188089 
542	 0.12142199493263 
543	 0.121562873048382 
544	 0.121714706401511 
545	 0.121879440700302 
546	 0.122096085607154 
547	 0.122299638503846 
548	 0.122472196318964 
549	 0.122640338642639 
550	 0.122846721028192 
551	 0.123040015194187 
552	 0.123199772441466 
553	 0.123438697455402 
554	 0.123639628709187 
555	 0.123840362539773 
556	 0.124141728733076 
557	 0.12441821421606 
558	 0.124721297315305 
559	 0.125074395385321 
560	 0.125424474594799 
561	 0.125688988682077 
562	 0.125953268501133 
563	 0.126327527326001 
564	 0.12670535875495 
565	 0.126996826068261 
566	 0.127213271793421 
567	 0.127475313883894 
568	 0.127778128547086 
569	 0.12816424196489 
570	 0.128661427057445 
571	 0.12925382731187 
572	 0.129742242792198 
573	 0.130144941724907 
574	 0.130627355232611 
575	 0.131055052080961 
576	 0.131593884996163 
577	 0.132276191881968 
578	 0.1327298532566 
579	 0.133281188053411 
580	 0.133854624120118 
581	 0.134257245818627 
582	 0.134735542940934 
583	 0.135246347102558 
584	 0.135767773696284 
585	 0.136346060868753 
586	 0.137016598117413 
587	 0.137752049566112 
588	 0.13849404448805 
589	 0.139149346231552 
590	 0.139867220362787 
591	 0.140636713232193 
592	 0.141299787876697 
593	 0.141856156282772 
594	 0.142412645068468 
595	 0.143016010805056 
596	 0.143487810464733 
597	 0.143958287599113 
598	 0.144477985947255 
599	 0.145045953154536 
600	 0.14558496703757 
601	 0.146155368668945 
602	 0.146774737980752 
603	 0.147358068998073 
604	 0.147952587597143 
605	 0.148527787960682 
606	 0.149057253856619 
607	 0.149685650811964 
608	 0.150277170518339 
609	 0.150790367322892 
610	 0.151309486670786 
611	 0.151736172403643 
612	 0.152121033993054 
613	 0.152523538618358 
614	 0.152918641352468 
615	 0.153240054223996 
616	 0.153511496033009 
617	 0.153817189409148 
618	 0.154166976793666 
619	 0.154494395457369 
620	 0.154766914428472 
621	 0.155044640273422 
622	 0.155340844737326 
623	 0.155640823298864 
624	 0.155915415359484 
625	 0.156139502476123 
626	 0.156376974748211 
627	 0.156640489267854 
628	 0.156865540216517 
629	 0.15712054604066 
630	 0.15737326715195 
631	 0.15758539443033 
632	 0.157800866790828 
633	 0.158024738624724 
634	 0.158256753361618 
635	 0.1584905100367 
636	 0.158684232459428 
637	 0.158896431889418 
638	 0.159143845834731 
639	 0.159284961050253 
640	 0.159522837451578 
641	 0.159806582536064 
642	 0.159990207209819 
643	 0.160194864697853 
644	 0.160416738038569 
645	 0.160629510742357 
646	 0.160788806421495 
647	 0.160991621648978 
648	 0.161254192274778 
649	 0.16154874097443 
650	 0.16178731651098 
651	 0.162003110814193 
652	 0.162214462353924 
653	 0.162424747586468 
654	 0.16265512683901 
655	 0.162880349254575 
656	 0.163103893224127 
657	 0.163432182586554 
658	 0.163724310796585 
659	 0.163945095195925 
660	 0.164129381521566 
661	 0.164409568169091 
662	 0.164699014954988 
663	 0.164945406755296 
664	 0.165175235589455 
665	 0.165499884019681 
666	 0.165830035838556 
667	 0.166068603528221 
668	 0.16634029890742 
669	 0.166692050557179 
670	 0.167063160821957 
671	 0.167317253056121 
672	 0.167580934385689 
673	 0.16791155094916 
674	 0.168293440612027 
675	 0.168566060317401 
676	 0.168861325305498 
677	 0.169183924464083 
678	 0.169495713733174 
679	 0.169862706957543 
680	 0.170236923183116 
681	 0.170600448622906 
682	 0.170987169382402 
683	 0.171352150434655 
684	 0.171710000532913 
685	 0.172085153408174 
686	 0.17248180844225 
687	 0.172864303347894 
688	 0.173219886976021 
689	 0.173556437010148 
690	 0.173906979292319 
691	 0.174280460168878 
692	 0.174679837639396 
693	 0.175111706652932 
694	 0.175514428978019 
695	 0.175923945574965 
696	 0.176382199116114 
697	 0.176747499363775 
698	 0.177099297655767 
699	 0.177486947105456 
700	 0.177911509777342 
701	 0.178350179957273 
702	 0.178768211507393 
703	 0.179153119529731 
704	 0.179557372698343 
705	 0.179955444525821 
706	 0.180360573169519 
707	 0.180796027035638 
708	 0.18120224847956 
709	 0.181609359121323 
710	 0.182022566677399 
711	 0.182398070326386 
712	 0.182781379339235 
713	 0.183165261402888 
714	 0.183543196064565 
715	 0.183975389508275 
716	 0.184357924907659 
717	 0.184691040215379 
718	 0.185052884120395 
719	 0.185450492301092 
720	 0.185834747284313 
721	 0.186168425979792 
722	 0.186448713043509 
723	 0.186781633948365 
724	 0.187123825149955 
725	 0.187406282705136 
726	 0.187727467042064 
727	 0.188004513551636 
728	 0.188255432582172 
729	 0.188588270658565 
730	 0.188851043711455 
731	 0.189082376563105 
732	 0.189321805068379 
733	 0.189521050445911 
734	 0.18973529201368 
735	 0.189940568835765 
736	 0.190095676143607 
737	 0.190270066693964 
738	 0.190444719369716 
739	 0.190599474050133 
740	 0.190721264174224 
741	 0.190824104791497 
742	 0.19092546476517 
743	 0.191031994166792 
744	 0.191125232280242 
745	 0.19116555324541 
746	 0.191203135733997 
747	 0.191306598532797 
748	 0.191349882337492 
749	 0.191318622394521 
750	 0.191263332777522 
751	 0.191294822298502 
752	 0.191273450034515 
753	 0.191199288642049 
754	 0.191120480657365 
755	 0.191130173591188 
756	 0.1910923039745 
757	 0.190998399150842 
758	 0.190904126546279 
759	 0.190785303031683 
760	 0.190704910744797 
761	 0.190655921500183 
762	 0.190537928648864 
763	 0.190387309074027 
764	 0.190233859462585 
765	 0.190097985950697 
766	 0.189975402504522 
767	 0.189836846020518 
768	 0.189678180393912 
769	 0.189511859146854 
770	 0.189361807015147 
771	 0.189190921595971 
772	 0.18898482648705 
773	 0.188764229748457 
774	 0.188599442394949 
775	 0.188441347543294 
776	 0.188246183031882 
777	 0.188062550223214 
778	 0.187898624928225 
779	 0.187740722382644 
780	 0.187558960996499 
781	 0.187297537964873 
782	 0.187083389861962 
783	 0.186937661117981 
784	 0.186757812581271 
785	 0.186571857015127 
786	 0.186367003036578 
787	 0.186146250056736 
788	 0.185961038411755 
789	 0.185817799515259 
790	 0.18564634261776 
791	 0.185391443271504 
792	 0.185241598855361 
793	 0.18505997790558 
794	 0.184842733294986 
795	 0.184699628929164 
796	 0.184454741553264 
797	 0.184227172882793 
798	 0.184081618972025 
799	 0.183899242331239 
800	 0.183738817076117 
801	 0.183572447955237 
802	 0.183374259403756 
803	 0.183219926583989 
804	 0.183097327912201 
805	 0.182965205884127 
806	 0.182777737116828 
807	 0.182601656157214 
808	 0.182446807547696 
809	 0.182292519568579 
810	 0.182090053778781 
811	 0.18194363596654 
812	 0.18179872028781 
813	 0.181620643135663 
814	 0.181530308838183 
815	 0.181463414884177 
816	 0.181351283645953 
817	 0.181155950504647 
818	 0.181003522852812 
819	 0.180892992802982 
820	 0.180794331558909 
821	 0.180665402869397 
822	 0.180563790276301 
823	 0.180418701404594 
824	 0.18024530041821 
825	 0.180226615778177 
826	 0.180168622691068 
827	 0.180061793786204 
828	 0.179947887979705 
829	 0.179860450885166 
830	 0.179731347438433 
831	 0.179606348686932 
832	 0.179566452017521 
833	 0.179544107941431 
834	 0.179482052684285 
835	 0.179393724194495 
836	 0.179351708709375 
837	 0.179291392778594 
838	 0.179254234981112 
839	 0.179238908807692 
840	 0.179145479168664 
841	 0.17902813129793 
842	 0.178960697001159 
843	 0.178972013287752 
844	 0.178935027159651 
845	 0.17893877752537 
846	 0.178932619661761 
847	 0.178844732986638 
848	 0.178873180983421 
849	 0.178865942438658 
850	 0.178791804115002 
851	 0.178740418643013 
852	 0.178720795119069 
853	 0.178733028504808 
854	 0.178765392960368 
855	 0.178795227180116 
856	 0.178838345480484 
857	 0.17886153205541 
858	 0.178852693753106 
859	 0.178880641846249 
860	 0.178905340862946 
861	 0.178912096367687 
862	 0.178906302884235 
863	 0.178929737065634 
864	 0.179023056620717 
865	 0.179120461930795 
866	 0.179116761112504 
867	 0.17911766867892 
868	 0.179164289504496 
869	 0.179236930875782 
870	 0.179270965030951 
871	 0.179388427361674 
872	 0.179490100765196 
873	 0.179540297618361 
874	 0.179660936975573 
875	 0.179759940081471 
876	 0.179852839513317 
877	 0.179946918228237 
878	 0.17994527088383 
879	 0.180051417443597 
880	 0.180195461204708 
881	 0.180262448098583 
882	 0.180391948886447 
883	 0.180530019475779 
884	 0.18066542186719 
885	 0.180809723346188 
886	 0.180950133163655 
887	 0.18107914708726 
888	 0.181182821840919 
889	 0.181255964015888 
890	 0.18142639633836 
891	 0.181598897857636 
892	 0.181741577875962 
893	 0.18193463805724 
894	 0.18212477558931 
895	 0.18229283504068 
896	 0.182445433948779 
897	 0.18262139778987 
898	 0.182831529814438 
899	 0.183044606448181 
900	 0.183216323479103 
901	 0.183289215352977 
902	 0.183466982716661 
903	 0.183703408766436 
904	 0.183900487276834 
905	 0.184137602662153 
906	 0.184363743180679 
907	 0.184555635731192 
908	 0.184731805109052 
909	 0.185032757184331 
910	 0.185303839607022 
911	 0.185509068052458 
912	 0.185710809240554 
913	 0.185969086197867 
914	 0.18624303766595 
915	 0.186511317300855 
916	 0.186777774820494 
917	 0.187013595241192 
918	 0.187265433847045 
919	 0.187530311976898 
920	 0.187746647856834 
921	 0.188014609171846 
922	 0.188351700413588 
923	 0.188709322790007 
924	 0.188977748574147 
925	 0.189256241804847 
926	 0.189588533648571 
927	 0.189943767503756 
928	 0.190183329315274 
929	 0.190554814117441 
930	 0.190977179056312 
931	 0.191327623219871 
932	 0.191596947297325 
933	 0.191885069732073 
934	 0.192242187887781 
935	 0.192660632289497 
936	 0.193037993816853 
937	 0.193338118888582 
938	 0.193600249406367 
939	 0.193910811058862 
940	 0.194405917340556 
941	 0.194844257039278 
942	 0.195232059309212 
943	 0.195647439014909 
944	 0.19600991423335 
945	 0.196305977485157 
946	 0.196700602535033 
947	 0.197308938556857 
948	 0.19770284528614 
949	 0.19800129568637 
950	 0.198291094120572 
951	 0.19864378919726 
952	 0.199179046837328 
953	 0.199621320479624 
954	 0.200037779984502 
955	 0.200622784242326 
956	 0.201074216735777 
957	 0.201513493193032 
958	 0.201929290600908 
959	 0.202265648036393 
960	 0.202754288815614 
961	 0.203291554126386 
962	 0.203826220047524 
963	 0.204333137046454 
964	 0.204627283107402 
965	 0.205123718199518 
966	 0.205731196738378 
967	 0.206095411008302 
968	 0.206653213426679 
969	 0.207133975472418 
970	 0.207556584300133 
971	 0.208119231899335 
972	 0.208654133732384 
973	 0.20913455074636 
974	 0.209602589629213 
975	 0.210135014071317 
976	 0.210759488723806 
977	 0.211350182201077 
978	 0.21183778717185 
979	 0.212239192276875 
980	 0.212727243948222 
981	 0.213280854788978 
982	 0.213840142448399 
983	 0.214346145239939 
984	 0.214823822355347 
985	 0.215371884901892 
986	 0.215904146452096 
987	 0.216309354013595 
988	 0.216921937504169 
989	 0.217386796967327 
990	 0.21771563291981 
991	 0.218151405885069 
992	 0.21894388882933 
993	 0.219476019661885 
994	 0.219841791206411 
995	 0.220373277595913 
996	 0.220826967822325 
997	 0.221283148170982 
998	 0.221805911836287 
999	 0.222398911872125 
1000	 0.222903187374249 
1001	 0.218200444588612 
1002	 0.218569094715314 
1003	 0.218960063685034 
1004	 0.219390482811221 
1005	 0.219883696942986 
1006	 0.220330294007164 
1007	 0.220793427071318 
1008	 0.221225651125513 
1009	 0.221610030188196 
1010	 0.222038391287832 
1011	 0.222421012206359 
1012	 0.22280217157675 
1013	 0.223193256803958 
1014	 0.223534428542077 
1015	 0.223920728616179 
1016	 0.224326023876729 
1017	 0.224731469693039 
1018	 0.225150450674347 
1019	 0.22557736370803 
1020	 0.225975312975867 
1021	 0.226362791196937 
1022	 0.226716545863858 
1023	 0.227012210671997 
1024	 0.227278286550796 
1025	 0.227552963332734 
1026	 0.227843405261062 
1027	 0.228163036147651 
1028	 0.22853293228652 
1029	 0.228878567474819 
1030	 0.229211846838197 
1031	 0.229550256029066 
1032	 0.229897519752963 
1033	 0.230213794075688 
1034	 0.230527520255985 
1035	 0.230801055536301 
1036	 0.231079296568562 
1037	 0.231388916113684 
1038	 0.231708950427704 
1039	 0.232088395583195 
1040	 0.232463139018242 
1041	 0.232796971252514 
1042	 0.23312679137806 
1043	 0.233423810817276 
1044	 0.233702229578981 
1045	 0.233936771438835 
1046	 0.234215705884533 
1047	 0.234536625213273 
1048	 0.234851349711349 
1049	 0.23519742458208 
1050	 0.235528696241445 
1051	 0.235803793580067 
1052	 0.236107452794514 
1053	 0.236425967274273 
1054	 0.236732688776031 
1055	 0.237052986145276 
1056	 0.237350100538088 
1057	 0.237643779968713 
1058	 0.23794352196037 
1059	 0.238212288418322 
1060	 0.238437007173208 
1061	 0.238714232181779 
1062	 0.239021506891163 
1063	 0.239302252304844 
1064	 0.239645806697214 
1065	 0.239955950314602 
1066	 0.24013447823962 
1067	 0.240361558751485 
1068	 0.24063613977807 
1069	 0.240894992053308 
1070	 0.241167053482163 
1071	 0.241501749570548 
1072	 0.241774297389237 
1073	 0.241999074979612 
1074	 0.242260726675769 
1075	 0.242520946809866 
1076	 0.242794283923504 
1077	 0.243100972771667 
1078	 0.243314097505921 
1079	 0.243477064185914 
1080	 0.243661484055195 
1081	 0.243857664531002 
1082	 0.244055866921425 
1083	 0.244274928028935 
1084	 0.244549735465258 
1085	 0.244800141688108 
1086	 0.245038198497753 
1087	 0.245273793931474 
1088	 0.245543340594275 
1089	 0.245729026058406 
1090	 0.245900513748425 
1091	 0.246099056403041 
1092	 0.246248341088794 
1093	 0.246438541282667 
1094	 0.24666700667313 
1095	 0.246850580173388 
1096	 0.247039066602141 
1097	 0.247224247377651 
1098	 0.247409182937928 
1099	 0.247570116526886 
1100	 0.2477551639743 
1101	 0.247959960727224 
1102	 0.248156070019417 
1103	 0.248356997909476 
1104	 0.248546093115461 
1105	 0.248713271962779 
1106	 0.248889151118948 
1107	 0.249063122204052 
1108	 0.249240200727546 
1109	 0.24943730437608 
1110	 0.249616192718977 
1111	 0.249808196405942 
1112	 0.250012228789592 
1113	 0.250198762124956 
1114	 0.25039056773655 
1115	 0.250563140207944 
1116	 0.250693362585961 
1117	 0.250853741531504 
1118	 0.251005404016723 
1119	 0.251199271650713 
1120	 0.251410770644697 
1121	 0.251617999589483 
1122	 0.251792935875716 
1123	 0.251978868442501 
1124	 0.252163041184425 
1125	 0.252332576171492 
1126	 0.252509281982129 
1127	 0.252703259281326 
1128	 0.252867259229247 
1129	 0.253001957905661 
1130	 0.253171125583949 
1131	 0.253356701899558 
1132	 0.253525584594816 
1133	 0.253705885919415 
1134	 0.253870944523856 
1135	 0.254015638101044 
1136	 0.254155106204037 
1137	 0.254293177856112 
1138	 0.254445459140513 
1139	 0.254602663532704 
1140	 0.254761394890041 
1141	 0.254919224873554 
1142	 0.255098453689085 
1143	 0.255247972164613 
1144	 0.255381466667503 
1145	 0.25551472085677 
1146	 0.255631820200444 
1147	 0.255757573992002 
1148	 0.255878979766487 
1149	 0.256004999775731 
1150	 0.256130370611877 
1151	 0.256273245859944 
1152	 0.256394010159841 
1153	 0.256530178542526 
1154	 0.256660097088469 
1155	 0.256779438204854 
1156	 0.256912855910696 
1157	 0.257057750538668 
1158	 0.25719569622187 
1159	 0.257342103466563 
1160	 0.257477749340636 
1161	 0.257602662295277 
1162	 0.257732323969169 
1163	 0.257859376483442 
1164	 0.257987473364487 
1165	 0.258118670962887 
1166	 0.258252287412209 
1167	 0.258365780293622 
1168	 0.258481022970251 
1169	 0.258615239651266 
1170	 0.258752720958197 
1171	 0.258894009043081 
1172	 0.259074320257695 
1173	 0.259199401570094 
1174	 0.259298621793246 
1175	 0.259395084847457 
1176	 0.259448656317717 
1177	 0.259538830141127 
1178	 0.259640244151685 
1179	 0.259745881042648 
1180	 0.259882056295201 
1181	 0.259994595829414 
1182	 0.26009180006343 
1183	 0.260194406195692 
1184	 0.260298482528488 
1185	 0.260387650250314 
1186	 0.260500053037238 
1187	 0.260635699812654 
1188	 0.260750915093554 
1189	 0.260870797174744 
1190	 0.260976930666635 
1191	 0.261069650178903 
1192	 0.261161402088276 
1193	 0.26124589394563 
1194	 0.261331218937286 
1195	 0.2614072761772 
1196	 0.261492660813942 
1197	 0.261573953029865 
1198	 0.261669484730287 
1199	 0.261773644148228 
1200	 0.261889407005741 
1201	 0.261999536441521 
1202	 0.262120892520301 
1203	 0.262229579421053 
1204	 0.26233364712044 
1205	 0.262434153616395 
1206	 0.262522026284247 
1207	 0.262626463702252 
1208	 0.262738231790876 
1209	 0.262844288715032 
1210	 0.262966921437886 
1211	 0.263070147948074 
1212	 0.263152199182488 
1213	 0.263243062597893 
1214	 0.263339908299102 
1215	 0.26342290468017 
1216	 0.263500229450389 
1217	 0.263575061800599 
1218	 0.263648825093247 
1219	 0.263699351395567 
1220	 0.263785755310043 
1221	 0.263898134124024 
1222	 0.263990402937883 
1223	 0.264091493953189 
1224	 0.264184473588878 
1225	 0.264268302881676 
1226	 0.264346847046538 
1227	 0.264425121682833 
1228	 0.26449951232609 
1229	 0.264556423837758 
1230	 0.264623736669316 
1231	 0.264693469812117 
1232	 0.264768934311831 
1233	 0.264848742228807 
1234	 0.264937505169126 
1235	 0.265014287762387 
1236	 0.265097993740076 
1237	 0.265161938251183 
1238	 0.265207497124635 
1239	 0.2652618659027 
1240	 0.265303845831259 
1241	 0.265361952128576 
1242	 0.265428713151372 
1243	 0.265496132612473 
1244	 0.265572978368168 
1245	 0.26564710084332 
1246	 0.265722884423756 
1247	 0.265797191088151 
1248	 0.265873344722265 
1249	 0.265940685221475 
1250	 0.266033243860682 
1251	 0.266121135589851 
1252	 0.26618927155447 
1253	 0.266254446901345 
1254	 0.266316164060407 
1255	 0.266357704966894 
1256	 0.266405809707466 
1257	 0.266469231844116 
1258	 0.26650939296962 
1259	 0.266513287626837 
1260	 0.266552277032971 
1261	 0.266604322550333 
1262	 0.266649801355169 
1263	 0.266715852329823 
1264	 0.266770125391053 
1265	 0.266797937966246 
1266	 0.266847013017533 
1267	 0.266915391984262 
1268	 0.266975543198762 
1269	 0.267030003760953 
1270	 0.267086206427039 
1271	 0.267149341129896 
1272	 0.267200389743825 
1273	 0.26726937518605 
1274	 0.26735072044171 
1275	 0.267441816448589 
1276	 0.267548069672107 
1277	 0.267642089550975 
1278	 0.267743389594206 
1279	 0.267844096972765 
1280	 0.267931077278505 
1281	 0.268029831225959 
1282	 0.268147734387466 
1283	 0.268253090525089 
1284	 0.268349564490553 
1285	 0.268452466789577 
1286	 0.268558925385632 
1287	 0.268653307647453 
1288	 0.268746126543452 
1289	 0.268839972848786 
1290	 0.268926549864613 
1291	 0.268999204222601 
1292	 0.269083271819164 
1293	 0.269177398086468 
1294	 0.269253131496459 
1295	 0.269330091929006 
1296	 0.269390322895106 
1297	 0.26942306281407 
1298	 0.269474997773429 
1299	 0.269536272363167 
1300	 0.269579679916026 
1301	 0.26962256584429 
1302	 0.269656713414217 
1303	 0.269676427194332 
1304	 0.269689196465755 
1305	 0.2696987307912 
1306	 0.26970724744683 
1307	 0.269697842525098 
1308	 0.269697064881677 
1309	 0.269689910584266 
1310	 0.269679118365014 
1311	 0.269672113423315 
1312	 0.269659897205258 
1313	 0.269657345901996 
1314	 0.269671338079211 
1315	 0.269668378546313 
1316	 0.269666221065722 
1317	 0.269647975698822 
1318	 0.269606761266462 
1319	 0.269578928803136 
1320	 0.269547908098267 
1321	 0.269523442789696 
1322	 0.269510688317942 
1323	 0.26949065671244 
1324	 0.269472083585606 
1325	 0.269435113641687 
1326	 0.269398972312282 
1327	 0.269381951388735 
1328	 0.269355834477113 
1329	 0.269330140421548 
1330	 0.26930557995815 
1331	 0.269285004156482 
1332	 0.269248416349496 
1333	 0.269205309691843 
1334	 0.269165901742885 
1335	 0.269098829132265 
1336	 0.269073703722868 
1337	 0.269092988767842 
1338	 0.26907203204054 
1339	 0.269052886532842 
1340	 0.269026272796459 
1341	 0.268970675223184 
1342	 0.268923289624464 
1343	 0.268873077534263 
1344	 0.268841081817694 
1345	 0.268822339920319 
1346	 0.268778643086725 
1347	 0.268736647109916 
1348	 0.268702791133105 
1349	 0.268658410062655 
1350	 0.268626121446704 
1351	 0.268586698061391 
1352	 0.268559214606298 
1353	 0.268519030958558 
1354	 0.268463306422242 
1355	 0.268416560981797 
1356	 0.268377934643325 
1357	 0.268336188941439 
1358	 0.268288339181067 
1359	 0.268241593429525 
1360	 0.268189687260242 
1361	 0.268149168869065 
1362	 0.268120154520136 
1363	 0.268085189987012 
1364	 0.268054029881 
1365	 0.268021800624908 
1366	 0.267980110235773 
1367	 0.267942466520496 
1368	 0.267935234446495 
1369	 0.267927622496845 
1370	 0.267891290536372 
1371	 0.267845386693143 
1372	 0.267781439226491 
1373	 0.267708618962507 
1374	 0.267620543309575 
1375	 0.267535617799057 
1376	 0.267420830108579 
1377	 0.267271783633792 
1378	 0.267124497837765 
1379	 0.266969844926776 
1380	 0.266808108575983 
1381	 0.266637695538066 
1382	 0.266456121226087 
1383	 0.266267313516588 
1384	 0.26606524105722 
1385	 0.265872909050615 
1386	 0.265632074096154 
1387	 0.26536731987679 
1388	 0.265079549838822 
1389	 0.264766474471771 
1390	 0.264406526292222 
1391	 0.264040958250101 
1392	 0.263637517118438 
1393	 0.263174005068685 
1394	 0.262711259859724 
1395	 0.26221627105425 
1396	 0.261707796936447 
1397	 0.261214240844421 
1398	 0.260722434266467 
1399	 0.260217763094308 
1400	 0.259715450206272 
1401	 0.259207210589029 
1402	 0.258664680394133 
1403	 0.258174577177636 
1404	 0.257695604096138 
1405	 0.257247217911207 
1406	 0.256833995388345 
1407	 0.256432868737241 
1408	 0.256040335106273 
1409	 0.255685613599379 
1410	 0.255343668885109 
1411	 0.255053007350419 
1412	 0.254794532849459 
1413	 0.254576897157555 
1414	 0.25444269019917 
1415	 0.254347959976176 
1416	 0.254296237830566 
1417	 0.254289801427352 
1418	 0.254275861402824 
1419	 0.254267679535167 
1420	 0.254293165622524 
1421	 0.254313947557716 
1422	 0.254331728734904 
1423	 0.254353388575164 
1424	 0.254342644259219 
1425	 0.254300850750519 
1426	 0.254277150491449 
1427	 0.254238914186861 
1428	 0.254211940208177 
1429	 0.254194335110727 
1430	 0.254173060223606 
1431	 0.254153250518462 
1432	 0.254127476499469 
1433	 0.254099562655138 
1434	 0.254076120413234 
1435	 0.254032312702556 
1436	 0.254022629762687 
1437	 0.254038329075241 
1438	 0.254050479789722 
1439	 0.254079409551131 
1440	 0.254112599530181 
1441	 0.254126928108526 
1442	 0.254136387924762 
1443	 0.254139405678933 
1444	 0.254142553988706 
1445	 0.254146957471942 
1446	 0.25416272200804 
1447	 0.25420245295663 
1448	 0.254235752368612 
1449	 0.254261118669737 
1450	 0.25427102922091 
1451	 0.254286406982859 
1452	 0.254286257183792 
1453	 0.254305101220413 
1454	 0.254345145993622 
1455	 0.254362712421004 
1456	 0.254369445418858 
1457	 0.254379788829097 
1458	 0.254373709141826 
1459	 0.254390075339731 
1460	 0.254413315332144 
1461	 0.254450800600046 
1462	 0.254511823964259 
1463	 0.254561743779407 
1464	 0.254617516136551 
1465	 0.254673403741024 
1466	 0.254711212191213 
1467	 0.254773327714708 
1468	 0.254841363363055 
1469	 0.254931703690303 
1470	 0.255040638523408 
1471	 0.255172625721852 
1472	 0.255305380128889 
1473	 0.25543684233055 
1474	 0.255562292654098 
1475	 0.255687972253129 
1476	 0.255816209038993 
1477	 0.255960507757842 
1478	 0.256105593483677 
1479	 0.256247534066919 
1480	 0.256410173680319 
1481	 0.256576807231587 
1482	 0.256742078053994 
1483	 0.256927216020321 
1484	 0.257079084353563 
1485	 0.257208624619242 
1486	 0.257350300754817 
1487	 0.257478897452487 
1488	 0.257621208911974 
1489	 0.257779686480843 
1490	 0.257926263999043 
1491	 0.258077423804985 
1492	 0.258207515920653 
1493	 0.258324319344119 
1494	 0.25844271070166 
1495	 0.258535497198026 
1496	 0.258652412489803 
1497	 0.25878723160585 
1498	 0.258913994609227 
1499	 0.259056897152772 
1500	 0.259177725622009 
1501	 0.259273573950728 
1502	 0.259383023948843 
1503	 0.259478237144302 
1504	 0.259599010279899 
1505	 0.259743224209071 
1506	 0.259871821076219 
1507	 0.259983106164861 
1508	 0.260097367505964 
1509	 0.260187842218666 
1510	 0.260274841164733 
1511	 0.260378605471454 
1512	 0.260454873113064 
1513	 0.260526945979577 
1514	 0.260628193790736 
1515	 0.260729353698433 
1516	 0.260839305440466 
1517	 0.260946296357989 
1518	 0.261059110977567 
1519	 0.261167838560511 
1520	 0.261278607158272 
1521	 0.261377985745662 
1522	 0.261472296965643 
1523	 0.261569779276461 
1524	 0.261663431271916 
1525	 0.261748034008616 
1526	 0.261832357611067 
1527	 0.261918278608783 
1528	 0.261993555008013 
1529	 0.262067471722039 
1530	 0.262148914161945 
1531	 0.262224531121432 
1532	 0.262282968373226 
1533	 0.262352135252453 
1534	 0.262431592656177 
1535	 0.262504431003215 
1536	 0.262563239542886 
1537	 0.262649173156426 
1538	 0.262755083156832 
1539	 0.262847182937911 
1540	 0.262956986600012 
1541	 0.263050551457464 
1542	 0.263130402905076 
1543	 0.263201847199223 
1544	 0.263262763579503 
1545	 0.263322832802291 
1546	 0.263373278681391 
1547	 0.263422355345082 
1548	 0.263470763997173 
1549	 0.263507361780139 
1550	 0.263548221801112 
1551	 0.263588459125924 
1552	 0.263620516709254 
1553	 0.263683824899799 
1554	 0.263757558399205 
1555	 0.263811771469504 
1556	 0.263858400230808 
1557	 0.263895787749531 
1558	 0.263930487787623 
1559	 0.263967192255893 
1560	 0.264017988862684 
1561	 0.264097593737799 
1562	 0.264146286030317 
1563	 0.264180042764611 
1564	 0.264235254064783 
1565	 0.264291864244981 
1566	 0.264343085384234 
1567	 0.264411136435934 
1568	 0.264453035648835 
1569	 0.264464615138221 
1570	 0.26450754975642 
1571	 0.264554324237438 
1572	 0.264611125487586 
1573	 0.264697819009794 
1574	 0.26474861240273 
1575	 0.264789299638584 
1576	 0.264821833688943 
1577	 0.264833959630341 
1578	 0.264852631097471 
1579	 0.264861637020602 
1580	 0.264888058790731 
1581	 0.264908483554843 
1582	 0.264950041540194 
1583	 0.265027332405988 
1584	 0.265077643728968 
1585	 0.265130412402287 
1586	 0.265173510017302 
1587	 0.265201439293543 
1588	 0.265227833172058 
1589	 0.265248268332053 
1590	 0.265271897656107 
1591	 0.265286040495381 
1592	 0.265305808564931 
1593	 0.265325429252489 
1594	 0.265356535999486 
1595	 0.265396064133865 
1596	 0.265435745540794 
1597	 0.265491976875214 
1598	 0.265536837087022 
1599	 0.265587268946132 
1600	 0.265614721531004 
1601	 0.265614586365169 
1602	 0.265628500216764 
1603	 0.26563147884541 
1604	 0.265638536838884 
1605	 0.265662387745681 
1606	 0.26568066387757 
1607	 0.265686897310513 
1608	 0.265699259244351 
1609	 0.265733518125057 
1610	 0.265756451224844 
1611	 0.26579623620476 
1612	 0.265827727814463 
1613	 0.265830589751992 
1614	 0.265847859550283 
1615	 0.265844327596069 
1616	 0.26583438165844 
1617	 0.265858781732242 
1618	 0.265879665357507 
1619	 0.265896176195297 
1620	 0.265937110536502 
1621	 0.265964788011599 
1622	 0.265983961968488 
1623	 0.266007387488278 
1624	 0.266041367391695 
1625	 0.266050820770361 
1626	 0.266043688405282 
1627	 0.266052568806062 
1628	 0.266050576984246 
1629	 0.266073058370113 
1630	 0.266117289608951 
1631	 0.266147806313405 
1632	 0.266182982196878 
1633	 0.266212845194748 
1634	 0.26623853592882 
1635	 0.266260967463029 
1636	 0.2662907735662 
1637	 0.266294472364434 
1638	 0.266273955520611 
1639	 0.266279166931899 
1640	 0.266274527069446 
1641	 0.266288699063917 
1642	 0.266332218700913 
1643	 0.266351198198182 
1644	 0.26636145377017 
1645	 0.266377727472473 
1646	 0.266387943545256 
1647	 0.266408920382172 
1648	 0.266446312919012 
1649	 0.266459737805564 
1650	 0.266461357240432 
1651	 0.266473125986159 
1652	 0.26648055939542 
1653	 0.266481073978272 
1654	 0.266481781965894 
1655	 0.266491167109949 
1656	 0.26649961686083 
1657	 0.266495913671905 
1658	 0.266501502701951 
1659	 0.266495289627947 
1660	 0.266465189137733 
1661	 0.266444018592612 
1662	 0.26642769162247 
1663	 0.266412151151177 
1664	 0.266382327114456 
1665	 0.266376505000753 
1666	 0.266385716048433 
1667	 0.266399956999163 
1668	 0.266435007906732 
1669	 0.266451432279322 
1670	 0.266478963923697 
1671	 0.266474931135071 
1672	 0.266437920265328 
1673	 0.26642233107454 
1674	 0.266392492057326 
1675	 0.266381476156804 
1676	 0.266387157672191 
1677	 0.266395478142477 
1678	 0.26641107299637 
1679	 0.266424848255293 
1680	 0.266446683379827 
1681	 0.266466508290122 
1682	 0.266489854173619 
1683	 0.266501595221283 
1684	 0.266515398818056 
1685	 0.266515056213774 
1686	 0.266495848090883 
1687	 0.266483318590443 
1688	 0.26645793715806 
1689	 0.26645290752747 
1690	 0.266458029807507 
1691	 0.266462341843172 
1692	 0.266483411870273 
1693	 0.26649141663645 
1694	 0.266477960262368 
1695	 0.266496886243971 
1696	 0.266537260106487 
1697	 0.266562083086445 
1698	 0.266604773064431 
1699	 0.266628419454715 
1700	 0.266638355590132 
1701	 0.266632473832877 
1702	 0.266616161270839 
1703	 0.266595740562964 
1704	 0.266554884228681 
1705	 0.266517737139332 
1706	 0.266479266344752 
1707	 0.26644636622462 
1708	 0.266401768397712 
1709	 0.26637767024956 
1710	 0.266373249228474 
1711	 0.266358180711115 
1712	 0.266347807530688 
1713	 0.266329758391901 
1714	 0.26630493943551 
1715	 0.26628689289492 
1716	 0.266271815707884 
1717	 0.266257062610968 
1718	 0.266235591944143 
1719	 0.266230820566224 
1720	 0.266239684535276 
1721	 0.266233768924312 
1722	 0.266238659745908 
1723	 0.266228092399895 
1724	 0.26620799834563 
1725	 0.26617091549493 
1726	 0.266115893440548 
1727	 0.26607169603739 
1728	 0.266009620002054 
1729	 0.265966623181358 
1730	 0.265945948360244 
1731	 0.265909112093697 
1732	 0.265872799262615 
1733	 0.265822490888371 
1734	 0.265762592577063 
1735	 0.265697175834624 
1736	 0.265616412155136 
1737	 0.265553392149375 
1738	 0.265493254295475 
1739	 0.265436764161551 
1740	 0.265386708401713 
1741	 0.265334040187832 
1742	 0.26528796886406 
1743	 0.26522632183561 
1744	 0.265162782335492 
1745	 0.265090702074441 
1746	 0.26499133237428 
1747	 0.264917114008304 
1748	 0.264876281914696 
1749	 0.2648799419651 
1750	 0.264862626246251 
1751	 0.264816613351134 
1752	 0.264755239470289 
1753	 0.26462734942717 
1754	 0.264510711705008 
1755	 0.26443653976133 
1756	 0.264343077082001 
1757	 0.26426753396352 
1758	 0.26424378129099 
1759	 0.264220951471571 
1760	 0.264195954428217 
1761	 0.264179938530171 
1762	 0.264131550620389 
1763	 0.264062467680952 
1764	 0.264005114035127 
1765	 0.263944223521301 
1766	 0.263863904514215 
1767	 0.2637894589225 
1768	 0.26372592795814 
1769	 0.263670252848205 
1770	 0.263633989022486 
1771	 0.263603859934049 
1772	 0.263556230815705 
1773	 0.263507359578068 
1774	 0.26349334549744 
1775	 0.263473955939154 
1776	 0.263443050489587 
1777	 0.263420584656052 
1778	 0.263364627757155 
1779	 0.263297030325394 
1780	 0.263263314639499 
1781	 0.263228913435223 
1782	 0.263190427770411 
1783	 0.263160079404385 
1784	 0.263139025649337 
1785	 0.263139862726544 
1786	 0.263117184086889 
1787	 0.263082701032388 
1788	 0.263066813514455 
1789	 0.263058813070701 
1790	 0.263028802312788 
1791	 0.263005451453238 
1792	 0.26296477639868 
1793	 0.262862921434853 
1794	 0.262843274462506 
1795	 0.262865961841701 
1796	 0.262887991607443 
1797	 0.26296508290536 
1798	 0.262973888711704 
1799	 0.262953004710899 
1800	 0.262954669634413 
1801	 0.261620815963814 
1802	 0.261777303977935 
1803	 0.261949999529154 
1804	 0.262154200662557 
1805	 0.262354722763234 
1806	 0.2625525804256 
1807	 0.262750282405133 
1808	 0.262921108105992 
1809	 0.263077941648214 
1810	 0.263208696006684 
1811	 0.263332571882818 
1812	 0.263419932104452 
1813	 0.263462717279942 
1814	 0.263481381873983 
1815	 0.263495496126642 
1816	 0.263519497466308 
1817	 0.263534736331438 
1818	 0.263545618790262 
1819	 0.263572517000542 
1820	 0.263607806437589 
1821	 0.26361747211329 
1822	 0.263641914009078 
1823	 0.26366764348868 
1824	 0.263687112459074 
1825	 0.263681037265831 
1826	 0.263676606104338 
1827	 0.263688379927889 
1828	 0.263681462876709 
1829	 0.263660316934007 
1830	 0.263634847040546 
1831	 0.263607760480452 
1832	 0.26356490470828 
1833	 0.263509176786125 
1834	 0.263460630806757 
1835	 0.263434789494579 
1836	 0.263413014223789 
1837	 0.263394790432625 
1838	 0.263389048517582 
1839	 0.263379884223301 
1840	 0.263377566456025 
1841	 0.263364195138787 
1842	 0.26332542782698 
1843	 0.263292277444268 
1844	 0.263261382384037 
1845	 0.263211408027878 
1846	 0.26316444259664 
1847	 0.263132767652004 
1848	 0.26311901243682 
1849	 0.263093012834489 
1850	 0.263063878452252 
1851	 0.263047243305785 
1852	 0.263024595622707 
1853	 0.262977701934141 
1854	 0.26292261750208 
1855	 0.262860320090317 
1856	 0.262775265774709 
1857	 0.262653673981906 
1858	 0.262512247409127 
1859	 0.26237311990663 
1860	 0.262199167218634 
1861	 0.26200221488188 
1862	 0.261763317985555 
1863	 0.261542044019747 
1864	 0.261289899026474 
1865	 0.261017331834821 
1866	 0.260763719169749 
1867	 0.260448219326511 
1868	 0.26008881228287 
1869	 0.259719072896423 
1870	 0.259308393954721 
1871	 0.258873295444391 
1872	 0.258416016722676 
1873	 0.257945827726727 
1874	 0.257421005148689 
1875	 0.25687165261316 
1876	 0.256303329945617 
1877	 0.255665036845393 
1878	 0.254975297130927 
1879	 0.254259696403337 
1880	 0.253454617377061 
1881	 0.252568363457467 
1882	 0.251632675740292 
1883	 0.250650178728873 
1884	 0.249550412995254 
1885	 0.248409368836574 
1886	 0.247210984499499 
1887	 0.245908396267607 
1888	 0.244540291046857 
1889	 0.243108607288819 
1890	 0.241636893247341 
1891	 0.240162946629051 
1892	 0.238654460466415 
1893	 0.237144587959467 
1894	 0.235620023063868 
1895	 0.234085315563649 
1896	 0.232536620698798 
1897	 0.23100006912892 
1898	 0.229484912871526 
1899	 0.228015512110896 
1900	 0.226592409414628 
1901	 0.225230580273081 
1902	 0.22393610337392 
1903	 0.222715409304493 
1904	 0.221537014223002 
1905	 0.220407497193834 
1906	 0.219357008665487 
1907	 0.218373041735885 
1908	 0.217453117475102 
1909	 0.216598911394624 
1910	 0.215794704535897 
1911	 0.215018699436344 
1912	 0.214298149346947 
1913	 0.213631048641783 
1914	 0.213026265065375 
1915	 0.212452995257237 
1916	 0.211936373532105 
1917	 0.211436642452739 
1918	 0.210977868644067 
1919	 0.210539508197167 
1920	 0.210134042116015 
1921	 0.209779206476864 
1922	 0.209476811118069 
1923	 0.20922617031938 
1924	 0.209000269526825 
1925	 0.208821434229488 
1926	 0.208672086329649 
1927	 0.208545134240365 
1928	 0.20846264441711 
1929	 0.208427795095313 
1930	 0.208406771576642 
1931	 0.208406376283534 
1932	 0.208412393506584 
1933	 0.208441881455899 
1934	 0.208488813896003 
1935	 0.208565738264756 
1936	 0.208678332144819 
1937	 0.208800698903513 
1938	 0.208954707340202 
1939	 0.209109079791025 
1940	 0.209275517421834 
1941	 0.209434606455456 
1942	 0.209641389484113 
1943	 0.209868053857568 
1944	 0.210108822298253 
1945	 0.210398515602862 
1946	 0.210666179993804 
1947	 0.210913784621914 
1948	 0.211199975456228 
1949	 0.211504622822357 
1950	 0.211815007029957 
1951	 0.212157262308769 
1952	 0.212486003085136 
1953	 0.212805177940067 
1954	 0.213149396521759 
1955	 0.213473940405222 
1956	 0.213822041632056 
1957	 0.214178051584134 
1958	 0.214540341274247 
1959	 0.214909738876238 
1960	 0.215303202128672 
1961	 0.215680569317879 
1962	 0.216056813034125 
1963	 0.216437016315576 
1964	 0.21679961382148 
1965	 0.217184897234153 
1966	 0.217600487972631 
1967	 0.21802336986422 
1968	 0.218450976202196 
1969	 0.218909011995382 
1970	 0.219337098247043 
1971	 0.219760085860847 
1972	 0.220174441231871 
1973	 0.22057122911772 
1974	 0.220980368889052 
1975	 0.221391527525834 
1976	 0.221790942294492 
1977	 0.222216290911418 
1978	 0.222629015658914 
1979	 0.223032493903153 
1980	 0.223440417989714 
1981	 0.223837718239345 
1982	 0.2242096840883 
1983	 0.224618979600283 
1984	 0.225037815741906 
1985	 0.225462388744803 
1986	 0.225922040061443 
1987	 0.226352883029508 
1988	 0.226768756490436 
1989	 0.227194653049371 
1990	 0.227600114018758 
1991	 0.228022305169549 
1992	 0.228431894492993 
1993	 0.228840146342752 
1994	 0.229236023599122 
1995	 0.22962829834855 
1996	 0.230004186049397 
1997	 0.230353514839501 
1998	 0.230732200142764 
1999	 0.231107395436014 
2000	 0.231491301116657 
2001	 0.231901848842519 
2002	 0.232299038127833 
2003	 0.232695599582617 
2004	 0.233099905162411 
2005	 0.23348325664495 
2006	 0.233862837934835 
2007	 0.234228258092353 
2008	 0.23456183812887 
2009	 0.23492142603259 
2010	 0.235293927636438 
2011	 0.235656435592082 
2012	 0.23603058603647 
2013	 0.236385166219895 
2014	 0.236721843147612 
2015	 0.237056556203566 
2016	 0.237376662347552 
2017	 0.237708441901709 
2018	 0.238044923286124 
2019	 0.23838280504792 
2020	 0.238721041786192 
2021	 0.239077922193974 
2022	 0.239412412045924 
2023	 0.239731398474665 
2024	 0.240061432214749 
2025	 0.240385546773121 
2026	 0.240708274850875 
2027	 0.241035061618838 
2028	 0.241360402276108 
2029	 0.241692130127281 
2030	 0.242028786832251 
2031	 0.242352020144049 
2032	 0.242682796224838 
2033	 0.242992640371685 
2034	 0.243289253796751 
2035	 0.243570170060303 
2036	 0.243845060788512 
2037	 0.244101756170948 
2038	 0.244316289516425 
2039	 0.24455280241146 
2040	 0.244783883289849 
2041	 0.245023437721663 
2042	 0.24527148730988 
2043	 0.245528302670153 
2044	 0.245780924127793 
2045	 0.246038067630725 
2046	 0.246284420520265 
2047	 0.246534794144711 
2048	 0.246769617577883 
2049	 0.247001105291073 
2050	 0.247211700058026 
2051	 0.247398525605132 
2052	 0.247590811038156 
2053	 0.247753029973366 
2054	 0.247939317284124 
2055	 0.248136580444565 
2056	 0.248341085275024 
2057	 0.248555237308149 
2058	 0.248793551403001 
2059	 0.249008283527311 
2060	 0.249229410601032 
2061	 0.249429332163703 
2062	 0.249597089507357 
2063	 0.249789764264238 
2064	 0.24998434361022 
2065	 0.250179995656884 
2066	 0.250409331892162 
2067	 0.250601522742187 
2068	 0.250773312788301 
2069	 0.250929145731721 
2070	 0.251100226970774 
2071	 0.251245120602319 
2072	 0.251433082378076 
2073	 0.251664562007015 
2074	 0.251850652746293 
2075	 0.252045108266401 
2076	 0.252209973355211 
2077	 0.252318510659724 
2078	 0.25247333690602 
2079	 0.252637773611984 
2080	 0.252802715701873 
2081	 0.253005265907209 
2082	 0.253177353774741 
2083	 0.253326582214683 
2084	 0.253477485268536 
2085	 0.253631808283152 
2086	 0.253765436820608 
2087	 0.253936417522246 
2088	 0.254139775706623 
2089	 0.254313362428278 
2090	 0.254501800507199 
2091	 0.25466154944551 
2092	 0.254779768459523 
2093	 0.254925697098943 
2094	 0.255073832573217 
2095	 0.25522415377525 
2096	 0.255391030307417 
2097	 0.255547961138728 
2098	 0.255702513290958 
2099	 0.255847054944102 
2100	 0.255995261376575 
2101	 0.256138280712764 
2102	 0.256290110061809 
2103	 0.256434509916726 
2104	 0.256603944281678 
2105	 0.256793063029137 
2106	 0.256974987149733 
2107	 0.257179146061331 
2108	 0.25736209537469 
2109	 0.257525952439622 
2110	 0.257700514618892 
2111	 0.25785755184675 
2112	 0.258042581701365 
2113	 0.25824632269441 
2114	 0.258462107444699 
2115	 0.258661463026187 
2116	 0.258866532839376 
2117	 0.259074305537644 
2118	 0.259277816203469 
2119	 0.259472280448521 
2120	 0.259689928480444 
2121	 0.259867380898755 
2122	 0.26001372836943 
2123	 0.260156305522106 
2124	 0.260283794419196 
2125	 0.260402116770178 
2126	 0.260507659580019 
2127	 0.26060338160516 
2128	 0.260683413882037 
2129	 0.260762571378468 
2130	 0.260834474606143 
2131	 0.260894508160671 
2132	 0.260963318646475 
2133	 0.261042999337265 
2134	 0.26109272409963 
2135	 0.261131640424322 
2136	 0.261165924955168 
2137	 0.261174935845944 
2138	 0.261193826058854 
2139	 0.261234341022092 
2140	 0.261235272301338 
2141	 0.261220232693228 
2142	 0.261190924218863 
2143	 0.261140135032493 
2144	 0.261070807161633 
2145	 0.260976184763489 
2146	 0.260882021578307 
2147	 0.260747760628395 
2148	 0.260646674550584 
2149	 0.260543997948684 
2150	 0.260454920243426 
2151	 0.260350837180881 
2152	 0.260255451213861 
2153	 0.260134082334956 
2154	 0.260003622130263 
2155	 0.259853485180026 
2156	 0.259698810491532 
2157	 0.259506840121041 
2158	 0.259267296949698 
2159	 0.25904622712809 
2160	 0.258808001067331 
2161	 0.258566647459318 
2162	 0.258312095476716 
2163	 0.258085591763908 
2164	 0.257875528793229 
2165	 0.257649559839591 
2166	 0.257424846423919 
2167	 0.257227622043151 
2168	 0.256998618325258 
2169	 0.256741631822088 
2170	 0.256491224531469 
2171	 0.256241637821702 
2172	 0.255987067424416 
2173	 0.255725772744412 
2174	 0.255453291514045 
2175	 0.255178215300776 
2176	 0.254895375871506 
2177	 0.254593901650331 
2178	 0.25429503100754 
2179	 0.254010401796042 
2180	 0.253697752869732 
2181	 0.253355670127045 
2182	 0.253024522937782 
2183	 0.252665179360092 
2184	 0.252327129052521 
2185	 0.252014812720619 
2186	 0.251734471072099 
2187	 0.251429798619293 
2188	 0.251127113859059 
2189	 0.250841062331898 
2190	 0.250554409409749 
2191	 0.250269094752975 
2192	 0.249997570006407 
2193	 0.249735450335526 
2194	 0.24944469382066 
2195	 0.249207464575206 
2196	 0.24901775077339 
2197	 0.248828127654173 
2198	 0.248651479006655 
2199	 0.248502528583642 
2200	 0.24836253870561 
2201	 0.248255658083862 
2202	 0.24818313982949 
2203	 0.248138225683714 
2204	 0.248104734410118 
2205	 0.248085413030898 
2206	 0.248106865216545 
2207	 0.248164476947865 
2208	 0.248218751126328 
2209	 0.248306268094118 
2210	 0.248392387024433 
2211	 0.248469734420857 
2212	 0.248575569650307 
2213	 0.248707797688 
2214	 0.248842999023179 
2215	 0.249016171615152 
2216	 0.249148924015167 
2217	 0.249281332988625 
2218	 0.249392692308746 
2219	 0.249455556154904 
2220	 0.249542187517641 
2221	 0.249638927388381 
2222	 0.249720831891066 
2223	 0.249820717268492 
2224	 0.249905648974724 
2225	 0.249967642057062 
2226	 0.250007510371336 
2227	 0.250056919208392 
2228	 0.250080947601516 
2229	 0.250136572024855 
2230	 0.25022338945822 
2231	 0.250270400364229 
2232	 0.250325009937765 
2233	 0.250344585522381 
2234	 0.250324176075777 
2235	 0.250308524426515 
2236	 0.250270812493382 
2237	 0.250244716363911 
2238	 0.250200990150932 
2239	 0.25018517835971 
2240	 0.25021597722389 
2241	 0.250199048737076 
2242	 0.250167274350151 
2243	 0.250137796092675 
2244	 0.250085040902723 
2245	 0.250019928602513 
2246	 0.249973915428776 
2247	 0.249935671481343 
2248	 0.249861539655269 
2249	 0.249747975789859 
2250	 0.249682031701741 
2251	 0.249613510770215 
2252	 0.249558524601929 
2253	 0.249551205611654 
2254	 0.249489929145814 
2255	 0.249396295388805 
2256	 0.249327540919385 
2257	 0.249233724919989 
2258	 0.24918488835452 
2259	 0.249173795572475 
2260	 0.249150839971888 
2261	 0.249155235631607 
2262	 0.249131632403436 
2263	 0.249082922244922 
2264	 0.249052904454612 
2265	 0.249004326232581 
2266	 0.248992138165843 
2267	 0.249000113581673 
2268	 0.249027391980973 
2269	 0.249082277776622 
2270	 0.249152834150723 
2271	 0.249234985455918 
2272	 0.249327573633231 
2273	 0.24936961278898 
2274	 0.249391018769534 
2275	 0.249416302591529 
2276	 0.24940186131475 
2277	 0.249422979897178 
2278	 0.249471708966133 
2279	 0.24949744462159 
2280	 0.24950259247506 
2281	 0.249542061157466 
2282	 0.249613036587987 
2283	 0.249637074553842 
2284	 0.249652242252027 
2285	 0.249683250301542 
2286	 0.249678169164964 
2287	 0.249705821922473 
2288	 0.249789882746556 
2289	 0.249825212164321 
2290	 0.249858742570442 
2291	 0.249853221839222 
2292	 0.249790248293614 
2293	 0.249757443221406 
2294	 0.249701863295553 
2295	 0.249664314428492 
2296	 0.249636980179325 
2297	 0.249650759750787 
2298	 0.249638917288924 
2299	 0.249616440532269 
2300	 0.249636334165023 
2301	 0.249645927351066 
2302	 0.249617447056677 
2303	 0.249601744888277 
2304	 0.249555105002539 
2305	 0.249484537293638 
2306	 0.249427491892115 
2307	 0.249370753095932 
2308	 0.249332387235026 
2309	 0.249314693729802 
2310	 0.249253086771822 
2311	 0.24918502126035 
2312	 0.249125320798137 
2313	 0.249032688487307 
2314	 0.248954032820176 
2315	 0.248917423126674 
2316	 0.248837157922655 
2317	 0.248716878869442 
2318	 0.248605733940822 
2319	 0.248476927025466 
2320	 0.248369665877135 
2321	 0.248258785611272 
2322	 0.2481692473534 
2323	 0.248107264678302 
2324	 0.248037222515323 
2325	 0.247967857504089 
2326	 0.247919217350035 
2327	 0.247900772917847 
2328	 0.247849107401193 
2329	 0.247784964557587 
2330	 0.247704293001526 
2331	 0.247613320181789 
2332	 0.247538299157379 
2333	 0.247494222554709 
2334	 0.247475741789886 
2335	 0.247445197037835 
2336	 0.247424700058435 
2337	 0.247379016431453 
2338	 0.247292837076788 
2339	 0.247166694587685 
2340	 0.246996040462321 
2341	 0.246868359311011 
2342	 0.246755254291994 
2343	 0.246678028564745 
2344	 0.2466193810564 
2345	 0.246497714562228 
2346	 0.246327522614596 
2347	 0.24620547140156 
2348	 0.24605462590876 
2349	 0.245944521900316 
2350	 0.245929045907856 
2351	 0.245811089512749 
2352	 0.245620195472413 
2353	 0.245464944947767 
2354	 0.24527912306449 
2355	 0.245110991441468 
2356	 0.244975634658578 
2357	 0.244844210273008 
2358	 0.244689675402092 
2359	 0.24456923728743 
2360	 0.244491441703917 
2361	 0.244384736007251 
2362	 0.244310353451381 
2363	 0.244194948249942 
2364	 0.244024630719567 
2365	 0.243875517660967 
2366	 0.243723561590235 
2367	 0.243554370150175 
2368	 0.243360754410426 
2369	 0.243233025850157 
2370	 0.243164163989757 
2371	 0.243007270546094 
2372	 0.242865650643819 
2373	 0.242667528332622 
2374	 0.242371957372762 
2375	 0.242123693041693 
2376	 0.24193119929954 
2377	 0.241775536134482 
2378	 0.241629466304988 
2379	 0.241435481760112 
2380	 0.241220695839977 
2381	 0.241000990659652 
2382	 0.240727973831569 
2383	 0.240467176900859 
2384	 0.240279257752167 
2385	 0.240061219205056 
2386	 0.239824079520641 
2387	 0.239640044233271 
2388	 0.239418125620374 
2389	 0.239171479824006 
2390	 0.238964255718926 
2391	 0.238751842266638 
2392	 0.238500212816354 
2393	 0.238199255069533 
2394	 0.237961339859167 
2395	 0.237773051387029 
2396	 0.23755026666811 
2397	 0.237335968171555 
2398	 0.237116070947571 
2399	 0.236796651535992 
2400	 0.236467053420439 
2401	 0.236202215077572 
2402	 0.235872716924055 
2403	 0.235594421462861 
2404	 0.235354335159096 
2405	 0.235028419840335 
2406	 0.23474367015795 
2407	 0.234414179934093 
2408	 0.233997169649875 
2409	 0.233674830575326 
2410	 0.233420325469447 
2411	 0.233121035044039 
2412	 0.232806128454558 
2413	 0.232544333515485 
2414	 0.232195817816033 
2415	 0.231798581006375 
2416	 0.231524171892196 
2417	 0.231364872594843 
2418	 0.231102749670181 
2419	 0.230921511543364 
2420	 0.230637700802195 
2421	 0.230219643512712 
2422	 0.229880912906497 
2423	 0.22953191760853 
2424	 0.229129085448242 
2425	 0.228735732725948 
2426	 0.228329657480526 
2427	 0.227884512682072 
2428	 0.227513355370714 
2429	 0.227159335263345 
2430	 0.226833226536714 
2431	 0.2265514423487 
2432	 0.226164994487015 
2433	 0.225742797559473 
2434	 0.225379349509491 
2435	 0.224952510752189 
2436	 0.22465764931036 
2437	 0.224525252366735 
2438	 0.224266777428471 
2439	 0.224007181868025 
2440	 0.223680910131054 
2441	 0.223273044208436 
2442	 0.222946254873691 
2443	 0.222602173580216 
2444	 0.22230394610091 
2445	 0.22207508366568 
2446	 0.221744419199219 
2447	 0.221427917724518 
2448	 0.221014407267254 
2449	 0.220454368745238 
2450	 0.220031607387121 
2451	 0.2195799437812 
2452	 0.219266626878156 
2453	 0.219150965776908 
2454	 0.218900135312195 
2455	 0.218604406735746 
2456	 0.218219983962389 
2457	 0.217769935055289 
2458	 0.217389919185733 
2459	 0.217066991540346 
2460	 0.216776471375538 
2461	 0.21652187905006 
2462	 0.216123872189063 
2463	 0.215536076834179 
2464	 0.215118976643763 
2465	 0.214714789533524 
2466	 0.214389747530435 
2467	 0.214310511125152 
2468	 0.214053073588147 
2469	 0.213687414059307 
2470	 0.2132633712313 
2471	 0.212932624717759 
2472	 0.212631896629165 
2473	 0.212564506775187 
2474	 0.212557901733653 
2475	 0.212167416503472 
2476	 0.211816300254985 
2477	 0.211399979522887 
2478	 0.210781989177603 
2479	 0.210636275507057 
2480	 0.210646180447253 
2481	 0.210508890080958 
2482	 0.210584284960785 
2483	 0.210406834899675 
2484	 0.210059312605702 
2485	 0.209890738978204 
2486	 0.209639371067972 
2487	 0.209385927730193 
2488	 0.209178964207129 
2489	 0.208803130541132 
2490	 0.20838594268817 
2491	 0.208159631786449 
2492	 0.207919908512208 
2493	 0.207767065204793 
2494	 0.207693616975691 
2495	 0.207303503594228 
2496	 0.207002106718933 
2497	 0.206738213202803 
2498	 0.206301801890915 
2499	 0.206206221530095 
2500	 0.206070391447232 
