Wavelength	mm1600005.asd
350	 6.45305992155599E-02 
351	 7.17241352610489E-02 
352	 6.97757047857981E-02 
353	 6.19673579271302E-02 
354	 6.24252652996514E-02 
355	 6.67890440475456E-02 
356	 0.069907324146275 
357	 6.88089309935558E-02 
358	 6.89076984310476E-02 
359	 6.70726581604026E-02 
360	 6.31542046008358E-02 
361	 5.91661328273987E-02 
362	 5.54076198823344E-02 
363	 5.51752097626151E-02 
364	 5.82346142040693E-02 
365	 5.86088176374404E-02 
366	 0.060341788825949 
367	 6.24190000255954E-02 
368	 6.31201454599095E-02 
369	 6.29164995464393E-02 
370	 6.52238310221968E-02 
371	 6.80429553704028E-02 
372	 6.64541089441025E-02 
373	 6.72962225131146E-02 
374	 6.95703227845894E-02 
375	 7.14028297334941E-02 
376	 7.13915572976933E-02 
377	 6.84505387922981E-02 
378	 6.69139929902798E-02 
379	 7.02552558591459E-02 
380	 7.12662918434608E-02 
381	 7.15955701891506E-02 
382	 7.23354390546686E-02 
383	 7.37263527508703E-02 
384	 7.32755916001692E-02 
385	 7.30887121177069E-02 
386	 7.45568722953476E-02 
387	 0.076638777359605 
388	 7.74431516698675E-02 
389	 7.70701921016743E-02 
390	 7.67087385407605E-02 
391	 7.89812023415226E-02 
392	 8.02324387586787E-02 
393	 8.09378073371529E-02 
394	 8.47488072010166E-02 
395	 8.46677729219609E-02 
396	 8.45914147199599E-02 
397	 0.087134543469868 
398	 8.85448082300042E-02 
399	 8.85190470999729E-02 
400	 8.87702135567447E-02 
401	 9.09043139686197E-02 
402	 9.10855194030145E-02 
403	 9.10872592569505E-02 
404	 9.15530420117128E-02 
405	 9.16852577832524E-02 
406	 9.35355845784811E-02 
407	 0.095219810296473 
408	 9.52730578603208E-02 
409	 9.50854745297672E-02 
410	 9.53728847636739E-02 
411	 9.59462688650156E-02 
412	 9.62436605481821E-02 
413	 9.66868539742458E-02 
414	 9.69839317679303E-02 
415	 9.71915964086374E-02 
416	 9.78926119302185E-02 
417	 9.79281361840334E-02 
418	 0.098163198759765 
419	 9.91772217496633E-02 
420	 0.098846112825015 
421	 9.88313216376614E-02 
422	 9.92343090989218E-02 
423	 9.91993708742825E-02 
424	 9.96225334080517E-02 
425	 9.95451571517884E-02 
426	 9.88739115430387E-02 
427	 9.95724183278106E-02 
428	 9.92632699163813E-02 
429	 9.86207832371072E-02 
430	 9.88982350404952E-02 
431	 9.90539210175793E-02 
432	 9.89575842116618E-02 
433	 9.86195975927204E-02 
434	 0.098162354250867 
435	 9.86724004796341E-02 
436	 9.94700290024038E-02 
437	 9.98045181351264E-02 
438	 0.099604690795088 
439	 0.099767600440309 
440	 0.100399084727513 
441	 0.101121719643615 
442	 0.101303717319844 
443	 0.10173560120789 
444	 0.102553422779783 
445	 0.102702523566838 
446	 0.102969831384973 
447	 0.103370001348582 
448	 0.103738881484533 
449	 0.10412889231089 
450	 0.104493703277467 
451	 0.104933328059414 
452	 0.105632045623744 
453	 0.10594534969601 
454	 0.106027435086576 
455	 0.106177941077728 
456	 0.106680823538995 
457	 0.107319791902416 
458	 0.107743874711279 
459	 0.10768100931733 
460	 0.107916047509124 
461	 0.108217402085105 
462	 0.108404038351324 
463	 0.108496003693724 
464	 0.108759459345138 
465	 0.109088844894932 
466	 0.109337699225378 
467	 0.109687227779944 
468	 0.109862332801158 
469	 0.109951513448282 
470	 0.110308581496424 
471	 0.110546979954474 
472	 0.110569898807601 
473	 0.110475079512396 
474	 0.110679233870175 
475	 0.110995436595977 
476	 0.111304966139181 
477	 0.111506217861794 
478	 0.111454365854302 
479	 0.111511057424339 
480	 0.111803940043829 
481	 0.112087851876186 
482	 0.112302026448033 
483	 0.11245564782055 
484	 0.112594904257727 
485	 0.11281256882868 
486	 0.112797173297306 
487	 0.112702263808961 
488	 0.11302232489196 
489	 0.113096249364058 
490	 0.113137863347611 
491	 0.113388248770849 
492	 0.113838066236696 
493	 0.113845569672749 
494	 0.113718921467116 
495	 0.114100671464011 
496	 0.114349706186917 
497	 0.114443670108603 
498	 0.11446722546825 
499	 0.114562053482353 
500	 0.114801938022712 
501	 0.114990074552292 
502	 0.114990453725888 
503	 0.115328470756356 
504	 0.11557899017495 
505	 0.115669948434943 
506	 0.115865282819237 
507	 0.11587138328557 
508	 0.116012927942211 
509	 0.116417577231984 
510	 0.116371487882748 
511	 0.116344016571557 
512	 0.116440651575117 
513	 0.116574413246138 
514	 0.116791896341173 
515	 0.116873827043451 
516	 0.116835553700333 
517	 0.117140612990663 
518	 0.117429489744429 
519	 0.117557649498383 
520	 0.117526266188414 
521	 0.117687517205572 
522	 0.117866605508271 
523	 0.11799800810399 
524	 0.118161105405807 
525	 0.118270651367654 
526	 0.118335201119458 
527	 0.118406796824056 
528	 0.118617676289555 
529	 0.118746559406426 
530	 0.118785625520027 
531	 0.118868695219841 
532	 0.118986392430584 
533	 0.119181324055072 
534	 0.11942522913705 
535	 0.11952502592699 
536	 0.11965965796028 
537	 0.119842600625573 
538	 0.12002598397516 
539	 0.120223373947101 
540	 0.120359139649385 
541	 0.120438375433937 
542	 0.120578457806696 
543	 0.120682413893767 
544	 0.120853213565091 
545	 0.121156036885929 
546	 0.121296890780336 
547	 0.121435827328789 
548	 0.121603156361723 
549	 0.121717565576895 
550	 0.121945636226573 
551	 0.122209134818013 
552	 0.122435286915183 
553	 0.122698862511365 
554	 0.122874747769151 
555	 0.123012621509318 
556	 0.123246573612937 
557	 0.12355234201945 
558	 0.123878530869608 
559	 0.124207379770109 
560	 0.124598667009348 
561	 0.124840265322485 
562	 0.125065296353601 
563	 0.12546140268433 
564	 0.125797358579827 
565	 0.126090635039177 
566	 0.126349360988325 
567	 0.126557164599914 
568	 0.126899904284864 
569	 0.127317236557781 
570	 0.127734558126275 
571	 0.128260204559224 
572	 0.128791936013458 
573	 0.12928381306447 
574	 0.12973786554877 
575	 0.130190355210234 
576	 0.130731986549721 
577	 0.131358813341145 
578	 0.131838386569555 
579	 0.132356143377329 
580	 0.132891411894557 
581	 0.13335003120206 
582	 0.133752716325917 
583	 0.134201384309219 
584	 0.134738221707899 
585	 0.135312648891067 
586	 0.136037837275122 
587	 0.136786963123533 
588	 0.137430903745268 
589	 0.13815609778913 
590	 0.138921521714736 
591	 0.139669568552443 
592	 0.140339736514122 
593	 0.140927434788598 
594	 0.141497814571202 
595	 0.142073094614811 
596	 0.142512301153318 
597	 0.142987308245484 
598	 0.143511692416077 
599	 0.14402372616872 
600	 0.144607999464123 
601	 0.145224363191727 
602	 0.145821265002516 
603	 0.146351111756561 
604	 0.146898913422816 
605	 0.147469047254853 
606	 0.148045105817353 
607	 0.148677096734012 
608	 0.149258096940673 
609	 0.149763964891621 
610	 0.15027451437296 
611	 0.150743571228956 
612	 0.151152286090043 
613	 0.151502048279133 
614	 0.151839974328697 
615	 0.152172198035271 
616	 0.152492022314081 
617	 0.152788978232738 
618	 0.15315737403957 
619	 0.153509801265843 
620	 0.153787713024842 
621	 0.154043530889008 
622	 0.154327088302832 
623	 0.154623603775936 
624	 0.154892962841299 
625	 0.155143295805548 
626	 0.155380276834194 
627	 0.155618446083934 
628	 0.155883189229325 
629	 0.156134454436865 
630	 0.156361848373647 
631	 0.156570068668647 
632	 0.156775231989372 
633	 0.157031495437373 
634	 0.157298214805096 
635	 0.15746979019133 
636	 0.157705823086705 
637	 0.157970433051062 
638	 0.158200167770547 
639	 0.158339837395116 
640	 0.158532375169213 
641	 0.158786542168662 
642	 0.159041036163257 
643	 0.159252915683027 
644	 0.159442077191261 
645	 0.15962380380866 
646	 0.159793307084153 
647	 0.160022371989173 
648	 0.16027732005881 
649	 0.160512764334501 
650	 0.160788080035093 
651	 0.161028929368793 
652	 0.16123002124284 
653	 0.161448747496927 
654	 0.161685400307681 
655	 0.161923325193904 
656	 0.162155634324258 
657	 0.162406684891836 
658	 0.162695079617708 
659	 0.16296248242833 
660	 0.163143086652876 
661	 0.163416893096358 
662	 0.163743385962963 
663	 0.164044354702325 
664	 0.164215795608856 
665	 0.164503071375653 
666	 0.164846384260423 
667	 0.165129545016535 
668	 0.165405787852704 
669	 0.165683519585183 
670	 0.165999436330857 
671	 0.166397094685261 
672	 0.166644096682204 
673	 0.166880988182876 
674	 0.167225431251086 
675	 0.167588711272627 
676	 0.167939717126081 
677	 0.168252057193899 
678	 0.168526645415883 
679	 0.168893190895594 
680	 0.169271485195642 
681	 0.169625981774602 
682	 0.170004168522968 
683	 0.170335342952824 
684	 0.170680654929428 
685	 0.171089397391841 
686	 0.171438684925063 
687	 0.17182039410289 
688	 0.1722284605457 
689	 0.172591109637645 
690	 0.172962181438329 
691	 0.173350115921406 
692	 0.17374558350463 
693	 0.174117849329021 
694	 0.174479665527106 
695	 0.174875532600921 
696	 0.175334082033489 
697	 0.175729890622533 
698	 0.176135078271098 
699	 0.176557761629119 
700	 0.17692996513813 
701	 0.177352037204865 
702	 0.177781497482505 
703	 0.178173563494982 
704	 0.178564332917095 
705	 0.178957329264607 
706	 0.179356162857681 
707	 0.179766707769991 
708	 0.180232012217055 
709	 0.180660310675505 
710	 0.18102428309156 
711	 0.181408335322599 
712	 0.181822493833775 
713	 0.182216647398366 
714	 0.182562791163351 
715	 0.182995659828963 
716	 0.183375364956582 
717	 0.18370109997181 
718	 0.184075321989675 
719	 0.184502498498778 
720	 0.184874495551308 
721	 0.185156985829619 
722	 0.185488514065714 
723	 0.185823492203524 
724	 0.186135427166596 
725	 0.186417336966559 
726	 0.186743297079745 
727	 0.187024958527442 
728	 0.187267416409127 
729	 0.187563820296891 
730	 0.187853643936727 
731	 0.188114567082923 
732	 0.188338035152592 
733	 0.188521717125455 
734	 0.188760824653427 
735	 0.188995164148371 
736	 0.18912956457197 
737	 0.189296205849697 
738	 0.189476004372914 
739	 0.189636104614498 
740	 0.189744044875026 
741	 0.189885454989575 
742	 0.190002166834241 
743	 0.190056374543229 
744	 0.19015551452654 
745	 0.190205172770711 
746	 0.190235136104562 
747	 0.190317927964999 
748	 0.190387798285239 
749	 0.190367929783083 
750	 0.190290938957304 
751	 0.190316325897019 
752	 0.190306239854723 
753	 0.190251007220427 
754	 0.190183554819086 
755	 0.190175544377878 
756	 0.190136325747902 
757	 0.19003158206092 
758	 0.189877764798022 
759	 0.189805802465445 
760	 0.189749593344445 
761	 0.189672545721959 
762	 0.189599680264389 
763	 0.189419535164131 
764	 0.189243012888699 
765	 0.189157471652601 
766	 0.189022800976486 
767	 0.188868892827479 
768	 0.188712233452078 
769	 0.188563228866674 
770	 0.188427835166399 
771	 0.188261847675902 
772	 0.188058001255984 
773	 0.187857896540116 
774	 0.187666169830863 
775	 0.187498747922502 
776	 0.187349372489099 
777	 0.187148146885781 
778	 0.186954799108893 
779	 0.186776738672962 
780	 0.18659231028637 
781	 0.186358994422035 
782	 0.186158640712442 
783	 0.185999558521602 
784	 0.185806392784831 
785	 0.185639885772338 
786	 0.185454711592137 
787	 0.185224810068587 
788	 0.185010358291069 
789	 0.184850059065984 
790	 0.184684676503034 
791	 0.184448478910186 
792	 0.184264623567631 
793	 0.184073066177903 
794	 0.183879234152731 
795	 0.183741186925558 
796	 0.183529292691254 
797	 0.183316967124054 
798	 0.183153913636693 
799	 0.182987778594653 
800	 0.182818990718421 
801	 0.18263868620566 
802	 0.182450971433101 
803	 0.182313144654358 
804	 0.182173482465925 
805	 0.182011501609004 
806	 0.18183257592876 
807	 0.181653356880238 
808	 0.181506143449193 
809	 0.181373212951071 
810	 0.181174668064129 
811	 0.181030620867131 
812	 0.180874796619661 
813	 0.180673136035844 
814	 0.180598483232444 
815	 0.180518457362723 
816	 0.180390338873139 
817	 0.18021950367228 
818	 0.180038918585082 
819	 0.179931110089502 
820	 0.179864473805871 
821	 0.179722018420051 
822	 0.179620015123894 
823	 0.179500471888506 
824	 0.179350924798289 
825	 0.179272097788877 
826	 0.179240080926442 
827	 0.179171734937916 
828	 0.179020973507022 
829	 0.178912366287028 
830	 0.178784181321912 
831	 0.178675540371308 
832	 0.178650729945158 
833	 0.178624326770732 
834	 0.178558479773543 
835	 0.178475481280462 
836	 0.178443315822728 
837	 0.178398931582407 
838	 0.178337184741837 
839	 0.178269997990496 
840	 0.178222837770279 
841	 0.178107917725903 
842	 0.178011407388054 
843	 0.178010201740984 
844	 0.177995232176587 
845	 0.178013552839274 
846	 0.178001389459529 
847	 0.177891602835646 
848	 0.17788730350108 
849	 0.17789657280352 
850	 0.177887314723204 
851	 0.177890828231642 
852	 0.177869535909008 
853	 0.177854251022475 
854	 0.177868527849017 
855	 0.177910185900241 
856	 0.177939663989489 
857	 0.177933389748104 
858	 0.177910901228416 
859	 0.177990396427779 
860	 0.178041786666488 
861	 0.178035177463815 
862	 0.178001083237579 
863	 0.178041416784646 
864	 0.178139986792435 
865	 0.178209382797902 
866	 0.178163010803262 
867	 0.178221074445565 
868	 0.1782617622573 
869	 0.178264761845698 
870	 0.178335517415893 
871	 0.178398795159178 
872	 0.178474382823141 
873	 0.178570059745324 
874	 0.178651062613446 
875	 0.178783729052319 
876	 0.178907059385926 
877	 0.178972327943415 
878	 0.179042333856866 
879	 0.179147289713 
880	 0.179264525576258 
881	 0.179364265393591 
882	 0.179483717588077 
883	 0.179600758062236 
884	 0.179743563804925 
885	 0.179940689806581 
886	 0.180052389557422 
887	 0.180151045121663 
888	 0.180248970160622 
889	 0.180310852833927 
890	 0.18049055204688 
891	 0.180693085634979 
892	 0.180851827378771 
893	 0.180984380998103 
894	 0.181187504329254 
895	 0.181381059599125 
896	 0.181524786879994 
897	 0.181713949963059 
898	 0.181896576197632 
899	 0.182083013009711 
900	 0.182271276810307 
901	 0.182377858576355 
902	 0.182557138473692 
903	 0.182801629935203 
904	 0.183040719946725 
905	 0.183209254331616 
906	 0.183412908517336 
907	 0.183641426691668 
908	 0.183852346292613 
909	 0.184166721177625 
910	 0.184428391850629 
911	 0.184602540445157 
912	 0.184763910246011 
913	 0.185046632242728 
914	 0.185335554538669 
915	 0.185586262398489 
916	 0.185839301760219 
917	 0.186092046401784 
918	 0.186338687342123 
919	 0.186563770665499 
920	 0.186754568491119 
921	 0.187097409651727 
922	 0.187447953097467 
923	 0.187744725099705 
924	 0.188125884746016 
925	 0.18839618516754 
926	 0.188717962362612 
927	 0.189115446339175 
928	 0.189231899415598 
929	 0.189551985629889 
930	 0.190005205374696 
931	 0.190407356864941 
932	 0.190669529280465 
933	 0.190980730263767 
934	 0.191361168908819 
935	 0.191776699373557 
936	 0.192220576422328 
937	 0.192487993888984 
938	 0.192678512773068 
939	 0.192981920586827 
940	 0.193497299112444 
941	 0.193909109212187 
942	 0.194274879327289 
943	 0.194738542495141 
944	 0.195128005498008 
945	 0.195450859475069 
946	 0.195801579522199 
947	 0.196258330411629 
948	 0.196657943719619 
949	 0.197043378834462 
950	 0.197412736861497 
951	 0.197772923040783 
952	 0.198301840661489 
953	 0.198694904962905 
954	 0.199056725722455 
955	 0.199640313577957 
956	 0.200093676474103 
957	 0.200589302765805 
958	 0.201075223980722 
959	 0.201415293397585 
960	 0.201888166838949 
961	 0.202418545688192 
962	 0.202946199320611 
963	 0.203419890566342 
964	 0.203694542247324 
965	 0.204039104528951 
966	 0.204564521106718 
967	 0.205200756928202 
968	 0.205693621988107 
969	 0.206178011280379 
970	 0.20668171981825 
971	 0.207156538981908 
972	 0.207698267442478 
973	 0.208274047340208 
974	 0.208789060355047 
975	 0.209177197895781 
976	 0.209719345088311 
977	 0.210271683952904 
978	 0.21076229604905 
979	 0.211199282795619 
980	 0.211599933413849 
981	 0.212168435299675 
982	 0.212859055422671 
983	 0.213463970740908 
984	 0.21386856785989 
985	 0.21435124675181 
986	 0.214907804929998 
987	 0.21540477519573 
988	 0.21605763019242 
989	 0.216459594023908 
990	 0.21674765728816 
991	 0.21726170511931 
992	 0.217793335715206 
993	 0.218340084709805 
994	 0.21887182035983 
995	 0.219368354084292 
996	 0.219895723846507 
997	 0.220375051581954 
998	 0.220869891033392 
999	 0.221427450328473 
1000	 0.221822601354118 
1001	 0.217433250998836 
1002	 0.217850181191705 
1003	 0.218207806532081 
1004	 0.218631888870816 
1005	 0.219051239446214 
1006	 0.21947748994484 
1007	 0.219937108257616 
1008	 0.220425365548289 
1009	 0.220877628901664 
1010	 0.221282691856735 
1011	 0.221646743745001 
1012	 0.222026977897687 
1013	 0.222352342714261 
1014	 0.222710410614972 
1015	 0.223121609663628 
1016	 0.223482474106031 
1017	 0.223892442834541 
1018	 0.224358160474603 
1019	 0.224773441333712 
1020	 0.225071668152695 
1021	 0.225427109753705 
1022	 0.225803667032661 
1023	 0.226119023983819 
1024	 0.226448066030106 
1025	 0.226800025740319 
1026	 0.227128012506306 
1027	 0.227500226061138 
1028	 0.227932310878862 
1029	 0.228319307639425 
1030	 0.22861011896881 
1031	 0.228900975995621 
1032	 0.229116688034113 
1033	 0.229348007089914 
1034	 0.229634548202944 
1035	 0.229974389772505 
1036	 0.230294832291025 
1037	 0.230619638804793 
1038	 0.230988696491509 
1039	 0.231295018529276 
1040	 0.2315795135404 
1041	 0.231941164099416 
1042	 0.232253313084283 
1043	 0.232555341767933 
1044	 0.232891323723367 
1045	 0.233305483497861 
1046	 0.23355998920086 
1047	 0.233757903928938 
1048	 0.234068860020271 
1049	 0.234292788450987 
1050	 0.234586844661727 
1051	 0.235006206310661 
1052	 0.235327771433609 
1053	 0.235654780312109 
1054	 0.235973383533675 
1055	 0.236220841424608 
1056	 0.236499592755482 
1057	 0.236790416670171 
1058	 0.237084919106278 
1059	 0.237371152538702 
1060	 0.237672661256949 
1061	 0.237977177231426 
1062	 0.238209036369439 
1063	 0.238455550824977 
1064	 0.238759624807399 
1065	 0.239004097978547 
1066	 0.239313034831537 
1067	 0.239666221848465 
1068	 0.239936727545538 
1069	 0.240192900213688 
1070	 0.240446940152807 
1071	 0.240667319464583 
1072	 0.240903582850568 
1073	 0.241142361136629 
1074	 0.241395371924866 
1075	 0.241663586549916 
1076	 0.241889005129547 
1077	 0.242175847405615 
1078	 0.242436006953108 
1079	 0.242669176114632 
1080	 0.242924533534599 
1081	 0.243104257284123 
1082	 0.243280674624832 
1083	 0.243494539213865 
1084	 0.243714905704772 
1085	 0.243938496146197 
1086	 0.24420348505693 
1087	 0.24444381058549 
1088	 0.244678982573056 
1089	 0.244897709825593 
1090	 0.245088623376468 
1091	 0.245245060543293 
1092	 0.245439339748573 
1093	 0.245637933020948 
1094	 0.245849645571008 
1095	 0.246096053428883 
1096	 0.246302516307665 
1097	 0.246481714374936 
1098	 0.24666536749721 
1099	 0.246837204552058 
1100	 0.247021168469136 
1101	 0.247203205450522 
1102	 0.247394249678338 
1103	 0.247595468537511 
1104	 0.247804703941249 
1105	 0.248008649455697 
1106	 0.248187263005483 
1107	 0.248352413296509 
1108	 0.24852299112482 
1109	 0.248710200992673 
1110	 0.248912025255712 
1111	 0.249116706208936 
1112	 0.249368940117031 
1113	 0.249551988171558 
1114	 0.24969571898147 
1115	 0.249858009443354 
1116	 0.249997599597003 
1117	 0.250148665628989 
1118	 0.250313993943509 
1119	 0.25045957038153 
1120	 0.250643894685061 
1121	 0.250845190400219 
1122	 0.251011304239318 
1123	 0.251211581718437 
1124	 0.251394238267228 
1125	 0.251536587866121 
1126	 0.251704207963045 
1127	 0.251905584853043 
1128	 0.252080639416274 
1129	 0.252239527499077 
1130	 0.252411765616246 
1131	 0.252589321647503 
1132	 0.252753401883715 
1133	 0.252904986909901 
1134	 0.253067525445427 
1135	 0.253226721237625 
1136	 0.253387362286731 
1137	 0.253570599483086 
1138	 0.253768019166758 
1139	 0.253941343106185 
1140	 0.25411864235377 
1141	 0.254275414167992 
1142	 0.254411760102699 
1143	 0.254544527086254 
1144	 0.254664617832444 
1145	 0.25478790235655 
1146	 0.254900706047302 
1147	 0.255019333026101 
1148	 0.255142668208093 
1149	 0.255261538145325 
1150	 0.255366361769991 
1151	 0.255495060797471 
1152	 0.255630982729217 
1153	 0.255770770494748 
1154	 0.255905056624423 
1155	 0.25605081468828 
1156	 0.256183101557315 
1157	 0.256300745004405 
1158	 0.256426900427244 
1159	 0.256558141411987 
1160	 0.256684494336261 
1161	 0.256806800419983 
1162	 0.25693144776828 
1163	 0.257052957285496 
1164	 0.257176517947067 
1165	 0.257287562967513 
1166	 0.257432524247514 
1167	 0.25756547210681 
1168	 0.25771624878426 
1169	 0.257850061425302 
1170	 0.257983128253179 
1171	 0.258113917461226 
1172	 0.258243391939015 
1173	 0.258359356592857 
1174	 0.258463546405007 
1175	 0.258583039535734 
1176	 0.258705938668321 
1177	 0.258814108602125 
1178	 0.258931589701757 
1179	 0.2590382965813 
1180	 0.259109082162948 
1181	 0.259203626818258 
1182	 0.259302112390592 
1183	 0.259420345500729 
1184	 0.259539844851678 
1185	 0.259671732193815 
1186	 0.259798711290644 
1187	 0.259947675057477 
1188	 0.260051515319755 
1189	 0.260123955287044 
1190	 0.260223060858318 
1191	 0.260310557911096 
1192	 0.260400613083292 
1193	 0.260506205080054 
1194	 0.260611250140496 
1195	 0.260702014991758 
1196	 0.260801939688743 
1197	 0.260931351355445 
1198	 0.261038321997637 
1199	 0.261135800175558 
1200	 0.261216986787393 
1201	 0.261314210116209 
1202	 0.261404236642298 
1203	 0.261506679185381 
1204	 0.261628215422073 
1205	 0.261730846953274 
1206	 0.261824026650886 
1207	 0.261926099990671 
1208	 0.262032413842262 
1209	 0.262127077545306 
1210	 0.262222607747084 
1211	 0.262313938822538 
1212	 0.262384629136727 
1213	 0.262469655503724 
1214	 0.262572129930701 
1215	 0.26266133274155 
1216	 0.262746934989362 
1217	 0.262830960429734 
1218	 0.262915957336019 
1219	 0.262988423167847 
1220	 0.263078466481442 
1221	 0.263184301409131 
1222	 0.263276525553343 
1223	 0.26337525327261 
1224	 0.263459395891407 
1225	 0.263533287895265 
1226	 0.263603417842821 
1227	 0.263655155726819 
1228	 0.263722997992004 
1229	 0.263789981807673 
1230	 0.263864880356813 
1231	 0.263962828411232 
1232	 0.264046012103276 
1233	 0.264124886798749 
1234	 0.264200173681224 
1235	 0.2642764383007 
1236	 0.264350164011156 
1237	 0.264414982490633 
1238	 0.264475870026662 
1239	 0.264539905635157 
1240	 0.264587939319064 
1241	 0.264654814845476 
1242	 0.264748686442978 
1243	 0.264815112437562 
1244	 0.264862888400941 
1245	 0.264930001809952 
1246	 0.264996189942504 
1247	 0.26506013895672 
1248	 0.265136323542048 
1249	 0.265213959685807 
1250	 0.265273468484552 
1251	 0.265339775790922 
1252	 0.265416085827636 
1253	 0.265514084638128 
1254	 0.26558152349061 
1255	 0.265640054484334 
1256	 0.26569850292192 
1257	 0.265740500507104 
1258	 0.265786506723857 
1259	 0.265838621702393 
1260	 0.265888586136915 
1261	 0.265935757926249 
1262	 0.265974787599371 
1263	 0.26599883109577 
1264	 0.266042600030512 
1265	 0.266089494432622 
1266	 0.266138233713762 
1267	 0.266209683897336 
1268	 0.266274449156032 
1269	 0.266325242734271 
1270	 0.266351999397447 
1271	 0.26641335219825 
1272	 0.266482079993523 
1273	 0.266552549325044 
1274	 0.266645740467282 
1275	 0.266721599501357 
1276	 0.266779895943138 
1277	 0.266859399233156 
1278	 0.266937655901527 
1279	 0.267036807255464 
1280	 0.267164403087882 
1281	 0.267277936794939 
1282	 0.267405036181097 
1283	 0.267518365401596 
1284	 0.267624049056603 
1285	 0.267717730534435 
1286	 0.267804148747822 
1287	 0.267898470160309 
1288	 0.267999854963557 
1289	 0.268105733939196 
1290	 0.268201077590799 
1291	 0.268310065437501 
1292	 0.268395561476248 
1293	 0.268460184865861 
1294	 0.268529235551403 
1295	 0.268590746777745 
1296	 0.268651762736679 
1297	 0.268709661394464 
1298	 0.268764148722293 
1299	 0.268828726302426 
1300	 0.268868333106082 
1301	 0.268885269201461 
1302	 0.268911144316269 
1303	 0.268933795475071 
1304	 0.268931635246342 
1305	 0.268970053066447 
1306	 0.269008293512577 
1307	 0.269017785779693 
1308	 0.26903054725321 
1309	 0.269036878310956 
1310	 0.26902557833685 
1311	 0.269019428590195 
1312	 0.269020242113137 
1313	 0.26901015584871 
1314	 0.268989406944464 
1315	 0.268967282447111 
1316	 0.268937076357942 
1317	 0.268919495987807 
1318	 0.268903349115458 
1319	 0.268880338394676 
1320	 0.268858523480944 
1321	 0.268846497859446 
1322	 0.268829724579193 
1323	 0.268825974656869 
1324	 0.268827847215333 
1325	 0.268807313094159 
1326	 0.268772285062924 
1327	 0.26874613507498 
1328	 0.26872954502702 
1329	 0.268711234930377 
1330	 0.26867991659772 
1331	 0.268641072706361 
1332	 0.268603561587385 
1333	 0.268560344528611 
1334	 0.268513648875108 
1335	 0.268464552118831 
1336	 0.268418975303476 
1337	 0.268365480324139 
1338	 0.268317727490211 
1339	 0.268271970693562 
1340	 0.268235952054048 
1341	 0.268203258726887 
1342	 0.268173186293477 
1343	 0.26815547618341 
1344	 0.268137035100204 
1345	 0.268106582961721 
1346	 0.268076301159281 
1347	 0.268035436338289 
1348	 0.267994203966829 
1349	 0.26794504461068 
1350	 0.267887959892204 
1351	 0.267840063920053 
1352	 0.267795975639916 
1353	 0.267741910163116 
1354	 0.267680442646836 
1355	 0.267641481646838 
1356	 0.267603920444993 
1357	 0.267566440742574 
1358	 0.267559565817952 
1359	 0.267519357120349 
1360	 0.267442509479936 
1361	 0.267397772175887 
1362	 0.267363093385449 
1363	 0.267321169156917 
1364	 0.267296820022934 
1365	 0.267259918636914 
1366	 0.267204284960978 
1367	 0.267151390778344 
1368	 0.267132813993819 
1369	 0.267107408979778 
1370	 0.267068091387037 
1371	 0.267030194934105 
1372	 0.266969154292148 
1373	 0.26689931783611 
1374	 0.266820754999961 
1375	 0.266752274737942 
1376	 0.266638454119399 
1377	 0.266494995147303 
1378	 0.266341774606862 
1379	 0.26615950923505 
1380	 0.265983423887755 
1381	 0.265797098399806 
1382	 0.265605184608362 
1383	 0.265421919773946 
1384	 0.265205778922338 
1385	 0.26498993378788 
1386	 0.264734454148804 
1387	 0.264444437593904 
1388	 0.264131396747872 
1389	 0.263801971474818 
1390	 0.263423133010804 
1391	 0.263021496558276 
1392	 0.262609919958335 
1393	 0.262142367280067 
1394	 0.261666250973455 
1395	 0.261142138922496 
1396	 0.260604241164507 
1397	 0.260087636320745 
1398	 0.259556338220884 
1399	 0.259043378455643 
1400	 0.258555063318826 
1401	 0.258051195462966 
1402	 0.257541819961179 
1403	 0.25704502585166 
1404	 0.256527876987455 
1405	 0.256068009576586 
1406	 0.255639197682495 
1407	 0.255211124158312 
1408	 0.254803324275689 
1409	 0.254428981820458 
1410	 0.254028865621139 
1411	 0.253722139966122 
1412	 0.253474989975699 
1413	 0.253281206817376 
1414	 0.253148389444575 
1415	 0.253052338424998 
1416	 0.252996558481024 
1417	 0.252962179783364 
1418	 0.252927993623466 
1419	 0.252919651877226 
1420	 0.252930638754344 
1421	 0.252939608834428 
1422	 0.252969044220009 
1423	 0.253002047815642 
1424	 0.253000675480121 
1425	 0.2529795237501 
1426	 0.252952352539236 
1427	 0.252889386382755 
1428	 0.252859218770388 
1429	 0.252841281041516 
1430	 0.252814716310752 
1431	 0.25280110337466 
1432	 0.252776353825727 
1433	 0.252733513391005 
1434	 0.252704059536071 
1435	 0.252663951344235 
1436	 0.252654236064621 
1437	 0.252663990371129 
1438	 0.252673936108172 
1439	 0.252701384257755 
1440	 0.252745425422779 
1441	 0.25275557152821 
1442	 0.25276236762014 
1443	 0.252769931639756 
1444	 0.252756169952542 
1445	 0.252749519018284 
1446	 0.252776638293775 
1447	 0.252825843657101 
1448	 0.252869402478983 
1449	 0.252900114067253 
1450	 0.252919206874406 
1451	 0.252934961141721 
1452	 0.252925528547903 
1453	 0.252934764253535 
1454	 0.252951616284875 
1455	 0.25297607583154 
1456	 0.253006459937946 
1457	 0.253030608252896 
1458	 0.253059713290715 
1459	 0.253087558836981 
1460	 0.253099440359975 
1461	 0.253137431418703 
1462	 0.253195460489265 
1463	 0.25324524550351 
1464	 0.253305596063901 
1465	 0.253362485999657 
1466	 0.253400378961671 
1467	 0.253471213959666 
1468	 0.25354712875077 
1469	 0.253645864422551 
1470	 0.253779101632461 
1471	 0.253910938070537 
1472	 0.254045981432429 
1473	 0.254202048407915 
1474	 0.254332925538669 
1475	 0.254472015459242 
1476	 0.254613088039598 
1477	 0.25474563454701 
1478	 0.25489122954344 
1479	 0.255038359152212 
1480	 0.255195409509111 
1481	 0.255354419919136 
1482	 0.255517036838826 
1483	 0.255692830684204 
1484	 0.255854300322025 
1485	 0.256015096919474 
1486	 0.256166173598236 
1487	 0.256301101485017 
1488	 0.256447300165582 
1489	 0.256594753424945 
1490	 0.256738882502707 
1491	 0.256892954763299 
1492	 0.257035443362133 
1493	 0.257166503206761 
1494	 0.257298587347999 
1495	 0.257424848777078 
1496	 0.257551338467842 
1497	 0.257681788241163 
1498	 0.257803900622561 
1499	 0.257920228824902 
1500	 0.258033318660675 
1501	 0.258134134549094 
1502	 0.258244121131605 
1503	 0.258347174702497 
1504	 0.258475526845325 
1505	 0.258607093684325 
1506	 0.258726281511022 
1507	 0.258849728905786 
1508	 0.258970456096501 
1509	 0.259084366185282 
1510	 0.259192387774619 
1511	 0.259297887225035 
1512	 0.259402587538002 
1513	 0.259515559051833 
1514	 0.259628863823822 
1515	 0.25973089674143 
1516	 0.259837350177412 
1517	 0.259942596952718 
1518	 0.260040122504554 
1519	 0.260142950904607 
1520	 0.260252908224805 
1521	 0.260355373279241 
1522	 0.260451576048811 
1523	 0.260550584486444 
1524	 0.260653546309109 
1525	 0.260750562438144 
1526	 0.260844720144971 
1527	 0.260938981531021 
1528	 0.261029308827926 
1529	 0.26111755088149 
1530	 0.261206382390859 
1531	 0.261291042956223 
1532	 0.261370760244183 
1533	 0.261451968584098 
1534	 0.261531803919235 
1535	 0.261611082430095 
1536	 0.261687020484611 
1537	 0.261767393185771 
1538	 0.261858755655098 
1539	 0.26193225589911 
1540	 0.261995225685844 
1541	 0.262064594036049 
1542	 0.262113672776826 
1543	 0.262181943020112 
1544	 0.262279783957158 
1545	 0.262356891674403 
1546	 0.262427200635181 
1547	 0.262508676274988 
1548	 0.262560845503448 
1549	 0.262592853395968 
1550	 0.262626921750082 
1551	 0.262666209915183 
1552	 0.262726213538941 
1553	 0.262795162046961 
1554	 0.26287103361874 
1555	 0.262937005330524 
1556	 0.262986691275654 
1557	 0.263028220006202 
1558	 0.263065373452257 
1559	 0.263110689790721 
1560	 0.263160328867544 
1561	 0.263212759865095 
1562	 0.263271440118562 
1563	 0.263341805580663 
1564	 0.2633987511306 
1565	 0.263451813282969 
1566	 0.263509316131216 
1567	 0.263568548650099 
1568	 0.263616933912011 
1569	 0.263666168166145 
1570	 0.263707433554568 
1571	 0.263726804083798 
1572	 0.263767933373484 
1573	 0.263819285308003 
1574	 0.263868844004 
1575	 0.263935535031218 
1576	 0.263974014377814 
1577	 0.263998760157381 
1578	 0.264023262263436 
1579	 0.264019076088738 
1580	 0.264048876585717 
1581	 0.264096688068211 
1582	 0.264140232381083 
1583	 0.264203120744265 
1584	 0.264250456510612 
1585	 0.264291720569052 
1586	 0.264327994042435 
1587	 0.264362302211288 
1588	 0.26438823820263 
1589	 0.264398639117258 
1590	 0.264416769632408 
1591	 0.264425835935155 
1592	 0.264447872992305 
1593	 0.264472128703914 
1594	 0.264514262629117 
1595	 0.264581221029636 
1596	 0.264635715064765 
1597	 0.264700491308632 
1598	 0.264755948625094 
1599	 0.264815650852382 
1600	 0.264846229143606 
1601	 0.264851842378972 
1602	 0.26486700532419 
1603	 0.264846428162401 
1604	 0.26485403082033 
1605	 0.264895929550903 
1606	 0.264925115416478 
1607	 0.264954180815877 
1608	 0.264989758301565 
1609	 0.265029368527489 
1610	 0.265049427286052 
1611	 0.265064271437195 
1612	 0.265083204521135 
1613	 0.265070932274511 
1614	 0.265067022788191 
1615	 0.265083223273319 
1616	 0.265092269142516 
1617	 0.265125065774515 
1618	 0.265162735441135 
1619	 0.265184031979126 
1620	 0.265211303239669 
1621	 0.265247797021542 
1622	 0.265294427965278 
1623	 0.26531252928564 
1624	 0.265328889642721 
1625	 0.265342961484222 
1626	 0.265332709199019 
1627	 0.265338319790678 
1628	 0.265360044145107 
1629	 0.265367533999798 
1630	 0.265356673923332 
1631	 0.265370769133044 
1632	 0.265396223024141 
1633	 0.265421111065878 
1634	 0.265462558568897 
1635	 0.265481633251263 
1636	 0.265495417365316 
1637	 0.265498700852692 
1638	 0.265482814847372 
1639	 0.26548315487463 
1640	 0.265472899516744 
1641	 0.265495067997015 
1642	 0.265539162284091 
1643	 0.265577163056948 
1644	 0.265634493254344 
1645	 0.2656786815046 
1646	 0.265720794329433 
1647	 0.265752040774758 
1648	 0.265788383189774 
1649	 0.265796532992014 
1650	 0.26577208654594 
1651	 0.265772314740825 
1652	 0.265763428050767 
1653	 0.26576830976986 
1654	 0.265793382612591 
1655	 0.265807290946095 
1656	 0.265827855262369 
1657	 0.265825161521181 
1658	 0.265811411928787 
1659	 0.265795982098626 
1660	 0.265757207649761 
1661	 0.265736674325366 
1662	 0.265720188550891 
1663	 0.265714018395789 
1664	 0.265713106571293 
1665	 0.265720608799841 
1666	 0.265741864973981 
1667	 0.265761974619232 
1668	 0.265799707271293 
1669	 0.265807896571528 
1670	 0.265809040526246 
1671	 0.265799007161662 
1672	 0.265759414575293 
1673	 0.265737114285861 
1674	 0.265707686172761 
1675	 0.265701633408265 
1676	 0.265715076793755 
1677	 0.265716370295431 
1678	 0.265725308008295 
1679	 0.265735126344505 
1680	 0.265739443691219 
1681	 0.265744050456505 
1682	 0.265753328298566 
1683	 0.265768346845238 
1684	 0.265778983740734 
1685	 0.265793842885231 
1686	 0.265834570767933 
1687	 0.265841213880977 
1688	 0.26582591247106 
1689	 0.265816403721942 
1690	 0.265790591813598 
1691	 0.26577519612664 
1692	 0.265752893951242 
1693	 0.265758548118713 
1694	 0.265772980783378 
1695	 0.265802551088771 
1696	 0.265882393975917 
1697	 0.265909808116763 
1698	 0.265916206690548 
1699	 0.265926954928805 
1700	 0.265920216242137 
1701	 0.265906859542831 
1702	 0.26589588884438 
1703	 0.265880548926246 
1704	 0.265847119112005 
1705	 0.265814121916733 
1706	 0.265786306493244 
1707	 0.265751438862682 
1708	 0.265691435588214 
1709	 0.265665188926695 
1710	 0.265672576167654 
1711	 0.265643619751256 
1712	 0.265599383037625 
1713	 0.26557590054604 
1714	 0.26553929700229 
1715	 0.265513373976216 
1716	 0.265516060863635 
1717	 0.265510358579167 
1718	 0.265490136052287 
1719	 0.265484406658442 
1720	 0.265502568694462 
1721	 0.265496165859129 
1722	 0.265484475639832 
1723	 0.265462433806624 
1724	 0.265427787103849 
1725	 0.265388354888591 
1726	 0.26533808843977 
1727	 0.265285698003377 
1728	 0.265217175479186 
1729	 0.265175213149618 
1730	 0.265144615889559 
1731	 0.26511076678771 
1732	 0.265099245194318 
1733	 0.265058012457957 
1734	 0.265000902597163 
1735	 0.264939223672959 
1736	 0.26485955862167 
1737	 0.264798108574871 
1738	 0.264738994159076 
1739	 0.264670222145541 
1740	 0.264595928579615 
1741	 0.264550348455505 
1742	 0.264514758938293 
1743	 0.264472419455958 
1744	 0.264466978973287 
1745	 0.264393063869432 
1746	 0.26426141262957 
1747	 0.26416827257104 
1748	 0.264101906561528 
1749	 0.264079964068027 
1750	 0.264051263620915 
1751	 0.264003637414112 
1752	 0.263922875765715 
1753	 0.263851592351325 
1754	 0.263814407107319 
1755	 0.263767382623999 
1756	 0.26372321337404 
1757	 0.263634382456478 
1758	 0.263526393227138 
1759	 0.263452910380903 
1760	 0.263392424234211 
1761	 0.263350917052797 
1762	 0.263312048511448 
1763	 0.263260556418003 
1764	 0.263200015470663 
1765	 0.263163158949968 
1766	 0.263113399360217 
1767	 0.26302217368365 
1768	 0.26296121457098 
1769	 0.2629069794545 
1770	 0.262858681925047 
1771	 0.262834226322977 
1772	 0.262791565132034 
1773	 0.262740132517477 
1774	 0.262699584738759 
1775	 0.262701990047504 
1776	 0.262710218555069 
1777	 0.262695795505518 
1778	 0.262665276891364 
1779	 0.262593041788545 
1780	 0.262520589781294 
1781	 0.262484342643836 
1782	 0.262454296357397 
1783	 0.262424020386257 
1784	 0.262400759871478 
1785	 0.262368421129932 
1786	 0.262343838347686 
1787	 0.262349539263185 
1788	 0.262322459884414 
1789	 0.262263063146652 
1790	 0.262231625170236 
1791	 0.262202185705482 
1792	 0.262174401419961 
1793	 0.262152916575097 
1794	 0.262153800054233 
1795	 0.2621680532836 
1796	 0.262169738189834 
1797	 0.262196517593262 
1798	 0.26219987182366 
1799	 0.262176594187015 
1800	 0.26216628286701 
1801	 0.26089496734633 
1802	 0.261035155655362 
1803	 0.261176374322928 
1804	 0.261367572203992 
1805	 0.261572646770591 
1806	 0.261788096244193 
1807	 0.262015576507205 
1808	 0.262188236854052 
1809	 0.262341992531941 
1810	 0.26246105340149 
1811	 0.262536228390281 
1812	 0.262600815810472 
1813	 0.262670864253167 
1814	 0.262713286212344 
1815	 0.262722667951205 
1816	 0.262735079257995 
1817	 0.262743715680337 
1818	 0.262711740596172 
1819	 0.262719186503348 
1820	 0.262751521097905 
1821	 0.262775693899516 
1822	 0.262786095658835 
1823	 0.262816682872203 
1824	 0.262858069801767 
1825	 0.262888389309421 
1826	 0.262926045586474 
1827	 0.262960697341328 
1828	 0.262961092360104 
1829	 0.262940751169005 
1830	 0.262899490221042 
1831	 0.262816930391745 
1832	 0.262744442991978 
1833	 0.262714454208706 
1834	 0.262658621651952 
1835	 0.262632284885868 
1836	 0.262631213877611 
1837	 0.262608214753069 
1838	 0.262572119339639 
1839	 0.262545951570003 
1840	 0.262534292986234 
1841	 0.262521507837912 
1842	 0.26246815626524 
1843	 0.262420798100358 
1844	 0.26239347512239 
1845	 0.262339198071225 
1846	 0.262279200813662 
1847	 0.262247493806786 
1848	 0.262220520796881 
1849	 0.26218528117101 
1850	 0.262148853669798 
1851	 0.262131388708598 
1852	 0.262096566298684 
1853	 0.262015819394486 
1854	 0.261912791744662 
1855	 0.261814188645503 
1856	 0.261714691228911 
1857	 0.261606133229341 
1858	 0.261506193825937 
1859	 0.261365732493978 
1860	 0.261190229169347 
1861	 0.260972690581778 
1862	 0.260761448242318 
1863	 0.260501086209681 
1864	 0.260218468752538 
1865	 0.259947013300792 
1866	 0.259621723297267 
1867	 0.259291785473513 
1868	 0.258960818247738 
1869	 0.258572214895217 
1870	 0.258156021745099 
1871	 0.257717095130437 
1872	 0.257256523294131 
1873	 0.256749903774151 
1874	 0.256211500358802 
1875	 0.255649585255298 
1876	 0.255038499583875 
1877	 0.254375986948622 
1878	 0.253651649646354 
1879	 0.252872758203604 
1880	 0.252018639800857 
1881	 0.251079084548181 
1882	 0.250088480780261 
1883	 0.249051298817314 
1884	 0.247909326891772 
1885	 0.246713822472226 
1886	 0.245471833924416 
1887	 0.244117228209846 
1888	 0.242698514418565 
1889	 0.241214766531306 
1890	 0.239676867393526 
1891	 0.238128564470889 
1892	 0.236511345861281 
1893	 0.234932061227009 
1894	 0.233348606374327 
1895	 0.2317622523208 
1896	 0.230168457616412 
1897	 0.228628852261912 
1898	 0.227083078427356 
1899	 0.225551327324404 
1900	 0.22410495634071 
1901	 0.222717335043268 
1902	 0.221395993299037 
1903	 0.220167922834848 
1904	 0.2189780862767 
1905	 0.217838109313464 
1906	 0.216749793525057 
1907	 0.215736891623348 
1908	 0.214769495724295 
1909	 0.213889906537015 
1910	 0.213076552347859 
1911	 0.212306538309528 
1912	 0.211603818566444 
1913	 0.210937787560036 
1914	 0.210324887058605 
1915	 0.209738744152445 
1916	 0.209198137299593 
1917	 0.208676300998028 
1918	 0.208214738369068 
1919	 0.207763531308704 
1920	 0.207358570961647 
1921	 0.207017388008401 
1922	 0.206696141280938 
1923	 0.20643254625883 
1924	 0.206208248282404 
1925	 0.206041078844903 
1926	 0.205899254482306 
1927	 0.205796006470646 
1928	 0.205722599793035 
1929	 0.205681780473623 
1930	 0.205657509507185 
1931	 0.205648154997854 
1932	 0.205674281212195 
1933	 0.205733827381658 
1934	 0.205797503794432 
1935	 0.205875912257594 
1936	 0.205969106475953 
1937	 0.206084341217032 
1938	 0.206199787737489 
1939	 0.206360519032273 
1940	 0.206568068556566 
1941	 0.206771136981055 
1942	 0.20700011511309 
1943	 0.207257541142472 
1944	 0.207508269794207 
1945	 0.207788512743944 
1946	 0.208072350217066 
1947	 0.208369885509283 
1948	 0.208665180052938 
1949	 0.208975607502328 
1950	 0.209278458467431 
1951	 0.209570571480294 
1952	 0.209882036599552 
1953	 0.210202626761113 
1954	 0.210530643393661 
1955	 0.21088388486057 
1956	 0.211251895707874 
1957	 0.211629171018149 
1958	 0.212027096225936 
1959	 0.212420191428547 
1960	 0.212822114555504 
1961	 0.213223989547294 
1962	 0.213622578559406 
1963	 0.214028178379086 
1964	 0.214434798617582 
1965	 0.214860254662565 
1966	 0.215273813469926 
1967	 0.215716159499556 
1968	 0.216154048875082 
1969	 0.216596897111988 
1970	 0.217035962119934 
1971	 0.217491831845545 
1972	 0.217924005574444 
1973	 0.218332909087955 
1974	 0.218764157657774 
1975	 0.219201087979316 
1976	 0.219625480366743 
1977	 0.220082785025168 
1978	 0.220517281759341 
1979	 0.22090577214654 
1980	 0.221310639869057 
1981	 0.221714757715356 
1982	 0.222090718330733 
1983	 0.222506062951115 
1984	 0.222950485691244 
1985	 0.223384538435262 
1986	 0.223840613970131 
1987	 0.224276490948947 
1988	 0.224692344350551 
1989	 0.22513078691325 
1990	 0.225577444223731 
1991	 0.226003582396235 
1992	 0.226420190007026 
1993	 0.226846597047541 
1994	 0.227243845814661 
1995	 0.227595508076835 
1996	 0.227979982612057 
1997	 0.228360436103475 
1998	 0.228759018912212 
1999	 0.229180106098714 
2000	 0.229596615988555 
2001	 0.230037531676843 
2002	 0.230452336148882 
2003	 0.23084186972449 
2004	 0.231229805829119 
2005	 0.231620135243994 
2006	 0.231996959498126 
2007	 0.232376490413661 
2008	 0.232759189396049 
2009	 0.233143044851258 
2010	 0.233525583751649 
2011	 0.233902391390247 
2012	 0.234293266733993 
2013	 0.23466508948061 
2014	 0.235031686929291 
2015	 0.235363328529187 
2016	 0.235696691489438 
2017	 0.236028417289632 
2018	 0.236371438117713 
2019	 0.236715036377879 
2020	 0.237063263103687 
2021	 0.237433699374329 
2022	 0.23777820252461 
2023	 0.238104821916506 
2024	 0.238438442205773 
2025	 0.238767205738782 
2026	 0.2390944771622 
2027	 0.239424239070123 
2028	 0.239752055241144 
2029	 0.240075039840703 
2030	 0.240394408418871 
2031	 0.240702907891482 
2032	 0.241000895913874 
2033	 0.241309206674191 
2034	 0.241622478446814 
2035	 0.241913509863345 
2036	 0.2422129048566 
2037	 0.242486607847853 
2038	 0.242722992216292 
2039	 0.24296731689043 
2040	 0.2432037067638 
2041	 0.243437623259973 
2042	 0.243663914850162 
2043	 0.243898810390944 
2044	 0.244153521582281 
2045	 0.24443053954383 
2046	 0.244685488488661 
2047	 0.244957906971579 
2048	 0.245206197819447 
2049	 0.245428969743618 
2050	 0.245653653276609 
2051	 0.245870432165122 
2052	 0.246089869765651 
2053	 0.246312764102538 
2054	 0.246520666177338 
2055	 0.246720778475451 
2056	 0.246917609276728 
2057	 0.247115441327195 
2058	 0.247289124864291 
2059	 0.247498888492965 
2060	 0.247736047569329 
2061	 0.247952276104094 
2062	 0.248174551149504 
2063	 0.248393868740532 
2064	 0.248611264941306 
2065	 0.248816249483551 
2066	 0.249017478943058 
2067	 0.249215435570537 
2068	 0.249397940385427 
2069	 0.249582234272438 
2070	 0.24976517067366 
2071	 0.249953851584666 
2072	 0.250130093761221 
2073	 0.250285586253275 
2074	 0.250470922755314 
2075	 0.250672752015511 
2076	 0.250860498845281 
2077	 0.251058935648853 
2078	 0.251249451713677 
2079	 0.251424520779324 
2080	 0.251602883823904 
2081	 0.251791265393478 
2082	 0.251969788109282 
2083	 0.252131337966832 
2084	 0.252303919279037 
2085	 0.252477667053452 
2086	 0.252657749678972 
2087	 0.252821111938834 
2088	 0.252983693937029 
2089	 0.253139798940256 
2090	 0.253273099230204 
2091	 0.253424688216529 
2092	 0.25358271027815 
2093	 0.253742402304651 
2094	 0.253911023045245 
2095	 0.254075192450483 
2096	 0.254249975437445 
2097	 0.25440691328313 
2098	 0.254546632056702 
2099	 0.254691031262471 
2100	 0.25484028293563 
2101	 0.25497682603759 
2102	 0.255136810271804 
2103	 0.25531715146695 
2104	 0.2554874811791 
2105	 0.255655183803676 
2106	 0.255838193924201 
2107	 0.256030538342344 
2108	 0.256219847883454 
2109	 0.256422267419691 
2110	 0.256618910496831 
2111	 0.256805273643105 
2112	 0.257000465158648 
2113	 0.2572114929409 
2114	 0.257406364435814 
2115	 0.257601784379908 
2116	 0.257799595372006 
2117	 0.257985858162944 
2118	 0.258158387535805 
2119	 0.258342576800544 
2120	 0.258535176597771 
2121	 0.258707568057934 
2122	 0.258882774369966 
2123	 0.259039007095704 
2124	 0.259186929614831 
2125	 0.25930515406224 
2126	 0.259398794150872 
2127	 0.259486328236361 
2128	 0.259520965493231 
2129	 0.259591990383815 
2130	 0.259679572875669 
2131	 0.259777655113651 
2132	 0.259851852258121 
2133	 0.259938655069856 
2134	 0.25999718168067 
2135	 0.260018625456779 
2136	 0.260061540158133 
2137	 0.260120683952054 
2138	 0.260144954742705 
2139	 0.260159105767139 
2140	 0.260160357307659 
2141	 0.260134774614293 
2142	 0.260106468233161 
2143	 0.260094814315193 
2144	 0.260035900652328 
2145	 0.259921596903637 
2146	 0.259830866575999 
2147	 0.259712640998429 
2148	 0.259608739830464 
2149	 0.259513604138063 
2150	 0.259450521458102 
2151	 0.259352360622453 
2152	 0.259246115914616 
2153	 0.259126276337606 
2154	 0.25899969364575 
2155	 0.258852287807163 
2156	 0.258685663185212 
2157	 0.258513404508934 
2158	 0.258323164580835 
2159	 0.258128998176614 
2160	 0.257939904288218 
2161	 0.257722977828561 
2162	 0.257469465072695 
2163	 0.257233476775986 
2164	 0.256995298974463 
2165	 0.256740110541571 
2166	 0.256500982156756 
2167	 0.256280859309288 
2168	 0.256039487593935 
2169	 0.255788974973498 
2170	 0.255540489404384 
2171	 0.25528575200177 
2172	 0.255035967700446 
2173	 0.254793177884525 
2174	 0.254535341187119 
2175	 0.254272185081575 
2176	 0.254005991622543 
2177	 0.253740383115777 
2178	 0.253452069690459 
2179	 0.253148198993484 
2180	 0.252846014358169 
2181	 0.252516467790759 
2182	 0.252198755307408 
2183	 0.251884568730689 
2184	 0.251591327897972 
2185	 0.251268388980846 
2186	 0.250929709536217 
2187	 0.250606067805453 
2188	 0.250265191028005 
2189	 0.249954008297509 
2190	 0.249661555736619 
2191	 0.24937734833957 
2192	 0.249101212528847 
2193	 0.248840631728382 
2194	 0.248595768736947 
2195	 0.248359014791112 
2196	 0.248129747173854 
2197	 0.247922322697287 
2198	 0.247713819891528 
2199	 0.247544820224031 
2200	 0.247413515708716 
2201	 0.247295360818222 
2202	 0.24718281700233 
2203	 0.247127781018961 
2204	 0.247095300168279 
2205	 0.247083563226476 
2206	 0.247106874394586 
2207	 0.247183036644926 
2208	 0.247252409003804 
2209	 0.247346547532349 
2210	 0.24743936782858 
2211	 0.247531827493433 
2212	 0.247658207753673 
2213	 0.247822739219363 
2214	 0.247954837357427 
2215	 0.248107313027148 
2216	 0.248234595538378 
2217	 0.24830864979553 
2218	 0.248420868084563 
2219	 0.248563337989024 
2220	 0.248682709808559 
2221	 0.248809682857691 
2222	 0.248929587093372 
2223	 0.248989641485737 
2224	 0.249070516196517 
2225	 0.249141397800386 
2226	 0.249203891560962 
2227	 0.249255151923192 
2228	 0.249302813156278 
2229	 0.249339138668182 
2230	 0.249353427871817 
2231	 0.249375281187748 
2232	 0.249412116097113 
2233	 0.249416585342884 
2234	 0.249391783350922 
2235	 0.249384115395099 
2236	 0.24936558783759 
2237	 0.249349423234946 
2238	 0.249360187867088 
2239	 0.249334837462528 
2240	 0.249279100147965 
2241	 0.249235276688876 
2242	 0.24916702671919 
2243	 0.249118718117633 
2244	 0.249118866443755 
2245	 0.249059176335749 
2246	 0.248965396484578 
2247	 0.248897205923378 
2248	 0.248841377345297 
2249	 0.248771888060317 
2250	 0.248714281138407 
2251	 0.248705545539096 
2252	 0.248636851923533 
2253	 0.24850781131244 
2254	 0.248441164132826 
2255	 0.248388335924168 
2256	 0.248335687994853 
2257	 0.248306159036577 
2258	 0.248280870651832 
2259	 0.248256848307762 
2260	 0.248233443826005 
2261	 0.248232412248877 
2262	 0.248214766559629 
2263	 0.2481748079955 
2264	 0.248144401494681 
2265	 0.248092805641697 
2266	 0.24809360375493 
2267	 0.24813089374484 
2268	 0.248165720127284 
2269	 0.248226497155645 
2270	 0.248308576341221 
2271	 0.248374259527316 
2272	 0.248425482967775 
2273	 0.24847358214045 
2274	 0.248469768521802 
2275	 0.248481916613757 
2276	 0.248462375291241 
2277	 0.248472314249102 
2278	 0.248496762223314 
2279	 0.248517855123892 
2280	 0.248533391008872 
2281	 0.248571065080845 
2282	 0.248636670196047 
2283	 0.248678685302708 
2284	 0.248726683133664 
2285	 0.248753803024065 
2286	 0.248745077009361 
2287	 0.248767741468917 
2288	 0.248815059041017 
2289	 0.248835861945517 
2290	 0.248859603180449 
2291	 0.24886267843537 
2292	 0.248846021377999 
2293	 0.248812879195152 
2294	 0.248735635572734 
2295	 0.248708253142596 
2296	 0.248693025888086 
2297	 0.248675079755868 
2298	 0.248697013289599 
2299	 0.2486785360092 
2300	 0.248622838435188 
2301	 0.248586954056726 
2302	 0.248562942962936 
2303	 0.248558419966956 
2304	 0.248543681104033 
2305	 0.248499192338506 
2306	 0.248444432258902 
2307	 0.248368099777352 
2308	 0.248277022740554 
2309	 0.248166853964936 
2310	 0.248064340675973 
2311	 0.247929652002584 
2312	 0.24783970119612 
2313	 0.247770960009948 
2314	 0.247705640709873 
2315	 0.247669983739199 
2316	 0.247608850383174 
2317	 0.24754712183452 
2318	 0.247484100589961 
2319	 0.247405886521297 
2320	 0.247341535881448 
2321	 0.247298795795498 
2322	 0.247217980969526 
2323	 0.247101596860784 
2324	 0.24701861610964 
2325	 0.246935358773343 
2326	 0.246852639837468 
2327	 0.246792485640366 
2328	 0.246734275065528 
2329	 0.246644265068444 
2330	 0.246550683321643 
2331	 0.246450727659626 
2332	 0.246384413296014 
2333	 0.246340206285435 
2334	 0.246299531886677 
2335	 0.24631847754331 
2336	 0.246327334833983 
2337	 0.246238306351826 
2338	 0.24616979939427 
2339	 0.24608799751146 
2340	 0.245936365664085 
2341	 0.24584556499651 
2342	 0.245771361103798 
2343	 0.245642656727147 
2344	 0.24550459281479 
2345	 0.245381391600133 
2346	 0.245251195722192 
2347	 0.245124266355929 
2348	 0.245020245925346 
2349	 0.244890740886576 
2350	 0.244745191544588 
2351	 0.244623163012386 
2352	 0.244507476708659 
2353	 0.244363042959322 
2354	 0.244216572950829 
2355	 0.244055827774838 
2356	 0.243857952524695 
2357	 0.243693931581175 
2358	 0.243545844925638 
2359	 0.243394420838027 
2360	 0.243213482631728 
2361	 0.243094063020358 
2362	 0.243053460275802 
2363	 0.242949932790455 
2364	 0.242869949365932 
2365	 0.242754566688748 
2366	 0.242544040716621 
2367	 0.242384261339878 
2368	 0.242271281654893 
2369	 0.242110453952571 
2370	 0.241920153466967 
2371	 0.241777135749377 
2372	 0.241586520313288 
2373	 0.241361924193864 
2374	 0.241176300514661 
2375	 0.240947369084773 
2376	 0.240699116505993 
2377	 0.240470451912476 
2378	 0.240273445777521 
2379	 0.240096408353304 
2380	 0.239888231049375 
2381	 0.239714397602533 
2382	 0.239532028683209 
2383	 0.2393038530616 
2384	 0.239064543133587 
2385	 0.238804127002876 
2386	 0.238560509520334 
2387	 0.238277936855703 
2388	 0.238055826314127 
2389	 0.237871829714862 
2390	 0.237540046487078 
2391	 0.23722065429547 
2392	 0.236891595403415 
2393	 0.236568982935992 
2394	 0.236358742004254 
2395	 0.236150719368777 
2396	 0.235918512534379 
2397	 0.235701541313764 
2398	 0.235532220606473 
2399	 0.235286518440016 
2400	 0.234989809371631 
2401	 0.234722081512374 
2402	 0.234390918257623 
2403	 0.234092612227263 
2404	 0.233852289686356 
2405	 0.233544523678491 
2406	 0.233266696226524 
2407	 0.233015994823375 
2408	 0.232741537909937 
2409	 0.232473136371556 
2410	 0.232045227982668 
2411	 0.23160150570508 
2412	 0.23125537355995 
2413	 0.230934853723524 
2414	 0.230679712293016 
2415	 0.230383166586063 
2416	 0.230103786346556 
2417	 0.229791684003124 
2418	 0.229499590225382 
2419	 0.229265644483164 
2420	 0.228956763435836 
2421	 0.228626282292228 
2422	 0.228234387215648 
2423	 0.227747892623337 
2424	 0.227358583757087 
2425	 0.226948799912814 
2426	 0.226571839964263 
2427	 0.226282633543656 
2428	 0.225956888909509 
2429	 0.225617277563442 
2430	 0.225243644631791 
2431	 0.224820412245971 
2432	 0.224500322049958 
2433	 0.224276763309084 
2434	 0.223927848417174 
2435	 0.223544888197592 
2436	 0.22317856728011 
2437	 0.222724875700706 
2438	 0.222319208861679 
2439	 0.222021008539522 
2440	 0.221647811217156 
2441	 0.221144628421411 
2442	 0.220778238332996 
2443	 0.220527549713509 
2444	 0.220189292490242 
2445	 0.219885299528582 
2446	 0.21955381788984 
2447	 0.219046976835588 
2448	 0.218745536089795 
2449	 0.218621561244424 
2450	 0.218333373951492 
2451	 0.218086587744564 
2452	 0.217813899618482 
2453	 0.217433594343568 
2454	 0.217102614878934 
2455	 0.216813022119641 
2456	 0.216495272050829 
2457	 0.21613659808393 
2458	 0.215778247162716 
2459	 0.215448703484901 
2460	 0.215108038442997 
2461	 0.21472612889697 
2462	 0.214484859898016 
2463	 0.214272805879481 
2464	 0.214034366424388 
2465	 0.213872004421056 
2466	 0.21354086321957 
2467	 0.213196062101741 
2468	 0.212919015408858 
2469	 0.212544137782479 
2470	 0.212475448611879 
2471	 0.21220918055827 
2472	 0.211826896024212 
2473	 0.211521432365682 
2474	 0.211100765945289 
2475	 0.21074399044007 
2476	 0.210503597273847 
2477	 0.210233780575302 
2478	 0.210038083184633 
2479	 0.209798448414953 
2480	 0.209534563407234 
2481	 0.209211781313036 
2482	 0.208864110699268 
2483	 0.208486565415412 
2484	 0.208111463417591 
2485	 0.207870716201153 
2486	 0.207395885453776 
2487	 0.206989219107554 
2488	 0.206732046558269 
2489	 0.206506283934151 
2490	 0.206537993156152 
2491	 0.206419526956128 
2492	 0.206039168206148 
2493	 0.20559637102688 
2494	 0.205432715574755 
2495	 0.205413223457165 
2496	 0.205253606304009 
2497	 0.205196217312771 
2498	 0.204913155745105 
2499	 0.204335526617605 
2500	 0.204059332303518 
