Wavelength	mm1600004.asd
350	 5.96148468664112E-02 
351	 5.90683922825634E-02 
352	 5.74802866454189E-02 
353	 5.65621973399635E-02 
354	 5.55666452503908E-02 
355	 5.79777394280499E-02 
356	 5.86943406732374E-02 
357	 5.46884606854821E-02 
358	 5.86732072593154E-02 
359	 6.12645104341662E-02 
360	 6.20330879912407E-02 
361	 6.58115411973253E-02 
362	 6.50401997134171E-02 
363	 6.25694378871513E-02 
364	 0.061468665767646 
365	 6.31503912796932E-02 
366	 6.57294033794032E-02 
367	 6.44470172225212E-02 
368	 5.84640360876059E-02 
369	 6.45987728366361E-02 
370	 0.065656081188165 
371	 0.061621287346481 
372	 6.41255853335717E-02 
373	 6.87973095432764E-02 
374	 7.03256136723585E-02 
375	 6.76451034137105E-02 
376	 6.68720389548991E-02 
377	 6.64502291858548E-02 
378	 0.068227084182815 
379	 0.072858274847095 
380	 7.29598992970405E-02 
381	 7.14548579007437E-02 
382	 7.08387047836837E-02 
383	 7.25186679754784E-02 
384	 7.24310863340816E-02 
385	 7.25325196864715E-02 
386	 7.42695161048201E-02 
387	 7.65659298565198E-02 
388	 7.81475158588537E-02 
389	 7.87231860539714E-02 
390	 7.87143588195995E-02 
391	 7.98662417319942E-02 
392	 8.05782970738973E-02 
393	 0.080979312044253 
394	 0.082630794985281 
395	 8.41602321904144E-02 
396	 8.58248362662088E-02 
397	 8.74054933532796E-02 
398	 8.68465471710314E-02 
399	 8.76988058420021E-02 
400	 8.96196025098291E-02 
401	 9.09593021927475E-02 
402	 9.18725250482684E-02 
403	 9.23340596849008E-02 
404	 0.092447471395583 
405	 0.092460110589683 
406	 9.36464838777229E-02 
407	 9.52399396768518E-02 
408	 9.61736539275296E-02 
409	 9.55358904371064E-02 
410	 9.55107082484447E-02 
411	 9.61476683222533E-02 
412	 9.66627222367953E-02 
413	 9.86644138283282E-02 
414	 9.91293507533495E-02 
415	 9.77670084103048E-02 
416	 9.81493111568962E-02 
417	 9.82319581564699E-02 
418	 9.83655377948287E-02 
419	 9.91317360601908E-02 
420	 0.100253507342011 
421	 9.96512884300876E-02 
422	 9.86469263312188E-02 
423	 0.100251604610245 
424	 0.100406779206306 
425	 0.100169804866629 
426	 0.100331765510209 
427	 9.99370528559628E-02 
428	 9.98282346847675E-02 
429	 9.98131703524968E-02 
430	 0.099501212998883 
431	 9.92317989174121E-02 
432	 9.91228238791323E-02 
433	 9.91902331058726E-02 
434	 9.93604494272041E-02 
435	 9.93769701469494E-02 
436	 9.94298569168723E-02 
437	 9.96817494728339E-02 
438	 9.99574764821713E-02 
439	 0.100562034175854 
440	 0.101165378715067 
441	 0.101246366394101 
442	 0.101455604162906 
443	 0.102106755028747 
444	 0.102980812775702 
445	 0.103131852098423 
446	 0.103391715016356 
447	 0.103853354182621 
448	 0.104383403314683 
449	 0.104830963034313 
450	 0.105458468474226 
451	 0.106204595176581 
452	 0.106721042817618 
453	 0.106651683269567 
454	 0.106598527975728 
455	 0.107056328713819 
456	 0.107967027233693 
457	 0.108158675885089 
458	 0.107931130562217 
459	 0.108194906777838 
460	 0.108671853123752 
461	 0.108960157753447 
462	 0.109031895003976 
463	 0.109394011403736 
464	 0.109698081234647 
465	 0.10982549731251 
466	 0.109820598331185 
467	 0.110093601921715 
468	 0.110409973761271 
469	 0.110683542792629 
470	 0.110952318644357 
471	 0.111018911179986 
472	 0.111113242090787 
473	 0.111371493691063 
474	 0.111551418453653 
475	 0.111658139989118 
476	 0.111785643490938 
477	 0.112048949537902 
478	 0.112380744233216 
479	 0.112516698791477 
480	 0.112461435455409 
481	 0.112598710427678 
482	 0.112879329902593 
483	 0.113161576923265 
484	 0.113328524672155 
485	 0.11352502544203 
486	 0.113619064354082 
487	 0.113612135302164 
488	 0.113626283850168 
489	 0.113783863077199 
490	 0.114014464704872 
491	 0.114215900431086 
492	 0.114290282198339 
493	 0.114437596812156 
494	 0.114635806260932 
495	 0.114764250022978 
496	 0.114821685788495 
497	 0.114957656540418 
498	 0.115225772998489 
499	 0.115533043701747 
500	 0.115635002750748 
501	 0.115592308822265 
502	 0.115592434418818 
503	 0.115892018120348 
504	 0.116235331726794 
505	 0.116423108996608 
506	 0.116350923834441 
507	 0.116404297129312 
508	 0.11661240183538 
509	 0.116874139464424 
510	 0.116955240013297 
511	 0.117039870134853 
512	 0.117185906313567 
513	 0.117360670739091 
514	 0.117337928914211 
515	 0.117463341272791 
516	 0.117820850149197 
517	 0.117953672034484 
518	 0.118029142611969 
519	 0.118100407052063 
520	 0.118192161254662 
521	 0.118318470750328 
522	 0.118512906868762 
523	 0.118713095035217 
524	 0.11876272229779 
525	 0.118816994426268 
526	 0.1189718416776 
527	 0.11922391656759 
528	 0.119318393040286 
529	 0.119377571524653 
530	 0.119487431793933 
531	 0.119687281862761 
532	 0.11976159421998 
533	 0.119877700535006 
534	 0.120107992361895 
535	 0.120207211667314 
536	 0.12034092779296 
537	 0.120554221074656 
538	 0.1208129228247 
539	 0.120890196883988 
540	 0.12092294633811 
541	 0.121015903004216 
542	 0.121189848110979 
543	 0.121410427344673 
544	 0.121620514575897 
545	 0.12178240219318 
546	 0.121961172600587 
547	 0.122103247694841 
548	 0.122252722666606 
549	 0.122525226075847 
550	 0.122717458199057 
551	 0.122895517840083 
552	 0.1231222892792 
553	 0.123321954799285 
554	 0.123474836063776 
555	 0.123648523715894 
556	 0.1239416793741 
557	 0.124265759724549 
558	 0.124580847706188 
559	 0.124887844796564 
560	 0.125255233525783 
561	 0.125528606456175 
562	 0.125772448171262 
563	 0.126107515812342 
564	 0.126514238339408 
565	 0.126827450606221 
566	 0.12703205369621 
567	 0.12728770869607 
568	 0.127653952859445 
569	 0.128054716983017 
570	 0.128451008564823 
571	 0.129085981409863 
572	 0.129618406276208 
573	 0.129999321952124 
574	 0.130397640029838 
575	 0.130844117728754 
576	 0.131425544767538 
577	 0.132111904741357 
578	 0.132603010814889 
579	 0.133121203437556 
580	 0.133657205865764 
581	 0.134119710888643 
582	 0.134542194397808 
583	 0.134991494268207 
584	 0.135510504829964 
585	 0.13610757341013 
586	 0.136777120310526 
587	 0.137487424428741 
588	 0.138205661802597 
589	 0.138939697143976 
590	 0.139666993936955 
591	 0.140377009212627 
592	 0.141071281491531 
593	 0.14168874831921 
594	 0.142256269532767 
595	 0.142800286349794 
596	 0.143291555755133 
597	 0.143776255642263 
598	 0.144281542225383 
599	 0.144822138473932 
600	 0.145386566554641 
601	 0.145977780061952 
602	 0.146583673943124 
603	 0.147167890167574 
604	 0.147711216750861 
605	 0.148261279037313 
606	 0.14886776905213 
607	 0.149444334314263 
608	 0.149992333547163 
609	 0.150527145840247 
610	 0.151073634681278 
611	 0.151554907149428 
612	 0.151972021676341 
613	 0.15234008509843 
614	 0.152643659909417 
615	 0.152969510410531 
616	 0.15329626848225 
617	 0.153542399310004 
618	 0.153917292208473 
619	 0.154298504706117 
620	 0.154589562813483 
621	 0.154850237507866 
622	 0.155111573611924 
623	 0.155383118996741 
624	 0.155658797142728 
625	 0.155914997546413 
626	 0.156151802177408 
627	 0.156382132271148 
628	 0.15663185439726 
629	 0.156877836095633 
630	 0.157125569133895 
631	 0.157379926620557 
632	 0.157610386815363 
633	 0.157841837294919 
634	 0.158067669486335 
635	 0.158259437353452 
636	 0.158476585633083 
637	 0.158709209303329 
638	 0.158927016445085 
639	 0.159067579725547 
640	 0.15931092970863 
641	 0.159586520089696 
642	 0.159739269770305 
643	 0.159960164832566 
644	 0.160208647476564 
645	 0.160438489924725 
646	 0.160625871976036 
647	 0.160842283745836 
648	 0.161079107438681 
649	 0.161310853822653 
650	 0.161553415342764 
651	 0.161794924296369 
652	 0.162025040007632 
653	 0.162239491942299 
654	 0.162501757256793 
655	 0.16274050137303 
656	 0.162927069289078 
657	 0.163202379864581 
658	 0.163479969788198 
659	 0.163728176623441 
660	 0.163948097724935 
661	 0.164181553455353 
662	 0.164479010673845 
663	 0.164810983944984 
664	 0.165032335675745 
665	 0.165300091774678 
666	 0.165600065779721 
667	 0.165882837712158 
668	 0.166167916217763 
669	 0.166477337985433 
670	 0.1668042375357 
671	 0.167117270257417 
672	 0.167405516437754 
673	 0.167711011018753 
674	 0.168053265203101 
675	 0.168379562440294 
676	 0.168683228766681 
677	 0.168988621744879 
678	 0.169330072326806 
679	 0.169687813863734 
680	 0.170060808007282 
681	 0.170441286434383 
682	 0.170811948674572 
683	 0.171132487900934 
684	 0.171451919366307 
685	 0.171824589336079 
686	 0.172238049898873 
687	 0.172633963592995 
688	 0.173008818927383 
689	 0.173393864181094 
690	 0.173715633772163 
691	 0.17408810034208 
692	 0.174551089958158 
693	 0.174950088780096 
694	 0.175302149948139 
695	 0.175686311664335 
696	 0.176161013499484 
697	 0.176511645750877 
698	 0.17688094710167 
699	 0.177304234946295 
700	 0.177685277924442 
701	 0.178129243721818 
702	 0.178571383516039 
703	 0.178957346172105 
704	 0.179363518345764 
705	 0.179763881078096 
706	 0.180155347684865 
707	 0.180546644499622 
708	 0.180945879448859 
709	 0.181371265460804 
710	 0.181804427125984 
711	 0.182174087189861 
712	 0.182583986592054 
713	 0.182982821915819 
714	 0.183321325381269 
715	 0.18372895529165 
716	 0.184124557358014 
717	 0.184487157826162 
718	 0.184847030383367 
719	 0.185255962285914 
720	 0.185636703499067 
721	 0.185948338132118 
722	 0.186254292667524 
723	 0.186573475758663 
724	 0.186901984953301 
725	 0.18722450403141 
726	 0.187531634986563 
727	 0.187809675403926 
728	 0.188080081195151 
729	 0.188390426565616 
730	 0.188656647941454 
731	 0.188874180309618 
732	 0.189069621057485 
733	 0.189305802840794 
734	 0.189539583021026 
735	 0.189741405539731 
736	 0.189898406584432 
737	 0.190064251405419 
738	 0.19023014219014 
739	 0.190387503104477 
740	 0.190532903686434 
741	 0.190641137145572 
742	 0.190736767674765 
743	 0.190839266709284 
744	 0.190927589098577 
745	 0.190969795786828 
746	 0.191003396434914 
747	 0.191085104235381 
748	 0.191156222195534 
749	 0.191140250833395 
750	 0.191063394029581 
751	 0.191072106477215 
752	 0.19107430808998 
753	 0.191028873171347 
754	 0.190945365349461 
755	 0.190952614969267 
756	 0.190911479401851 
757	 0.190811031062615 
758	 0.190710564815787 
759	 0.19064471542249 
760	 0.190546153259048 
761	 0.19041804733614 
762	 0.190360875349008 
763	 0.19021628673507 
764	 0.190028570018342 
765	 0.189875746527329 
766	 0.189790346863722 
767	 0.189667121723556 
768	 0.189497633000727 
769	 0.189325821398772 
770	 0.189166196948551 
771	 0.188990305913417 
772	 0.188790940069047 
773	 0.188591676351958 
774	 0.188416130968112 
775	 0.188261837528243 
776	 0.188108685028765 
777	 0.187906808323743 
778	 0.187717299512772 
779	 0.187539955875629 
780	 0.187344279391016 
781	 0.187099666362463 
782	 0.186905415516775 
783	 0.186772686030528 
784	 0.186611843638458 
785	 0.186448611271874 
786	 0.186246595124451 
787	 0.185999865842477 
788	 0.185791578954478 
789	 0.185641852710821 
790	 0.185470800548975 
791	 0.185207075535198 
792	 0.18505117738594 
793	 0.184853968070112 
794	 0.184626488323175 
795	 0.184512682254248 
796	 0.184299554840125 
797	 0.184069944634405 
798	 0.18389659082456 
799	 0.18374928855117 
800	 0.183570405824856 
801	 0.183375843215414 
802	 0.183201814260494 
803	 0.183058262348938 
804	 0.182923403514111 
805	 0.182777567150485 
806	 0.182608028434703 
807	 0.182430673366481 
808	 0.182283120426653 
809	 0.182142862598198 
810	 0.181912624924115 
811	 0.181798244522882 
812	 0.181657853436372 
813	 0.18141280736116 
814	 0.181380688751632 
815	 0.181316471375076 
816	 0.181161773351892 
817	 0.180956611177073 
818	 0.180800786330524 
819	 0.18070728779712 
820	 0.180623957917885 
821	 0.180462774073574 
822	 0.180339834202615 
823	 0.180220712461112 
824	 0.180089588290252 
825	 0.179996271205047 
826	 0.179966816767505 
827	 0.179908262979489 
828	 0.179762075057229 
829	 0.179690865628892 
830	 0.17956611527134 
831	 0.179428496376954 
832	 0.179378321436387 
833	 0.179333913502193 
834	 0.179289505522231 
835	 0.179245422316957 
836	 0.179201628578688 
837	 0.179123654699131 
838	 0.179059072163228 
839	 0.179031764258583 
840	 0.17900457818086 
841	 0.17889928088914 
842	 0.17879762057788 
843	 0.178776131381893 
844	 0.178741970364039 
845	 0.178743535715571 
846	 0.178744784280112 
847	 0.178695222356821 
848	 0.178695686752253 
849	 0.17868668039877 
850	 0.178641144582843 
851	 0.178574472429404 
852	 0.178540926103753 
853	 0.178535251005528 
854	 0.178556915216995 
855	 0.178625134362863 
856	 0.178666011909421 
857	 0.178665772123219 
858	 0.178651200056741 
859	 0.178709112840061 
860	 0.178765949217365 
861	 0.178783635086699 
862	 0.178758213834659 
863	 0.178757467779227 
864	 0.178832486132848 
865	 0.178917511689334 
866	 0.178903766759061 
867	 0.178920688370144 
868	 0.178978607068554 
869	 0.179055446294532 
870	 0.179113122933381 
871	 0.17921564696932 
872	 0.179289721889685 
873	 0.179324655248984 
874	 0.179441384449254 
875	 0.179580985742903 
876	 0.179670135029443 
877	 0.179687610598547 
878	 0.179747214416264 
879	 0.179881189999936 
880	 0.18000111679026 
881	 0.180036183590728 
882	 0.180184910838945 
883	 0.180332131018568 
884	 0.180471027858569 
885	 0.180643265921646 
886	 0.180768508905168 
887	 0.180902041974267 
888	 0.181025212970861 
889	 0.181075601650603 
890	 0.181280773334052 
891	 0.181476759181372 
892	 0.181593022305309 
893	 0.181738580804172 
894	 0.181891478077788 
895	 0.182056547395271 
896	 0.182230965369952 
897	 0.182392614829624 
898	 0.182615910309278 
899	 0.182845941074429 
900	 0.183016093456917 
901	 0.183117463758338 
902	 0.183258940802845 
903	 0.183489356473092 
904	 0.183781062927395 
905	 0.183938660852712 
906	 0.184098687918313 
907	 0.184330850992719 
908	 0.184639321552872 
909	 0.184918685073112 
910	 0.185139725708023 
911	 0.185323624732228 
912	 0.185523558584481 
913	 0.185763932429485 
914	 0.186054643916364 
915	 0.186349898785162 
916	 0.186576669978282 
917	 0.186849866916568 
918	 0.187119842749503 
919	 0.18735708199934 
920	 0.187584959126756 
921	 0.187894723045014 
922	 0.188247988119796 
923	 0.188572788084801 
924	 0.188798499811732 
925	 0.189118762083414 
926	 0.18944772143988 
927	 0.189710137301178 
928	 0.18996310733573 
929	 0.19038506163608 
930	 0.190802046000948 
931	 0.191070922155926 
932	 0.191339880780217 
933	 0.191634557677244 
934	 0.192003521302056 
935	 0.192458714930435 
936	 0.192928684610028 
937	 0.19325213986341 
938	 0.193495213936681 
939	 0.193798646813976 
940	 0.194240164606236 
941	 0.194661161896901 
942	 0.195081315137634 
943	 0.195534813264748 
944	 0.195795467477649 
945	 0.196155055216576 
946	 0.196606942969564 
947	 0.197013499082558 
948	 0.197365700692443 
949	 0.197743087201275 
950	 0.198143997133251 
951	 0.198533434844925 
952	 0.198951817422633 
953	 0.199367999227493 
954	 0.19981693311302 
955	 0.200343459086172 
956	 0.200840803980083 
957	 0.201316823599004 
958	 0.201753037983556 
959	 0.202142275001162 
960	 0.202637672641306 
961	 0.203095600850714 
962	 0.203528977480723 
963	 0.204019267685539 
964	 0.204326038156704 
965	 0.204841145106074 
966	 0.205462811560608 
967	 0.205838894818101 
968	 0.206428739970258 
969	 0.206900106283867 
970	 0.207250283093144 
971	 0.207730011705729 
972	 0.20844484148802 
973	 0.20901990692413 
974	 0.209459417773701 
975	 0.210011982514305 
976	 0.210567497502861 
977	 0.211047443125141 
978	 0.211505289684112 
979	 0.212049157780133 
980	 0.212570305200283 
981	 0.213186874757284 
982	 0.213703220510431 
983	 0.213907217436081 
984	 0.214557301613127 
985	 0.21514660323294 
986	 0.215601581066631 
987	 0.2161157574832 
988	 0.21664394176618 
989	 0.217111135349626 
990	 0.217549729106659 
991	 0.218038206928367 
992	 0.218566680123373 
993	 0.219127655296838 
994	 0.219673151163614 
995	 0.220181600854518 
996	 0.220814386946615 
997	 0.221320732725768 
998	 0.221756259491852 
999	 0.222255330384961 
1000	 0.22273618088324 
1001	 0.217979251852232 
1002	 0.218394506613494 
1003	 0.218792953904635 
1004	 0.219229519244957 
1005	 0.219686579204331 
1006	 0.22012625681314 
1007	 0.220565548788852 
1008	 0.221044403320323 
1009	 0.221489129803622 
1010	 0.221879510858863 
1011	 0.222245838124761 
1012	 0.222642245356801 
1013	 0.223094577653942 
1014	 0.223497752490596 
1015	 0.223857819362709 
1016	 0.224226956670745 
1017	 0.224583486356621 
1018	 0.224885724498109 
1019	 0.225215176409886 
1020	 0.225631007679634 
1021	 0.226038236479229 
1022	 0.226385098322193 
1023	 0.226715294217207 
1024	 0.227036544315273 
1025	 0.227350250250828 
1026	 0.227691347008783 
1027	 0.228053916069709 
1028	 0.228431758988497 
1029	 0.228805812930237 
1030	 0.229169553437493 
1031	 0.229501529186802 
1032	 0.229831985341214 
1033	 0.230097412172334 
1034	 0.230352099595921 
1035	 0.230620491028591 
1036	 0.230870017088638 
1037	 0.231173609762462 
1038	 0.231485210751695 
1039	 0.231754920956826 
1040	 0.232120980777699 
1041	 0.232486916569047 
1042	 0.232775092637923 
1043	 0.233109354580837 
1044	 0.233444021847859 
1045	 0.233764920259989 
1046	 0.23406749556089 
1047	 0.234398970527886 
1048	 0.234730830621527 
1049	 0.235010227329871 
1050	 0.235259122153685 
1051	 0.235600599722035 
1052	 0.235933677889914 
1053	 0.236204534421912 
1054	 0.23653277509816 
1055	 0.23683297457611 
1056	 0.237080874881504 
1057	 0.237370286110404 
1058	 0.237721225739929 
1059	 0.238017162989534 
1060	 0.238285502553269 
1061	 0.238572382301316 
1062	 0.238837867380961 
1063	 0.239094245715936 
1064	 0.239392757793134 
1065	 0.239701646615342 
1066	 0.240002104649228 
1067	 0.240239809714895 
1068	 0.240423627120997 
1069	 0.240660910644756 
1070	 0.240926432207215 
1071	 0.241241856672347 
1072	 0.241510927748504 
1073	 0.241783280774373 
1074	 0.242044095430969 
1075	 0.242263959578267 
1076	 0.242509822263662 
1077	 0.242769989945236 
1078	 0.243021614589645 
1079	 0.243259318848893 
1080	 0.243491344173347 
1081	 0.243739055464358 
1082	 0.243974141910399 
1083	 0.244199607829153 
1084	 0.244411296451987 
1085	 0.244621435715027 
1086	 0.244812711714583 
1087	 0.245033213918947 
1088	 0.245272098849699 
1089	 0.245487004898327 
1090	 0.245697263855541 
1091	 0.245898761984376 
1092	 0.24605305680703 
1093	 0.246208438933199 
1094	 0.246421639286251 
1095	 0.246624296348782 
1096	 0.246831952598156 
1097	 0.247059914692709 
1098	 0.247258342686646 
1099	 0.247419624394967 
1100	 0.247621218478434 
1101	 0.247829949155778 
1102	 0.24802845132543 
1103	 0.248253891921196 
1104	 0.248450254953384 
1105	 0.248582157161705 
1106	 0.248767354384579 
1107	 0.248969882521085 
1108	 0.249158891442318 
1109	 0.249379584186219 
1110	 0.249589544941252 
1111	 0.249772710088482 
1112	 0.24991721031965 
1113	 0.250091258177829 
1114	 0.250266758063577 
1115	 0.250435685763058 
1116	 0.250607988351838 
1117	 0.250778825484152 
1118	 0.250934031232608 
1119	 0.25111202392433 
1120	 0.2512908214976 
1121	 0.251466366389396 
1122	 0.251644879044594 
1123	 0.251799480662824 
1124	 0.251970741116719 
1125	 0.252148725338118 
1126	 0.252326104525065 
1127	 0.252517864664637 
1128	 0.252681015328783 
1129	 0.252817538437434 
1130	 0.252977687946043 
1131	 0.253124063827316 
1132	 0.25329413433277 
1133	 0.253499077693239 
1134	 0.253687920364486 
1135	 0.253880765954436 
1136	 0.254070560530002 
1137	 0.254229056814587 
1138	 0.254378670494664 
1139	 0.254536445230371 
1140	 0.254689194857552 
1141	 0.254824981629207 
1142	 0.25496484428189 
1143	 0.25509237659982 
1144	 0.255180978748739 
1145	 0.255303702361251 
1146	 0.255452507473226 
1147	 0.255578806860385 
1148	 0.255691027830469 
1149	 0.255821138878094 
1150	 0.255941863975497 
1151	 0.25608682376468 
1152	 0.256228954741537 
1153	 0.256392328854792 
1154	 0.256533619600148 
1155	 0.256660426643726 
1156	 0.256791135054252 
1157	 0.256918855157807 
1158	 0.25704872642401 
1159	 0.257176256734716 
1160	 0.257305472828099 
1161	 0.257438521230045 
1162	 0.257567456361056 
1163	 0.257698138720851 
1164	 0.25782517131459 
1165	 0.257939798861813 
1166	 0.258070726556742 
1167	 0.258200044826587 
1168	 0.258330604733189 
1169	 0.2584673021342 
1170	 0.258620608078525 
1171	 0.258747864444684 
1172	 0.25886804573949 
1173	 0.258985001502897 
1174	 0.259082383081747 
1175	 0.259196018551258 
1176	 0.259323691468647 
1177	 0.259436058803237 
1178	 0.259545979262421 
1179	 0.259653007486237 
1180	 0.259751536925005 
1181	 0.259848056539763 
1182	 0.259942239375783 
1183	 0.260030769623895 
1184	 0.260137097940366 
1185	 0.260245789214018 
1186	 0.26035961962131 
1187	 0.260495298732313 
1188	 0.260607950567191 
1189	 0.260714408752241 
1190	 0.260814160405551 
1191	 0.260894671187859 
1192	 0.260994382533215 
1193	 0.261102355699762 
1194	 0.261201243605742 
1195	 0.261306668653902 
1196	 0.261408564593477 
1197	 0.2614963462269 
1198	 0.261591248443578 
1199	 0.261689399848827 
1200	 0.261797268755897 
1201	 0.261891014547338 
1202	 0.261976157776158 
1203	 0.262074953556833 
1204	 0.262171020123433 
1205	 0.262274647022235 
1206	 0.262389524098527 
1207	 0.262504365671265 
1208	 0.262631193325403 
1209	 0.262738850439562 
1210	 0.262850196215658 
1211	 0.262944939683312 
1212	 0.26300650457424 
1213	 0.263086258341723 
1214	 0.26316959365925 
1215	 0.26325139385671 
1216	 0.263335323619698 
1217	 0.263431718856203 
1218	 0.263507943253415 
1219	 0.263565315520423 
1220	 0.263648200239374 
1221	 0.263733290220816 
1222	 0.263822368714946 
1223	 0.263936487073672 
1224	 0.264027827980267 
1225	 0.264109319934785 
1226	 0.264187163213469 
1227	 0.264256843142292 
1228	 0.264326011740301 
1229	 0.264379096640455 
1230	 0.264449442804419 
1231	 0.264532147868108 
1232	 0.264608836963408 
1233	 0.264687691840331 
1234	 0.264780362640578 
1235	 0.264854552004073 
1236	 0.264916049397223 
1237	 0.264983742815512 
1238	 0.265052273682134 
1239	 0.265113370154448 
1240	 0.265166066830929 
1241	 0.265228255211248 
1242	 0.265292370938235 
1243	 0.265350980202657 
1244	 0.265412034432424 
1245	 0.265475568337183 
1246	 0.265522253827383 
1247	 0.265589107377349 
1248	 0.265671371734992 
1249	 0.265757107790717 
1250	 0.265854231457596 
1251	 0.265962983866725 
1252	 0.26604261443407 
1253	 0.266116608967446 
1254	 0.266179615703066 
1255	 0.266221363705392 
1256	 0.266265918430828 
1257	 0.266307509407674 
1258	 0.266345001692768 
1259	 0.266362966930587 
1260	 0.26640116786315 
1261	 0.266440550112783 
1262	 0.266494849394153 
1263	 0.266579067700019 
1264	 0.2666431527768 
1265	 0.266704378768137 
1266	 0.266766818280433 
1267	 0.26682959752314 
1268	 0.266877513822204 
1269	 0.266916790843633 
1270	 0.266944994879799 
1271	 0.266997919523264 
1272	 0.26704219789253 
1273	 0.267101180947478 
1274	 0.267187229900754 
1275	 0.267264852021603 
1276	 0.267326571840206 
1277	 0.267418159673263 
1278	 0.26753111609242 
1279	 0.267645277067259 
1280	 0.267791260273987 
1281	 0.26790751328421 
1282	 0.26801995115176 
1283	 0.268120023986584 
1284	 0.268204093790492 
1285	 0.268262364710343 
1286	 0.268355564468043 
1287	 0.268473860129641 
1288	 0.268572376171376 
1289	 0.268687322575438 
1290	 0.268782641298769 
1291	 0.268853094577285 
1292	 0.268941202777477 
1293	 0.269048588978109 
1294	 0.269126002113373 
1295	 0.269196041265879 
1296	 0.269252854976799 
1297	 0.269274285396478 
1298	 0.269320031758598 
1299	 0.269382096189501 
1300	 0.269419923312011 
1301	 0.269446395297424 
1302	 0.269487310665637 
1303	 0.269527850165668 
1304	 0.269555072807541 
1305	 0.269583072295796 
1306	 0.269603519080147 
1307	 0.269617791380944 
1308	 0.269606115296047 
1309	 0.269601540463137 
1310	 0.269605891910355 
1311	 0.269597872338003 
1312	 0.269573902035104 
1313	 0.269556562502433 
1314	 0.269539273480145 
1315	 0.269523866392129 
1316	 0.269508340283711 
1317	 0.269489443824559 
1318	 0.269469079860756 
1319	 0.269454055568668 
1320	 0.269439042361677 
1321	 0.269420969985099 
1322	 0.269404836304502 
1323	 0.269393473246282 
1324	 0.269377917230019 
1325	 0.269351668142606 
1326	 0.269342029169072 
1327	 0.269325485470357 
1328	 0.269279843772303 
1329	 0.269256515326695 
1330	 0.26922855972274 
1331	 0.269195985489743 
1332	 0.269160589422719 
1333	 0.269136370298729 
1334	 0.269090353486686 
1335	 0.269014068643681 
1336	 0.268972857613404 
1337	 0.268941859854905 
1338	 0.268909763917365 
1339	 0.268905456568601 
1340	 0.268873379446482 
1341	 0.268813148049281 
1342	 0.268771554743349 
1343	 0.26872917004827 
1344	 0.26869405417332 
1345	 0.268655339049839 
1346	 0.268633919929818 
1347	 0.268608901625639 
1348	 0.268562055936756 
1349	 0.268507948876658 
1350	 0.268465590347628 
1351	 0.268430907624143 
1352	 0.268399041373822 
1353	 0.268358796022352 
1354	 0.268333285425115 
1355	 0.268289988255864 
1356	 0.268224545237257 
1357	 0.268172487739818 
1358	 0.268120504654806 
1359	 0.268071793246981 
1360	 0.26801972222506 
1361	 0.267978137607274 
1362	 0.267950403925199 
1363	 0.267914942514244 
1364	 0.267882793145519 
1365	 0.267851194405727 
1366	 0.267812111147749 
1367	 0.267775882365089 
1368	 0.267771213395597 
1369	 0.267761766057358 
1370	 0.2677278520622 
1371	 0.267691400624042 
1372	 0.267632955063701 
1373	 0.267550741215483 
1374	 0.267465481858642 
1375	 0.26738139000474 
1376	 0.267270608808303 
1377	 0.267144980297938 
1378	 0.266992616699805 
1379	 0.26681700103216 
1380	 0.266641508456151 
1381	 0.266437527277197 
1382	 0.266239735019523 
1383	 0.26605477222399 
1384	 0.26583834893185 
1385	 0.265620025157334 
1386	 0.265369632537352 
1387	 0.265100384326512 
1388	 0.264799395370614 
1389	 0.264473474565497 
1390	 0.26411384768088 
1391	 0.263734064928556 
1392	 0.263322159114106 
1393	 0.262853911468531 
1394	 0.262369760731963 
1395	 0.261851599062185 
1396	 0.261318183204898 
1397	 0.260810510523673 
1398	 0.260315697822502 
1399	 0.259801641984841 
1400	 0.259289416562338 
1401	 0.258772964308199 
1402	 0.258220964335192 
1403	 0.257729739048465 
1404	 0.257258599136365 
1405	 0.25681131756817 
1406	 0.256403694813062 
1407	 0.25599833886587 
1408	 0.255594026352543 
1409	 0.255226322689221 
1410	 0.254855751287104 
1411	 0.254554494703519 
1412	 0.254285543083358 
1413	 0.254080637327935 
1414	 0.253953328751639 
1415	 0.253858079442633 
1416	 0.253804967913864 
1417	 0.253768463731303 
1418	 0.25372937198997 
1419	 0.25372972635281 
1420	 0.253747019059468 
1421	 0.25376897567436 
1422	 0.253806614008029 
1423	 0.253819115904082 
1424	 0.253814227191586 
1425	 0.253792740125965 
1426	 0.253767622028885 
1427	 0.253711919187163 
1428	 0.253687088862089 
1429	 0.253676041569902 
1430	 0.253646039375782 
1431	 0.253613856844849 
1432	 0.25359683159491 
1433	 0.253579228904194 
1434	 0.253556543229943 
1435	 0.25353330525654 
1436	 0.253529001194359 
1437	 0.253523560789067 
1438	 0.253521509128686 
1439	 0.253541316239186 
1440	 0.253567277829245 
1441	 0.25356348106887 
1442	 0.253569626865185 
1443	 0.253586771108861 
1444	 0.253607332807744 
1445	 0.253637579517595 
1446	 0.253660982916374 
1447	 0.253683223669959 
1448	 0.253709269251979 
1449	 0.253733304201223 
1450	 0.253753128539945 
1451	 0.253772070671065 
1452	 0.253789929344432 
1453	 0.253814575608583 
1454	 0.253841172192212 
1455	 0.253862563841029 
1456	 0.253892527873324 
1457	 0.253904559841855 
1458	 0.253891119344858 
1459	 0.253908070897679 
1460	 0.253926046189126 
1461	 0.253962701074404 
1462	 0.254027345414042 
1463	 0.254077179019493 
1464	 0.254131099537762 
1465	 0.254183782549073 
1466	 0.254223749712107 
1467	 0.254284569402215 
1468	 0.254338077240741 
1469	 0.254427315295588 
1470	 0.254547089899035 
1471	 0.254673992784351 
1472	 0.254813139088623 
1473	 0.254970216398933 
1474	 0.255103529666388 
1475	 0.25523884049078 
1476	 0.255381942264684 
1477	 0.25551361728105 
1478	 0.255658510356684 
1479	 0.255814489005895 
1480	 0.255977502165699 
1481	 0.256144186327541 
1482	 0.256300053326558 
1483	 0.256455904879134 
1484	 0.256598164022752 
1485	 0.256723652976238 
1486	 0.256865884042601 
1487	 0.257000348855257 
1488	 0.25715281857277 
1489	 0.257332587676365 
1490	 0.257483671560325 
1491	 0.257636632326622 
1492	 0.257774823978213 
1493	 0.257885632356477 
1494	 0.258006680713118 
1495	 0.258118548083915 
1496	 0.258246233637109 
1497	 0.258396038508032 
1498	 0.258522667570498 
1499	 0.258650448352814 
1500	 0.258766869319484 
1501	 0.258853429313896 
1502	 0.258953977218535 
1503	 0.259058725112741 
1504	 0.259159649361098 
1505	 0.259283950175558 
1506	 0.259417503524908 
1507	 0.259544384389984 
1508	 0.259677800226879 
1509	 0.259792485757819 
1510	 0.259887542659938 
1511	 0.259992603198727 
1512	 0.260097314314934 
1513	 0.26018062175919 
1514	 0.260279772999675 
1515	 0.260384111917223 
1516	 0.260483620089916 
1517	 0.260589522873944 
1518	 0.260711809842821 
1519	 0.260812449520667 
1520	 0.260900207458806 
1521	 0.26099838374959 
1522	 0.261087473531227 
1523	 0.261189635596195 
1524	 0.261309582648558 
1525	 0.261411798684807 
1526	 0.261513889836739 
1527	 0.261609227929599 
1528	 0.261693126235086 
1529	 0.261777268156016 
1530	 0.261861103255787 
1531	 0.261943465659973 
1532	 0.262017203332079 
1533	 0.262095168655537 
1534	 0.262172965628034 
1535	 0.262252588118388 
1536	 0.262331591861413 
1537	 0.262414953307065 
1538	 0.262509707935901 
1539	 0.262592223081736 
1540	 0.262678480217225 
1541	 0.262752973134116 
1542	 0.262804427647221 
1543	 0.262868100379265 
1544	 0.262936370303843 
1545	 0.262994949869189 
1546	 0.263056811799514 
1547	 0.263114942379036 
1548	 0.263160127071675 
1549	 0.263189129706534 
1550	 0.263225153504357 
1551	 0.263281992779373 
1552	 0.263335489197495 
1553	 0.263416887147477 
1554	 0.26349970416272 
1555	 0.26354641778112 
1556	 0.263589566380686 
1557	 0.263632603437984 
1558	 0.263680359800507 
1559	 0.263740178058451 
1560	 0.263801453651552 
1561	 0.263878400708069 
1562	 0.263934220297056 
1563	 0.263979033508656 
1564	 0.264037564273387 
1565	 0.264099166172441 
1566	 0.264147296401071 
1567	 0.264198144446143 
1568	 0.264243488026609 
1569	 0.264264832949187 
1570	 0.264311472914484 
1571	 0.264383444561915 
1572	 0.26442801314755 
1573	 0.264462481636884 
1574	 0.264505788115097 
1575	 0.264543637387659 
1576	 0.264577142687717 
1577	 0.264626372258523 
1578	 0.26464857301884 
1579	 0.264627946449555 
1580	 0.264653297481104 
1581	 0.264686485488218 
1582	 0.264728735029552 
1583	 0.264817164516883 
1584	 0.264866123852367 
1585	 0.264891025526583 
1586	 0.264928104379398 
1587	 0.264960650895116 
1588	 0.264987399374549 
1589	 0.265017532297195 
1590	 0.265046340270602 
1591	 0.265057965941824 
1592	 0.265083223342118 
1593	 0.265121045645184 
1594	 0.265152886820424 
1595	 0.265183574663749 
1596	 0.265220778461694 
1597	 0.265258322965578 
1598	 0.265298427251668 
1599	 0.265364768684221 
1600	 0.265398398320976 
1601	 0.265413575329576 
1602	 0.265426875974591 
1603	 0.265401231910994 
1604	 0.265402707318713 
1605	 0.265417648035078 
1606	 0.265435953273921 
1607	 0.265464159101562 
1608	 0.265504979160012 
1609	 0.265542177803176 
1610	 0.265584611752788 
1611	 0.265609278788297 
1612	 0.265618848857754 
1613	 0.265603913451289 
1614	 0.265602285118584 
1615	 0.265634714497039 
1616	 0.265673448180436 
1617	 0.265737973410998 
1618	 0.265788723955396 
1619	 0.265808862385429 
1620	 0.265836086992673 
1621	 0.265866711826122 
1622	 0.265896994775208 
1623	 0.265917351906137 
1624	 0.26594534751328 
1625	 0.265949417961602 
1626	 0.265927437765607 
1627	 0.265925247602918 
1628	 0.265916894473288 
1629	 0.265928524102477 
1630	 0.265953969091995 
1631	 0.265976824929275 
1632	 0.266009898256034 
1633	 0.266035485050854 
1634	 0.266065366090133 
1635	 0.266077168293638 
1636	 0.266084681279743 
1637	 0.26608021741085 
1638	 0.266051176509057 
1639	 0.266044963532555 
1640	 0.266028117098674 
1641	 0.266051193077694 
1642	 0.266106968603742 
1643	 0.266144286141513 
1644	 0.266200097692686 
1645	 0.266242305221066 
1646	 0.26627690506501 
1647	 0.266297779690454 
1648	 0.266315123064522 
1649	 0.266328175547124 
1650	 0.266317850547933 
1651	 0.26632356887866 
1652	 0.266342929436551 
1653	 0.266349086597846 
1654	 0.266345441954363 
1655	 0.26635187796698 
1656	 0.266367188756369 
1657	 0.266363223829123 
1658	 0.266351204147732 
1659	 0.266346382602981 
1660	 0.266330994172459 
1661	 0.266319354617705 
1662	 0.266319579981161 
1663	 0.266311565459044 
1664	 0.266293912362391 
1665	 0.266278006498825 
1666	 0.266256768630901 
1667	 0.266252941419798 
1668	 0.266258438467449 
1669	 0.266254349698326 
1670	 0.266263264530559 
1671	 0.266259777277297 
1672	 0.266238527935323 
1673	 0.266225255195114 
1674	 0.266212314067406 
1675	 0.266207138166798 
1676	 0.266197541514237 
1677	 0.266203099956909 
1678	 0.266224372002263 
1679	 0.266243401465028 
1680	 0.266279467497873 
1681	 0.266291538709183 
1682	 0.266289947112751 
1683	 0.266297141317722 
1684	 0.266290254079597 
1685	 0.266297983476056 
1686	 0.266330993028892 
1687	 0.266335238132441 
1688	 0.266318327277564 
1689	 0.266322312119025 
1690	 0.2663265252096 
1691	 0.266328086359806 
1692	 0.266348466411419 
1693	 0.266348633601691 
1694	 0.266309155987893 
1695	 0.266320282752384 
1696	 0.266358171675677 
1697	 0.266386324692017 
1698	 0.266459732051747 
1699	 0.266472808652895 
1700	 0.266442770334605 
1701	 0.266425212930668 
1702	 0.266377913521153 
1703	 0.266355750395179 
1704	 0.266361147610747 
1705	 0.266334661896665 
1706	 0.266291818678101 
1707	 0.266262337513789 
1708	 0.266214078664347 
1709	 0.266190435732977 
1710	 0.266198537158237 
1711	 0.266183506576671 
1712	 0.2661669632293 
1713	 0.266142224144838 
1714	 0.266102904162367 
1715	 0.266072787377271 
1716	 0.266032579582823 
1717	 0.26601896695277 
1718	 0.26602397516497 
1719	 0.266019117415075 
1720	 0.266033585365793 
1721	 0.266025352462997 
1722	 0.266001631625934 
1723	 0.265979132338396 
1724	 0.26595586305433 
1725	 0.265919337582251 
1726	 0.2658694840492 
1727	 0.265824813209503 
1728	 0.265757128116799 
1729	 0.265730694698903 
1730	 0.265742679668638 
1731	 0.265713085730353 
1732	 0.265691929262598 
1733	 0.2656485343504 
1734	 0.26556435871265 
1735	 0.265498029095809 
1736	 0.265434758850759 
1737	 0.265377244589415 
1738	 0.265320289467239 
1739	 0.265258995221932 
1740	 0.265208640310943 
1741	 0.265144860475118 
1742	 0.26506861866846 
1743	 0.264990469136733 
1744	 0.264902907938197 
1745	 0.264829149746771 
1746	 0.264740724842555 
1747	 0.264691684994146 
1748	 0.264683800641753 
1749	 0.264651958537535 
1750	 0.264629397201785 
1751	 0.264583511961983 
1752	 0.264497724097089 
1753	 0.264445905804412 
1754	 0.264398163036455 
1755	 0.264320654563823 
1756	 0.264256679720334 
1757	 0.26417361072121 
1758	 0.264096971397322 
1759	 0.2640755290938 
1760	 0.264032946644665 
1761	 0.264000127604828 
1762	 0.263972391014537 
1763	 0.263894177377082 
1764	 0.263831987639672 
1765	 0.263772000817051 
1766	 0.263694813281411 
1767	 0.26360911563453 
1768	 0.263540275422317 
1769	 0.263493794486139 
1770	 0.263435439626047 
1771	 0.263416120092494 
1772	 0.263410066202052 
1773	 0.263374454266815 
1774	 0.26334527831566 
1775	 0.263331825419553 
1776	 0.263307088753687 
1777	 0.263263995524312 
1778	 0.26322729988773 
1779	 0.263172612207183 
1780	 0.263102987775259 
1781	 0.263038893424477 
1782	 0.262980805765597 
1783	 0.262923928518341 
1784	 0.2628973389538 
1785	 0.262934581484834 
1786	 0.26293072918883 
1787	 0.262911806568345 
1788	 0.262902903174457 
1789	 0.262893299049591 
1790	 0.262861623042483 
1791	 0.262818635431595 
1792	 0.262787763751344 
1793	 0.262719732380559 
1794	 0.262696144871703 
1795	 0.262709485017427 
1796	 0.262729648423191 
1797	 0.262796485886955 
1798	 0.262815509070743 
1799	 0.262822408918817 
1800	 0.262816938473982 
1801	 0.26152573744207 
1802	 0.261680088777749 
1803	 0.26184336251221 
1804	 0.262034552190538 
1805	 0.262237499672203 
1806	 0.262462463832679 
1807	 0.262673898362991 
1808	 0.262827713256548 
1809	 0.262937688995271 
1810	 0.26304935149278 
1811	 0.26312263214109 
1812	 0.263200281632215 
1813	 0.263281809070123 
1814	 0.263320894391724 
1815	 0.263334543642249 
1816	 0.263315186549314 
1817	 0.263294709705126 
1818	 0.263232695665347 
1819	 0.263240287826713 
1820	 0.263265882786374 
1821	 0.263289964797158 
1822	 0.263365245540127 
1823	 0.26341051362944 
1824	 0.263441002252489 
1825	 0.263498079956784 
1826	 0.263521443769431 
1827	 0.263532538420036 
1828	 0.263517759832988 
1829	 0.263454095504353 
1830	 0.263404689497524 
1831	 0.263334654162778 
1832	 0.263284117093401 
1833	 0.26327387569461 
1834	 0.263256150457943 
1835	 0.26324278171271 
1836	 0.26324209826254 
1837	 0.263218526532117 
1838	 0.263194677115137 
1839	 0.263175866336311 
1840	 0.263169463321653 
1841	 0.263153718581141 
1842	 0.263112416486013 
1843	 0.263071931402457 
1844	 0.263037285573177 
1845	 0.262983037991082 
1846	 0.262931294332832 
1847	 0.262892323038395 
1848	 0.262851766678867 
1849	 0.262819897286343 
1850	 0.262785575673335 
1851	 0.262766751000626 
1852	 0.26272610161247 
1853	 0.262681897110124 
1854	 0.26264015662609 
1855	 0.262578014028397 
1856	 0.262496551435933 
1857	 0.262395668928974 
1858	 0.262251723044168 
1859	 0.262064723285197 
1860	 0.261879881315013 
1861	 0.261686006515375 
1862	 0.261472121719725 
1863	 0.261228881006681 
1864	 0.260988472789602 
1865	 0.260705389916395 
1866	 0.260386991728551 
1867	 0.26006765530081 
1868	 0.259708510013009 
1869	 0.259313122650067 
1870	 0.258901856517238 
1871	 0.258459663468571 
1872	 0.257982248548241 
1873	 0.257477749269913 
1874	 0.256985258122343 
1875	 0.256455182286244 
1876	 0.255857163098667 
1877	 0.255227375850754 
1878	 0.254507187172434 
1879	 0.253716549963387 
1880	 0.252863739888448 
1881	 0.251938431952659 
1882	 0.250959392988267 
1883	 0.2499225061133 
1884	 0.248805672140482 
1885	 0.247658339877699 
1886	 0.246450807433558 
1887	 0.245143548340117 
1888	 0.243757375775915 
1889	 0.242282357742375 
1890	 0.240762132509605 
1891	 0.239238290688673 
1892	 0.237654464841837 
1893	 0.23609863339644 
1894	 0.234543693591182 
1895	 0.23297855377071 
1896	 0.231389194397033 
1897	 0.229839015627374 
1898	 0.228276773710082 
1899	 0.2267565102511 
1900	 0.225338851411215 
1901	 0.223966453414877 
1902	 0.222652687090982 
1903	 0.221421018375449 
1904	 0.220234529051711 
1905	 0.219080172034968 
1906	 0.218013346814265 
1907	 0.217020558380827 
1908	 0.216084665961985 
1909	 0.215217425132942 
1910	 0.214392472013445 
1911	 0.213635088444581 
1912	 0.212933471662738 
1913	 0.212257929442996 
1914	 0.211608161010012 
1915	 0.211029130241913 
1916	 0.210501179726638 
1917	 0.210011247545599 
1918	 0.20958151832587 
1919	 0.209180680918015 
1920	 0.208795231459992 
1921	 0.208419782306101 
1922	 0.208091082938228 
1923	 0.207820164736105 
1924	 0.207583278789258 
1925	 0.207396981881991 
1926	 0.207240828506218 
1927	 0.20711571182513 
1928	 0.207035261021073 
1929	 0.206999752421392 
1930	 0.206972407508716 
1931	 0.206982307761495 
1932	 0.207004436863335 
1933	 0.207031772513684 
1934	 0.207107110820973 
1935	 0.207191367742405 
1936	 0.207284061869966 
1937	 0.207413869686423 
1938	 0.207582412562148 
1939	 0.207752253084292 
1940	 0.207937601577529 
1941	 0.208160579127681 
1942	 0.208395547968341 
1943	 0.208621957416977 
1944	 0.208850086475804 
1945	 0.209107527586362 
1946	 0.209365662790076 
1947	 0.209607846908099 
1948	 0.209888381265394 
1949	 0.210200314961926 
1950	 0.210513820966492 
1951	 0.210847175615937 
1952	 0.211180732926243 
1953	 0.211525495305371 
1954	 0.21187639577122 
1955	 0.212215567317531 
1956	 0.212590462478844 
1957	 0.212956325603624 
1958	 0.213317270264793 
1959	 0.213697244560064 
1960	 0.214094792570371 
1961	 0.214484561513228 
1962	 0.214886876749917 
1963	 0.215283434064525 
1964	 0.215676182934855 
1965	 0.216060069464971 
1966	 0.216469420135592 
1967	 0.216881030495501 
1968	 0.217291718240817 
1969	 0.217711041065504 
1970	 0.218133225649334 
1971	 0.218562848894157 
1972	 0.218980279627627 
1973	 0.219397771626761 
1974	 0.219812979396126 
1975	 0.220216598441585 
1976	 0.220616573864239 
1977	 0.221038523080317 
1978	 0.221460485885211 
1979	 0.221887074919561 
1980	 0.222322821960908 
1981	 0.222753918074923 
1982	 0.223185427723106 
1983	 0.223622113029357 
1984	 0.224064824203041 
1985	 0.224500603078655 
1986	 0.224945379599403 
1987	 0.22537310303771 
1988	 0.225791610683237 
1989	 0.226200274426701 
1990	 0.226596622407217 
1991	 0.227006740654679 
1992	 0.227413932889201 
1993	 0.227818747277815 
1994	 0.228227356824635 
1995	 0.22864955449085 
1996	 0.229047826999289 
1997	 0.229440918442429 
1998	 0.229828818318249 
1999	 0.230183343967833 
2000	 0.230566287249911 
2001	 0.230957193832737 
2002	 0.231354751914596 
2003	 0.231779385830232 
2004	 0.232205064935422 
2005	 0.232615430579384 
2006	 0.233034778347612 
2007	 0.233425152603849 
2008	 0.233786382371457 
2009	 0.234159714370442 
2010	 0.234526156595117 
2011	 0.234890714127619 
2012	 0.235263204444993 
2013	 0.235620414999197 
2014	 0.235960793721921 
2015	 0.236302896881434 
2016	 0.236643598478827 
2017	 0.236985296633441 
2018	 0.237327675529542 
2019	 0.237675627058602 
2020	 0.238015665049584 
2021	 0.23834607460343 
2022	 0.238687367652923 
2023	 0.23903929560354 
2024	 0.239379571701293 
2025	 0.239726023365885 
2026	 0.240059255297526 
2027	 0.240374029197662 
2028	 0.240691580679058 
2029	 0.241010567453394 
2030	 0.241325623030774 
2031	 0.241644845898041 
2032	 0.241978090851833 
2033	 0.242279845418256 
2034	 0.242568143396753 
2035	 0.242853827971905 
2036	 0.243120560974316 
2037	 0.243389702228883 
2038	 0.243667669859435 
2039	 0.243927254661463 
2040	 0.244180637775927 
2041	 0.244407592305772 
2042	 0.244632109573239 
2043	 0.244864407969044 
2044	 0.245099155746717 
2045	 0.24533042028202 
2046	 0.245578743928098 
2047	 0.245845389640867 
2048	 0.246094734051467 
2049	 0.24636231493792 
2050	 0.246597136919702 
2051	 0.246796505104079 
2052	 0.247012583482792 
2053	 0.247218459616318 
2054	 0.247428592933929 
2055	 0.247653127814125 
2056	 0.247869687045373 
2057	 0.248075542241955 
2058	 0.248268305990049 
2059	 0.248471676122669 
2060	 0.248667112862667 
2061	 0.248875087705439 
2062	 0.249104153058757 
2063	 0.249308780236961 
2064	 0.249505471714899 
2065	 0.249702105852847 
2066	 0.249887151559901 
2067	 0.25007161094998 
2068	 0.250258059881964 
2069	 0.25044343971656 
2070	 0.250615969301251 
2071	 0.25077416735391 
2072	 0.250943966518306 
2073	 0.251100039230611 
2074	 0.251286918573002 
2075	 0.251504958828915 
2076	 0.251691541567576 
2077	 0.25189097235642 
2078	 0.252064594902474 
2079	 0.252195120795614 
2080	 0.252351226720622 
2081	 0.252506155324236 
2082	 0.252669246794935 
2083	 0.252836012939041 
2084	 0.253022492483125 
2085	 0.253198499434384 
2086	 0.253382951460453 
2087	 0.253550267009124 
2088	 0.253708324808517 
2089	 0.253869330262937 
2090	 0.254024532831991 
2091	 0.254176343023382 
2092	 0.254322519235678 
2093	 0.25447836645004 
2094	 0.254632469963355 
2095	 0.254787135062292 
2096	 0.254954203490591 
2097	 0.255115582880859 
2098	 0.25526066195289 
2099	 0.255420086387282 
2100	 0.255588418251181 
2101	 0.255773939948858 
2102	 0.255932121536151 
2103	 0.256081275022302 
2104	 0.256248077352409 
2105	 0.256396463973609 
2106	 0.256572027415072 
2107	 0.256791906636903 
2108	 0.256978954279154 
2109	 0.257152808586707 
2110	 0.257334139538797 
2111	 0.257489484121675 
2112	 0.257677897521855 
2113	 0.257891893513606 
2114	 0.258117626379863 
2115	 0.258308137330371 
2116	 0.258496824309152 
2117	 0.258690933796272 
2118	 0.258858354499341 
2119	 0.25904577699285 
2120	 0.259284196516085 
2121	 0.259455981319483 
2122	 0.259597049142058 
2123	 0.259724841753371 
2124	 0.259810705426521 
2125	 0.259906529923623 
2126	 0.259971524099844 
2127	 0.260072015207833 
2128	 0.260196366533054 
2129	 0.260309625292656 
2130	 0.260435687225868 
2131	 0.260580529628826 
2132	 0.260669779454641 
2133	 0.260728183696455 
2134	 0.260786747595699 
2135	 0.26081422594512 
2136	 0.260852548695476 
2137	 0.26089540083971 
2138	 0.260920514927437 
2139	 0.260952891493233 
2140	 0.260944426012964 
2141	 0.260902135687634 
2142	 0.260860380587477 
2143	 0.260791178507143 
2144	 0.260719877190246 
2145	 0.260658412355193 
2146	 0.260572271515122 
2147	 0.260462222274374 
2148	 0.260334882510097 
2149	 0.260227921979166 
2150	 0.260116181166693 
2151	 0.260003896910178 
2152	 0.259909961421354 
2153	 0.259793194166396 
2154	 0.259663375656195 
2155	 0.259522915333047 
2156	 0.259394253578344 
2157	 0.259215651856495 
2158	 0.258994923370224 
2159	 0.258778478990281 
2160	 0.258516772985086 
2161	 0.258282356175717 
2162	 0.258060665827509 
2163	 0.257838148036606 
2164	 0.257627132311027 
2165	 0.257411111954163 
2166	 0.257183334300072 
2167	 0.256947013206659 
2168	 0.256716083236828 
2169	 0.256483646526665 
2170	 0.256237257715599 
2171	 0.255989629746796 
2172	 0.255736779337473 
2173	 0.255464625282849 
2174	 0.255201035536989 
2175	 0.254955581663662 
2176	 0.254681268993313 
2177	 0.254405286081287 
2178	 0.254097725627159 
2179	 0.253735582672512 
2180	 0.253406680044652 
2181	 0.253058781696186 
2182	 0.252736109923646 
2183	 0.252444656230029 
2184	 0.252169845865356 
2185	 0.25186808083952 
2186	 0.251566559452741 
2187	 0.251254494463541 
2188	 0.25091322243776 
2189	 0.250604513450758 
2190	 0.250301904407432 
2191	 0.250011859031487 
2192	 0.249728189966791 
2193	 0.249469277331586 
2194	 0.249221861314927 
2195	 0.248994130855086 
2196	 0.248791273225793 
2197	 0.248605136367621 
2198	 0.248421974819497 
2199	 0.248278703789349 
2200	 0.248182809963983 
2201	 0.248085449791023 
2202	 0.248022720839744 
2203	 0.247945781723381 
2204	 0.247893946971593 
2205	 0.247832084388313 
2206	 0.24783083333588 
2207	 0.247870659009081 
2208	 0.247920456921739 
2209	 0.248010766034594 
2210	 0.24809618663824 
2211	 0.248189500019762 
2212	 0.248296640619648 
2213	 0.248421206175328 
2214	 0.248549199531816 
2215	 0.248707917421501 
2216	 0.248834479893349 
2217	 0.248954640775379 
2218	 0.249065877887242 
2219	 0.24914179125643 
2220	 0.249239710142564 
2221	 0.249354611470692 
2222	 0.249459133426319 
2223	 0.249554366774008 
2224	 0.249640737299803 
2225	 0.249715621289803 
2226	 0.249773261988449 
2227	 0.249820560793075 
2228	 0.249846828405832 
2229	 0.249903259534853 
2230	 0.249966563321809 
2231	 0.250008065684475 
2232	 0.250078479968507 
2233	 0.25009766709473 
2234	 0.250061941743733 
2235	 0.250044014292109 
2236	 0.250023010587573 
2237	 0.249989859859135 
2238	 0.24992218343131 
2239	 0.249892539090136 
2240	 0.249892198747338 
2241	 0.249860219060128 
2242	 0.249844801100779 
2243	 0.249812302201467 
2244	 0.249742896210852 
2245	 0.249665562180895 
2246	 0.249627857383863 
2247	 0.249588093007443 
2248	 0.249534126432476 
2249	 0.249484362475833 
2250	 0.249419375330889 
2251	 0.249329456565982 
2252	 0.249262682073441 
2253	 0.249208797593919 
2254	 0.249133824097211 
2255	 0.249054043433151 
2256	 0.248976325738048 
2257	 0.248861920023136 
2258	 0.24880753914021 
2259	 0.248780480960541 
2260	 0.248765190407484 
2261	 0.248812211342767 
2262	 0.248811925833524 
2263	 0.248796149395859 
2264	 0.248785404908487 
2265	 0.248742981987017 
2266	 0.248725522231179 
2267	 0.248719439640897 
2268	 0.24873019010735 
2269	 0.248752376742652 
2270	 0.248792766255673 
2271	 0.248856144658298 
2272	 0.248919408954692 
2273	 0.248971441785995 
2274	 0.248999838814241 
2275	 0.249012979416703 
2276	 0.248975524965698 
2277	 0.24901328659814 
2278	 0.249070239676008 
2279	 0.249126402285328 
2280	 0.249249397873219 
2281	 0.249299557624937 
2282	 0.249297464772203 
2283	 0.249323380484918 
2284	 0.249338175006818 
2285	 0.24935557290919 
2286	 0.249402743294683 
2287	 0.249398532441051 
2288	 0.249331472064962 
2289	 0.249324133753417 
2290	 0.249324850946135 
2291	 0.249327397990341 
2292	 0.249384540377153 
2293	 0.249405294867309 
2294	 0.249398862086583 
2295	 0.249377554963967 
2296	 0.249332781742472 
2297	 0.249309087033514 
2298	 0.249260388523147 
2299	 0.249219524790986 
2300	 0.249199066482059 
2301	 0.249171556962172 
2302	 0.249129222038967 
2303	 0.249080667214303 
2304	 0.249059427887015 
2305	 0.249024161629754 
2306	 0.248991636574888 
2307	 0.248976867932704 
2308	 0.248941391828195 
2309	 0.248895918897729 
2310	 0.248834894410114 
2311	 0.248767221940266 
2312	 0.248677820237669 
2313	 0.24853282337957 
2314	 0.248454150757051 
2315	 0.248408921155559 
2316	 0.248339569735618 
2317	 0.248295084585076 
2318	 0.248239928380911 
2319	 0.248152416087715 
2320	 0.248071694742804 
2321	 0.248027737251661 
2322	 0.247946609443704 
2323	 0.247839771791313 
2324	 0.24773249922676 
2325	 0.247569197202068 
2326	 0.247468153193608 
2327	 0.247394083030704 
2328	 0.2473273940515 
2329	 0.247287713903875 
2330	 0.247239242298413 
2331	 0.247206778390892 
2332	 0.247134025703609 
2333	 0.247070685220546 
2334	 0.247053127750671 
2335	 0.24696886809454 
2336	 0.246901531320244 
2337	 0.246840428155817 
2338	 0.246726166271306 
2339	 0.246630900067237 
2340	 0.246521274468042 
2341	 0.246417095675551 
2342	 0.246353597594719 
2343	 0.246270295090157 
2344	 0.246213326575629 
2345	 0.246131788524315 
2346	 0.246039039627701 
2347	 0.245931038547615 
2348	 0.245808312602631 
2349	 0.245670035403455 
2350	 0.245517269709778 
2351	 0.245374341983619 
2352	 0.245218843219964 
2353	 0.245066906301208 
2354	 0.244930231864204 
2355	 0.244764013581909 
2356	 0.244564955000432 
2357	 0.244409102709107 
2358	 0.244245139290652 
2359	 0.24410587965466 
2360	 0.244027703341229 
2361	 0.243891761578395 
2362	 0.243703424267726 
2363	 0.24358851440414 
2364	 0.243521472527519 
2365	 0.243409659187782 
2366	 0.243326831787978 
2367	 0.243215972170819 
2368	 0.243029570666956 
2369	 0.242867154705642 
2370	 0.242724416092212 
2371	 0.242596374978093 
2372	 0.242420656933832 
2373	 0.242217611560881 
2374	 0.242007175497895 
2375	 0.241777521569138 
2376	 0.241562312422678 
2377	 0.241335373302994 
2378	 0.241092490612807 
2379	 0.240869116090128 
2380	 0.240593645643787 
2381	 0.240355952266421 
2382	 0.240137338201222 
2383	 0.239885122851448 
2384	 0.239687957914375 
2385	 0.239502921458039 
2386	 0.239269812491542 
2387	 0.239036374642054 
2388	 0.238857591755969 
2389	 0.238683577836569 
2390	 0.238529857494735 
2391	 0.238319063010408 
2392	 0.238032707719252 
2393	 0.237741959798793 
2394	 0.237394080957704 
2395	 0.237108422432237 
2396	 0.236900629649632 
2397	 0.236651411134566 
2398	 0.236411354164423 
2399	 0.236236140163677 
2400	 0.235975332602869 
2401	 0.235618212029942 
2402	 0.235281755578805 
2403	 0.234940060332633 
2404	 0.2346953284205 
2405	 0.234529698221487 
2406	 0.234279475436336 
2407	 0.23393988202935 
2408	 0.233571844632396 
2409	 0.233148427633237 
2410	 0.232723533649715 
2411	 0.232445391403413 
2412	 0.232164831701023 
2413	 0.23185851937095 
2414	 0.23158885387259 
2415	 0.231236621574254 
2416	 0.230936700334605 
2417	 0.230618944787621 
2418	 0.230353124413238 
2419	 0.230167695917408 
2420	 0.22993526953641 
2421	 0.229711446022306 
2422	 0.229397461913853 
2423	 0.229012478415756 
2424	 0.22867474264598 
2425	 0.228368277393606 
2426	 0.22797472956484 
2427	 0.227544571349446 
2428	 0.227149574005529 
2429	 0.226625098956829 
2430	 0.226183408927359 
2431	 0.225806234367655 
2432	 0.225442626765064 
2433	 0.225159044495274 
2434	 0.224821219544779 
2435	 0.224543980273006 
2436	 0.224200561224403 
2437	 0.223720311441004 
2438	 0.223302714815149 
2439	 0.222852706755661 
2440	 0.222493979709585 
2441	 0.222202731362544 
2442	 0.221928628888934 
2443	 0.221776579328526 
2444	 0.221546693087201 
2445	 0.221324251181777 
2446	 0.221008567517489 
2447	 0.22059449543886 
2448	 0.220215900299378 
2449	 0.21976036976194 
2450	 0.219336627339314 
2451	 0.218949411137233 
2452	 0.218552091669002 
2453	 0.21814081454324 
2454	 0.217843479967767 
2455	 0.21761971375666 
2456	 0.217319300053519 
2457	 0.217056047744108 
2458	 0.216729523289714 
2459	 0.216328920260701 
2460	 0.216057810044728 
2461	 0.215829913355938 
2462	 0.215576468920905 
2463	 0.215317964080746 
2464	 0.215025107172866 
2465	 0.214772321677604 
2466	 0.214435907065154 
2467	 0.214061674736438 
2468	 0.213758768040816 
2469	 0.213409867212048 
2470	 0.213100198178441 
2471	 0.212786474030517 
2472	 0.212462688735881 
2473	 0.212118419942975 
2474	 0.211897222832727 
2475	 0.211663917359436 
2476	 0.21145411230585 
2477	 0.211339657505012 
2478	 0.210947218466789 
2479	 0.210578582416861 
2480	 0.210279998703692 
2481	 0.209883840484583 
2482	 0.20964739910746 
2483	 0.209395601846091 
2484	 0.209137915588448 
2485	 0.208965483304713 
2486	 0.208803659011716 
2487	 0.208600807272446 
2488	 0.208230106345126 
2489	 0.207870214355496 
2490	 0.207720864976458 
2491	 0.207489546871287 
2492	 0.207199378166022 
2493	 0.206990600095637 
2494	 0.206638874769086 
2495	 0.206332162365373 
2496	 0.20624192276548 
2497	 0.206059873038688 
2498	 0.205694573917278 
2499	 0.205344655244695 
2500	 0.205106688920632 
