Wavelength	mm1700008.asd
350	 9.45877563166819E-02 
351	 9.33685487966995E-02 
352	 8.63413936792499E-02 
353	 7.97249092994879E-02 
354	 7.88930605653634E-02 
355	 8.50163071493633E-02 
356	 0.08926199159101 
357	 8.57220005037954E-02 
358	 8.83330525792693E-02 
359	 8.54167627521919E-02 
360	 8.01154825206068E-02 
361	 8.39577924294789E-02 
362	 8.62959496171959E-02 
363	 8.80396243014746E-02 
364	 8.96036519819779E-02 
365	 8.80759230004634E-02 
366	 9.09202475331254E-02 
367	 9.24024332336913E-02 
368	 8.78783558231144E-02 
369	 9.15322306323944E-02 
370	 9.34683551285666E-02 
371	 9.27222977722521E-02 
372	 0.094614176438605 
373	 9.74624613826941E-02 
374	 0.100166198664665 
375	 0.101500093258781 
376	 9.96820732148269E-02 
377	 9.90381394338555E-02 
378	 0.101072954281017 
379	 0.105258165570472 
380	 0.107402467243399 
381	 0.108648288609416 
382	 0.109483941265115 
383	 0.109968985417703 
384	 0.113268638834705 
385	 0.114391811330318 
386	 0.112323876009168 
387	 0.115874925204485 
388	 0.118855138802939 
389	 0.120799222310866 
390	 0.122850050467575 
391	 0.12497228713457 
392	 0.126812539034893 
393	 0.128976829870929 
394	 0.13260334616166 
395	 0.134242954107907 
396	 0.135686552926917 
397	 0.138397525878723 
398	 0.141479089622926 
399	 0.143681171835744 
400	 0.14505968053944 
401	 0.14640792000824 
402	 0.149328690598951 
403	 0.150864408103454 
404	 0.151375658807902 
405	 0.154621595629335 
406	 0.157306350948615 
407	 0.159461493834428 
408	 0.161394481157824 
409	 0.162309505052045 
410	 0.162653048287261 
411	 0.163307131997068 
412	 0.165009514067265 
413	 0.166030336652481 
414	 0.167471170304318 
415	 0.16921993212421 
416	 0.169321345078272 
417	 0.169827951058151 
418	 0.170665674944806 
419	 0.171320795588644 
420	 0.171657854587433 
421	 0.172122579013101 
422	 0.172779626594073 
423	 0.173367257900613 
424	 0.173018354931313 
425	 0.172410041336649 
426	 0.172124397959425 
427	 0.172290472636323 
428	 0.171921202328829 
429	 0.171193751907322 
430	 0.170682070338515 
431	 0.170846887616165 
432	 0.17047953196432 
433	 0.169872183526276 
434	 0.170703408734105 
435	 0.171060293824365 
436	 0.171167233009683 
437	 0.171523346785388 
438	 0.172182702303171 
439	 0.173094256442753 
440	 0.174317521859109 
441	 0.175860712318788 
442	 0.176932753187486 
443	 0.177997654906097 
444	 0.179279911861565 
445	 0.180442109422529 
446	 0.181841058699023 
447	 0.183200185067934 
448	 0.184256919939459 
449	 0.185586311362993 
450	 0.187003922290113 
451	 0.188396077339098 
452	 0.189733967109958 
453	 0.190923178519444 
454	 0.192037496305432 
455	 0.193148784982345 
456	 0.1942394640583 
457	 0.195363414413168 
458	 0.196344271049679 
459	 0.197008266923636 
460	 0.198042708094837 
461	 0.198953038905022 
462	 0.199563911041118 
463	 0.200285007007817 
464	 0.201095076640167 
465	 0.20196212957575 
466	 0.202787635255166 
467	 0.203268584827196 
468	 0.203794375323774 
469	 0.204395245728395 
470	 0.204822661044037 
471	 0.205459846441836 
472	 0.206054485159049 
473	 0.2064535239493 
474	 0.206980310729358 
475	 0.207528624599416 
476	 0.208060951234596 
477	 0.208572512785256 
478	 0.209122044276953 
479	 0.209621258058741 
480	 0.210072801080622 
481	 0.210622325027102 
482	 0.211150573798683 
483	 0.211662056838324 
484	 0.212169651127746 
485	 0.212575621150876 
486	 0.213006513298684 
487	 0.213503172711758 
488	 0.214021786285889 
489	 0.214400080646409 
490	 0.214767353187889 
491	 0.215253102900598 
492	 0.215882131435141 
493	 0.216412006750082 
494	 0.216710370658077 
495	 0.216817635739795 
496	 0.217586364269318 
497	 0.21815593988088 
498	 0.218301159562307 
499	 0.218981420853723 
500	 0.21953480998466 
501	 0.21989541686214 
502	 0.220208673596721 
503	 0.220769155559779 
504	 0.221199407190734 
505	 0.221477334093798 
506	 0.221907677650566 
507	 0.222181219237476 
508	 0.222579741565277 
509	 0.223225869104437 
510	 0.223519436392685 
511	 0.223842516377415 
512	 0.22420197539699 
513	 0.224445430147432 
514	 0.224859399267482 
515	 0.225376562903376 
516	 0.22589847611748 
517	 0.226360624769375 
518	 0.226630127860817 
519	 0.22682957320653 
520	 0.227155398276209 
521	 0.227691534880632 
522	 0.22812802741082 
523	 0.228420825728236 
524	 0.22882024682755 
525	 0.229103955552731 
526	 0.229332194538474 
527	 0.22961163790394 
528	 0.22999819151381 
529	 0.23036431784063 
530	 0.230748085228572 
531	 0.231264340051532 
532	 0.231549121640104 
533	 0.231759536260244 
534	 0.232065110467275 
535	 0.232526366015953 
536	 0.232869348935296 
537	 0.233165238538708 
538	 0.233586948523253 
539	 0.233961243174661 
540	 0.234303874220367 
541	 0.234640889007457 
542	 0.234989217235391 
543	 0.235359749086609 
544	 0.23575480048294 
545	 0.236163929269525 
546	 0.236547758047458 
547	 0.236912894868635 
548	 0.237293797459202 
549	 0.237739065302669 
550	 0.238121797913741 
551	 0.238458462700088 
552	 0.238799818042733 
553	 0.239208687294494 
554	 0.239640360154947 
555	 0.24011579944409 
556	 0.24067799993403 
557	 0.241260440371706 
558	 0.241782212723922 
559	 0.242252990653788 
560	 0.242845809999561 
561	 0.243371489112874 
562	 0.243809515995226 
563	 0.244237644245887 
564	 0.244920756470179 
565	 0.245546929695485 
566	 0.245969814498577 
567	 0.246270435388366 
568	 0.246690991319708 
569	 0.2472784194063 
570	 0.248023999896774 
571	 0.248980449820741 
572	 0.249800235878389 
573	 0.250442553379417 
574	 0.251088056668451 
575	 0.251653356838386 
576	 0.252333731014224 
577	 0.25322575439024 
578	 0.254164908575216 
579	 0.254916513773815 
580	 0.255501779787352 
581	 0.256069789489936 
582	 0.256669394860788 
583	 0.257309764224615 
584	 0.258015420698501 
585	 0.258847146718994 
586	 0.259736023587058 
587	 0.260669374824886 
588	 0.261626510809411 
589	 0.262477736592383 
590	 0.263391525321387 
591	 0.264368489697374 
592	 0.265252759890611 
593	 0.266041353319742 
594	 0.266704888294409 
595	 0.267252639916443 
596	 0.267787543928725 
597	 0.268304415087065 
598	 0.268837305885784 
599	 0.269439073272498 
600	 0.270125391145269 
601	 0.270896320091605 
602	 0.271691175506491 
603	 0.272344307151895 
604	 0.273005142056581 
605	 0.273714484768751 
606	 0.274473380578196 
607	 0.275294337026372 
608	 0.276035435369676 
609	 0.276698259162155 
610	 0.277453346082586 
611	 0.278060789830866 
612	 0.278578196398747 
613	 0.279082524238493 
614	 0.279449392657423 
615	 0.279843595441152 
616	 0.280309134266232 
617	 0.280794482982264 
618	 0.281255626153466 
619	 0.28165584384697 
620	 0.282005723557397 
621	 0.2824087992519 
622	 0.282789668572472 
623	 0.283147429533565 
624	 0.283504391212505 
625	 0.28382699794183 
626	 0.284159416951003 
627	 0.284512954267048 
628	 0.284847578540546 
629	 0.285185937773115 
630	 0.285527113813015 
631	 0.285858943562803 
632	 0.286142494374634 
633	 0.286447126609754 
634	 0.286770961140862 
635	 0.287058036337877 
636	 0.287393826075081 
637	 0.287729472515565 
638	 0.288023642101104 
639	 0.28831085212042 
640	 0.288592563994267 
641	 0.288856819926636 
642	 0.289095386118988 
643	 0.289382123509797 
644	 0.289694058178476 
645	 0.290001158737288 
646	 0.290278255733379 
647	 0.290510958944524 
648	 0.290781752695402 
649	 0.291150298351917 
650	 0.291468398147397 
651	 0.291711868740143 
652	 0.291949409190618 
653	 0.292311454544153 
654	 0.29257940116324 
655	 0.292838807426927 
656	 0.293169706514575 
657	 0.293499805707273 
658	 0.293806859929813 
659	 0.294069390676269 
660	 0.294295912909429 
661	 0.294683844650401 
662	 0.295074703250318 
663	 0.295376791769568 
664	 0.295641648936869 
665	 0.296006872344457 
666	 0.296384868625827 
667	 0.29667774836457 
668	 0.297045461801865 
669	 0.297441151937023 
670	 0.297806483095024 
671	 0.298087668198434 
672	 0.298391181484206 
673	 0.29875779643561 
674	 0.299174346007729 
675	 0.299533362289525 
676	 0.299903265865078 
677	 0.300277316919996 
678	 0.300627171172573 
679	 0.300998767584306 
680	 0.301394190504731 
681	 0.301796659072676 
682	 0.302170850231132 
683	 0.302542972391404 
684	 0.302950411476017 
685	 0.303396219532509 
686	 0.303750558730863 
687	 0.304139078999835 
688	 0.304565225194245 
689	 0.30494770352676 
690	 0.305335831950706 
691	 0.30573250220282 
692	 0.306139685159279 
693	 0.306579435586983 
694	 0.306936919430813 
695	 0.307322383673508 
696	 0.307852616899961 
697	 0.308185717807647 
698	 0.308555492844828 
699	 0.309018041227983 
700	 0.309411957021382 
701	 0.309840247106607 
702	 0.310301010781997 
703	 0.310751417036602 
704	 0.311090759960682 
705	 0.311434796004534 
706	 0.311821470853566 
707	 0.312236943084413 
708	 0.312621994311816 
709	 0.313020652098074 
710	 0.313435735145982 
711	 0.313796555717629 
712	 0.314115029310133 
713	 0.314454551186392 
714	 0.31486279829528 
715	 0.315279837622973 
716	 0.315614192550849 
717	 0.315906520113955 
718	 0.316288149613886 
719	 0.316745534675156 
720	 0.31711302359536 
721	 0.317331697553444 
722	 0.317581323672421 
723	 0.317874778543509 
724	 0.318158054206233 
725	 0.318382080513912 
726	 0.318680966914342 
727	 0.318957526285929 
728	 0.319185451246282 
729	 0.319414426560932 
730	 0.319655187719571 
731	 0.319863007442702 
732	 0.320026569897085 
733	 0.320245996853183 
734	 0.320408821274748 
735	 0.320516963169583 
736	 0.320625088644354 
737	 0.32078528026995 
738	 0.320954031881942 
739	 0.321100008723013 
740	 0.321215373163313 
741	 0.321324270016055 
742	 0.321387288192896 
743	 0.321398099149747 
744	 0.321480663440885 
745	 0.321516504429769 
746	 0.321503691604134 
747	 0.32149859233842 
748	 0.321539286315701 
749	 0.321527036439065 
750	 0.321461825981222 
751	 0.321473833694717 
752	 0.32145605141825 
753	 0.321347879720452 
754	 0.321176161043255 
755	 0.321192535097147 
756	 0.321164671829636 
757	 0.321039103012195 
758	 0.3208731306436 
759	 0.320771548832306 
760	 0.320713523103593 
761	 0.320630406950292 
762	 0.320417202670933 
763	 0.320295037174563 
764	 0.320142766041739 
765	 0.319878330066508 
766	 0.319782296920614 
767	 0.319690737821201 
768	 0.319536846498068 
769	 0.319319431496529 
770	 0.319117249297656 
771	 0.318950904350085 
772	 0.318786654497202 
773	 0.318538892539855 
774	 0.318350993284672 
775	 0.318146833549609 
776	 0.317867476904608 
777	 0.317631234863566 
778	 0.317457147347182 
779	 0.317305178086621 
780	 0.317111178997057 
781	 0.316874394222965 
782	 0.316661888479557 
783	 0.316468325410274 
784	 0.316212609735998 
785	 0.315997885384349 
786	 0.315779028602613 
787	 0.315525778394161 
788	 0.315310333715367 
789	 0.315133021523035 
790	 0.314929290905752 
791	 0.314649473510541 
792	 0.314467642916296 
793	 0.314237748959882 
794	 0.313962523062352 
795	 0.313772969458675 
796	 0.313523466303935 
797	 0.313290058109173 
798	 0.313119945962562 
799	 0.312948027293189 
800	 0.312749057689501 
801	 0.31253052539625 
802	 0.312312375791707 
803	 0.31210442234774 
804	 0.311923772714795 
805	 0.311731978589411 
806	 0.311473852751774 
807	 0.311255780748867 
808	 0.311081182945375 
809	 0.310920026303423 
810	 0.310717304683812 
811	 0.310515858283562 
812	 0.310316582131429 
813	 0.310128387046146 
814	 0.310008595060724 
815	 0.309913654871419 
816	 0.309769516389729 
817	 0.309522972926469 
818	 0.309275165192469 
819	 0.309163039266038 
820	 0.309102741872926 
821	 0.308852736505453 
822	 0.308665686406536 
823	 0.308479114144272 
824	 0.308284248495487 
825	 0.308235231052169 
826	 0.30815026680631 
827	 0.308013012108122 
828	 0.307852073003947 
829	 0.307679867486247 
830	 0.307467815220656 
831	 0.30729024059881 
832	 0.307237831580899 
833	 0.307196358407637 
834	 0.30707475654327 
835	 0.306893736267135 
836	 0.306773754867038 
837	 0.306725369524616 
838	 0.306660153505051 
839	 0.306532986452932 
840	 0.30640301176532 
841	 0.306252137093295 
842	 0.306104792078902 
843	 0.305990108748499 
844	 0.305918199967057 
845	 0.305886885367145 
846	 0.305836793776296 
847	 0.305720304963732 
848	 0.305711190877831 
849	 0.305650499040407 
850	 0.305541989964831 
851	 0.305524537147042 
852	 0.3054341598085 
853	 0.305341733352919 
854	 0.305299429912439 
855	 0.305283300490721 
856	 0.305306603237899 
857	 0.305336787493173 
858	 0.305336738142724 
859	 0.30527784467169 
860	 0.305271712021749 
861	 0.305228453137651 
862	 0.305064527061619 
863	 0.305046466362403 
864	 0.305074929831746 
865	 0.305076904448513 
866	 0.305030213908817 
867	 0.305100118039631 
868	 0.30512066436435 
869	 0.305076415944447 
870	 0.305119191287357 
871	 0.305075299518123 
872	 0.305118776503041 
873	 0.305285731097046 
874	 0.305310083226043 
875	 0.305375861954726 
876	 0.305418572143666 
877	 0.305381006068524 
878	 0.305376392123465 
879	 0.305397706093985 
880	 0.305461096847587 
881	 0.305567375414517 
882	 0.305641220039002 
883	 0.305765766068014 
884	 0.305872888131264 
885	 0.305861107988311 
886	 0.305974672943829 
887	 0.30610246556543 
888	 0.306172857804989 
889	 0.306187310180298 
890	 0.306258369444668 
891	 0.30639476486785 
892	 0.306555782435893 
893	 0.306667029043389 
894	 0.306809544570305 
895	 0.306938675597949 
896	 0.307026321683297 
897	 0.307113978731693 
898	 0.307357701854119 
899	 0.307562977435522 
900	 0.307592351263376 
901	 0.307708465523429 
902	 0.307871865759392 
903	 0.308022998583298 
904	 0.308127938623527 
905	 0.308295307817181 
906	 0.308483980649745 
907	 0.308726917755692 
908	 0.309056515650988 
909	 0.309342586664522 
910	 0.309522373733766 
911	 0.309608163537745 
912	 0.309678894389519 
913	 0.309874417110779 
914	 0.31012076335629 
915	 0.310366824571708 
916	 0.310606995183091 
917	 0.310872999991707 
918	 0.311103888316554 
919	 0.311282895241308 
920	 0.311461102854073 
921	 0.311737792266003 
922	 0.311995324279653 
923	 0.312186764569634 
924	 0.312422858478123 
925	 0.31267360468027 
926	 0.312976160048433 
927	 0.313313682513547 
928	 0.313554906626811 
929	 0.313877778971287 
930	 0.314208987723819 
931	 0.314474394016506 
932	 0.314751393818763 
933	 0.315034535032538 
934	 0.315321633583724 
935	 0.315633676569588 
936	 0.316074160717035 
937	 0.316369404538149 
938	 0.316608835962039 
939	 0.316938263132821 
940	 0.317224168659379 
941	 0.317537241249317 
942	 0.317953951198371 
943	 0.318478803513837 
944	 0.318868862438332 
945	 0.319133663593401 
946	 0.319365686989006 
947	 0.319664187768507 
948	 0.319970076183908 
949	 0.320304825337316 
950	 0.320682923721996 
951	 0.321109787249732 
952	 0.32159168037476 
953	 0.321926098106998 
954	 0.322260071689039 
955	 0.322831293788944 
956	 0.323227785159413 
957	 0.323555133566104 
958	 0.323890748236667 
959	 0.324254682736506 
960	 0.324527047670283 
961	 0.32501094339656 
962	 0.325618220412644 
963	 0.326039317179131 
964	 0.326385962741287 
965	 0.326790188200101 
966	 0.327231987502133 
967	 0.327610781058253 
968	 0.32802487452003 
969	 0.328497380719024 
970	 0.328986313766013 
971	 0.329436199545093 
972	 0.329979476366193 
973	 0.330503157768078 
974	 0.331018195906981 
975	 0.331581512499015 
976	 0.331935543213976 
977	 0.332288174258533 
978	 0.332794434501811 
979	 0.333464291250985 
980	 0.333919549030328 
981	 0.334356765949343 
982	 0.334796121789075 
983	 0.335142732783896 
984	 0.335418844283177 
985	 0.335857957169492 
986	 0.336437603702855 
987	 0.336991424906041 
988	 0.33751848786326 
989	 0.337987685288242 
990	 0.33839964704572 
991	 0.338811973211151 
992	 0.339440007881986 
993	 0.339921468125952 
994	 0.340303263585684 
995	 0.340771210673483 
996	 0.341178970034587 
997	 0.341702424157426 
998	 0.342178243267241 
999	 0.342481579309865 
1000	 0.343104199561486 
1001	 0.336419414872727 
1002	 0.336816071554029 
1003	 0.337207930655354 
1004	 0.337598814014738 
1005	 0.338037937824479 
1006	 0.338471760149345 
1007	 0.338904670822461 
1008	 0.339301058464798 
1009	 0.339709210863913 
1010	 0.340034130963081 
1011	 0.340330117589159 
1012	 0.340648822685301 
1013	 0.340965845636888 
1014	 0.341332600455246 
1015	 0.341759990228399 
1016	 0.342149861219225 
1017	 0.342525072337526 
1018	 0.342897415575015 
1019	 0.343266964213416 
1020	 0.343616283710788 
1021	 0.343985324852011 
1022	 0.344326637532028 
1023	 0.344639896412822 
1024	 0.344930646997183 
1025	 0.345116636586859 
1026	 0.345309463435633 
1027	 0.345612143838161 
1028	 0.34590006838597 
1029	 0.3462355599593 
1030	 0.346671193568354 
1031	 0.347000276558317 
1032	 0.34726583648755 
1033	 0.347469714109554 
1034	 0.347747994765938 
1035	 0.348026274465558 
1036	 0.348315172972685 
1037	 0.348691138455246 
1038	 0.349061814757992 
1039	 0.349342577751752 
1040	 0.349632305189748 
1041	 0.34995891569366 
1042	 0.350276561481827 
1043	 0.350582801636497 
1044	 0.350883853951738 
1045	 0.351194777866696 
1046	 0.351488213350603 
1047	 0.351772892632231 
1048	 0.352082312338591 
1049	 0.352387689790866 
1050	 0.352727967810262 
1051	 0.353078569290985 
1052	 0.3534038610067 
1053	 0.353789709448797 
1054	 0.354090842458838 
1055	 0.354331867398113 
1056	 0.354632472899355 
1057	 0.354916042279762 
1058	 0.355162349278986 
1059	 0.355461345755348 
1060	 0.3557948053766 
1061	 0.356132456750545 
1062	 0.356431279319774 
1063	 0.356697446085547 
1064	 0.35698667327468 
1065	 0.357228255055455 
1066	 0.35749204621449 
1067	 0.357797073976013 
1068	 0.358061043729028 
1069	 0.358276016639852 
1070	 0.358511626087437 
1071	 0.358721391538047 
1072	 0.358981928656614 
1073	 0.359309917829967 
1074	 0.35957235426735 
1075	 0.359838071889501 
1076	 0.36003606689386 
1077	 0.360247231948051 
1078	 0.360402202841696 
1079	 0.360564014785722 
1080	 0.360743890010101 
1081	 0.360883575149969 
1082	 0.361059057893825 
1083	 0.361242918325479 
1084	 0.361457598639129 
1085	 0.361648277823254 
1086	 0.361852481769266 
1087	 0.362021789419046 
1088	 0.362161154824477 
1089	 0.362301610119582 
1090	 0.362486148680998 
1091	 0.362629123166173 
1092	 0.362781360498968 
1093	 0.362968155113291 
1094	 0.363156417055064 
1095	 0.363350500773085 
1096	 0.363531021678221 
1097	 0.363702255838046 
1098	 0.363874616384053 
1099	 0.364028055046014 
1100	 0.364180325236723 
1101	 0.364348822526373 
1102	 0.364495602353645 
1103	 0.364622448183508 
1104	 0.364725915808916 
1105	 0.364886213012149 
1106	 0.365032375027207 
1107	 0.365136911123262 
1108	 0.365293761200237 
1109	 0.365473635860809 
1110	 0.365665796801641 
1111	 0.365831999504453 
1112	 0.366031370630617 
1113	 0.366193726686282 
1114	 0.366286040463669 
1115	 0.366436383651682 
1116	 0.366617070667734 
1117	 0.366797366060303 
1118	 0.36698980641664 
1119	 0.367187441066876 
1120	 0.367377082049014 
1121	 0.367566910180887 
1122	 0.367702320991886 
1123	 0.367844596668607 
1124	 0.368009440241918 
1125	 0.36816975640498 
1126	 0.368330023189952 
1127	 0.368510014627215 
1128	 0.36868637467099 
1129	 0.368850232960726 
1130	 0.369028443453568 
1131	 0.369245037722144 
1132	 0.369416821650077 
1133	 0.369548396416843 
1134	 0.369707863874586 
1135	 0.369866030028664 
1136	 0.370023512807338 
1137	 0.370183139301123 
1138	 0.370350755569581 
1139	 0.370523276776093 
1140	 0.370697513478997 
1141	 0.370856877504524 
1142	 0.371029569407908 
1143	 0.37118014468309 
1144	 0.37129937701991 
1145	 0.371424691344503 
1146	 0.371546672772811 
1147	 0.371677672198588 
1148	 0.371808342959021 
1149	 0.371938353016823 
1150	 0.372082317435612 
1151	 0.372212486191017 
1152	 0.372322354609362 
1153	 0.372432796023797 
1154	 0.372556681634931 
1155	 0.372679748073444 
1156	 0.372809833789926 
1157	 0.372956773233663 
1158	 0.373092906395661 
1159	 0.373241368932882 
1160	 0.373357763431526 
1161	 0.373453360461533 
1162	 0.373556914599281 
1163	 0.373630761968374 
1164	 0.373731510328685 
1165	 0.373855854495868 
1166	 0.37397332162795 
1167	 0.37408872070155 
1168	 0.374203096516101 
1169	 0.374328290299903 
1170	 0.374459073764693 
1171	 0.3745809580149 
1172	 0.374714714361572 
1173	 0.37483066878808 
1174	 0.374919340183648 
1175	 0.375032618521295 
1176	 0.375165696367992 
1177	 0.375275923081614 
1178	 0.375382748426489 
1179	 0.375489874936484 
1180	 0.375581799636104 
1181	 0.375675636895177 
1182	 0.375769428407639 
1183	 0.375876305693825 
1184	 0.375968217366929 
1185	 0.37604368540326 
1186	 0.376138917794817 
1187	 0.376236204916794 
1188	 0.376344225077909 
1189	 0.376473705464397 
1190	 0.376582612614969 
1191	 0.37669558945661 
1192	 0.376792999552579 
1193	 0.376859965692252 
1194	 0.376953577641254 
1195	 0.377060477363372 
1196	 0.377155597551599 
1197	 0.377267305669363 
1198	 0.377361248610935 
1199	 0.377443756194068 
1200	 0.37750243977522 
1201	 0.377582367303644 
1202	 0.377658256336531 
1203	 0.377747590118792 
1204	 0.377849379912935 
1205	 0.377947898466189 
1206	 0.378052084732063 
1207	 0.378153836878752 
1208	 0.37826967203057 
1209	 0.378358918617424 
1210	 0.378435239601415 
1211	 0.378509705366457 
1212	 0.378551343191265 
1213	 0.378618690289305 
1214	 0.37869976481125 
1215	 0.378781665301507 
1216	 0.378869607650441 
1217	 0.378978744800026 
1218	 0.379054808422902 
1219	 0.379119779424937 
1220	 0.379185328403712 
1221	 0.379223201601674 
1222	 0.379295229998262 
1223	 0.379390296661278 
1224	 0.3794697840362 
1225	 0.379558275586823 
1226	 0.379639662235256 
1227	 0.379717482582334 
1228	 0.379783883172887 
1229	 0.379838642515447 
1230	 0.379902122267608 
1231	 0.379956703396233 
1232	 0.380015064205054 
1233	 0.380077811267804 
1234	 0.380152381631799 
1235	 0.380222348552845 
1236	 0.380291192882804 
1237	 0.380356173403418 
1238	 0.380424145161394 
1239	 0.380489181551874 
1240	 0.380534526368328 
1241	 0.380610033164333 
1242	 0.380721760463164 
1243	 0.380794000884267 
1244	 0.380865316595902 
1245	 0.380926646756169 
1246	 0.380951733924396 
1247	 0.380990550118481 
1248	 0.381029725708174 
1249	 0.38107930100662 
1250	 0.381142668180539 
1251	 0.381187676028294 
1252	 0.381246094477733 
1253	 0.381318390545004 
1254	 0.381381988796116 
1255	 0.381444811515519 
1256	 0.381501976590106 
1257	 0.38156618083099 
1258	 0.381609070917024 
1259	 0.381631791777547 
1260	 0.381662108436602 
1261	 0.381679760544233 
1262	 0.381706211761066 
1263	 0.381736586791342 
1264	 0.381772678826028 
1265	 0.381813729751538 
1266	 0.38185405142433 
1267	 0.381907095436463 
1268	 0.381942424512683 
1269	 0.381988433663094 
1270	 0.382030006189835 
1271	 0.382089411296222 
1272	 0.382160465020547 
1273	 0.382227327561654 
1274	 0.382295431748562 
1275	 0.382378662804976 
1276	 0.382454136872875 
1277	 0.38256300384101 
1278	 0.382714841051275 
1279	 0.382841571291496 
1280	 0.382979727436959 
1281	 0.383107576763659 
1282	 0.383222730225662 
1283	 0.383334107674242 
1284	 0.38345108312614 
1285	 0.38355512697259 
1286	 0.383612774766479 
1287	 0.383693866456098 
1288	 0.383780302076115 
1289	 0.383856757944014 
1290	 0.38394541118963 
1291	 0.384059330376851 
1292	 0.384150703509656 
1293	 0.384241612103019 
1294	 0.384311417184152 
1295	 0.384365172505402 
1296	 0.384422944208531 
1297	 0.384475927515943 
1298	 0.384507264674574 
1299	 0.384536727380911 
1300	 0.384552514620017 
1301	 0.384533950006867 
1302	 0.384521285542054 
1303	 0.384510049210242 
1304	 0.384496974199416 
1305	 0.384447918132949 
1306	 0.384415793613141 
1307	 0.384382095140406 
1308	 0.384330168673948 
1309	 0.384277050305113 
1310	 0.384223006076301 
1311	 0.384159928460253 
1312	 0.384082902957531 
1313	 0.384010675305271 
1314	 0.383939967052099 
1315	 0.383872057209499 
1316	 0.383798095669982 
1317	 0.383733244436068 
1318	 0.38367342684726 
1319	 0.383612653692147 
1320	 0.383554816057085 
1321	 0.383500920338885 
1322	 0.383446365370504 
1323	 0.383401577171738 
1324	 0.383362442928456 
1325	 0.383316746621448 
1326	 0.38327180720897 
1327	 0.383232194378824 
1328	 0.383188911296292 
1329	 0.383146459504097 
1330	 0.383091548350707 
1331	 0.383032338462135 
1332	 0.382966583671896 
1333	 0.382887626116405 
1334	 0.382810880086621 
1335	 0.382711126354144 
1336	 0.382653040824473 
1337	 0.382620351824921 
1338	 0.382575465268667 
1339	 0.382558631241291 
1340	 0.382523718098361 
1341	 0.382466827046521 
1342	 0.382417017092687 
1343	 0.382380441983113 
1344	 0.382317312845469 
1345	 0.382264233765162 
1346	 0.38221403266086 
1347	 0.382152529819121 
1348	 0.38211584355046 
1349	 0.382066113137153 
1350	 0.382016872125692 
1351	 0.381973327843855 
1352	 0.381934902511576 
1353	 0.381891256433742 
1354	 0.381855364139565 
1355	 0.381800106823147 
1356	 0.381735288416533 
1357	 0.381673472023147 
1358	 0.381597740825835 
1359	 0.381530152148592 
1360	 0.381457860117878 
1361	 0.381402244265036 
1362	 0.381357004978357 
1363	 0.381315962640045 
1364	 0.381289219567436 
1365	 0.381257589628865 
1366	 0.381220796240987 
1367	 0.381191221222391 
1368	 0.381180270473698 
1369	 0.381175164050856 
1370	 0.381147766879921 
1371	 0.381104260426801 
1372	 0.381030433942507 
1373	 0.380945871866405 
1374	 0.380862451587231 
1375	 0.380784969053544 
1376	 0.380673753574872 
1377	 0.38056025038924 
1378	 0.380401420741923 
1379	 0.380187396820422 
1380	 0.380007993727237 
1381	 0.379820890075758 
1382	 0.379620802601625 
1383	 0.379443895391358 
1384	 0.379231711733972 
1385	 0.379002387148808 
1386	 0.378736850578139 
1387	 0.378474079430531 
1388	 0.378142470935735 
1389	 0.377753979609641 
1390	 0.377336062462265 
1391	 0.376881332578085 
1392	 0.376389284921933 
1393	 0.3758441853439 
1394	 0.375258025500933 
1395	 0.374614501014361 
1396	 0.373941323248561 
1397	 0.37329533448455 
1398	 0.372635691294076 
1399	 0.371998266302647 
1400	 0.371378050509977 
1401	 0.3707574215012 
1402	 0.370115086735811 
1403	 0.369542866559614 
1404	 0.368979532839347 
1405	 0.368481845030586 
1406	 0.368054178068596 
1407	 0.367638291297629 
1408	 0.367230535671199 
1409	 0.366908911598819 
1410	 0.366583321151497 
1411	 0.366402252212224 
1412	 0.366312337135211 
1413	 0.366321490930962 
1414	 0.366477467309468 
1415	 0.366733711132157 
1416	 0.367071325028161 
1417	 0.367472855800286 
1418	 0.367885845436569 
1419	 0.36829895816842 
1420	 0.368718349840276 
1421	 0.36910751620533 
1422	 0.369456881085795 
1423	 0.369772356582987 
1424	 0.370003070249324 
1425	 0.370148796619598 
1426	 0.370296174971977 
1427	 0.370368552224127 
1428	 0.37047186697743 
1429	 0.370586846617358 
1430	 0.370666683250062 
1431	 0.370733476204709 
1432	 0.370777171096304 
1433	 0.370785438029343 
1434	 0.370801862341918 
1435	 0.370788445654159 
1436	 0.370806585986142 
1437	 0.370845554696 
1438	 0.370867927494602 
1439	 0.370899854589189 
1440	 0.370936410396108 
1441	 0.370917061105416 
1442	 0.370889037449137 
1443	 0.370862196565448 
1444	 0.370830326278992 
1445	 0.370823407576435 
1446	 0.370832947314042 
1447	 0.370834177043668 
1448	 0.37082028937936 
1449	 0.370783275393459 
1450	 0.370728379725625 
1451	 0.370691141704499 
1452	 0.370646090910984 
1453	 0.370619340307208 
1454	 0.370617809184967 
1455	 0.370590290827181 
1456	 0.370560812081342 
1457	 0.370514750071694 
1458	 0.370447167911638 
1459	 0.370396116252319 
1460	 0.370329432635247 
1461	 0.370288120613046 
1462	 0.370268435973169 
1463	 0.370244239685829 
1464	 0.370237121197101 
1465	 0.370218356673557 
1466	 0.37018357965779 
1467	 0.370168179724551 
1468	 0.370145854503949 
1469	 0.37015170400321 
1470	 0.370184509463644 
1471	 0.370212974772494 
1472	 0.370280047200061 
1473	 0.370363474459244 
1474	 0.370428624227714 
1475	 0.370506122413349 
1476	 0.370554494666657 
1477	 0.370593411116328 
1478	 0.370650690379198 
1479	 0.370711736674399 
1480	 0.370804024984451 
1481	 0.370908869417909 
1482	 0.371009865958406 
1483	 0.371130959680285 
1484	 0.371231958834107 
1485	 0.37131667064449 
1486	 0.371417203400145 
1487	 0.371521587908544 
1488	 0.371618032091358 
1489	 0.371735473368657 
1490	 0.371812411449435 
1491	 0.371867205782224 
1492	 0.371917894576685 
1493	 0.371930457600911 
1494	 0.371969586691654 
1495	 0.372013526140252 
1496	 0.372059549427866 
1497	 0.372122168170883 
1498	 0.372170813811015 
1499	 0.372219217473925 
1500	 0.372258601589329 
1501	 0.372286297045893 
1502	 0.37232083042861 
1503	 0.372350241954144 
1504	 0.37237010305942 
1505	 0.372448279534533 
1506	 0.372510388936658 
1507	 0.372569959351773 
1508	 0.372650401463913 
1509	 0.372684505823452 
1510	 0.372706423145394 
1511	 0.372730629064636 
1512	 0.372748567765453 
1513	 0.372774225272427 
1514	 0.372810875855269 
1515	 0.372840716423299 
1516	 0.372872382038502 
1517	 0.372927699193716 
1518	 0.372996193276716 
1519	 0.373043187890161 
1520	 0.373115948411814 
1521	 0.373156254127554 
1522	 0.373149443387248 
1523	 0.373181769809316 
1524	 0.373234903708746 
1525	 0.373260983396652 
1526	 0.373278067922002 
1527	 0.37330974940856 
1528	 0.373330907676134 
1529	 0.373361716837536 
1530	 0.373420629179279 
1531	 0.373456410617649 
1532	 0.373476701084128 
1533	 0.373498051218943 
1534	 0.373514914849488 
1535	 0.37353165062216 
1536	 0.373545228899783 
1537	 0.373558003656292 
1538	 0.373563742872563 
1539	 0.373579305380379 
1540	 0.373597620764082 
1541	 0.373619505123517 
1542	 0.373659806747503 
1543	 0.373677983779305 
1544	 0.373690742708223 
1545	 0.373698139236446 
1546	 0.37369596058611 
1547	 0.373679007124008 
1548	 0.373666475873508 
1549	 0.373643297444529 
1550	 0.3736267422271 
1551	 0.373624608541411 
1552	 0.373631764511472 
1553	 0.373644949863351 
1554	 0.373669790363414 
1555	 0.373695075595838 
1556	 0.37372497263048 
1557	 0.373750008413121 
1558	 0.373753571592915 
1559	 0.373763424571523 
1560	 0.373772628580948 
1561	 0.373776893940731 
1562	 0.373785322566889 
1563	 0.373800148189547 
1564	 0.373807782972426 
1565	 0.373811945787422 
1566	 0.373817822432237 
1567	 0.373824233447647 
1568	 0.373825507028076 
1569	 0.373818837720457 
1570	 0.373821710484851 
1571	 0.373827386453955 
1572	 0.373831049863812 
1573	 0.373846490490431 
1574	 0.373849692879873 
1575	 0.373847083755901 
1576	 0.373832684865886 
1577	 0.373801317802615 
1578	 0.373785615511767 
1579	 0.373752832389701 
1580	 0.373753329192961 
1581	 0.373785344586627 
1582	 0.373807050212869 
1583	 0.373858296460873 
1584	 0.373874408588638 
1585	 0.37386384019918 
1586	 0.373862865603578 
1587	 0.373850773624662 
1588	 0.373835619242025 
1589	 0.373824229227918 
1590	 0.373811466780594 
1591	 0.373783985743758 
1592	 0.3737691713598 
1593	 0.373756682774524 
1594	 0.373757469900513 
1595	 0.373765746827785 
1596	 0.373780389845666 
1597	 0.373825585154635 
1598	 0.373846156669898 
1599	 0.373865735755943 
1600	 0.373868312127339 
1601	 0.373835733740725 
1602	 0.373823255723846 
1603	 0.37381645990184 
1604	 0.373801425450782 
1605	 0.373777407212236 
1606	 0.37377397950193 
1607	 0.373768356080902 
1608	 0.373776957724294 
1609	 0.373825254500906 
1610	 0.373868508909097 
1611	 0.373854857082932 
1612	 0.37383990574251 
1613	 0.373793154492077 
1614	 0.37373646307071 
1615	 0.373727001569468 
1616	 0.373708573032056 
1617	 0.373681067391374 
1618	 0.373663727153127 
1619	 0.373628075561944 
1620	 0.37359531789483 
1621	 0.373578865035902 
1622	 0.373583399373203 
1623	 0.373556863479045 
1624	 0.373533215482032 
1625	 0.373483141433261 
1626	 0.373393708033433 
1627	 0.373346903445125 
1628	 0.373298704237277 
1629	 0.373281996452127 
1630	 0.373292476663691 
1631	 0.373306827811344 
1632	 0.373346356667988 
1633	 0.37336323443518 
1634	 0.373390512881126 
1635	 0.373387877089729 
1636	 0.373360548709355 
1637	 0.373341927379956 
1638	 0.373304094035101 
1639	 0.373295087420344 
1640	 0.373297522303975 
1641	 0.373302420031133 
1642	 0.373327256133403 
1643	 0.373332604839333 
1644	 0.373334438689858 
1645	 0.373329767706481 
1646	 0.373314455773926 
1647	 0.373303710083645 
1648	 0.373292756145388 
1649	 0.373277255584539 
1650	 0.373261252469961 
1651	 0.373238886208689 
1652	 0.373204565754385 
1653	 0.373183185293642 
1654	 0.373163903176843 
1655	 0.373147025917125 
1656	 0.373148314981222 
1657	 0.373120784032776 
1658	 0.373069286180702 
1659	 0.373043491776244 
1660	 0.373025102981259 
1661	 0.372985636851568 
1662	 0.37295012860543 
1663	 0.372912581514872 
1664	 0.372846242497095 
1665	 0.372802201932302 
1666	 0.372771541061512 
1667	 0.372754179579238 
1668	 0.372752977807292 
1669	 0.372731974142956 
1670	 0.37272872516289 
1671	 0.372698790536099 
1672	 0.372620455986737 
1673	 0.372590295232919 
1674	 0.372576040199465 
1675	 0.372565787746433 
1676	 0.372589856391533 
1677	 0.372581060735351 
1678	 0.372553235999128 
1679	 0.372538933727987 
1680	 0.37251049043422 
1681	 0.372505182058538 
1682	 0.37251979703378 
1683	 0.372529925231623 
1684	 0.372546835494084 
1685	 0.37256418404398 
1686	 0.372605533802971 
1687	 0.372598828590668 
1688	 0.372570799951828 
1689	 0.372539399741718 
1690	 0.372459313343061 
1691	 0.372420100232149 
1692	 0.372407256481275 
1693	 0.372379452875217 
1694	 0.372350387954029 
1695	 0.372332050670793 
1696	 0.372306470443308 
1697	 0.372300616837556 
1698	 0.372324484329711 
1699	 0.372325326912168 
1700	 0.372327713657147 
1701	 0.372321511278673 
1702	 0.372300330397652 
1703	 0.372285950726613 
1704	 0.372281752141087 
1705	 0.372248377228338 
1706	 0.372199915215234 
1707	 0.372151624283304 
1708	 0.372074572289285 
1709	 0.372028595316235 
1710	 0.371997411133184 
1711	 0.371964912034675 
1712	 0.371948904618597 
1713	 0.371918169664964 
1714	 0.371872672231112 
1715	 0.371850344539059 
1716	 0.371846824469304 
1717	 0.371813004571957 
1718	 0.371771977233766 
1719	 0.371744242636221 
1720	 0.371703796866744 
1721	 0.371662813514806 
1722	 0.371640657721135 
1723	 0.371606859044081 
1724	 0.371560450139236 
1725	 0.371498407277637 
1726	 0.37143302588371 
1727	 0.371366676847415 
1728	 0.371272603192524 
1729	 0.371203796953415 
1730	 0.371161497754333 
1731	 0.371092425837942 
1732	 0.371002134167636 
1733	 0.370946759617596 
1734	 0.370906777309087 
1735	 0.370842779593456 
1736	 0.370799535574084 
1737	 0.370718409768689 
1738	 0.370587436170273 
1739	 0.370498085263606 
1740	 0.370416112942893 
1741	 0.370340015763737 
1742	 0.370279658380807 
1743	 0.370218092758751 
1744	 0.370158051263297 
1745	 0.370089308165632 
1746	 0.370022588683186 
1747	 0.369944337558561 
1748	 0.369887661461558 
1749	 0.369849416750027 
1750	 0.369787628680357 
1751	 0.369730378465314 
1752	 0.369666180882831 
1753	 0.369587885072299 
1754	 0.369489869594965 
1755	 0.369378420415553 
1756	 0.369276985915575 
1757	 0.369166521845903 
1758	 0.369082972922321 
1759	 0.369037879977504 
1760	 0.369004940335057 
1761	 0.368981936883029 
1762	 0.368951542539527 
1763	 0.368894864409898 
1764	 0.368802729385657 
1765	 0.368749190632508 
1766	 0.368678529777176 
1767	 0.368551729996147 
1768	 0.368479319433925 
1769	 0.368402080453681 
1770	 0.368317446643374 
1771	 0.368274346253952 
1772	 0.368223401285468 
1773	 0.368162368152455 
1774	 0.368121895263555 
1775	 0.36811298285021 
1776	 0.368076807329952 
1777	 0.368007101112589 
1778	 0.367937996508223 
1779	 0.367808723918304 
1780	 0.367709852975563 
1781	 0.36765994408187 
1782	 0.367547694793905 
1783	 0.367509403980479 
1784	 0.367497162275143 
1785	 0.367531965701313 
1786	 0.36752319304261 
1787	 0.367519390833864 
1788	 0.367493072820655 
1789	 0.367418436378544 
1790	 0.367370059882444 
1791	 0.367327102807535 
1792	 0.367293880858168 
1793	 0.367255176944499 
1794	 0.367237011739169 
1795	 0.367253085989058 
1796	 0.36725267387939 
1797	 0.367250821659325 
1798	 0.367235469196757 
1799	 0.36722003997793 
1800	 0.36718637922189 
1801	 0.366954217369953 
1802	 0.367178636261947 
1803	 0.367436395755574 
1804	 0.367713865353119 
1805	 0.368023703809646 
1806	 0.36831199785326 
1807	 0.368550186956616 
1808	 0.368737157060796 
1809	 0.368878782400683 
1810	 0.369006557441281 
1811	 0.36909073594007 
1812	 0.369151219607679 
1813	 0.369222394983902 
1814	 0.369275935340803 
1815	 0.369265040096263 
1816	 0.369254884554588 
1817	 0.3692257987004 
1818	 0.369125858909985 
1819	 0.369099024843527 
1820	 0.369096547501854 
1821	 0.369093080761604 
1822	 0.369126795929719 
1823	 0.369155732862996 
1824	 0.369154757103561 
1825	 0.369113245099462 
1826	 0.369059488167486 
1827	 0.369037924638984 
1828	 0.368991615164482 
1829	 0.368954347216514 
1830	 0.3688880418236 
1831	 0.368800235019232 
1832	 0.368687369851763 
1833	 0.368583404612798 
1834	 0.368479558135609 
1835	 0.36842833166418 
1836	 0.368382693399597 
1837	 0.368332634869343 
1838	 0.368311145844773 
1839	 0.368288262952981 
1840	 0.368272649746898 
1841	 0.368243275130223 
1842	 0.368207288056281 
1843	 0.368185554755797 
1844	 0.368146036538677 
1845	 0.368090947480123 
1846	 0.368052608826538 
1847	 0.36801515017851 
1848	 0.367984746660336 
1849	 0.367963647551173 
1850	 0.367943627794106 
1851	 0.367930901295421 
1852	 0.367929453540637 
1853	 0.367935336837866 
1854	 0.367930992318819 
1855	 0.367954885407409 
1856	 0.367938980579397 
1857	 0.367873958534573 
1858	 0.367822961082933 
1859	 0.367735809129877 
1860	 0.367640448477592 
1861	 0.367533660349059 
1862	 0.367421476730201 
1863	 0.367283218076584 
1864	 0.367162762094654 
1865	 0.367054375557138 
1866	 0.366926395681413 
1867	 0.366785814478587 
1868	 0.366635067932692 
1869	 0.366444239109848 
1870	 0.366223699621362 
1871	 0.366010429062313 
1872	 0.365800943305859 
1873	 0.365566043116607 
1874	 0.365295461825234 
1875	 0.365054532093024 
1876	 0.364793962182533 
1877	 0.364485167624641 
1878	 0.364127717627206 
1879	 0.363710609148613 
1880	 0.363229786962387 
1881	 0.362662943547074 
1882	 0.362053006376321 
1883	 0.36140289847452 
1884	 0.360681828321677 
1885	 0.359892456958625 
1886	 0.359056558848747 
1887	 0.358147644404828 
1888	 0.357189045656988 
1889	 0.356158931017043 
1890	 0.355070350622619 
1891	 0.353968039555477 
1892	 0.352786662758523 
1893	 0.351635912273676 
1894	 0.350476246904544 
1895	 0.349331246989314 
1896	 0.348140417614987 
1897	 0.346981277242434 
1898	 0.345831075690538 
1899	 0.34470386178322 
1900	 0.343640990054742 
1901	 0.342635138106609 
1902	 0.341690684463485 
1903	 0.340815314624775 
1904	 0.339970606254993 
1905	 0.339172969444492 
1906	 0.338434975297465 
1907	 0.337754167718391 
1908	 0.337113753006926 
1909	 0.336518107401507 
1910	 0.335957787442916 
1911	 0.335413596848478 
1912	 0.334885297384418 
1913	 0.334388510510539 
1914	 0.333917913740904 
1915	 0.333487742583284 
1916	 0.333090642914347 
1917	 0.332714412007401 
1918	 0.332389961643575 
1919	 0.332077172880089 
1920	 0.33175564899143 
1921	 0.331469673346424 
1922	 0.331225379020246 
1923	 0.330995106158696 
1924	 0.330807147094205 
1925	 0.330690096605076 
1926	 0.330563988030089 
1927	 0.330442385124027 
1928	 0.330355892225079 
1929	 0.330310251077129 
1930	 0.33023943133248 
1931	 0.330201769906621 
1932	 0.330197478292775 
1933	 0.330179471031359 
1934	 0.330163340938511 
1935	 0.330160739789592 
1936	 0.330150604237217 
1937	 0.33017535224304 
1938	 0.330223291521642 
1939	 0.33028765036826 
1940	 0.330378009895659 
1941	 0.330474750969728 
1942	 0.330595567690031 
1943	 0.330709037056442 
1944	 0.330824868937732 
1945	 0.330961853231095 
1946	 0.331105614737588 
1947	 0.331248419713857 
1948	 0.331412195304436 
1949	 0.331601954018248 
1950	 0.331786286565703 
1951	 0.331973233807784 
1952	 0.332171694274931 
1953	 0.332375424340346 
1954	 0.332591271904698 
1955	 0.332817890681643 
1956	 0.333049732129947 
1957	 0.333284401641652 
1958	 0.333522558653195 
1959	 0.333763273649319 
1960	 0.33401189639924 
1961	 0.33425949315457 
1962	 0.334509075448798 
1963	 0.33476597194501 
1964	 0.335029837935789 
1965	 0.335284551562842 
1966	 0.335541433642006 
1967	 0.335817038720079 
1968	 0.336091846149177 
1969	 0.336370157380755 
1970	 0.336645265722807 
1971	 0.336931846218273 
1972	 0.337205465668009 
1973	 0.337471606478161 
1974	 0.337738629884548 
1975	 0.338000832427135 
1976	 0.33825615873437 
1977	 0.338543077369101 
1978	 0.338827525017305 
1979	 0.339118215568227 
1980	 0.339412075978663 
1981	 0.339687628776639 
1982	 0.339942992415657 
1983	 0.340205260709277 
1984	 0.340449962266579 
1985	 0.340719451638821 
1986	 0.34099891477646 
1987	 0.341275915839107 
1988	 0.341559200225226 
1989	 0.341865279459134 
1990	 0.342142705263077 
1991	 0.342421511128219 
1992	 0.342706627935327 
1993	 0.342991414126163 
1994	 0.343278906562182 
1995	 0.343576265550786 
1996	 0.343863708664821 
1997	 0.344146101443626 
1998	 0.344435200453771 
1999	 0.344709050090221 
2000	 0.345006926509815 
2001	 0.345325709537079 
2002	 0.345644912350781 
2003	 0.345962814978846 
2004	 0.346284151126102 
2005	 0.346575143307796 
2006	 0.346840971301741 
2007	 0.347108829330245 
2008	 0.347361979911057 
2009	 0.347613294185267 
2010	 0.347855248566927 
2011	 0.348100789505088 
2012	 0.348353799682915 
2013	 0.348586411219673 
2014	 0.348801678796666 
2015	 0.349023660698651 
2016	 0.349243426223743 
2017	 0.349465025494252 
2018	 0.349714016931772 
2019	 0.350008227746698 
2020	 0.350260665846825 
2021	 0.350509727897078 
2022	 0.350753816384233 
2023	 0.350959698758571 
2024	 0.351209969201616 
2025	 0.351495593653958 
2026	 0.35176039282181 
2027	 0.352051909074734 
2028	 0.352311737794999 
2029	 0.352555444688831 
2030	 0.352771744435812 
2031	 0.352995509386226 
2032	 0.353198212676104 
2033	 0.353426056809514 
2034	 0.353672742736427 
2035	 0.353896269973988 
2036	 0.354130615483749 
2037	 0.354339403180883 
2038	 0.354526342580001 
2039	 0.354701041460043 
2040	 0.354856556026717 
2041	 0.355011717626483 
2042	 0.35515032122479 
2043	 0.35527221166948 
2044	 0.355434154015731 
2045	 0.35561655571571 
2046	 0.355788582365562 
2047	 0.355992732393538 
2048	 0.356164238754714 
2049	 0.356319704068562 
2050	 0.356463357468254 
2051	 0.35658682627157 
2052	 0.356714772252134 
2053	 0.35683655850188 
2054	 0.35695012618288 
2055	 0.357049616110627 
2056	 0.35717006156218 
2057	 0.357277273328379 
2058	 0.357364853256708 
2059	 0.357477086503606 
2060	 0.35760789641828 
2061	 0.357720134833896 
2062	 0.357837505533118 
2063	 0.357944753846696 
2064	 0.358039903266458 
2065	 0.358133099643373 
2066	 0.358228736574738 
2067	 0.358311397746331 
2068	 0.358373543751858 
2069	 0.358443282851231 
2070	 0.358523665761668 
2071	 0.358598653819878 
2072	 0.3586898357779 
2073	 0.358802724228085 
2074	 0.358903698582376 
2075	 0.359015357171301 
2076	 0.35910595328866 
2077	 0.359172473453798 
2078	 0.359265034567372 
2079	 0.359354361069194 
2080	 0.359451257148923 
2081	 0.359578544300046 
2082	 0.359690407359801 
2083	 0.359780881782457 
2084	 0.359888898197976 
2085	 0.360010013322122 
2086	 0.360147982290773 
2087	 0.360260587944712 
2088	 0.360379046071695 
2089	 0.360490061839981 
2090	 0.360592335335451 
2091	 0.360672181438166 
2092	 0.360736875839698 
2093	 0.36081174324635 
2094	 0.360851405847668 
2095	 0.36092341449335 
2096	 0.361044359849413 
2097	 0.36113356226217 
2098	 0.36121096911678 
2099	 0.36128632921449 
2100	 0.361366191128319 
2101	 0.361432055286634 
2102	 0.361511337231334 
2103	 0.361596775504051 
2104	 0.361694462740763 
2105	 0.361802158600939 
2106	 0.361903227613961 
2107	 0.362009389103334 
2108	 0.362124301607622 
2109	 0.362225130381386 
2110	 0.362350689237355 
2111	 0.362498823893688 
2112	 0.362654960647362 
2113	 0.362835178405599 
2114	 0.363011556765202 
2115	 0.363161871079305 
2116	 0.363310478383498 
2117	 0.363449261161474 
2118	 0.363554866318349 
2119	 0.363686424486755 
2120	 0.363837947609927 
2121	 0.363970051410103 
2122	 0.364101686094776 
2123	 0.364217953582082 
2124	 0.364324186603082 
2125	 0.364420090430302 
2126	 0.364508950864222 
2127	 0.364582802354117 
2128	 0.364632791006473 
2129	 0.364688825630107 
2130	 0.364761976657674 
2131	 0.36479611097666 
2132	 0.364798892267186 
2133	 0.364794959889773 
2134	 0.364752430357589 
2135	 0.364636172158896 
2136	 0.364565660706385 
2137	 0.364511137212521 
2138	 0.364420099845226 
2139	 0.364332979292917 
2140	 0.36421491531213 
2141	 0.364054280796608 
2142	 0.363895633729807 
2143	 0.363729612198173 
2144	 0.363545660726194 
2145	 0.363359455159978 
2146	 0.36314187984737 
2147	 0.362876368632095 
2148	 0.362629447608741 
2149	 0.362377644994024 
2150	 0.362106299391206 
2151	 0.361845835663432 
2152	 0.361610123018443 
2153	 0.361335707024971 
2154	 0.361045601439343 
2155	 0.360740615231157 
2156	 0.360450725182535 
2157	 0.360082374238235 
2158	 0.359657677215268 
2159	 0.359230423395594 
2160	 0.358736087688406 
2161	 0.3582581129799 
2162	 0.357769770353903 
2163	 0.357301389765492 
2164	 0.356830820281129 
2165	 0.356369484685066 
2166	 0.355912883802699 
2167	 0.355490823650206 
2168	 0.355020412973467 
2169	 0.354525958963823 
2170	 0.354038698846579 
2171	 0.353551246668702 
2172	 0.353031114556276 
2173	 0.352502954975027 
2174	 0.351956075968185 
2175	 0.351379478523072 
2176	 0.350785665637532 
2177	 0.350212569543499 
2178	 0.349562845377786 
2179	 0.348828512159254 
2180	 0.348120185018418 
2181	 0.347380783278687 
2182	 0.346632108452233 
2183	 0.34587398596812 
2184	 0.345133859401702 
2185	 0.34438128501745 
2186	 0.343589251986922 
2187	 0.342844990019624 
2188	 0.342119190562551 
2189	 0.341416101127543 
2190	 0.34070968866168 
2191	 0.340070344630332 
2192	 0.339458318672174 
2193	 0.338903632533095 
2194	 0.338413411396868 
2195	 0.337946964405808 
2196	 0.337500687350899 
2197	 0.337133973877136 
2198	 0.336841338353231 
2199	 0.336560575954128 
2200	 0.336339194753204 
2201	 0.336149092738319 
2202	 0.335948142429936 
2203	 0.33582156581944 
2204	 0.335773862281295 
2205	 0.335795927827089 
2206	 0.33587355629806 
2207	 0.336026013296718 
2208	 0.336225001521585 
2209	 0.336496472311145 
2210	 0.33678930623255 
2211	 0.337139387132077 
2212	 0.337514768256417 
2213	 0.337930116176271 
2214	 0.338355238517594 
2215	 0.338859001526679 
2216	 0.339295566110894 
2217	 0.339737331777113 
2218	 0.340128557055402 
2219	 0.340453441501818 
2220	 0.340792860399858 
2221	 0.341121878202107 
2222	 0.341438847110404 
2223	 0.34171363457472 
2224	 0.341923136568979 
2225	 0.34213795311121 
2226	 0.342307041981883 
2227	 0.342449204684458 
2228	 0.342587547984904 
2229	 0.342690840548022 
2230	 0.342716817362835 
2231	 0.342785113617488 
2232	 0.342870589185536 
2233	 0.342935354532133 
2234	 0.34301382055855 
2235	 0.343031456451305 
2236	 0.343021778159013 
2237	 0.342982902585665 
2238	 0.3428696365442 
2239	 0.342792958394321 
2240	 0.342708492713062 
2241	 0.342633064308887 
2242	 0.342571905796221 
2243	 0.342499779874469 
2244	 0.342418260752511 
2245	 0.342364719509516 
2246	 0.342249402154925 
2247	 0.342145114868764 
2248	 0.342018956470249 
2249	 0.341860468339891 
2250	 0.341708289017701 
2251	 0.341548155005288 
2252	 0.341402384624864 
2253	 0.34124891006553 
2254	 0.341107761296853 
2255	 0.340981380299022 
2256	 0.340858317689895 
2257	 0.340699434546177 
2258	 0.340630041839373 
2259	 0.340639471915178 
2260	 0.340600624984379 
2261	 0.340589648536365 
2262	 0.34058115107507 
2263	 0.340536267216073 
2264	 0.340519228311967 
2265	 0.340554445082228 
2266	 0.340563227184398 
2267	 0.340535782274736 
2268	 0.340547609480293 
2269	 0.340561175820943 
2270	 0.340609944700622 
2271	 0.340709124230951 
2272	 0.340808168532006 
2273	 0.340906172554496 
2274	 0.341026847392 
2275	 0.341126828478068 
2276	 0.341205209204521 
2277	 0.341310849142211 
2278	 0.341418200706002 
2279	 0.341541916578313 
2280	 0.341705072269368 
2281	 0.341822519034639 
2282	 0.341914568851176 
2283	 0.342043896275457 
2284	 0.342166284785436 
2285	 0.342298248040301 
2286	 0.342486853308771 
2287	 0.342611443051495 
2288	 0.342690225374791 
2289	 0.342783155304525 
2290	 0.342851790493315 
2291	 0.342942734892301 
2292	 0.343050840567582 
2293	 0.343145968148052 
2294	 0.343260021154353 
2295	 0.343333896030217 
2296	 0.343396646383107 
2297	 0.343421692199248 
2298	 0.343410290370185 
2299	 0.343426660038874 
2300	 0.343438280940027 
2301	 0.34344314463754 
2302	 0.343424293752988 
2303	 0.343385624660109 
2304	 0.343369428518452 
2305	 0.343374131265822 
2306	 0.343362285286434 
2307	 0.343385143899828 
2308	 0.343353915793587 
2309	 0.343282380369737 
2310	 0.343216605455028 
2311	 0.343131034956067 
2312	 0.3430598466851 
2313	 0.342983843043332 
2314	 0.342912654825772 
2315	 0.342840408871749 
2316	 0.342779664216871 
2317	 0.342730880530885 
2318	 0.342658898494316 
2319	 0.342590790539409 
2320	 0.342528370032471 
2321	 0.342489458080461 
2322	 0.342387104691953 
2323	 0.342224071883024 
2324	 0.342099505243437 
2325	 0.341938219805524 
2326	 0.341797044810766 
2327	 0.34168306539257 
2328	 0.341615338736829 
2329	 0.341500355911758 
2330	 0.341355489046814 
2331	 0.341285314540845 
2332	 0.341252719468374 
2333	 0.341178720189603 
2334	 0.341162304437878 
2335	 0.341162542897469 
2336	 0.341098962404764 
2337	 0.341071986283576 
2338	 0.341034765801454 
2339	 0.340890862576346 
2340	 0.340697819020196 
2341	 0.340509808327441 
2342	 0.34036124161326 
2343	 0.340283909598447 
2344	 0.340233399477426 
2345	 0.340149439945389 
2346	 0.340087713371047 
2347	 0.339984516678047 
2348	 0.339827489741321 
2349	 0.339702842099602 
2350	 0.339574106198747 
2351	 0.339464313926506 
2352	 0.339388043336695 
2353	 0.339271358752366 
2354	 0.339127509445949 
2355	 0.339011509030735 
2356	 0.338890976827857 
2357	 0.33877636520536 
2358	 0.338663748322404 
2359	 0.3386138813452 
2360	 0.338610363177817 
2361	 0.338538787198742 
2362	 0.338487800175751 
2363	 0.338436735656997 
2364	 0.338347872349832 
2365	 0.338229351449365 
2366	 0.338107718981374 
2367	 0.33800516888958 
2368	 0.337873415334863 
2369	 0.337745372351867 
2370	 0.337658355171504 
2371	 0.337558308543266 
2372	 0.33739985212557 
2373	 0.337099812712242 
2374	 0.336825289269163 
2375	 0.336625509455183 
2376	 0.33640206178755 
2377	 0.336222110475242 
2378	 0.336075177590319 
2379	 0.335876325517277 
2380	 0.335680434646611 
2381	 0.335498029593584 
2382	 0.335286844350712 
2383	 0.335086830286439 
2384	 0.334828470778471 
2385	 0.334541186457775 
2386	 0.33425330799174 
2387	 0.333911459590245 
2388	 0.333579727326841 
2389	 0.333299184905712 
2390	 0.333093058486621 
2391	 0.332877682403081 
2392	 0.332671163864504 
2393	 0.332463896022411 
2394	 0.33219862143493 
2395	 0.331907595875519 
2396	 0.331645374721792 
2397	 0.331476633828051 
2398	 0.33118910418536 
2399	 0.330870814150855 
2400	 0.330589836914401 
2401	 0.330170908829678 
2402	 0.329786065359184 
2403	 0.329433536543534 
2404	 0.329137684500539 
2405	 0.328887145894036 
2406	 0.328578875866599 
2407	 0.328316854888141 
2408	 0.327970758097208 
2409	 0.327466806351192 
2410	 0.327024860214962 
2411	 0.326693728404377 
2412	 0.326290640859661 
2413	 0.325908891294149 
2414	 0.325549363461756 
2415	 0.325081360723221 
2416	 0.324680849591257 
2417	 0.324282913858844 
2418	 0.323930326021068 
2419	 0.323696192226742 
2420	 0.32334385026397 
2421	 0.322959882069277 
2422	 0.322579335492139 
2423	 0.32209896639718 
2424	 0.32164649500812 
2425	 0.321229741814818 
2426	 0.320800222311097 
2427	 0.320330963791485 
2428	 0.31992932895932 
2429	 0.319578157534639 
2430	 0.319212606243414 
2431	 0.31888393988907 
2432	 0.318542950145212 
2433	 0.318193188720939 
2434	 0.317819840654118 
2435	 0.317432162969213 
2436	 0.317075064834412 
2437	 0.316707680839623 
2438	 0.316341783411244 
2439	 0.316006488084714 
2440	 0.315649395334478 
2441	 0.315269615934671 
2442	 0.314936590758203 
2443	 0.314651371493108 
2444	 0.314317193116022 
2445	 0.313928280308692 
2446	 0.313589118864478 
2447	 0.313287875577311 
2448	 0.312963186833034 
2449	 0.312635318768723 
2450	 0.312385417578498 
2451	 0.312160366662951 
2452	 0.311832921324287 
2453	 0.311503279412792 
2454	 0.311233716640063 
2455	 0.310893981460896 
2456	 0.31064529394526 
2457	 0.310567517477613 
2458	 0.310351875533832 
2459	 0.310111054713985 
2460	 0.309853401588372 
2461	 0.309566139770274 
2462	 0.30921681680851 
2463	 0.308715750230481 
2464	 0.308333512409921 
2465	 0.307906491903814 
2466	 0.307560533650071 
2467	 0.307440843946641 
2468	 0.307192308931084 
2469	 0.306904007175317 
2470	 0.306738452335223 
2471	 0.306431744209085 
2472	 0.306239074302113 
2473	 0.306145144343527 
2474	 0.306063809965001 
2475	 0.305874371132501 
2476	 0.30572515456847 
2477	 0.305514215922074 
2478	 0.305104271131674 
2479	 0.304721945535317 
2480	 0.304246727402886 
2481	 0.303791022924957 
2482	 0.303509291915508 
2483	 0.303252076603324 
2484	 0.303137063906548 
2485	 0.302927047555556 
2486	 0.302581660564082 
2487	 0.302383197361373 
2488	 0.302075701078941 
2489	 0.301822790713146 
2490	 0.301673737472618 
2491	 0.301411978622319 
2492	 0.301086785931073 
2493	 0.300676138939749 
2494	 0.300425663746206 
2495	 0.300184785200504 
2496	 0.299853843896859 
2497	 0.299878597502758 
2498	 0.299950606078653 
2499	 0.299797954675621 
2500	 0.299734931529691 
