Wavelength	mm1700003.asd
350	 8.37782060822752E-02 
351	 8.83059540134266E-02 
352	 8.48449331793688E-02 
353	 7.03067444241736E-02 
354	 7.38836729343978E-02 
355	 7.65158278524285E-02 
356	 7.89974304873763E-02 
357	 0.08474902184543 
358	 8.70419204615763E-02 
359	 0.087251209419584 
360	 8.63286701078313E-02 
361	 8.50629774833215E-02 
362	 8.74985742205493E-02 
363	 0.089611149304958 
364	 8.97666662180857E-02 
365	 0.091766559728756 
366	 0.090592903966528 
367	 8.96856602494509E-02 
368	 9.30421745411112E-02 
369	 9.84016029752846E-02 
370	 9.84177693256089E-02 
371	 9.50849662003936E-02 
372	 9.62661198879565E-02 
373	 9.82994108907272E-02 
374	 0.098563858087759 
375	 9.76644808794013E-02 
376	 0.101800312725247 
377	 0.100827999478405 
378	 0.100159644823641 
379	 0.106186683725436 
380	 0.109624317843237 
381	 0.106221324418841 
382	 0.102762570234823 
383	 0.111864574590443 
384	 0.113674815607199 
385	 0.112576762494381 
386	 0.113899659889361 
387	 0.117987238760889 
388	 0.121014042271058 
389	 0.123010294966051 
390	 0.124926774094675 
391	 0.125416480701072 
392	 0.125657117524216 
393	 0.126722510790472 
394	 0.129349234735162 
395	 0.132650222392421 
396	 0.136084178699318 
397	 0.138997836573943 
398	 0.140138992465163 
399	 0.142545207533557 
400	 0.145189856017918 
401	 0.146292112194212 
402	 0.14905545114867 
403	 0.151320229284996 
404	 0.152509515837662 
405	 0.153985945129005 
406	 0.157024866510295 
407	 0.160064990121863 
408	 0.161575790522842 
409	 0.161270822819935 
410	 0.161991441368679 
411	 0.163757354748458 
412	 0.165322397492575 
413	 0.167390405697877 
414	 0.168759173382965 
415	 0.169047741603856 
416	 0.169047750465195 
417	 0.169609657442448 
418	 0.170673306883417 
419	 0.17175971248126 
420	 0.171972151726618 
421	 0.172081047379534 
422	 0.172511080809361 
423	 0.173273236460101 
424	 0.172610691033873 
425	 0.172276184317875 
426	 0.172890652867261 
427	 0.172245033381232 
428	 0.171624489135182 
429	 0.171085480184668 
430	 0.170461176943193 
431	 0.170419331175499 
432	 0.170269588429725 
433	 0.170063278223457 
434	 0.170571817021998 
435	 0.171051115999923 
436	 0.171476016048442 
437	 0.171931026686534 
438	 0.172320532916554 
439	 0.173263594160816 
440	 0.174516022337166 
441	 0.175509116314494 
442	 0.176974881124506 
443	 0.178545363351997 
444	 0.179846110517875 
445	 0.180615298308756 
446	 0.181888716857656 
447	 0.183312981237303 
448	 0.184380755181653 
449	 0.185803295587993 
450	 0.187327195425388 
451	 0.188789392427627 
452	 0.190131663559059 
453	 0.191144163097121 
454	 0.192164704387804 
455	 0.193389743797006 
456	 0.194436057254351 
457	 0.195503070865927 
458	 0.196460896130901 
459	 0.197129037889145 
460	 0.198076315596949 
461	 0.199066655081399 
462	 0.199902765783209 
463	 0.200543156611808 
464	 0.201204108886238 
465	 0.201990976936128 
466	 0.2028759160939 
467	 0.203493872518525 
468	 0.203963869128007 
469	 0.204413673778204 
470	 0.204959929624319 
471	 0.205627796696207 
472	 0.206080429883905 
473	 0.206271953157649 
474	 0.207010873349926 
475	 0.207462166718538 
476	 0.207768427495003 
477	 0.208409656278125 
478	 0.208945265391566 
479	 0.209571566814507 
480	 0.210228927765839 
481	 0.210423617076307 
482	 0.211063569963285 
483	 0.211830459763026 
484	 0.212271366921098 
485	 0.212923274074781 
486	 0.213219623746296 
487	 0.213322118013086 
488	 0.213963798000943 
489	 0.214627783513616 
490	 0.215052403980413 
491	 0.215272289021516 
492	 0.215952888503402 
493	 0.216406566263745 
494	 0.216723301246606 
495	 0.217275680884223 
496	 0.21755181260456 
497	 0.217972323608061 
498	 0.218644143118101 
499	 0.219095559251838 
500	 0.219434297080337 
501	 0.219763135802664 
502	 0.220177096310844 
503	 0.220710657488449 
504	 0.22113265687376 
505	 0.221424406327799 
506	 0.221767537083315 
507	 0.222220960177643 
508	 0.222783995522561 
509	 0.223335992483551 
510	 0.223456420540737 
511	 0.223649830943965 
512	 0.224052535497414 
513	 0.224576367017857 
514	 0.22508840379114 
515	 0.225495960767459 
516	 0.225806494696951 
517	 0.226182359710234 
518	 0.226452398136129 
519	 0.226689580803859 
520	 0.227034267896381 
521	 0.227548726138912 
522	 0.227989620163637 
523	 0.228285887340701 
524	 0.228564030676004 
525	 0.228945838709184 
526	 0.229284281528486 
527	 0.229486791532389 
528	 0.229833539611668 
529	 0.230208115840798 
530	 0.230616887737998 
531	 0.231120834992344 
532	 0.231409562757356 
533	 0.231698476547251 
534	 0.232115142862937 
535	 0.232443337289785 
536	 0.232810650037033 
537	 0.233181224865657 
538	 0.233477252937692 
539	 0.233764048701021 
540	 0.234118279766506 
541	 0.234540379054988 
542	 0.234931099351931 
543	 0.235351059415902 
544	 0.235731981822155 
545	 0.236032654745691 
546	 0.236458742177685 
547	 0.236860553030183 
548	 0.237195538867767 
549	 0.23752653897644 
550	 0.237997552571751 
551	 0.238459600970576 
552	 0.238809152042673 
553	 0.239205604862519 
554	 0.239579051159855 
555	 0.239990565178376 
556	 0.240548824628031 
557	 0.241160647255217 
558	 0.241717006840974 
559	 0.242208028910383 
560	 0.242805180668221 
561	 0.243256024028104 
562	 0.243689315767559 
563	 0.244307185189818 
564	 0.244953159774182 
565	 0.245474090355419 
566	 0.245865774987322 
567	 0.246287113952703 
568	 0.246692026058291 
569	 0.247244899197306 
570	 0.24806793172306 
571	 0.24904332757777 
572	 0.249861054150394 
573	 0.25048525008443 
574	 0.251091202537007 
575	 0.251781842553146 
576	 0.252536226109516 
577	 0.253323850564686 
578	 0.254172257995582 
579	 0.254878474570946 
580	 0.255500198316951 
581	 0.256185032509445 
582	 0.256789175179284 
583	 0.257378462802323 
584	 0.258048654951694 
585	 0.258918491175101 
586	 0.259842491338521 
587	 0.260785743684706 
588	 0.261738423185743 
589	 0.262657374436596 
590	 0.263565554904487 
591	 0.26448222804538 
592	 0.265416367836862 
593	 0.266215063450863 
594	 0.266858871832922 
595	 0.267389179387054 
596	 0.267903421414161 
597	 0.268496156356543 
598	 0.269104749231256 
599	 0.269614766532537 
600	 0.270300295563218 
601	 0.271059870331495 
602	 0.271797379373938 
603	 0.272512625318057 
604	 0.273190521302828 
605	 0.273877611810763 
606	 0.274634190027762 
607	 0.275473645857078 
608	 0.276220486912809 
609	 0.276864544701266 
610	 0.277592775371148 
611	 0.278239270859663 
612	 0.278799830058376 
613	 0.279288705964111 
614	 0.279631918921908 
615	 0.280037144825788 
616	 0.280520401638096 
617	 0.280960230291018 
618	 0.281387260609042 
619	 0.281762132307301 
620	 0.282092889912846 
621	 0.28250661324445 
622	 0.282930291539792 
623	 0.283304529702937 
624	 0.283599189207008 
625	 0.283950362356845 
626	 0.284298500597598 
627	 0.284616709749165 
628	 0.284941032247863 
629	 0.285293052754608 
630	 0.285650467465108 
631	 0.285982422551432 
632	 0.286268616099168 
633	 0.286621172256407 
634	 0.286973877964298 
635	 0.287140016207945 
636	 0.287478279637961 
637	 0.287832686326847 
638	 0.288068869034101 
639	 0.288319539641245 
640	 0.288660716900852 
641	 0.289012659188048 
642	 0.289247678892877 
643	 0.289531703974781 
644	 0.289825553365662 
645	 0.290098379322615 
646	 0.290359884212596 
647	 0.290582062342041 
648	 0.2908545432175 
649	 0.291237510905432 
650	 0.291531943624047 
651	 0.291770826035258 
652	 0.292030114821835 
653	 0.292401668889514 
654	 0.292661642140429 
655	 0.292901693350974 
656	 0.293217658777441 
657	 0.293566673310847 
658	 0.293940251674131 
659	 0.294262891257584 
660	 0.294464890965772 
661	 0.294751023355429 
662	 0.295120346670351 
663	 0.295494767015576 
664	 0.295712309063683 
665	 0.296097467748009 
666	 0.296469267861005 
667	 0.296643644241391 
668	 0.297059026973081 
669	 0.297489337438958 
670	 0.297838080179033 
671	 0.298138825570227 
672	 0.298484461789729 
673	 0.298866463410916 
674	 0.299251921058349 
675	 0.299598693181115 
676	 0.299939427085807 
677	 0.300284458492127 
678	 0.300641210234702 
679	 0.301062596173298 
680	 0.301467063225643 
681	 0.301835199244191 
682	 0.302242618147782 
683	 0.302641563012121 
684	 0.303020816691537 
685	 0.303388464845863 
686	 0.30378503664956 
687	 0.304209264443588 
688	 0.304627138209079 
689	 0.304993317628859 
690	 0.305427292412589 
691	 0.305851078975638 
692	 0.306221069255496 
693	 0.306622872043795 
694	 0.306984594174955 
695	 0.307398359838211 
696	 0.307941489037675 
697	 0.30827663300209 
698	 0.308627587914414 
699	 0.309069485033492 
700	 0.30948725964396 
701	 0.309914491045976 
702	 0.310353057710487 
703	 0.310783745922554 
704	 0.31114014687407 
705	 0.311482934819937 
706	 0.311874407368799 
707	 0.31235136791893 
708	 0.312757265283699 
709	 0.313149393361362 
710	 0.313548892279754 
711	 0.313892025119177 
712	 0.314199831673428 
713	 0.314537858605874 
714	 0.31494327696595 
715	 0.315296939688186 
716	 0.315663643915817 
717	 0.316038448233207 
718	 0.316372795320393 
719	 0.316775536236878 
720	 0.317106468486233 
721	 0.317316325958091 
722	 0.317594256522817 
723	 0.317911220557686 
724	 0.318206065128221 
725	 0.318436803338387 
726	 0.318743347095052 
727	 0.319026136853063 
728	 0.319265989424681 
729	 0.319525476225948 
730	 0.319757734637737 
731	 0.319951909976216 
732	 0.320117998884164 
733	 0.320300651114563 
734	 0.320461037408874 
735	 0.320585566641307 
736	 0.320686411562406 
737	 0.320860417766626 
738	 0.321026204500907 
739	 0.321140206611188 
740	 0.32121743821003 
741	 0.321326003080974 
742	 0.321397996708448 
743	 0.32139994233806 
744	 0.321475139916373 
745	 0.32154168556282 
746	 0.321570695532488 
747	 0.321567297138129 
748	 0.321591402036113 
749	 0.321565617440351 
750	 0.321504716856702 
751	 0.321544209665328 
752	 0.321520434077997 
753	 0.321383238684581 
754	 0.321185561379251 
755	 0.321195772107477 
756	 0.321188155436081 
757	 0.321090032173713 
758	 0.320928448211063 
759	 0.320809316853994 
760	 0.320728322313504 
761	 0.320640574004519 
762	 0.320469540817325 
763	 0.320347379152051 
764	 0.320190181166881 
765	 0.319948706945651 
766	 0.319830022622029 
767	 0.319697526556995 
768	 0.319521702408164 
769	 0.319330271809038 
770	 0.319135456728828 
771	 0.318959084748961 
772	 0.318786376092695 
773	 0.318561967037673 
774	 0.31837613570205 
775	 0.318175297938359 
776	 0.317917064507882 
777	 0.317670993295485 
778	 0.317486441737837 
779	 0.317337171218354 
780	 0.317158869165342 
781	 0.316916386618484 
782	 0.316692061877463 
783	 0.316483523728069 
784	 0.316197550669627 
785	 0.315984595883156 
786	 0.315773609842857 
787	 0.31551373511479 
788	 0.315304858857743 
789	 0.315143939379048 
790	 0.314945127766616 
791	 0.314640475384195 
792	 0.314438930589934 
793	 0.314203305509397 
794	 0.313933728355304 
795	 0.313747340919297 
796	 0.313452612264128 
797	 0.313225380781189 
798	 0.313132019767517 
799	 0.312938873755524 
800	 0.312737551489782 
801	 0.312534135573751 
802	 0.312314332351651 
803	 0.312066741526239 
804	 0.311863911281452 
805	 0.31167887222797 
806	 0.311438179813079 
807	 0.311261138748908 
808	 0.311081978684677 
809	 0.310871293405202 
810	 0.310672222422417 
811	 0.310453834388657 
812	 0.310244284180306 
813	 0.310081125515767 
814	 0.310000331093593 
815	 0.30990460816169 
816	 0.309722541665862 
817	 0.309439226435943 
818	 0.309227275576557 
819	 0.309127661538549 
820	 0.309046343760985 
821	 0.30880871804827 
822	 0.308628138206732 
823	 0.308446411332902 
824	 0.30825833090275 
825	 0.308210585229316 
826	 0.308132089596439 
827	 0.307986238896927 
828	 0.307798771747396 
829	 0.307663264608036 
830	 0.307466924272932 
831	 0.307282344082753 
832	 0.307234927816927 
833	 0.30719383262657 
834	 0.307044082437856 
835	 0.306824721279887 
836	 0.306708857978892 
837	 0.306662687953651 
838	 0.306604817800952 
839	 0.306492807371288 
840	 0.306368181221005 
841	 0.306201607485054 
842	 0.306061759709633 
843	 0.305995860530264 
844	 0.305899592273063 
845	 0.305862046227853 
846	 0.30582820750165 
847	 0.305716071444854 
848	 0.305698876043639 
849	 0.30565239404313 
850	 0.305568998318918 
851	 0.305537068654679 
852	 0.305378243761605 
853	 0.305256367128833 
854	 0.305242606800919 
855	 0.305205949832934 
856	 0.305243854097144 
857	 0.305293505294837 
858	 0.305285102298612 
859	 0.305218113344511 
860	 0.305204888085796 
861	 0.305177946303757 
862	 0.305061679032693 
863	 0.305045030067723 
864	 0.305070145635267 
865	 0.305085498576857 
866	 0.305065997559677 
867	 0.305115279301568 
868	 0.305135260839827 
869	 0.305097193454858 
870	 0.305061729358795 
871	 0.305025047987967 
872	 0.30509934997682 
873	 0.305273335284262 
874	 0.305321095258232 
875	 0.305371681616987 
876	 0.3053818885264 
877	 0.305329061892521 
878	 0.305340129442566 
879	 0.305420693124624 
880	 0.305505545013696 
881	 0.305536820797387 
882	 0.305609011249929 
883	 0.305713637503074 
884	 0.305808122567471 
885	 0.305854022070253 
886	 0.305950766624158 
887	 0.306075017329416 
888	 0.306160435147363 
889	 0.306144856864309 
890	 0.306273782281594 
891	 0.306413862078836 
892	 0.306507535868055 
893	 0.306651932671765 
894	 0.306818621170599 
895	 0.306928479365432 
896	 0.306978213270716 
897	 0.307112005319771 
898	 0.307325937596554 
899	 0.307496953076487 
900	 0.307563770243414 
901	 0.307712748848867 
902	 0.30788321569677 
903	 0.308051851627032 
904	 0.308202659645282 
905	 0.308302908729651 
906	 0.308488659559964 
907	 0.308750514374244 
908	 0.309013941955083 
909	 0.309308370838264 
910	 0.309509638366725 
911	 0.309605591905187 
912	 0.309681498275202 
913	 0.309863393858258 
914	 0.310111116539692 
915	 0.310371015065374 
916	 0.310602333380369 
917	 0.310847015727621 
918	 0.311065621064086 
919	 0.311252310142155 
920	 0.311453996887223 
921	 0.31176973470275 
922	 0.312071128784777 
923	 0.312285335198658 
924	 0.31248404838974 
925	 0.312738954992506 
926	 0.313002789052639 
927	 0.313242790598525 
928	 0.313503179070752 
929	 0.31388368127299 
930	 0.314276207941627 
931	 0.314568331198123 
932	 0.314767941602537 
933	 0.315066758666452 
934	 0.31540579446514 
935	 0.315707696181456 
936	 0.316089346667171 
937	 0.316402933288336 
938	 0.316646260438377 
939	 0.316884224183767 
940	 0.31720113838679 
941	 0.317620589381728 
942	 0.318087540911297 
943	 0.31850919993549 
944	 0.318795570014474 
945	 0.319062554583476 
946	 0.319352934051722 
947	 0.319668223318043 
948	 0.320014690751217 
949	 0.320357560069917 
950	 0.320735495882786 
951	 0.3211987672745 
952	 0.321677059697589 
953	 0.321996187569714 
954	 0.322306277412686 
955	 0.3228484827325 
956	 0.323315869158776 
957	 0.323603663207732 
958	 0.323843454784605 
959	 0.324245415416306 
960	 0.324600833260376 
961	 0.3250867450851 
962	 0.325618307944563 
963	 0.325988800753208 
964	 0.326416413808392 
965	 0.32688650611816 
966	 0.327347697842901 
967	 0.327754369608949 
968	 0.328186127760983 
969	 0.328599549119902 
970	 0.329010212630095 
971	 0.329470607886296 
972	 0.329979119282069 
973	 0.330471301434562 
974	 0.330948845423269 
975	 0.331460231678931 
976	 0.332030280457799 
977	 0.332521245137947 
978	 0.332945147840124 
979	 0.333423541100951 
980	 0.334049060839728 
981	 0.334590059662314 
982	 0.334952163689625 
983	 0.335195908851184 
984	 0.335535058636234 
985	 0.336029864218295 
986	 0.336626570966317 
987	 0.337205637232604 
988	 0.337698693296903 
989	 0.338014456964238 
990	 0.338326830041333 
991	 0.338864225369633 
992	 0.339469689283454 
993	 0.339914582128727 
994	 0.340332961855867 
995	 0.340891481508976 
996	 0.341153601872258 
997	 0.341473888226323 
998	 0.341987116146364 
999	 0.342663287298647 
1000	 0.34332652552315 
1001	 0.336524650256906 
1002	 0.336888738523036 
1003	 0.337320248517784 
1004	 0.33769867537656 
1005	 0.338018578586322 
1006	 0.338419084276026 
1007	 0.338839335401151 
1008	 0.339274705732033 
1009	 0.339712619816478 
1010	 0.340190080806039 
1011	 0.340599282589956 
1012	 0.340894543870836 
1013	 0.341186800892499 
1014	 0.341503482074117 
1015	 0.341786212399327 
1016	 0.342123108075332 
1017	 0.342490421209695 
1018	 0.342908061053287 
1019	 0.343272574989249 
1020	 0.34363380777402 
1021	 0.34395777348367 
1022	 0.344162051683468 
1023	 0.344376259949301 
1024	 0.344663990368998 
1025	 0.344968066701687 
1026	 0.345340641080875 
1027	 0.345784556107757 
1028	 0.346139910486352 
1029	 0.346400383312983 
1030	 0.346659137805191 
1031	 0.346936133903102 
1032	 0.34717558978745 
1033	 0.347475244588785 
1034	 0.347799502088848 
1035	 0.348045454122828 
1036	 0.348264009678097 
1037	 0.348513507946124 
1038	 0.3487826627823 
1039	 0.349100429800521 
1040	 0.349452987973696 
1041	 0.349808185516867 
1042	 0.350185303564139 
1043	 0.350511056739678 
1044	 0.350839125909604 
1045	 0.351170423693166 
1046	 0.351486441789059 
1047	 0.351727255344565 
1048	 0.352057294635304 
1049	 0.352376467305066 
1050	 0.352654109856458 
1051	 0.353046629262088 
1052	 0.353386349042129 
1053	 0.353714717222426 
1054	 0.354116000626724 
1055	 0.354426864088897 
1056	 0.354694445412922 
1057	 0.354989340335111 
1058	 0.355267414713456 
1059	 0.355552386840461 
1060	 0.355836193381441 
1061	 0.356169312768521 
1062	 0.356455159965402 
1063	 0.356756621919775 
1064	 0.357032079364872 
1065	 0.357261056684415 
1066	 0.357528205066902 
1067	 0.357776950240133 
1068	 0.358015208072829 
1069	 0.358293244296111 
1070	 0.358560007329947 
1071	 0.358824095090028 
1072	 0.359078629663095 
1073	 0.359347571430352 
1074	 0.359586279486998 
1075	 0.359799374245161 
1076	 0.360028925307916 
1077	 0.360230801360789 
1078	 0.360405293784907 
1079	 0.360600347089509 
1080	 0.360760243178677 
1081	 0.360894760721801 
1082	 0.361033240177562 
1083	 0.361199538383932 
1084	 0.361361604728392 
1085	 0.361561215387978 
1086	 0.361830362142701 
1087	 0.362026028391482 
1088	 0.362206591190309 
1089	 0.362370468446723 
1090	 0.362499059919798 
1091	 0.362625497593859 
1092	 0.362792853372136 
1093	 0.362921014245735 
1094	 0.363082808013799 
1095	 0.363301567700689 
1096	 0.363483183324693 
1097	 0.363678429345787 
1098	 0.363847101048918 
1099	 0.363980859562847 
1100	 0.364117321880566 
1101	 0.364245751630099 
1102	 0.364381124600016 
1103	 0.364503678860136 
1104	 0.36464786004588 
1105	 0.3648041948028 
1106	 0.36497534204968 
1107	 0.365152389330121 
1108	 0.365320995695453 
1109	 0.365507106758443 
1110	 0.365696186230601 
1111	 0.365861643765748 
1112	 0.366020195987476 
1113	 0.36617603573489 
1114	 0.3663104445907 
1115	 0.366450653188152 
1116	 0.366594253506693 
1117	 0.366746189444909 
1118	 0.366891129968968 
1119	 0.367039638388339 
1120	 0.367230773116917 
1121	 0.367433155686253 
1122	 0.367636001152103 
1123	 0.367819870045158 
1124	 0.367984380342277 
1125	 0.368116648356669 
1126	 0.368273277641493 
1127	 0.368414280741446 
1128	 0.368585833260007 
1129	 0.368792238361167 
1130	 0.368965500654498 
1131	 0.369153388494879 
1132	 0.369310945256269 
1133	 0.36939242065137 
1134	 0.369547347931666 
1135	 0.369724009454989 
1136	 0.369927286763866 
1137	 0.37013133133303 
1138	 0.370324620707622 
1139	 0.370495005004472 
1140	 0.370620588226822 
1141	 0.37076491799559 
1142	 0.370916770312122 
1143	 0.371063659867687 
1144	 0.371203780894023 
1145	 0.37133963326028 
1146	 0.371477163918114 
1147	 0.371605430455991 
1148	 0.371718973884786 
1149	 0.371835668860646 
1150	 0.371941896006646 
1151	 0.372071517602225 
1152	 0.372167741565393 
1153	 0.372285689715911 
1154	 0.372426543907425 
1155	 0.372583418011503 
1156	 0.372728807854993 
1157	 0.372906178364798 
1158	 0.373044749241081 
1159	 0.373167813095153 
1160	 0.373276091627649 
1161	 0.373344851118991 
1162	 0.373455056834675 
1163	 0.373579148568369 
1164	 0.373682695750185 
1165	 0.373774165648528 
1166	 0.373914717245201 
1167	 0.3740306386586 
1168	 0.374149317338828 
1169	 0.374273910205906 
1170	 0.374432666508595 
1171	 0.374555188883572 
1172	 0.374658006896822 
1173	 0.37476031546464 
1174	 0.374854207763475 
1175	 0.374949590101186 
1176	 0.375034743747598 
1177	 0.375127201951032 
1178	 0.375227921700583 
1179	 0.375323986047418 
1180	 0.375407980938005 
1181	 0.375506781875706 
1182	 0.37561928302521 
1183	 0.375724588251205 
1184	 0.375822648067867 
1185	 0.375926187034099 
1186	 0.376020400802315 
1187	 0.376099645496919 
1188	 0.376185617959725 
1189	 0.37626528895691 
1190	 0.376364628994213 
1191	 0.376472998409442 
1192	 0.376576851398441 
1193	 0.376690865413466 
1194	 0.376806794823197 
1195	 0.376937751140897 
1196	 0.377038467560056 
1197	 0.377122767365674 
1198	 0.377217231807429 
1199	 0.377305631848159 
1200	 0.377371084865385 
1201	 0.377444261087525 
1202	 0.37752826820503 
1203	 0.377608942973964 
1204	 0.377665425254786 
1205	 0.377754861362225 
1206	 0.377878557669688 
1207	 0.377976092261555 
1208	 0.378071549216408 
1209	 0.378166859469455 
1210	 0.378258771914964 
1211	 0.378341814732534 
1212	 0.378417175549402 
1213	 0.378500228200347 
1214	 0.378580811870236 
1215	 0.378656493140045 
1216	 0.378732551290016 
1217	 0.378819920538922 
1218	 0.378891499478485 
1219	 0.378950256578694 
1220	 0.379012038780869 
1221	 0.379064079413821 
1222	 0.379133948552292 
1223	 0.379208997313314 
1224	 0.37928469173089 
1225	 0.37938568997822 
1226	 0.379458707318154 
1227	 0.379504815240967 
1228	 0.379570531261054 
1229	 0.379635483762358 
1230	 0.379700706663708 
1231	 0.379778205544437 
1232	 0.37985227277629 
1233	 0.37992419520275 
1234	 0.379990142907651 
1235	 0.380058163900536 
1236	 0.380134142421638 
1237	 0.380195483679197 
1238	 0.380244981558249 
1239	 0.38029959863958 
1240	 0.380342638894263 
1241	 0.380401812230381 
1242	 0.380479950503189 
1243	 0.380538602082466 
1244	 0.380592868577318 
1245	 0.380651219178835 
1246	 0.380689360189625 
1247	 0.380746403494747 
1248	 0.380825268669555 
1249	 0.380895459220182 
1250	 0.380963167570218 
1251	 0.381050851343299 
1252	 0.381112982952737 
1253	 0.381166688822396 
1254	 0.381214233441571 
1255	 0.381246284072742 
1256	 0.381286458716921 
1257	 0.381330342755432 
1258	 0.381362231759021 
1259	 0.38138356015774 
1260	 0.38141467819247 
1261	 0.381434427084356 
1262	 0.381468491504917 
1263	 0.381519325231636 
1264	 0.381567296368276 
1265	 0.381617883559387 
1266	 0.381672444082784 
1267	 0.381744723918855 
1268	 0.381795309236491 
1269	 0.381838736926507 
1270	 0.381864570185255 
1271	 0.381923719409881 
1272	 0.381987393999147 
1273	 0.382050590258416 
1274	 0.382131192777596 
1275	 0.382213929501023 
1276	 0.382276368026764 
1277	 0.382371866434745 
1278	 0.382512972278961 
1279	 0.382625867142949 
1280	 0.38272960125131 
1281	 0.382845050206945 
1282	 0.382960759602342 
1283	 0.383075070510473 
1284	 0.383200720976487 
1285	 0.383327789291183 
1286	 0.383424436437126 
1287	 0.383508919517565 
1288	 0.383600044286607 
1289	 0.383678998905595 
1290	 0.383770234505893 
1291	 0.383874561409039 
1292	 0.383962032838365 
1293	 0.384054717666332 
1294	 0.384120082981124 
1295	 0.384163524948605 
1296	 0.3842093537937 
1297	 0.384245241153696 
1298	 0.384271593475022 
1299	 0.384301502287641 
1300	 0.384308640434296 
1301	 0.38428945775641 
1302	 0.384272109388435 
1303	 0.384233830769996 
1304	 0.384209098501097 
1305	 0.3842094955603 
1306	 0.38417431806066 
1307	 0.38412862190384 
1308	 0.384062603115857 
1309	 0.384003979926498 
1310	 0.383915125153366 
1311	 0.383858363795931 
1312	 0.383829967101261 
1313	 0.383784112705797 
1314	 0.383747532411639 
1315	 0.383684315529052 
1316	 0.383601189103396 
1317	 0.383525138025602 
1318	 0.383416113382998 
1319	 0.3833443113454 
1320	 0.383305886615026 
1321	 0.383250628863822 
1322	 0.383193194275151 
1323	 0.383161944577384 
1324	 0.383093434461854 
1325	 0.383033399499855 
1326	 0.383007998172958 
1327	 0.382958889711087 
1328	 0.382918523183719 
1329	 0.382887148528404 
1330	 0.382829962951479 
1331	 0.382742781463506 
1332	 0.382682655509238 
1333	 0.382628478123231 
1334	 0.382563657363043 
1335	 0.382499973677194 
1336	 0.382447792497503 
1337	 0.382384795202263 
1338	 0.382333777000722 
1339	 0.382311132423101 
1340	 0.382265554689847 
1341	 0.382203378707397 
1342	 0.38215798810441 
1343	 0.382117296472085 
1344	 0.38206788186213 
1345	 0.382037819486643 
1346	 0.382003332017089 
1347	 0.381971733901376 
1348	 0.381950351353975 
1349	 0.381906476344609 
1350	 0.381859265687831 
1351	 0.381807818524981 
1352	 0.381734452937539 
1353	 0.381680670057425 
1354	 0.381643268289311 
1355	 0.381583582065629 
1356	 0.381520878628795 
1357	 0.381456399379848 
1358	 0.381368404529557 
1359	 0.381299307529279 
1360	 0.38123286712907 
1361	 0.381179236049529 
1362	 0.381150118776401 
1363	 0.381109025543319 
1364	 0.381063219291884 
1365	 0.381027416139087 
1366	 0.380992019188759 
1367	 0.380947057636055 
1368	 0.380936149829079 
1369	 0.380929646883658 
1370	 0.380903739234827 
1371	 0.380877406438108 
1372	 0.380814662234464 
1373	 0.380736237572378 
1374	 0.380658049001176 
1375	 0.380568480878311 
1376	 0.380461620025981 
1377	 0.38036533373898 
1378	 0.380216243553127 
1379	 0.38001582722425 
1380	 0.379841409647821 
1381	 0.379650650972957 
1382	 0.379453522522919 
1383	 0.379280336333384 
1384	 0.379063759917172 
1385	 0.378837544316484 
1386	 0.378565442866637 
1387	 0.378268049046543 
1388	 0.377927551941139 
1389	 0.37754720921052 
1390	 0.377121516655998 
1391	 0.376680465736649 
1392	 0.376199010091064 
1393	 0.375641296382344 
1394	 0.375072407352203 
1395	 0.374430402095926 
1396	 0.373764598276072 
1397	 0.373139167315404 
1398	 0.372517309985732 
1399	 0.371885175939854 
1400	 0.371262096925121 
1401	 0.370650742595779 
1402	 0.370000377644692 
1403	 0.369431594409281 
1404	 0.368907475665805 
1405	 0.368416347087816 
1406	 0.367965931572576 
1407	 0.367547225959059 
1408	 0.367132098568095 
1409	 0.366801207667821 
1410	 0.366471912222853 
1411	 0.366289669382811 
1412	 0.366191797170023 
1413	 0.366215131827756 
1414	 0.366370225239168 
1415	 0.366615153284538 
1416	 0.366943881415835 
1417	 0.367323089188867 
1418	 0.367721966326574 
1419	 0.368140417591958 
1420	 0.368578419645757 
1421	 0.368983330236488 
1422	 0.369333045507973 
1423	 0.369651077222574 
1424	 0.369882603361406 
1425	 0.37001361389326 
1426	 0.370152091617528 
1427	 0.370227117394031 
1428	 0.370323395625572 
1429	 0.370406765052067 
1430	 0.370488221170269 
1431	 0.370591117852221 
1432	 0.37063661068045 
1433	 0.370644389697029 
1434	 0.370655091285326 
1435	 0.370596062767262 
1436	 0.370601657076684 
1437	 0.370651975906423 
1438	 0.370687589869828 
1439	 0.370750370151355 
1440	 0.370804576180861 
1441	 0.370808581243998 
1442	 0.370793161009486 
1443	 0.370757403739091 
1444	 0.370725090364101 
1445	 0.37072320125689 
1446	 0.370723133772526 
1447	 0.370727712288813 
1448	 0.370715620370306 
1449	 0.370661452208684 
1450	 0.370602373170775 
1451	 0.370554990985308 
1452	 0.370491021761616 
1453	 0.370460308265996 
1454	 0.370456773247382 
1455	 0.370436941651194 
1456	 0.370433376085984 
1457	 0.370406338898937 
1458	 0.370365923640466 
1459	 0.370321128458764 
1460	 0.370251000778854 
1461	 0.370206115348431 
1462	 0.370168181175111 
1463	 0.370136330546644 
1464	 0.37013108187729 
1465	 0.370102502763924 
1466	 0.370045832648733 
1467	 0.370020218927525 
1468	 0.369979332948609 
1469	 0.369983542630434 
1470	 0.370030744609974 
1471	 0.370084085797894 
1472	 0.370162788061729 
1473	 0.370243908369686 
1474	 0.370293048730877 
1475	 0.370354283110917 
1476	 0.370395791457882 
1477	 0.370446379153173 
1478	 0.370525817328018 
1479	 0.37059905192236 
1480	 0.370676370703892 
1481	 0.370754380487137 
1482	 0.370846752338356 
1483	 0.370950314050252 
1484	 0.371040559480078 
1485	 0.371142129713801 
1486	 0.37122919465603 
1487	 0.371293593613213 
1488	 0.371375664569501 
1489	 0.371471220798229 
1490	 0.371549147442395 
1491	 0.371627209149378 
1492	 0.371695019032899 
1493	 0.371752599783109 
1494	 0.371803912362348 
1495	 0.371842200411074 
1496	 0.371879146050575 
1497	 0.37190367513995 
1498	 0.371935957330614 
1499	 0.37197166042019 
1500	 0.37201225664846 
1501	 0.372056631703308 
1502	 0.372101813302678 
1503	 0.372146733768582 
1504	 0.372195251631401 
1505	 0.372266358042227 
1506	 0.372332184457966 
1507	 0.372400204357379 
1508	 0.372468728430013 
1509	 0.372514520134724 
1510	 0.372553903303616 
1511	 0.372574763113968 
1512	 0.372589361180824 
1513	 0.372604011224708 
1514	 0.372608473061852 
1515	 0.372632715519268 
1516	 0.372673098192798 
1517	 0.372712446373284 
1518	 0.372761760401807 
1519	 0.37280458424453 
1520	 0.372854723386322 
1521	 0.372883405331177 
1522	 0.372893167776107 
1523	 0.372924317474804 
1524	 0.372954289604893 
1525	 0.372987346245089 
1526	 0.373039320877429 
1527	 0.37307288384149 
1528	 0.373088120598338 
1529	 0.373115372076745 
1530	 0.373148989526251 
1531	 0.373176758923713 
1532	 0.373200730864088 
1533	 0.373232389586257 
1534	 0.373263811737324 
1535	 0.373298181868663 
1536	 0.373351946863295 
1537	 0.37338001131685 
1538	 0.373389758035367 
1539	 0.373406929305726 
1540	 0.373412173555774 
1541	 0.373424731700168 
1542	 0.373453350978213 
1543	 0.373463349555085 
1544	 0.373459278545996 
1545	 0.373460584692105 
1546	 0.373461251148259 
1547	 0.373454732990801 
1548	 0.373440800343254 
1549	 0.373422622747373 
1550	 0.373402178247186 
1551	 0.373403506688164 
1552	 0.373419167089527 
1553	 0.373445747715105 
1554	 0.373482810882394 
1555	 0.373495600990789 
1556	 0.373487499078481 
1557	 0.373498625869307 
1558	 0.373514591194666 
1559	 0.373525791000559 
1560	 0.373545930529992 
1561	 0.373598615522169 
1562	 0.373602295882175 
1563	 0.373576195434372 
1564	 0.373571867329621 
1565	 0.37355667871807 
1566	 0.373553562706358 
1567	 0.373569990129837 
1568	 0.373564943702864 
1569	 0.37353598616442 
1570	 0.373537501444169 
1571	 0.373554457790124 
1572	 0.373560921324558 
1573	 0.373585577912122 
1574	 0.373593536937857 
1575	 0.373582350550317 
1576	 0.373571793042639 
1577	 0.373563364625283 
1578	 0.37354841985987 
1579	 0.373505257839403 
1580	 0.373502164352303 
1581	 0.373522550997289 
1582	 0.373532803089413 
1583	 0.373564976351802 
1584	 0.373584590129251 
1585	 0.373590448035159 
1586	 0.373597396980547 
1587	 0.373619131815567 
1588	 0.373615732726491 
1589	 0.373586027211006 
1590	 0.373571514818716 
1591	 0.373546490852916 
1592	 0.373530052884019 
1593	 0.373519833991979 
1594	 0.373519435091182 
1595	 0.373519114946029 
1596	 0.373532433972761 
1597	 0.373574351969791 
1598	 0.373601647951866 
1599	 0.373647790717672 
1600	 0.373658687937961 
1601	 0.37363309921118 
1602	 0.373619820252384 
1603	 0.37357947417088 
1604	 0.373558382603385 
1605	 0.373550983883946 
1606	 0.373553915616478 
1607	 0.3735660625969 
1608	 0.37359414737284 
1609	 0.373612988017406 
1610	 0.373618446311713 
1611	 0.37358552273365 
1612	 0.373545379252547 
1613	 0.373501909522774 
1614	 0.373464915217613 
1615	 0.373437546593026 
1616	 0.373417888403856 
1617	 0.373425399891697 
1618	 0.373423193269586 
1619	 0.373424789908926 
1620	 0.37341321396113 
1621	 0.373383692232401 
1622	 0.373330927616736 
1623	 0.37328275684127 
1624	 0.373224512662668 
1625	 0.373173919074659 
1626	 0.373109849975545 
1627	 0.37308129224823 
1628	 0.373064168475475 
1629	 0.373062189578322 
1630	 0.373083600046533 
1631	 0.373114043276998 
1632	 0.373170335014735 
1633	 0.373187750072911 
1634	 0.373211878558439 
1635	 0.373210367164149 
1636	 0.373176179813265 
1637	 0.373142584257197 
1638	 0.373097477026103 
1639	 0.373062219041045 
1640	 0.372997902916514 
1641	 0.372989508515169 
1642	 0.373018973935462 
1643	 0.373036204389115 
1644	 0.373086016182641 
1645	 0.373100549752392 
1646	 0.373102347303332 
1647	 0.373093530419129 
1648	 0.373068905443423 
1649	 0.373042863066317 
1650	 0.372998909620663 
1651	 0.372973313667343 
1652	 0.372942151137303 
1653	 0.372935585935346 
1654	 0.372958593913218 
1655	 0.372955525241712 
1656	 0.372964681205728 
1657	 0.372944985192232 
1658	 0.372888021032262 
1659	 0.372860438981952 
1660	 0.372844223115156 
1661	 0.372805262459662 
1662	 0.372767336333074 
1663	 0.372722166174067 
1664	 0.372643707163448 
1665	 0.372597809417661 
1666	 0.372568630100627 
1667	 0.372541428951762 
1668	 0.372533198460759 
1669	 0.372505039448507 
1670	 0.372478609198713 
1671	 0.372438335540571 
1672	 0.37237058103135 
1673	 0.372328825414259 
1674	 0.372284478999722 
1675	 0.372262881295418 
1676	 0.372267828359639 
1677	 0.372262660388906 
1678	 0.372272719070706 
1679	 0.372264250143853 
1680	 0.372244604967315 
1681	 0.372228376145628 
1682	 0.372196356795351 
1683	 0.372188155627184 
1684	 0.372196079318922 
1685	 0.372195699779994 
1686	 0.372212780191927 
1687	 0.372206011005958 
1688	 0.372180781586448 
1689	 0.372160151307189 
1690	 0.372126865085764 
1691	 0.372108260709349 
1692	 0.372099166952099 
1693	 0.372082786484718 
1694	 0.372068559654273 
1695	 0.372052674768917 
1696	 0.372018183591017 
1697	 0.372019161812927 
1698	 0.372047040440686 
1699	 0.372057721481792 
1700	 0.372097172381922 
1701	 0.372091078667183 
1702	 0.372046767908226 
1703	 0.372017450763107 
1704	 0.371977482812498 
1705	 0.371934987056427 
1706	 0.371904275080178 
1707	 0.371845592874446 
1708	 0.371747707142908 
1709	 0.371691291931912 
1710	 0.371636195815894 
1711	 0.371596500162399 
1712	 0.371595092295891 
1713	 0.371568263251228 
1714	 0.371532369704778 
1715	 0.371496256392432 
1716	 0.371457302632397 
1717	 0.371414667709752 
1718	 0.371365308779457 
1719	 0.371327056875567 
1720	 0.371287056286371 
1721	 0.371261131532735 
1722	 0.371245385446476 
1723	 0.37122701939993 
1724	 0.371224397282549 
1725	 0.371194852350429 
1726	 0.371165090559083 
1727	 0.371111851141234 
1728	 0.371019903762124 
1729	 0.370961323916742 
1730	 0.370909342591725 
1731	 0.370847989095928 
1732	 0.370797123232926 
1733	 0.370745321110639 
1734	 0.370683585223115 
1735	 0.370610869694706 
1736	 0.370555432154961 
1737	 0.370464202715607 
1738	 0.370327677256772 
1739	 0.370230670673179 
1740	 0.370122272611351 
1741	 0.370055470683874 
1742	 0.3700313942722 
1743	 0.36997713845542 
1744	 0.369941091436698 
1745	 0.369873558294222 
1746	 0.369780292084793 
1747	 0.369697628086215 
1748	 0.369599852071063 
1749	 0.369528693904162 
1750	 0.369466660292359 
1751	 0.369412350182714 
1752	 0.369360206087819 
1753	 0.369281247903799 
1754	 0.369174084349686 
1755	 0.369053988307938 
1756	 0.368940271493897 
1757	 0.36885078421749 
1758	 0.368754612832757 
1759	 0.368657805418028 
1760	 0.36861899493018 
1761	 0.368595982001618 
1762	 0.368571255584134 
1763	 0.368564413624707 
1764	 0.368507528020233 
1765	 0.368410366570873 
1766	 0.368319640574816 
1767	 0.368208337212685 
1768	 0.368111305984671 
1769	 0.368037929453244 
1770	 0.367957565802205 
1771	 0.367901361364142 
1772	 0.367847214750437 
1773	 0.367781482382322 
1774	 0.367754410400847 
1775	 0.367757756935537 
1776	 0.367744067473576 
1777	 0.367719015998018 
1778	 0.367668058972017 
1779	 0.367550893854621 
1780	 0.36744038415203 
1781	 0.367352468490272 
1782	 0.367257768838574 
1783	 0.367253425930159 
1784	 0.367219538390578 
1785	 0.367191011968509 
1786	 0.367187962588015 
1787	 0.367195753334191 
1788	 0.367170337633459 
1789	 0.367155121817395 
1790	 0.367120774879336 
1791	 0.367032955630128 
1792	 0.366985757546133 
1793	 0.36695013840453 
1794	 0.366940289943894 
1795	 0.366957910668628 
1796	 0.366968473398196 
1797	 0.367015341673312 
1798	 0.367010357025987 
1799	 0.366978511562745 
1800	 0.366947726088598 
1801	 0.366667528155277 
1802	 0.366885945468825 
1803	 0.367155461262169 
1804	 0.367443364909387 
1805	 0.367741807211856 
1806	 0.367986783887044 
1807	 0.368224412884566 
1808	 0.36841517583971 
1809	 0.368544722447005 
1810	 0.368670603597408 
1811	 0.368783418651351 
1812	 0.368877329937871 
1813	 0.368927126690028 
1814	 0.368948562708421 
1815	 0.368947102919261 
1816	 0.36891634519243 
1817	 0.368883021823365 
1818	 0.368805063253049 
1819	 0.368788739819621 
1820	 0.368788048906563 
1821	 0.368785910396241 
1822	 0.368849297122735 
1823	 0.36889320561795 
1824	 0.36887341668796 
1825	 0.368843202916301 
1826	 0.368819579422864 
1827	 0.368782731605988 
1828	 0.368726881708176 
1829	 0.368693827338707 
1830	 0.368622076768362 
1831	 0.368496537540638 
1832	 0.368379644994927 
1833	 0.368296362235746 
1834	 0.368215846240247 
1835	 0.368173242781227 
1836	 0.368110246772385 
1837	 0.368056344970302 
1838	 0.368017377174147 
1839	 0.367971867532501 
1840	 0.367920197629612 
1841	 0.367895310195773 
1842	 0.367862877616516 
1843	 0.367823283513417 
1844	 0.367791842359693 
1845	 0.367755445807359 
1846	 0.367737965380704 
1847	 0.367732205688929 
1848	 0.367710705293151 
1849	 0.367696205211562 
1850	 0.367695418776289 
1851	 0.367696853340321 
1852	 0.367693444902702 
1853	 0.367737383586022 
1854	 0.367764211735049 
1855	 0.367730635404653 
1856	 0.367689951297023 
1857	 0.367642439667413 
1858	 0.36760381046584 
1859	 0.367579928093116 
1860	 0.367513925924743 
1861	 0.367444429825581 
1862	 0.367310506350487 
1863	 0.367147785303095 
1864	 0.366975674305387 
1865	 0.36682434571692 
1866	 0.366704662300522 
1867	 0.366548694070747 
1868	 0.366372600208256 
1869	 0.366194372295098 
1870	 0.365989007896547 
1871	 0.365788577419197 
1872	 0.365599197834329 
1873	 0.365408997826859 
1874	 0.365174387794183 
1875	 0.364921928203152 
1876	 0.364633424173568 
1877	 0.364308143346836 
1878	 0.363943495058073 
1879	 0.363542850676037 
1880	 0.363076321301552 
1881	 0.362561508077843 
1882	 0.361979278203619 
1883	 0.361356796589459 
1884	 0.360608497553201 
1885	 0.359823886220942 
1886	 0.358989192214241 
1887	 0.35803979511975 
1888	 0.357067233930762 
1889	 0.356039512125653 
1890	 0.354962559068107 
1891	 0.353880371248282 
1892	 0.352770690067155 
1893	 0.351647367321455 
1894	 0.350508223168722 
1895	 0.349336965943086 
1896	 0.348143703065877 
1897	 0.346987542359502 
1898	 0.345840698697744 
1899	 0.34471821323002 
1900	 0.343664882953152 
1901	 0.342671902426973 
1902	 0.341746992419093 
1903	 0.340918282770621 
1904	 0.34011389589367 
1905	 0.339360867321017 
1906	 0.338650947963831 
1907	 0.337998787710321 
1908	 0.337360085196951 
1909	 0.336754195178234 
1910	 0.336171076704526 
1911	 0.33562333661286 
1912	 0.335088939259753 
1913	 0.334586468781551 
1914	 0.33412611112352 
1915	 0.333691705136817 
1916	 0.333274448103708 
1917	 0.332888696988918 
1918	 0.332551977170016 
1919	 0.332225776691575 
1920	 0.331941815448623 
1921	 0.331659678933755 
1922	 0.331399250498942 
1923	 0.331189178488077 
1924	 0.330992488879689 
1925	 0.330819807236807 
1926	 0.330674288821296 
1927	 0.330556274289943 
1928	 0.33045704329523 
1929	 0.330370235743567 
1930	 0.330300422164409 
1931	 0.330271963923756 
1932	 0.33024862551117 
1933	 0.330251264510575 
1934	 0.330264358609722 
1935	 0.330272024376136 
1936	 0.330266050614475 
1937	 0.330288965295764 
1938	 0.330313461605783 
1939	 0.330369207026131 
1940	 0.330450639044923 
1941	 0.330547428379495 
1942	 0.330667181319873 
1943	 0.330800097101256 
1944	 0.330923349762607 
1945	 0.331052154749302 
1946	 0.331195569071029 
1947	 0.331335183446333 
1948	 0.331494599341983 
1949	 0.331687393869874 
1950	 0.331866812905614 
1951	 0.33204448062885 
1952	 0.332235342045154 
1953	 0.332407554568125 
1954	 0.332589480863745 
1955	 0.332798270294729 
1956	 0.332997773967529 
1957	 0.333213240984589 
1958	 0.333452257130403 
1959	 0.333682645560846 
1960	 0.333907743608788 
1961	 0.334147808207525 
1962	 0.334406500514762 
1963	 0.334655012791836 
1964	 0.334896537860186 
1965	 0.335154769235005 
1966	 0.335418235265846 
1967	 0.335678682921605 
1968	 0.335954036459634 
1969	 0.336256376694219 
1970	 0.336537990416892 
1971	 0.336820663760691 
1972	 0.337092603481794 
1973	 0.33734150143752 
1974	 0.337614741151003 
1975	 0.33788934120358 
1976	 0.338176215542539 
1977	 0.338484983055143 
1978	 0.338777556502432 
1979	 0.339047040113427 
1980	 0.339318438793712 
1981	 0.33958331188256 
1982	 0.339830363199466 
1983	 0.340092754025664 
1984	 0.34035148743582 
1985	 0.340621887633995 
1986	 0.340900543378278 
1987	 0.341183535542589 
1988	 0.341474259178831 
1989	 0.341781883529527 
1990	 0.342061447570042 
1991	 0.342349735613944 
1992	 0.342621360456977 
1993	 0.342865918246493 
1994	 0.343134642178464 
1995	 0.343404494232775 
1996	 0.343681051897416 
1997	 0.343963412602882 
1998	 0.344258913968191 
1999	 0.344569891265497 
2000	 0.344876473698914 
2001	 0.345198332179489 
2002	 0.345512526583062 
2003	 0.345822588941682 
2004	 0.346107873687886 
2005	 0.346373851933796 
2006	 0.346608741671848 
2007	 0.346865839509746 
2008	 0.347100465450832 
2009	 0.347359796675058 
2010	 0.347664796598451 
2011	 0.347920295740157 
2012	 0.348159529138934 
2013	 0.348392928381749 
2014	 0.348595672757245 
2015	 0.348797713582745 
2016	 0.349003691064725 
2017	 0.349237332629543 
2018	 0.349466997619158 
2019	 0.349693534390477 
2020	 0.349941076195236 
2021	 0.350207707584318 
2022	 0.35046864537693 
2023	 0.350743636673521 
2024	 0.351014796240271 
2025	 0.351293670828558 
2026	 0.351555179545151 
2027	 0.351802531399487 
2028	 0.352062349150385 
2029	 0.352315181288777 
2030	 0.352557805128123 
2031	 0.352804882451779 
2032	 0.353060370859773 
2033	 0.353298233685628 
2034	 0.353532099185991 
2035	 0.353749592036021 
2036	 0.353966355032161 
2037	 0.354157916468873 
2038	 0.354316730735813 
2039	 0.354482623694735 
2040	 0.354646119010893 
2041	 0.354776385877263 
2042	 0.354931526368825 
2043	 0.355094382012527 
2044	 0.35525689609644 
2045	 0.35542688367399 
2046	 0.355590224851339 
2047	 0.355761273632098 
2048	 0.355912974090308 
2049	 0.35605816024394 
2050	 0.356188334189308 
2051	 0.356292272750234 
2052	 0.356410672000206 
2053	 0.356543562648869 
2054	 0.356645081323659 
2055	 0.356722913019547 
2056	 0.356809969617504 
2057	 0.356910893601743 
2058	 0.356988957080597 
2059	 0.35710068779867 
2060	 0.357267030996329 
2061	 0.357383776718233 
2062	 0.357486498348855 
2063	 0.357584172743111 
2064	 0.35765579748121 
2065	 0.357743563031588 
2066	 0.357838114110244 
2067	 0.357924112940327 
2068	 0.357994987217926 
2069	 0.358098106180146 
2070	 0.358185701485977 
2071	 0.358264646769957 
2072	 0.358349204802774 
2073	 0.35843339796635 
2074	 0.358529419033263 
2075	 0.358632569182255 
2076	 0.35873240916673 
2077	 0.358844702832885 
2078	 0.358947173065212 
2079	 0.359039121376843 
2080	 0.359135191781103 
2081	 0.359227238385256 
2082	 0.35932968530752 
2083	 0.359440332927271 
2084	 0.35954044511279 
2085	 0.359661827551059 
2086	 0.359810083082189 
2087	 0.359920887266179 
2088	 0.360027666663479 
2089	 0.360127756301687 
2090	 0.360197679042397 
2091	 0.360286132241031 
2092	 0.360391873555743 
2093	 0.360478688167307 
2094	 0.360547678820253 
2095	 0.360633417998605 
2096	 0.360743912914305 
2097	 0.360815618116497 
2098	 0.360866193339255 
2099	 0.360919249884556 
2100	 0.360988379227611 
2101	 0.361024952315959 
2102	 0.361108948388708 
2103	 0.361244623808638 
2104	 0.361354450592331 
2105	 0.361460729188974 
2106	 0.361572493399249 
2107	 0.361690158092057 
2108	 0.36180734503512 
2109	 0.361918389493987 
2110	 0.36204474956832 
2111	 0.362162958551219 
2112	 0.362311941612161 
2113	 0.362498243771595 
2114	 0.362685832577479 
2115	 0.362831041696557 
2116	 0.362976908038848 
2117	 0.363111153628931 
2118	 0.363193489481575 
2119	 0.36332019276129 
2120	 0.363481651554374 
2121	 0.363616529837712 
2122	 0.363753594663639 
2123	 0.363871357691281 
2124	 0.363986816005566 
2125	 0.364075050156799 
2126	 0.3641253369973 
2127	 0.364190681047385 
2128	 0.364255425261089 
2129	 0.364301774174007 
2130	 0.364347486323034 
2131	 0.364389259103416 
2132	 0.364399942430347 
2133	 0.364382912264287 
2134	 0.364355892868108 
2135	 0.364308350160323 
2136	 0.36425740548371 
2137	 0.364194620777991 
2138	 0.364115996326116 
2139	 0.364035524553143 
2140	 0.363928074117603 
2141	 0.363803720674606 
2142	 0.363651582655808 
2143	 0.363487777312537 
2144	 0.363282665374171 
2145	 0.363012990242341 
2146	 0.362764019219019 
2147	 0.362478571316438 
2148	 0.362218243232214 
2149	 0.36196811732027 
2150	 0.361755732357724 
2151	 0.361486655481421 
2152	 0.361195060252931 
2153	 0.360918353677709 
2154	 0.360629385371827 
2155	 0.360327758045328 
2156	 0.360068996767991 
2157	 0.359728060284617 
2158	 0.359333191775676 
2159	 0.358917470462716 
2160	 0.358442637709873 
2161	 0.35797370783747 
2162	 0.357469916872527 
2163	 0.356982673860531 
2164	 0.35647505570619 
2165	 0.356007122637731 
2166	 0.355539251408516 
2167	 0.355092369048213 
2168	 0.354620463607845 
2169	 0.35415897514416 
2170	 0.353669872694549 
2171	 0.35316983614655 
2172	 0.352639021021275 
2173	 0.35208129426655 
2174	 0.351521845570993 
2175	 0.350942817459199 
2176	 0.350347508627745 
2177	 0.34976419049678 
2178	 0.349128893173713 
2179	 0.348456552036383 
2180	 0.347756962912785 
2181	 0.347002180053853 
2182	 0.346255129295583 
2183	 0.345480923891579 
2184	 0.344705892019657 
2185	 0.343940922084459 
2186	 0.343174527048707 
2187	 0.342418839459997 
2188	 0.341648939056627 
2189	 0.340935205948472 
2190	 0.340220355287591 
2191	 0.339587761367626 
2192	 0.339014752425 
2193	 0.338477577115843 
2194	 0.337990794565248 
2195	 0.337547473817459 
2196	 0.337150034651954 
2197	 0.336790624767886 
2198	 0.336483382776587 
2199	 0.336212183947805 
2200	 0.335987310336272 
2201	 0.335788955887497 
2202	 0.335598815416182 
2203	 0.335491856046542 
2204	 0.335431018661553 
2205	 0.335399297347178 
2206	 0.335451178824109 
2207	 0.335570537842244 
2208	 0.335765149479942 
2209	 0.336032041582655 
2210	 0.336361599946331 
2211	 0.33680575660772 
2212	 0.337231761598835 
2213	 0.337720593632111 
2214	 0.33818140112644 
2215	 0.338677981431668 
2216	 0.339117378817916 
2217	 0.339549647211003 
2218	 0.339935797277497 
2219	 0.340257436806507 
2220	 0.340584468299093 
2221	 0.340893880674521 
2222	 0.341185787048664 
2223	 0.341454268814279 
2224	 0.341705896529818 
2225	 0.34191483846411 
2226	 0.342087692866596 
2227	 0.342220165492334 
2228	 0.342295883574596 
2229	 0.342405413190156 
2230	 0.342503668263746 
2231	 0.342569442256568 
2232	 0.342637183097769 
2233	 0.342682573303952 
2234	 0.342682058883019 
2235	 0.342684606230376 
2236	 0.342698194386118 
2237	 0.342683496350564 
2238	 0.342632915709569 
2239	 0.342576675946882 
2240	 0.34250436571718 
2241	 0.342435314209492 
2242	 0.342379342183788 
2243	 0.342278543953638 
2244	 0.342146196773471 
2245	 0.342020424334355 
2246	 0.341869512824082 
2247	 0.341690507196614 
2248	 0.341551398402012 
2249	 0.341449577416414 
2250	 0.341299396533701 
2251	 0.341134616587355 
2252	 0.340981793214365 
2253	 0.340802187234773 
2254	 0.340658843262765 
2255	 0.340537427483851 
2256	 0.340419708708537 
2257	 0.340290914538467 
2258	 0.34022037979575 
2259	 0.340186858473543 
2260	 0.340159731772787 
2261	 0.340188111077526 
2262	 0.34018984130851 
2263	 0.340209895247631 
2264	 0.340190308696501 
2265	 0.340099004393168 
2266	 0.340091757078832 
2267	 0.340087512861466 
2268	 0.340114517128548 
2269	 0.340196602818397 
2270	 0.340334975438568 
2271	 0.340440181316782 
2272	 0.340571138907544 
2273	 0.340727128137754 
2274	 0.340842142948067 
2275	 0.340942122742141 
2276	 0.341005084776778 
2277	 0.34109700588428 
2278	 0.341174511979182 
2279	 0.34128794141545 
2280	 0.341443341444421 
2281	 0.341561392497699 
2282	 0.341663946537892 
2283	 0.341795025797333 
2284	 0.341931072363739 
2285	 0.342057956650391 
2286	 0.342234692500473 
2287	 0.342335467672403 
2288	 0.342355882979922 
2289	 0.342427529347742 
2290	 0.342495667609334 
2291	 0.342565540297711 
2292	 0.342675204533135 
2293	 0.34274793320536 
2294	 0.342776168048017 
2295	 0.342821325338921 
2296	 0.342866806008025 
2297	 0.342909200677908 
2298	 0.342957154324792 
2299	 0.343008741020642 
2300	 0.343030615541132 
2301	 0.343060137915002 
2302	 0.343090314666632 
2303	 0.343083925584737 
2304	 0.343065760653641 
2305	 0.343045890346673 
2306	 0.343023505488137 
2307	 0.342987782999826 
2308	 0.342958961706798 
2309	 0.342931843594691 
2310	 0.342902783476245 
2311	 0.342864164349288 
2312	 0.342819614417826 
2313	 0.342793954197289 
2314	 0.342742830931538 
2315	 0.342672532900198 
2316	 0.342598950875909 
2317	 0.342501852197447 
2318	 0.342413215163288 
2319	 0.3423284881872 
2320	 0.342236581010883 
2321	 0.342157345381517 
2322	 0.342043485036133 
2323	 0.341874539952264 
2324	 0.34175252566589 
2325	 0.341660819815111 
2326	 0.341539297310254 
2327	 0.341420492611176 
2328	 0.341313674599962 
2329	 0.341161130701189 
2330	 0.340973580130864 
2331	 0.340857390892473 
2332	 0.340766682157763 
2333	 0.340723960079244 
2334	 0.34070226667973 
2335	 0.340699053316313 
2336	 0.340658133523377 
2337	 0.340521293925697 
2338	 0.340433905110931 
2339	 0.340341398993703 
2340	 0.34017698413967 
2341	 0.340047947379927 
2342	 0.339920125250042 
2343	 0.339768605541071 
2344	 0.339668583262892 
2345	 0.339579596893281 
2346	 0.339553601789614 
2347	 0.339456028510772 
2348	 0.339326953045058 
2349	 0.339226985851534 
2350	 0.339109741427687 
2351	 0.33899663718145 
2352	 0.33892238875553 
2353	 0.338802775401726 
2354	 0.338615646613367 
2355	 0.338499438929199 
2356	 0.338411975199627 
2357	 0.338312042088321 
2358	 0.338194891461845 
2359	 0.338186591190338 
2360	 0.338297983796316 
2361	 0.338282670456694 
2362	 0.33832125175969 
2363	 0.338272042551896 
2364	 0.337983060423781 
2365	 0.337850625006075 
2366	 0.337834804046663 
2367	 0.337749415150255 
2368	 0.337715329728871 
2369	 0.337625608593944 
2370	 0.337478054143298 
2371	 0.337292213471031 
2372	 0.337150966512086 
2373	 0.33691854760389 
2374	 0.336673693140047 
2375	 0.336497259753727 
2376	 0.336252203667696 
2377	 0.336051908723268 
2378	 0.33600242082136 
2379	 0.335827891142452 
2380	 0.335559229049897 
2381	 0.335378522124795 
2382	 0.335086200083748 
2383	 0.334768268574669 
2384	 0.334594170109346 
2385	 0.334388737126319 
2386	 0.334145332449931 
2387	 0.333842539800098 
2388	 0.333477622793166 
2389	 0.333205502391271 
2390	 0.332952903704514 
2391	 0.332665276322413 
2392	 0.33240799110209 
2393	 0.332125412744214 
2394	 0.331806275008908 
2395	 0.331595153230139 
2396	 0.331416420925813 
2397	 0.331175477889167 
2398	 0.330952216729659 
2399	 0.33066741400211 
2400	 0.330318778779427 
2401	 0.329947177192471 
2402	 0.329540448080118 
2403	 0.329193305492678 
2404	 0.328937978282505 
2405	 0.328713951997462 
2406	 0.328471733528433 
2407	 0.32818103617584 
2408	 0.32779988963954 
2409	 0.327438601625093 
2410	 0.327158139988634 
2411	 0.326826745594465 
2412	 0.326439019803152 
2413	 0.326000051626721 
2414	 0.325497615979993 
2415	 0.325028849661957 
2416	 0.32456545936932 
2417	 0.32408961738347 
2418	 0.323703808384751 
2419	 0.323356061680179 
2420	 0.323043419934433 
2421	 0.322885516868149 
2422	 0.322619901465721 
2423	 0.322301721058041 
2424	 0.321951848294152 
2425	 0.32159291642935 
2426	 0.321140974440854 
2427	 0.320614662509801 
2428	 0.320126251275301 
2429	 0.319534984445789 
2430	 0.319071952814968 
2431	 0.318668827329088 
2432	 0.318302521717685 
2433	 0.318073667003683 
2434	 0.317662666255274 
2435	 0.317161915533403 
2436	 0.316771221131345 
2437	 0.316319695961136 
2438	 0.315971965883627 
2439	 0.315777437528828 
2440	 0.315436892393186 
2441	 0.31504313278332 
2442	 0.314719103991962 
2443	 0.314395585786448 
2444	 0.314131485966711 
2445	 0.313910047860009 
2446	 0.313638094446899 
2447	 0.313421888049808 
2448	 0.31304394060216 
2449	 0.31250129779984 
2450	 0.312177108538449 
2451	 0.311840052092377 
2452	 0.311490159126574 
2453	 0.31137732008235 
2454	 0.311097896162367 
2455	 0.310622014215468 
2456	 0.310326233843565 
2457	 0.310125666756663 
2458	 0.309814873317751 
2459	 0.309431608952782 
2460	 0.30914887771517 
2461	 0.308894953005609 
2462	 0.308616171279776 
2463	 0.308425363100619 
2464	 0.308205309065866 
2465	 0.307943222366185 
2466	 0.307654879217091 
2467	 0.307335514522399 
2468	 0.307090971012367 
2469	 0.306789978730249 
2470	 0.306539882975991 
2471	 0.306387201116804 
2472	 0.306203919306811 
2473	 0.306093280793006 
2474	 0.3060190723197 
2475	 0.3058634530899 
2476	 0.305495379510123 
2477	 0.305127005234222 
2478	 0.304697721326793 
2479	 0.304272607545079 
2480	 0.304093870712182 
2481	 0.303964122813463 
2482	 0.30382333030832 
2483	 0.303641571524605 
2484	 0.303295514951191 
2485	 0.302938506934926 
2486	 0.302460081681845 
2487	 0.301945115986576 
2488	 0.301664006614379 
2489	 0.301281567316209 
2490	 0.301091126705257 
2491	 0.301153187083744 
2492	 0.300933169679238 
2493	 0.300609136849996 
2494	 0.300350071311097 
2495	 0.30003745805554 
2496	 0.299819900653732 
2497	 0.299732636910287 
2498	 0.299618683726567 
2499	 0.299525585689938 
2500	 0.299284820316465 
