Wavelength	mm1700006.asd
350	 8.38033864026831E-02 
351	 0.088183492278907 
352	 8.98350016096767E-02 
353	 8.38738244464243E-02 
354	 8.26203704689711E-02 
355	 7.96550083811351E-02 
356	 7.93210174951315E-02 
357	 8.53827165453229E-02 
358	 9.13572060648771E-02 
359	 0.090616912283183 
360	 0.087077841508424 
361	 9.01741862517324E-02 
362	 9.32716035152568E-02 
363	 9.17562569674409E-02 
364	 8.74374260897455E-02 
365	 0.091680921299258 
366	 9.08941591725121E-02 
367	 8.98893935216104E-02 
368	 9.50194975427239E-02 
369	 9.86489609640506E-02 
370	 9.88917146387116E-02 
371	 9.71201966474624E-02 
372	 9.66932034479293E-02 
373	 9.72271975066126E-02 
374	 9.78866320067519E-02 
375	 9.89706156942163E-02 
376	 0.10329533386944 
377	 0.101988527791959 
378	 0.100222502155679 
379	 0.104573053139755 
380	 0.108919306182956 
381	 0.108639745536484 
382	 0.10776237243511 
383	 0.115143156918797 
384	 0.1154766163021 
385	 0.11403663207721 
386	 0.115817477689422 
387	 0.119890392101884 
388	 0.120150472300985 
389	 0.118988669812341 
390	 0.120369745319646 
391	 0.120732113239211 
392	 0.123789392713834 
393	 0.128971253445487 
394	 0.132022195085645 
395	 0.133317109488197 
396	 0.135601222852084 
397	 0.139585384883619 
398	 0.140808752868879 
399	 0.142076479457315 
400	 0.144642367179435 
401	 0.148301322647097 
402	 0.148039993325438 
403	 0.14915512847159 
404	 0.15278565203593 
405	 0.155401802196248 
406	 0.157642922420734 
407	 0.159573289967934 
408	 0.161064997377793 
409	 0.161430927498013 
410	 0.162365154881473 
411	 0.163925400166666 
412	 0.165476438683149 
413	 0.167924199016332 
414	 0.16907098059594 
415	 0.168750921069903 
416	 0.169626549630081 
417	 0.170047637656191 
418	 0.170976213476791 
419	 0.172803739908996 
420	 0.171912118368789 
421	 0.17125329951065 
422	 0.171783430667714 
423	 0.172915782878506 
424	 0.173182294564048 
425	 0.17274064527613 
426	 0.172177589837628 
427	 0.172461051774465 
428	 0.172203120396209 
429	 0.171655493691861 
430	 0.171435120060648 
431	 0.171156731340659 
432	 0.170572105493125 
433	 0.170120592638605 
434	 0.170798714973402 
435	 0.17107622310779 
436	 0.171041415714491 
437	 0.17115305876771 
438	 0.171925371409254 
439	 0.173045544590103 
440	 0.174389576639911 
441	 0.175853113808386 
442	 0.176738845565894 
443	 0.177813648226888 
444	 0.179355343327342 
445	 0.180707727882884 
446	 0.182042318787649 
447	 0.183383370612588 
448	 0.184700313659495 
449	 0.185809085846884 
450	 0.187291680121525 
451	 0.188964392466671 
452	 0.190033346347952 
453	 0.190943892437629 
454	 0.191921146404184 
455	 0.19306730111403 
456	 0.19430676911261 
457	 0.195459714462992 
458	 0.196488245398268 
459	 0.197424180278754 
460	 0.198232244517183 
461	 0.19903430889684 
462	 0.199810339053469 
463	 0.200311758460908 
464	 0.201242737173279 
465	 0.202211901944833 
466	 0.202745880554005 
467	 0.203353979541867 
468	 0.20391894783459 
469	 0.204395151481303 
470	 0.204822647371495 
471	 0.205529644687583 
472	 0.206152115317072 
473	 0.206507592679702 
474	 0.207119681005332 
475	 0.207699509740623 
476	 0.208162502712327 
477	 0.208551290309073 
478	 0.209181001569987 
479	 0.209687091692551 
480	 0.210074648682253 
481	 0.210947116764893 
482	 0.211504793788345 
483	 0.211813290047056 
484	 0.212158175775106 
485	 0.212634523871277 
486	 0.213193920250886 
487	 0.213743410090123 
488	 0.214173846830946 
489	 0.214665682720929 
490	 0.215102428010545 
491	 0.215458145597595 
492	 0.21608596079289 
493	 0.21650468685101 
494	 0.216790481466132 
495	 0.217254645214601 
496	 0.2178083330301 
497	 0.218260219758558 
498	 0.218601593987078 
499	 0.2191109170406 
500	 0.219491915912017 
501	 0.219924948510196 
502	 0.22056466086167 
503	 0.220811825723306 
504	 0.221181263839367 
505	 0.221732973287173 
506	 0.222092787808187 
507	 0.222365169282843 
508	 0.22276314124686 
509	 0.223332659587183 
510	 0.223611245852863 
511	 0.223917492667251 
512	 0.224291778457196 
513	 0.224638194782563 
514	 0.225047545079156 
515	 0.225452775472501 
516	 0.225816041817195 
517	 0.226170923716209 
518	 0.22661340712618 
519	 0.227021986206298 
520	 0.227280228862148 
521	 0.227700285981792 
522	 0.228111667459312 
523	 0.228450383913799 
524	 0.228791112017746 
525	 0.229093659366315 
526	 0.229372832016892 
527	 0.229665298452964 
528	 0.23004252298768 
529	 0.230417833319981 
530	 0.230795658755637 
531	 0.231224212811713 
532	 0.231489546577091 
533	 0.231794932375714 
534	 0.23224045828511 
535	 0.232597178792128 
536	 0.23290283133771 
537	 0.233225846148802 
538	 0.233628482898646 
539	 0.233994302605606 
540	 0.234340402051242 
541	 0.234682569306386 
542	 0.235018262021993 
543	 0.23534244591987 
544	 0.2357283066359 
545	 0.23621365829959 
546	 0.236631218164977 
547	 0.23697561778717 
548	 0.237295713736429 
549	 0.237678278249494 
550	 0.238103953124958 
551	 0.238524045688508 
552	 0.238911610657968 
553	 0.239313513821671 
554	 0.239672438447927 
555	 0.240087218926218 
556	 0.240701305282735 
557	 0.241279827387035 
558	 0.241782329621316 
559	 0.242264366313573 
560	 0.242916845203239 
561	 0.243456627224773 
562	 0.243918013299481 
563	 0.244432675114859 
564	 0.245007553931243 
565	 0.245526483650313 
566	 0.245957159321522 
567	 0.246369453772718 
568	 0.246768750323499 
569	 0.247316283508173 
570	 0.248123197567278 
571	 0.249066067390607 
572	 0.249909250647931 
573	 0.250606079230444 
574	 0.251251679144495 
575	 0.251809789740175 
576	 0.252486031418855 
577	 0.25336736600281 
578	 0.254237340124655 
579	 0.254968601156382 
580	 0.255595789500204 
581	 0.256227260504646 
582	 0.256826080949577 
583	 0.257424110954936 
584	 0.258095679245515 
585	 0.258973371125339 
586	 0.259948636206685 
587	 0.260912142692445 
588	 0.26179560013437 
589	 0.262715564165961 
590	 0.263607199600407 
591	 0.264486433506231 
592	 0.26543769107087 
593	 0.266222433911411 
594	 0.266830707389691 
595	 0.267341493653434 
596	 0.267927803425908 
597	 0.268493219828209 
598	 0.26904978688467 
599	 0.269664436473672 
600	 0.270325533370756 
601	 0.271043599901717 
602	 0.271800037964021 
603	 0.272528970197756 
604	 0.273208029286172 
605	 0.273893355504692 
606	 0.274650969555685 
607	 0.275421173320028 
608	 0.276149819866947 
609	 0.276859909481106 
610	 0.27765810881571 
611	 0.278265123289804 
612	 0.27875428141637 
613	 0.279237709235099 
614	 0.279636900660204 
615	 0.280034547409993 
616	 0.280472191051333 
617	 0.280948795580928 
618	 0.281372941402104 
619	 0.281748732172799 
620	 0.282114993718626 
621	 0.282554977020931 
622	 0.282964216893255 
623	 0.283315435580196 
624	 0.283623067990507 
625	 0.283938563356087 
626	 0.284279269786276 
627	 0.284638188067711 
628	 0.284981232825527 
629	 0.28532438305019 
630	 0.285659994399113 
631	 0.285980569850452 
632	 0.286296084174813 
633	 0.286624759332311 
634	 0.286940943773681 
635	 0.287192247271035 
636	 0.287488755292745 
637	 0.287820460050988 
638	 0.288150892217286 
639	 0.288432607469597 
640	 0.288735535426989 
641	 0.289022654372354 
642	 0.289234193646854 
643	 0.289542232486179 
644	 0.289856927488804 
645	 0.29012160154939 
646	 0.290363232233184 
647	 0.290602034770487 
648	 0.290891046072063 
649	 0.291251722238387 
650	 0.291552949822043 
651	 0.291811635899252 
652	 0.292072682538529 
653	 0.29239540821921 
654	 0.292703089140123 
655	 0.293004441074975 
656	 0.293313793586194 
657	 0.293614705154517 
658	 0.293940493001843 
659	 0.294251781837839 
660	 0.294500586710669 
661	 0.29486109431887 
662	 0.295216135261094 
663	 0.295498872717883 
664	 0.295750905236715 
665	 0.296148051046426 
666	 0.296538945446425 
667	 0.296776203520904 
668	 0.297153561171958 
669	 0.297553238907002 
670	 0.297917046092601 
671	 0.298248845332359 
672	 0.298589634471891 
673	 0.298958257141306 
674	 0.299346757450278 
675	 0.299694513575223 
676	 0.300058352204051 
677	 0.300411039427203 
678	 0.300715708348134 
679	 0.301132208226199 
680	 0.301542694946424 
681	 0.301894036185366 
682	 0.30224738079842 
683	 0.302688556277958 
684	 0.303133572406014 
685	 0.303497816959363 
686	 0.303868879445185 
687	 0.304273138313583 
688	 0.304700147496486 
689	 0.305113245394165 
690	 0.3055180263638 
691	 0.305892313345686 
692	 0.306252421424867 
693	 0.306706860506171 
694	 0.30709067375012 
695	 0.307468311015777 
696	 0.30794180238874 
697	 0.308317892036187 
698	 0.308729736113603 
699	 0.309187226031675 
700	 0.30955728022781 
701	 0.309978752772602 
702	 0.310444133427418 
703	 0.310895313653249 
704	 0.31121498875464 
705	 0.311576627826453 
706	 0.311992965912429 
707	 0.312393455933924 
708	 0.312800771228655 
709	 0.313206075853845 
710	 0.313594291845069 
711	 0.313946342362646 
712	 0.31426925194449 
713	 0.314601810353975 
714	 0.314979325119661 
715	 0.31539514796954 
716	 0.315781043146016 
717	 0.316116912631869 
718	 0.316428881351727 
719	 0.316824270211445 
720	 0.317180791526562 
721	 0.317431179936596 
722	 0.317672957850994 
723	 0.31796947746464 
724	 0.318268017459719 
725	 0.318504467969369 
726	 0.318799945496984 
727	 0.319075903399817 
728	 0.319317974373608 
729	 0.319576903620946 
730	 0.319811520038585 
731	 0.320002669998381 
732	 0.320160538168133 
733	 0.320354963276767 
734	 0.320538060607724 
735	 0.320692650922574 
736	 0.320820999661582 
737	 0.320963188061204 
738	 0.321104712158608 
739	 0.321226622918157 
740	 0.321312317221218 
741	 0.321435505318929 
742	 0.321526803269091 
743	 0.321542596442345 
744	 0.321596154832701 
745	 0.32161002481468 
746	 0.321605161898705 
747	 0.321637970963542 
748	 0.321668025590024 
749	 0.321647248198605 
750	 0.321593368951619 
751	 0.321600684820298 
752	 0.321583664148845 
753	 0.321461743145315 
754	 0.321253890368844 
755	 0.321262436840783 
756	 0.321253542187258 
757	 0.321146207456375 
758	 0.320965263348601 
759	 0.32085929095688 
760	 0.320802986704814 
761	 0.320728048030805 
762	 0.320540919483274 
763	 0.320425091108377 
764	 0.320278610109765 
765	 0.320031867331749 
766	 0.319916930191841 
767	 0.319785481529515 
768	 0.319605939551662 
769	 0.319410788602451 
770	 0.31922769561839 
771	 0.319066418599472 
772	 0.318899784163204 
773	 0.318663820822455 
774	 0.318469166144802 
775	 0.318256249489795 
776	 0.317979857982824 
777	 0.317732433546719 
778	 0.317547899175385 
779	 0.317409597604853 
780	 0.31726353411017 
781	 0.317018368904573 
782	 0.316777094404085 
783	 0.316574732476611 
784	 0.316358266095613 
785	 0.316129180628542 
786	 0.3158834455086 
787	 0.315629497168004 
788	 0.315401259635955 
789	 0.315215216255851 
790	 0.315016770507444 
791	 0.314757307696258 
792	 0.314582009508873 
793	 0.314328814538869 
794	 0.314034778744111 
795	 0.313893518059929 
796	 0.313605185640667 
797	 0.313355147050755 
798	 0.313235595439962 
799	 0.313031809855371 
800	 0.312822807787108 
801	 0.312614795818513 
802	 0.312400701837395 
803	 0.312191185177475 
804	 0.31201975703629 
805	 0.311845675536744 
806	 0.311600164057903 
807	 0.31139787787628 
808	 0.311212868258581 
809	 0.311020177135956 
810	 0.310817097140291 
811	 0.310606967581807 
812	 0.310386438112187 
813	 0.310178123843396 
814	 0.310082274495584 
815	 0.309993957157328 
816	 0.309835612112211 
817	 0.309579938319897 
818	 0.309364937878484 
819	 0.309273222252584 
820	 0.309212796243163 
821	 0.30897396493975 
822	 0.30876055441618 
823	 0.308555659682855 
824	 0.308370049571085 
825	 0.308311292615146 
826	 0.308265484033095 
827	 0.308147560645258 
828	 0.307934502896775 
829	 0.307759586714178 
830	 0.307561246820519 
831	 0.30739174570696 
832	 0.307330623285682 
833	 0.30729234863305 
834	 0.307162204336903 
835	 0.306963977805945 
836	 0.306846326244771 
837	 0.306785179806081 
838	 0.306731999119905 
839	 0.306641374593724 
840	 0.30648556638636 
841	 0.306306355084555 
842	 0.306175559086314 
843	 0.306126049667454 
844	 0.306055512476032 
845	 0.305981006156817 
846	 0.305893582031714 
847	 0.305793088660771 
848	 0.305785840146589 
849	 0.305745772054389 
850	 0.305670906687428 
851	 0.305657600317225 
852	 0.30552042034624 
853	 0.305398690320114 
854	 0.305375514921491 
855	 0.305384045623035 
856	 0.305378187611292 
857	 0.305364718364557 
858	 0.305360941938422 
859	 0.305373152259413 
860	 0.305365393862406 
861	 0.305298762011327 
862	 0.305175323586583 
863	 0.305149614967013 
864	 0.305174969944164 
865	 0.305210931961296 
866	 0.305229459556451 
867	 0.305248665835336 
868	 0.305202680732526 
869	 0.305129753715343 
870	 0.305163933283879 
871	 0.30517144892325 
872	 0.305233698009405 
873	 0.305360619368712 
874	 0.305398038646531 
875	 0.305449828557753 
876	 0.305462994395467 
877	 0.305414044610485 
878	 0.305455732595426 
879	 0.305456451959782 
880	 0.305490568111601 
881	 0.305640638976634 
882	 0.305722997838507 
883	 0.305806014265396 
884	 0.305888513126384 
885	 0.30594292000995 
886	 0.306039628349424 
887	 0.306164970294526 
888	 0.306269848313485 
889	 0.306299978411591 
890	 0.306377343784701 
891	 0.306514011525159 
892	 0.306662151081304 
893	 0.306731503110197 
894	 0.306872976498296 
895	 0.307021713422132 
896	 0.307122815533736 
897	 0.307215249337918 
898	 0.307431372898976 
899	 0.307620235304122 
900	 0.307681307173444 
901	 0.307854558439682 
902	 0.308029619513518 
903	 0.308161431081839 
904	 0.308251868658105 
905	 0.308384641149789 
906	 0.308605021877594 
907	 0.308874983973711 
908	 0.309128144424045 
909	 0.309403063598987 
910	 0.309616383702289 
911	 0.309725807508563 
912	 0.309757419981682 
913	 0.309922480836159 
914	 0.310172734900324 
915	 0.310436252861523 
916	 0.310656754907924 
917	 0.310904650092662 
918	 0.311130207632774 
919	 0.311317396768499 
920	 0.311511105754012 
921	 0.311835858395234 
922	 0.312137329515128 
923	 0.31234491019114 
924	 0.312581413548787 
925	 0.312823758486922 
926	 0.313099237383218 
927	 0.313389420585796 
928	 0.313582309082666 
929	 0.313876822935483 
930	 0.31424714242774 
931	 0.314603374345654 
932	 0.314859213768659 
933	 0.315129696331079 
934	 0.31543840838977 
935	 0.315788839354483 
936	 0.316235505156125 
937	 0.316466355602364 
938	 0.316624379883497 
939	 0.316930883649533 
940	 0.317285078656064 
941	 0.317612784915967 
942	 0.318012058709747 
943	 0.31855227182614 
944	 0.318923914769771 
945	 0.319192105596797 
946	 0.319437728511269 
947	 0.319728993658904 
948	 0.320039111439679 
949	 0.320403671596848 
950	 0.320793793515844 
951	 0.321179242540254 
952	 0.321711199736695 
953	 0.322097300147243 
954	 0.322403361603725 
955	 0.322854227043873 
956	 0.323273542433493 
957	 0.323709267211073 
958	 0.324102838591218 
959	 0.324372924366967 
960	 0.324693006915242 
961	 0.325108700956359 
962	 0.325600173561207 
963	 0.326098352937776 
964	 0.326518524422616 
965	 0.326961128100143 
966	 0.327404302436568 
967	 0.327767261468303 
968	 0.328186850274378 
969	 0.328620600262815 
970	 0.329057745158224 
971	 0.329526474072642 
972	 0.330109853435098 
973	 0.330688954508124 
974	 0.331130326009675 
975	 0.331395394713502 
976	 0.331919232768852 
977	 0.33238503733835 
978	 0.332858017524187 
979	 0.333586310120499 
980	 0.334203050232042 
981	 0.334618234020659 
982	 0.334911573510437 
983	 0.335242944616252 
984	 0.335607912848681 
985	 0.33602111569602 
986	 0.336512982562086 
987	 0.337108394062519 
988	 0.337819012937243 
989	 0.338178496331638 
990	 0.338426290754138 
991	 0.339020763095252 
992	 0.339573463812875 
993	 0.339967612004271 
994	 0.340427926147912 
995	 0.341133288275291 
996	 0.341450398714654 
997	 0.341812789137037 
998	 0.342189798072114 
999	 0.342487528121284 
1000	 0.343092102922726 
1001	 0.336640682699922 
1002	 0.336957574500419 
1003	 0.337329203366256 
1004	 0.337752134858635 
1005	 0.338336667802805 
1006	 0.338779228417267 
1007	 0.339203329420819 
1008	 0.339556654722856 
1009	 0.339862357179688 
1010	 0.340178762342368 
1011	 0.340575428135216 
1012	 0.34098986757806 
1013	 0.341341057891604 
1014	 0.341640724752669 
1015	 0.341916913452081 
1016	 0.342225964740765 
1017	 0.342595376096001 
1018	 0.343044143146375 
1019	 0.343437717124168 
1020	 0.343797986778486 
1021	 0.344114932190948 
1022	 0.344313581250986 
1023	 0.344579437568409 
1024	 0.344860688793212 
1025	 0.345167870238307 
1026	 0.345554526140264 
1027	 0.3458728119508 
1028	 0.346212952607162 
1029	 0.346552549088849 
1030	 0.346789545022201 
1031	 0.347066668709056 
1032	 0.347349517231313 
1033	 0.347661279772589 
1034	 0.347950122356307 
1035	 0.34824907794714 
1036	 0.348542984938159 
1037	 0.348813784632618 
1038	 0.34907981286115 
1039	 0.349388189957419 
1040	 0.349738866738092 
1041	 0.350042382774211 
1042	 0.350335517840377 
1043	 0.350660739750719 
1044	 0.350974385073444 
1045	 0.351272959246337 
1046	 0.351593295779341 
1047	 0.351897681931555 
1048	 0.352181212982163 
1049	 0.352500547543746 
1050	 0.352836341471542 
1051	 0.353216741725054 
1052	 0.353589103517197 
1053	 0.353888459186897 
1054	 0.354192017603059 
1055	 0.354491958224992 
1056	 0.35478547773819 
1057	 0.355089206090429 
1058	 0.355426770106235 
1059	 0.355718937411932 
1060	 0.355979150120257 
1061	 0.356265646382454 
1062	 0.356546189097434 
1063	 0.356807263777876 
1064	 0.357116233270462 
1065	 0.357403874781539 
1066	 0.357652980141124 
1067	 0.357930199579767 
1068	 0.358172045035019 
1069	 0.35840356077765 
1070	 0.3586439300619 
1071	 0.358865165107079 
1072	 0.359135531278405 
1073	 0.35945611940799 
1074	 0.359715988829832 
1075	 0.359971487775103 
1076	 0.360247981699619 
1077	 0.360479372046553 
1078	 0.360597540995749 
1079	 0.36074035571986 
1080	 0.360929555101001 
1081	 0.361051919752857 
1082	 0.361250719792655 
1083	 0.361440448806554 
1084	 0.361648303049246 
1085	 0.361823960526461 
1086	 0.361990265366465 
1087	 0.362165095339512 
1088	 0.362334540377352 
1089	 0.362519352274021 
1090	 0.362688614928506 
1091	 0.36283800660121 
1092	 0.363004495460624 
1093	 0.363163603321302 
1094	 0.363337527557682 
1095	 0.363538319208685 
1096	 0.363703819588838 
1097	 0.363834800090371 
1098	 0.363987301234107 
1099	 0.364140373206905 
1100	 0.364284998467485 
1101	 0.364430254825486 
1102	 0.364575933416563 
1103	 0.364724695306346 
1104	 0.364843123458738 
1105	 0.364954754834329 
1106	 0.365103126207738 
1107	 0.365247421483778 
1108	 0.365406578723793 
1109	 0.365579783397204 
1110	 0.365757020792663 
1111	 0.36592184403369 
1112	 0.366073688011201 
1113	 0.366225519414075 
1114	 0.366374381618219 
1115	 0.366524595094698 
1116	 0.36666272191799 
1117	 0.366825968785284 
1118	 0.366999055026688 
1119	 0.367168721496753 
1120	 0.367399384582827 
1121	 0.367594091489293 
1122	 0.36773704921758 
1123	 0.367923000702397 
1124	 0.368103232089589 
1125	 0.368264016620368 
1126	 0.368429427118195 
1127	 0.368613071446807 
1128	 0.36878514868963 
1129	 0.368939519951947 
1130	 0.369106097792719 
1131	 0.369301666382004 
1132	 0.369463222057486 
1133	 0.369574442652439 
1134	 0.369729128610114 
1135	 0.369891420722136 
1136	 0.370067117538852 
1137	 0.370252904130969 
1138	 0.370452357093699 
1139	 0.370625769362433 
1140	 0.370770568305918 
1141	 0.370938391096198 
1142	 0.371121141716717 
1143	 0.37127745531225 
1144	 0.371432193656963 
1145	 0.371572472303147 
1146	 0.371694162278401 
1147	 0.371812100682023 
1148	 0.371909092726478 
1149	 0.372023567153096 
1150	 0.372133570720453 
1151	 0.372256507363892 
1152	 0.372386890150395 
1153	 0.37253167646421 
1154	 0.372656073898748 
1155	 0.372763773034924 
1156	 0.372892561205099 
1157	 0.373023494316051 
1158	 0.373155584835886 
1159	 0.373314213297682 
1160	 0.373441330102135 
1161	 0.373546801296427 
1162	 0.373659054385474 
1163	 0.373762542076462 
1164	 0.373866967836083 
1165	 0.373959129496984 
1166	 0.374075442968839 
1167	 0.374204869046429 
1168	 0.37431755707763 
1169	 0.374446653913627 
1170	 0.374602074320089 
1171	 0.37472627208953 
1172	 0.374843424664797 
1173	 0.374952634620259 
1174	 0.375040547124163 
1175	 0.375145011609968 
1176	 0.375256441814847 
1177	 0.375356761417272 
1178	 0.375461949510006 
1179	 0.375558306451248 
1180	 0.375640593257746 
1181	 0.375722918185099 
1182	 0.375787360128154 
1183	 0.375880150712242 
1184	 0.375970845138661 
1185	 0.376061247387074 
1186	 0.37615801117263 
1187	 0.376265249604315 
1188	 0.376372150922293 
1189	 0.376485361050017 
1190	 0.376589950596417 
1191	 0.376695633531022 
1192	 0.376801456982183 
1193	 0.376899642544268 
1194	 0.377000241134677 
1195	 0.377117744240771 
1196	 0.377213001703238 
1197	 0.377279895922816 
1198	 0.377367423836933 
1199	 0.377458485048015 
1200	 0.377551752975997 
1201	 0.377629508002326 
1202	 0.377709954216614 
1203	 0.377793255554943 
1204	 0.377846592752948 
1205	 0.37794175063915 
1206	 0.378075514983415 
1207	 0.378187248918875 
1208	 0.378316488676671 
1209	 0.378418496599126 
1210	 0.378512800106172 
1211	 0.378587452089738 
1212	 0.378616524616216 
1213	 0.378679545955948 
1214	 0.378738094507364 
1215	 0.378810881705541 
1216	 0.378898425003691 
1217	 0.379027998656296 
1218	 0.379104563996727 
1219	 0.379160766543117 
1220	 0.379234115741668 
1221	 0.379288795559654 
1222	 0.379362111305448 
1223	 0.379466299121084 
1224	 0.379542821276102 
1225	 0.379600704569816 
1226	 0.379670897409785 
1227	 0.37974358553217 
1228	 0.379809136123117 
1229	 0.379874796535343 
1230	 0.379942015099454 
1231	 0.379997995421699 
1232	 0.380061619485039 
1233	 0.380130049779519 
1234	 0.380209433815795 
1235	 0.380279414553727 
1236	 0.380350961330801 
1237	 0.380415678625328 
1238	 0.38047499593534 
1239	 0.380534936605174 
1240	 0.380586055797888 
1241	 0.380648117589893 
1242	 0.380724469818479 
1243	 0.380782921392289 
1244	 0.380826306153631 
1245	 0.380889850441168 
1246	 0.380956987507319 
1247	 0.381018267832498 
1248	 0.381091884922404 
1249	 0.381169157705829 
1250	 0.38121533677645 
1251	 0.381263007277506 
1252	 0.381309650528396 
1253	 0.381347606831971 
1254	 0.381401819299362 
1255	 0.381467118390359 
1256	 0.381517810131719 
1257	 0.381583571077284 
1258	 0.381621314561158 
1259	 0.381626805383703 
1260	 0.381651086488914 
1261	 0.381664756565516 
1262	 0.381691848556856 
1263	 0.38171807341691 
1264	 0.381768261144273 
1265	 0.381847939310925 
1266	 0.381914599562338 
1267	 0.381998107890789 
1268	 0.382076067222438 
1269	 0.382135466502415 
1270	 0.382171799617251 
1271	 0.382218626683225 
1272	 0.382259181716513 
1273	 0.382306471991995 
1274	 0.382344905487365 
1275	 0.382408168283606 
1276	 0.382469620317543 
1277	 0.382567156158295 
1278	 0.382708961791117 
1279	 0.382829552580162 
1280	 0.382978263818112 
1281	 0.383099404466973 
1282	 0.383183561322783 
1283	 0.38329188760876 
1284	 0.383418474876034 
1285	 0.383519232651602 
1286	 0.383612904243825 
1287	 0.383730848338455 
1288	 0.383838746385791 
1289	 0.383938073228775 
1290	 0.38402979837997 
1291	 0.38412774653092 
1292	 0.384216386457393 
1293	 0.384297427398152 
1294	 0.384355141599509 
1295	 0.384406551235144 
1296	 0.384445621284232 
1297	 0.384452675176231 
1298	 0.384469627153788 
1299	 0.38449485741091 
1300	 0.384504828165224 
1301	 0.384495198334065 
1302	 0.384489357212337 
1303	 0.384489984012843 
1304	 0.384470729974213 
1305	 0.384434582850976 
1306	 0.384417917340879 
1307	 0.384377984306362 
1308	 0.38433176202887 
1309	 0.384280583752883 
1310	 0.38422732048525 
1311	 0.384163497061993 
1312	 0.384079937900502 
1313	 0.38401970104473 
1314	 0.383972847139908 
1315	 0.383907436372422 
1316	 0.383842842413397 
1317	 0.383777777832557 
1318	 0.383683470443093 
1319	 0.383620812280492 
1320	 0.383595546868294 
1321	 0.383543492855003 
1322	 0.383480617808431 
1323	 0.383439283287635 
1324	 0.383377832167267 
1325	 0.383292565989964 
1326	 0.383232047376927 
1327	 0.38318314270496 
1328	 0.383133968451063 
1329	 0.38309494179143 
1330	 0.383050882012383 
1331	 0.383010281825559 
1332	 0.382960236256729 
1333	 0.382916840555151 
1334	 0.382848518413979 
1335	 0.382739329955949 
1336	 0.382683681424272 
1337	 0.382635038152748 
1338	 0.382597493829189 
1339	 0.382616438661256 
1340	 0.382591872359651 
1341	 0.382547997080586 
1342	 0.382500057595495 
1343	 0.382437428013812 
1344	 0.382370078895563 
1345	 0.382309437724769 
1346	 0.382252723127447 
1347	 0.382213667334171 
1348	 0.382185919393848 
1349	 0.382126187419797 
1350	 0.382076455546695 
1351	 0.382027763958503 
1352	 0.381962738545087 
1353	 0.381912441486613 
1354	 0.381886345659646 
1355	 0.381832360482601 
1356	 0.381765556321913 
1357	 0.38170292173811 
1358	 0.381626261342746 
1359	 0.381565907435891 
1360	 0.38150687916454 
1361	 0.381457237887506 
1362	 0.381429010985728 
1363	 0.381385383844236 
1364	 0.381326369609759 
1365	 0.381290362833298 
1366	 0.381254270960734 
1367	 0.381230119491025 
1368	 0.38123969141091 
1369	 0.381255432041348 
1370	 0.381225411159159 
1371	 0.381169290453746 
1372	 0.381086357605323 
1373	 0.380985094888783 
1374	 0.38089917603243 
1375	 0.380834385853182 
1376	 0.38072044907549 
1377	 0.380601626143762 
1378	 0.380440830257025 
1379	 0.380217846278139 
1380	 0.380030789079999 
1381	 0.379831879311614 
1382	 0.379638945407118 
1383	 0.379486017429734 
1384	 0.379277583273694 
1385	 0.379067621250466 
1386	 0.378801614773532 
1387	 0.378495656776856 
1388	 0.378152199221276 
1389	 0.377773604579332 
1390	 0.377341825208785 
1391	 0.376887504218723 
1392	 0.376396023733066 
1393	 0.37583759458361 
1394	 0.37524243682482 
1395	 0.374614885855523 
1396	 0.373968544938082 
1397	 0.373339242816905 
1398	 0.372709628223594 
1399	 0.372085362970768 
1400	 0.371456212875247 
1401	 0.370844753652681 
1402	 0.370222262964739 
1403	 0.369653859317275 
1404	 0.369095362069571 
1405	 0.36859898259225 
1406	 0.368154974222662 
1407	 0.367734638304769 
1408	 0.367331428924814 
1409	 0.367008067965792 
1410	 0.366677297433696 
1411	 0.366495377529254 
1412	 0.36640771186453 
1413	 0.366415364570278 
1414	 0.366572754129779 
1415	 0.366824974561688 
1416	 0.367156969933622 
1417	 0.367570660943206 
1418	 0.36797738809592 
1419	 0.368387086417128 
1420	 0.368815421891803 
1421	 0.369195564486158 
1422	 0.369546042840041 
1423	 0.369868203320766 
1424	 0.370099068993219 
1425	 0.370240808016859 
1426	 0.37037689439238 
1427	 0.370431181502775 
1428	 0.370524889949604 
1429	 0.37062304090427 
1430	 0.370690243511484 
1431	 0.370758582012579 
1432	 0.37079521872808 
1433	 0.370780738955877 
1434	 0.3707921155993 
1435	 0.370783824946461 
1436	 0.370803801420048 
1437	 0.370852707418466 
1438	 0.37088474712269 
1439	 0.370926849609295 
1440	 0.370966982512 
1441	 0.37096650062287 
1442	 0.370958817198531 
1443	 0.370931566268387 
1444	 0.370902281564282 
1445	 0.370884946584154 
1446	 0.370871082191814 
1447	 0.370876035293179 
1448	 0.370857952589744 
1449	 0.370823179862276 
1450	 0.370792758697835 
1451	 0.370759239628782 
1452	 0.370711217803618 
1453	 0.37068186084981 
1454	 0.370664933945191 
1455	 0.37063360117346 
1456	 0.370607281814873 
1457	 0.370572032233571 
1458	 0.370523306783567 
1459	 0.37048078078125 
1460	 0.370436480471604 
1461	 0.370393486372518 
1462	 0.37034496651802 
1463	 0.370311407009408 
1464	 0.37029151998945 
1465	 0.37025788301417 
1466	 0.370210208766097 
1467	 0.37019399602229 
1468	 0.370171076040634 
1469	 0.370180280092364 
1470	 0.370225640307606 
1471	 0.370285081492965 
1472	 0.370353446721955 
1473	 0.370430781607053 
1474	 0.370495045128345 
1475	 0.370561215797649 
1476	 0.370609131920978 
1477	 0.37064379469136 
1478	 0.370702835115003 
1479	 0.370775253757032 
1480	 0.370860815071928 
1481	 0.370957949142192 
1482	 0.371051619881808 
1483	 0.371158923624975 
1484	 0.371238496172628 
1485	 0.371298002253086 
1486	 0.371380770476513 
1487	 0.371454597665952 
1488	 0.371541064677737 
1489	 0.371664541814327 
1490	 0.371752192090963 
1491	 0.37182902786783 
1492	 0.371890090365744 
1493	 0.371922781631092 
1494	 0.371966406974747 
1495	 0.371999876412863 
1496	 0.372041354279355 
1497	 0.372094322192362 
1498	 0.372140386225096 
1499	 0.372180964107456 
1500	 0.372224114304413 
1501	 0.372259525596399 
1502	 0.372305924302104 
1503	 0.372351128099288 
1504	 0.372420369000323 
1505	 0.372490224029577 
1506	 0.372555871864953 
1507	 0.372642273187114 
1508	 0.372708061357753 
1509	 0.37274604693993 
1510	 0.372793265653899 
1511	 0.372806778051559 
1512	 0.372791174566091 
1513	 0.372812767619324 
1514	 0.3728482371606 
1515	 0.372864782264402 
1516	 0.372917035694716 
1517	 0.372961355862839 
1518	 0.372994511188087 
1519	 0.373043589347214 
1520	 0.373116634400826 
1521	 0.373164623700417 
1522	 0.373207733929403 
1523	 0.373246181425107 
1524	 0.373275949000471 
1525	 0.373303439046247 
1526	 0.373324148600729 
1527	 0.373354878028977 
1528	 0.373377264221593 
1529	 0.373414828039488 
1530	 0.373478338002858 
1531	 0.37351332240688 
1532	 0.373540019837015 
1533	 0.373567707556083 
1534	 0.373584243803139 
1535	 0.37359629753269 
1536	 0.373607342665122 
1537	 0.373620082891899 
1538	 0.373623340327299 
1539	 0.373629327234275 
1540	 0.373633086216029 
1541	 0.37364914069896 
1542	 0.373673418470797 
1543	 0.373691466329537 
1544	 0.373729125113916 
1545	 0.373746856051586 
1546	 0.373746732009753 
1547	 0.373744385182521 
1548	 0.373743020138724 
1549	 0.373723554833399 
1550	 0.373712098795157 
1551	 0.373710174476244 
1552	 0.373690411184699 
1553	 0.373694021479636 
1554	 0.373730864442218 
1555	 0.373741708900287 
1556	 0.373747410253795 
1557	 0.373763388815546 
1558	 0.3737637213542 
1559	 0.373767317194916 
1560	 0.373782068647683 
1561	 0.373826352289349 
1562	 0.373834755794638 
1563	 0.37382634516636 
1564	 0.373825558885102 
1565	 0.373815365983853 
1566	 0.373806902800351 
1567	 0.373795747354801 
1568	 0.373803536091203 
1569	 0.373810737255633 
1570	 0.37382864505036 
1571	 0.373881033011569 
1572	 0.373894380939419 
1573	 0.373899660210509 
1574	 0.373891532805247 
1575	 0.373847989535108 
1576	 0.373833461631797 
1577	 0.373823830933139 
1578	 0.373810599591081 
1579	 0.373801794438058 
1580	 0.373805835808535 
1581	 0.373803476825199 
1582	 0.373821190457675 
1583	 0.373883444744683 
1584	 0.373903024243262 
1585	 0.373905643896422 
1586	 0.373913206482432 
1587	 0.373912629992305 
1588	 0.373898253043258 
1589	 0.373875829749392 
1590	 0.373857610768248 
1591	 0.373812541180879 
1592	 0.373789107668735 
1593	 0.373786013068311 
1594	 0.373783525815842 
1595	 0.373784977217346 
1596	 0.373793146739299 
1597	 0.373815358937118 
1598	 0.373827723739156 
1599	 0.373856998792477 
1600	 0.373854012873444 
1601	 0.373816792848949 
1602	 0.373798087007625 
1603	 0.37375396695272 
1604	 0.37373551397881 
1605	 0.373739014469348 
1606	 0.373752519836929 
1607	 0.373784423916013 
1608	 0.373818680295419 
1609	 0.373863861997456 
1610	 0.373901323240671 
1611	 0.373877418902145 
1612	 0.373850699798789 
1613	 0.373808987075643 
1614	 0.373735407372461 
1615	 0.373704297379198 
1616	 0.373688952160618 
1617	 0.373672717905596 
1618	 0.373677666736693 
1619	 0.373674501479065 
1620	 0.3736505144809 
1621	 0.373622528894584 
1622	 0.373585233721184 
1623	 0.373538439666488 
1624	 0.373478328147429 
1625	 0.373427534425047 
1626	 0.37336353841507 
1627	 0.373324397255227 
1628	 0.373293353276855 
1629	 0.373282531637483 
1630	 0.373292509312982 
1631	 0.373296459898993 
1632	 0.373313210882909 
1633	 0.373329071437146 
1634	 0.373353719555748 
1635	 0.373350670749818 
1636	 0.373343647834431 
1637	 0.373329180996116 
1638	 0.37328358626039 
1639	 0.373265937006204 
1640	 0.373250031816787 
1641	 0.373264171723345 
1642	 0.373300732332308 
1643	 0.373326563348808 
1644	 0.373392263954838 
1645	 0.373396742739857 
1646	 0.373362371988675 
1647	 0.373340060099516 
1648	 0.373290265485247 
1649	 0.373261208194282 
1650	 0.373239268250778 
1651	 0.373223826946287 
1652	 0.373215290062722 
1653	 0.373204768984983 
1654	 0.373202428078756 
1655	 0.373195101498394 
1656	 0.373189564122506 
1657	 0.373170232461919 
1658	 0.373150357456272 
1659	 0.373116742637444 
1660	 0.373065058116081 
1661	 0.373015824588845 
1662	 0.372955636150782 
1663	 0.372906594566127 
1664	 0.372848043045134 
1665	 0.372816326889325 
1666	 0.372808682342143 
1667	 0.372788728759293 
1668	 0.372782430604847 
1669	 0.372764092455083 
1670	 0.372737263524434 
1671	 0.372706824307155 
1672	 0.372664055892936 
1673	 0.372642434642789 
1674	 0.372614575220929 
1675	 0.372612907053883 
1676	 0.372655412923072 
1677	 0.37265740504845 
1678	 0.372655184870164 
1679	 0.372642722751506 
1680	 0.372600047303184 
1681	 0.372577375868071 
1682	 0.372561506108965 
1683	 0.372546424781383 
1684	 0.372529599269705 
1685	 0.372525321606218 
1686	 0.372547415283713 
1687	 0.372527803115697 
1688	 0.372487581981047 
1689	 0.372462735471169 
1690	 0.372415944171555 
1691	 0.37238553856569 
1692	 0.372376145850776 
1693	 0.37236395486071 
1694	 0.372349155035165 
1695	 0.372331280514477 
1696	 0.372319442587027 
1697	 0.372312197793921 
1698	 0.372298295448435 
1699	 0.372291644513631 
1700	 0.3723084501936 
1701	 0.372296353457601 
1702	 0.372270351813713 
1703	 0.372239299461218 
1704	 0.372188484177812 
1705	 0.372151737335716 
1706	 0.372120394352036 
1707	 0.372078140109784 
1708	 0.372028182746231 
1709	 0.371995068857911 
1710	 0.371966763722334 
1711	 0.371930803942119 
1712	 0.371907740195788 
1713	 0.371869374218767 
1714	 0.371805195481359 
1715	 0.371765569259179 
1716	 0.371740060626429 
1717	 0.371708268361364 
1718	 0.371682798526504 
1719	 0.37164719702285 
1720	 0.371597172786648 
1721	 0.371570285768014 
1722	 0.37155559483733 
1723	 0.371531478422344 
1724	 0.371521719596242 
1725	 0.371489398123145 
1726	 0.371442938208556 
1727	 0.371390751158272 
1728	 0.371325629142551 
1729	 0.371271158226418 
1730	 0.371215297709261 
1731	 0.371146460559225 
1732	 0.371082296020189 
1733	 0.371007356095885 
1734	 0.370903591719296 
1735	 0.370827392975905 
1736	 0.370769743669205 
1737	 0.370692325038858 
1738	 0.37061032089013 
1739	 0.370542649982423 
1740	 0.370461493541062 
1741	 0.370409441141072 
1742	 0.370396512089318 
1743	 0.370342276018958 
1744	 0.370294221615633 
1745	 0.370204174112171 
1746	 0.370063367078694 
1747	 0.369952958598495 
1748	 0.369852590177104 
1749	 0.369779039703219 
1750	 0.369745587667223 
1751	 0.369701637653259 
1752	 0.369643680239257 
1753	 0.369578130478772 
1754	 0.369476786171931 
1755	 0.369356223396713 
1756	 0.369244628001221 
1757	 0.369147282491402 
1758	 0.36906813850273 
1759	 0.369006913783972 
1760	 0.368972927690281 
1761	 0.368962405860075 
1762	 0.368927350530224 
1763	 0.368874223581483 
1764	 0.36879880057127 
1765	 0.368679225059375 
1766	 0.368569646246407 
1767	 0.36846052183517 
1768	 0.368359965607735 
1769	 0.368287100614762 
1770	 0.36822823915193 
1771	 0.368208563010105 
1772	 0.368184311030674 
1773	 0.368135718722742 
1774	 0.368089807294963 
1775	 0.368049719164443 
1776	 0.36799978596494 
1777	 0.367960575389813 
1778	 0.367913758715139 
1779	 0.367812478322364 
1780	 0.367726096143801 
1781	 0.367629894686097 
1782	 0.367541359890395 
1783	 0.367498048978998 
1784	 0.367464601896883 
1785	 0.36748066430301 
1786	 0.367471721017931 
1787	 0.367460784667659 
1788	 0.367444983872078 
1789	 0.36742392563885 
1790	 0.367392990834462 
1791	 0.367359108379459 
1792	 0.367310550122476 
1793	 0.367226807967163 
1794	 0.367191141275956 
1795	 0.36716331520186 
1796	 0.367149869049331 
1797	 0.367186418215333 
1798	 0.367174149971799 
1799	 0.367151108441683 
1800	 0.367131440690833 
1801	 0.366970812291048 
1802	 0.367191987578623 
1803	 0.367442338725034 
1804	 0.36771064219551 
1805	 0.367995332446259 
1806	 0.368272721811802 
1807	 0.368491430809999 
1808	 0.368696348144308 
1809	 0.368909212354521 
1810	 0.369051740554737 
1811	 0.369134416141423 
1812	 0.369232107764927 
1813	 0.369287215516266 
1814	 0.369260215573552 
1815	 0.369210578227719 
1816	 0.369190719404205 
1817	 0.36916556502526 
1818	 0.369111723260888 
1819	 0.369095002742818 
1820	 0.369111478036028 
1821	 0.369095559676387 
1822	 0.369107959885771 
1823	 0.369105968756364 
1824	 0.3690979396768 
1825	 0.369079169322226 
1826	 0.369021497253101 
1827	 0.369006989646229 
1828	 0.368972341118748 
1829	 0.368941806529079 
1830	 0.368877338008246 
1831	 0.368799600081652 
1832	 0.36870398057683 
1833	 0.368577516614102 
1834	 0.368479740966287 
1835	 0.36841885895851 
1836	 0.368353622936146 
1837	 0.368330924563803 
1838	 0.368311939362265 
1839	 0.368288187757056 
1840	 0.368275698563818 
1841	 0.368256413083115 
1842	 0.368207601580872 
1843	 0.36817316374449 
1844	 0.36812314364865 
1845	 0.368049155148179 
1846	 0.367989144125131 
1847	 0.367959239492235 
1848	 0.367949668532641 
1849	 0.367946548120187 
1850	 0.367947994624121 
1851	 0.367957458742304 
1852	 0.36797794757044 
1853	 0.368029066028419 
1854	 0.368064052087181 
1855	 0.368072622572224 
1856	 0.368020261278406 
1857	 0.367927951215244 
1858	 0.367850506442782 
1859	 0.367761517900719 
1860	 0.367670522898131 
1861	 0.367595913212794 
1862	 0.367484372124292 
1863	 0.367343187027904 
1864	 0.367227791714563 
1865	 0.367092025758207 
1866	 0.366927669201039 
1867	 0.366776407626935 
1868	 0.366628406612613 
1869	 0.366452842243133 
1870	 0.366265801376945 
1871	 0.366058349310495 
1872	 0.36582540993122 
1873	 0.36556936896016 
1874	 0.365316037515382 
1875	 0.365056165385021 
1876	 0.364783619405441 
1877	 0.364476952563724 
1878	 0.364110163435443 
1879	 0.363707191542422 
1880	 0.363234099989295 
1881	 0.362702027750464 
1882	 0.362097024816226 
1883	 0.361437249540896 
1884	 0.360688992033601 
1885	 0.359869887709865 
1886	 0.359012813301934 
1887	 0.358087073275119 
1888	 0.357119293534878 
1889	 0.356108933162662 
1890	 0.355048975525638 
1891	 0.353969807000888 
1892	 0.352836770312741 
1893	 0.351695640573159 
1894	 0.350518518654327 
1895	 0.34935722423066 
1896	 0.348177974732986 
1897	 0.347029460940324 
1898	 0.345910576980749 
1899	 0.344805975949515 
1900	 0.343739300241497 
1901	 0.3427422667802 
1902	 0.341810386562577 
1903	 0.340960090155937 
1904	 0.340145197189019 
1905	 0.339391982208443 
1906	 0.338672633709629 
1907	 0.338010372937358 
1908	 0.337378989254077 
1909	 0.336756667656827 
1910	 0.336177904780281 
1911	 0.335641132339887 
1912	 0.3350906665643 
1913	 0.334591362158072 
1914	 0.334156601247095 
1915	 0.333720263479505 
1916	 0.333289830242178 
1917	 0.332899578302006 
1918	 0.332548951032529 
1919	 0.33219869059643 
1920	 0.331878998593628 
1921	 0.331596099433344 
1922	 0.33134152593939 
1923	 0.331101273442668 
1924	 0.33090277725595 
1925	 0.330766092420002 
1926	 0.330625065954892 
1927	 0.33049428324828 
1928	 0.330391622987845 
1929	 0.330333326703165 
1930	 0.330267272331784 
1931	 0.330239706440632 
1932	 0.330231530138589 
1933	 0.330215441385845 
1934	 0.330194546209557 
1935	 0.330183409335733 
1936	 0.330155750306406 
1937	 0.330186477869662 
1938	 0.330239864796537 
1939	 0.330311452888687 
1940	 0.330428369031292 
1941	 0.330556149243371 
1942	 0.330662633721837 
1943	 0.330786903196039 
1944	 0.33091524609935 
1945	 0.331043370227618 
1946	 0.331186020006578 
1947	 0.331335658646008 
1948	 0.331499955848922 
1949	 0.331680385626372 
1950	 0.331860917996768 
1951	 0.332046630862359 
1952	 0.332257090977831 
1953	 0.332435965326573 
1954	 0.332634445136466 
1955	 0.332859231214997 
1956	 0.333062066887285 
1957	 0.333295371972859 
1958	 0.333566468835023 
1959	 0.333813865358886 
1960	 0.334070239917896 
1961	 0.334314523379937 
1962	 0.334534175611915 
1963	 0.334775822001123 
1964	 0.335015217802593 
1965	 0.335267911014202 
1966	 0.335538388995146 
1967	 0.335838738157596 
1968	 0.336124726882891 
1969	 0.336417792726473 
1970	 0.336706177890249 
1971	 0.336990508155279 
1972	 0.337276242329698 
1973	 0.337579776808418 
1974	 0.337854457444995 
1975	 0.338104550291997 
1976	 0.338366306185325 
1977	 0.338635754436473 
1978	 0.338912703464205 
1979	 0.339214692879044 
1980	 0.339527682517606 
1981	 0.339796087421144 
1982	 0.340016286661847 
1983	 0.340279374859955 
1984	 0.340526834807754 
1985	 0.340799924232247 
1986	 0.341123394646338 
1987	 0.341416549411369 
1988	 0.341703325152773 
1989	 0.341984559103071 
1990	 0.342263580733991 
1991	 0.342540793889674 
1992	 0.342811570263241 
1993	 0.343077375060661 
1994	 0.343348358926142 
1995	 0.343610278946889 
1996	 0.343882185155028 
1997	 0.344155462584741 
1998	 0.34444591274748 
1999	 0.344757190906073 
2000	 0.345053683095284 
2001	 0.345367887093176 
2002	 0.345656321414341 
2003	 0.34593891551092 
2004	 0.346222777133757 
2005	 0.346497918004007 
2006	 0.346776225211334 
2007	 0.347041893930903 
2008	 0.347286954897744 
2009	 0.347544062030147 
2010	 0.347805197076504 
2011	 0.348057694587196 
2012	 0.348318350056523 
2013	 0.348560064010619 
2014	 0.348777643432608 
2015	 0.34900438761061 
2016	 0.349233603857259 
2017	 0.349456063962135 
2018	 0.349702135749038 
2019	 0.349968122173445 
2020	 0.350230668208696 
2021	 0.350511140908805 
2022	 0.350776470047406 
2023	 0.351036923117114 
2024	 0.351299815528168 
2025	 0.351562195476861 
2026	 0.351817580901297 
2027	 0.352081407537294 
2028	 0.352324610550628 
2029	 0.352563980092574 
2030	 0.35279123351018 
2031	 0.353020489469466 
2032	 0.353236024474609 
2033	 0.353469207315386 
2034	 0.353724247360362 
2035	 0.353944852609055 
2036	 0.354166556689007 
2037	 0.354368448118461 
2038	 0.354536121270912 
2039	 0.354704533073363 
2040	 0.354866011099073 
2041	 0.355026463418718 
2042	 0.355157529753404 
2043	 0.355286744913125 
2044	 0.355438085876134 
2045	 0.355586043378489 
2046	 0.355754604438764 
2047	 0.355961885397017 
2048	 0.356139066640725 
2049	 0.356331531702944 
2050	 0.356482312322041 
2051	 0.356604879504536 
2052	 0.356720007205691 
2053	 0.356792190198522 
2054	 0.356884442385877 
2055	 0.356965391128438 
2056	 0.357069905392403 
2057	 0.357183487186021 
2058	 0.357316985913698 
2059	 0.35743592685008 
2060	 0.357572485020777 
2061	 0.357681037757172 
2062	 0.357761859861724 
2063	 0.357860810987573 
2064	 0.357954322234564 
2065	 0.35805405614874 
2066	 0.358174019368083 
2067	 0.358275199582595 
2068	 0.358368108490638 
2069	 0.358459907343922 
2070	 0.358538452131613 
2071	 0.358598131258841 
2072	 0.358679482455307 
2073	 0.358756974080696 
2074	 0.358845901760183 
2075	 0.358953720899324 
2076	 0.359049484801359 
2077	 0.359145707254416 
2078	 0.359237428935844 
2079	 0.3593138345426 
2080	 0.359410057538376 
2081	 0.359510276785311 
2082	 0.359619126072619 
2083	 0.3597443006133 
2084	 0.359870950386155 
2085	 0.360004833093452 
2086	 0.360165489830212 
2087	 0.360268743746324 
2088	 0.3603445545671 
2089	 0.360442855161504 
2090	 0.360521931204035 
2091	 0.360593989337808 
2092	 0.360686675463036 
2093	 0.360759999209214 
2094	 0.360782784390748 
2095	 0.360840892083466 
2096	 0.360917354095635 
2097	 0.361000362482004 
2098	 0.3611053481445 
2099	 0.361190516762869 
2100	 0.361289883109336 
2101	 0.361401663852043 
2102	 0.361500030638754 
2103	 0.361599850817234 
2104	 0.36168957602941 
2105	 0.361753451308839 
2106	 0.36185449851255 
2107	 0.361964795307441 
2108	 0.362081779742461 
2109	 0.362228107305346 
2110	 0.362365493664586 
2111	 0.362493984708208 
2112	 0.362632621070706 
2113	 0.362772620560649 
2114	 0.362936829336651 
2115	 0.36307893358327 
2116	 0.363216560823602 
2117	 0.363363754954191 
2118	 0.363511426810548 
2119	 0.363650806219989 
2120	 0.363806984309024 
2121	 0.36393208691956 
2122	 0.364024997067592 
2123	 0.364133693737815 
2124	 0.364239042897058 
2125	 0.364339863893552 
2126	 0.364463701006631 
2127	 0.364548680523246 
2128	 0.364610860015879 
2129	 0.364659854996956 
2130	 0.36468572182692 
2131	 0.364697051750476 
2132	 0.364690040343217 
2133	 0.364665695933911 
2134	 0.364634835923999 
2135	 0.364583187194859 
2136	 0.364526866514513 
2137	 0.36448416306179 
2138	 0.364389189557617 
2139	 0.364254462964538 
2140	 0.364123639944537 
2141	 0.363958720417842 
2142	 0.363797193303463 
2143	 0.363664306460708 
2144	 0.363477239574982 
2145	 0.363240562817339 
2146	 0.363013842576144 
2147	 0.362752043203023 
2148	 0.362494406428835 
2149	 0.362256238426965 
2150	 0.362044248707298 
2151	 0.361801948869996 
2152	 0.361561347192872 
2153	 0.361300633341527 
2154	 0.361032276830759 
2155	 0.360733474310464 
2156	 0.360449682378944 
2157	 0.360083999027611 
2158	 0.359639575491727 
2159	 0.359210978248075 
2160	 0.35872418477645 
2161	 0.358256349930541 
2162	 0.35779567279793 
2163	 0.357338873335293 
2164	 0.356873767464906 
2165	 0.356425607129426 
2166	 0.355953967761922 
2167	 0.355488655096823 
2168	 0.355000547465201 
2169	 0.354484660633527 
2170	 0.35397952068651 
2171	 0.35348307504274 
2172	 0.352956413984896 
2173	 0.352423632074806 
2174	 0.351863414048408 
2175	 0.351275192553887 
2176	 0.350677204002023 
2177	 0.350082182774744 
2178	 0.349433682533834 
2179	 0.348746966322981 
2180	 0.348044380102534 
2181	 0.347285949787922 
2182	 0.346532821081477 
2183	 0.345766093202718 
2184	 0.344995484454777 
2185	 0.344233209368042 
2186	 0.34344821520681 
2187	 0.342718174848075 
2188	 0.342006032221362 
2189	 0.34132195547797 
2190	 0.340670175289048 
2191	 0.340038041636402 
2192	 0.339398463586035 
2193	 0.338844697771265 
2194	 0.338341589036633 
2195	 0.337876254452843 
2196	 0.337473341525211 
2197	 0.337109090252052 
2198	 0.336783025341788 
2199	 0.336498032612301 
2200	 0.336274868828005 
2201	 0.336073216068037 
2202	 0.335878898731818 
2203	 0.335749810961921 
2204	 0.335685786189985 
2205	 0.335653384970384 
2206	 0.335732897952695 
2207	 0.335912372288138 
2208	 0.33612267766946 
2209	 0.336418005438504 
2210	 0.336739840801863 
2211	 0.337124801446917 
2212	 0.337511458668731 
2213	 0.337947589407759 
2214	 0.33838230130813 
2215	 0.338866614217916 
2216	 0.339284579235448 
2217	 0.339683944329886 
2218	 0.34007824980561 
2219	 0.340436472778847 
2220	 0.340779576787058 
2221	 0.341131614754168 
2222	 0.341469467081336 
2223	 0.341728225753121 
2224	 0.341947733500673 
2225	 0.342146836711925 
2226	 0.342313417217741 
2227	 0.34244127904584 
2228	 0.342515089876039 
2229	 0.342620354204089 
2230	 0.342700127953959 
2231	 0.342778048673207 
2232	 0.342901142411465 
2233	 0.342948213271619 
2234	 0.342932585975434 
2235	 0.342933278884777 
2236	 0.342895432354859 
2237	 0.342873224641664 
2238	 0.342860310706359 
2239	 0.342834808869143 
2240	 0.342821646962481 
2241	 0.342777104797936 
2242	 0.342712406833857 
2243	 0.342638346607207 
2244	 0.342553609124836 
2245	 0.342432651310852 
2246	 0.342308024382547 
2247	 0.342166030726501 
2248	 0.342020590054471 
2249	 0.341857095976597 
2250	 0.341693695412235 
2251	 0.341522303832584 
2252	 0.341361431817454 
2253	 0.341188742281034 
2254	 0.341031255133294 
2255	 0.340877480597516 
2256	 0.340751355669859 
2257	 0.340626665733322 
2258	 0.340544993569243 
2259	 0.340493515436104 
2260	 0.340464678044861 
2261	 0.340488336264515 
2262	 0.340494573058294 
2263	 0.340541813121019 
2264	 0.340541155243439 
2265	 0.340473392755886 
2266	 0.340467729644864 
2267	 0.340445568435368 
2268	 0.340480726100174 
2269	 0.340584953755363 
2270	 0.340713076162167 
2271	 0.340834824763053 
2272	 0.340953901001653 
2273	 0.34107587560822 
2274	 0.341165630220797 
2275	 0.341243108509461 
2276	 0.341300029416326 
2277	 0.34137577307546 
2278	 0.341424679068614 
2279	 0.341512576709122 
2280	 0.341626438749515 
2281	 0.341737764541711 
2282	 0.341866071463053 
2283	 0.341998982914215 
2284	 0.342142186205417 
2285	 0.342280551015042 
2286	 0.342443140076832 
2287	 0.342554895094102 
2288	 0.342634629703182 
2289	 0.342731946132364 
2290	 0.342803628394383 
2291	 0.342885568503512 
2292	 0.342991846689675 
2293	 0.343073012253419 
2294	 0.343134387633824 
2295	 0.343197595037071 
2296	 0.343256181602952 
2297	 0.34331253553589 
2298	 0.343366486279176 
2299	 0.343382710220249 
2300	 0.34342500611796 
2301	 0.343480652305839 
2302	 0.343452669437508 
2303	 0.343440423588655 
2304	 0.343407774816326 
2305	 0.343301013911538 
2306	 0.343239731824908 
2307	 0.343189548766883 
2308	 0.343168475117266 
2309	 0.343173353509818 
2310	 0.343142442466918 
2311	 0.3431404648401 
2312	 0.343087275695369 
2313	 0.342972018323571 
2314	 0.342892099661988 
2315	 0.342799487832904 
2316	 0.342729514799751 
2317	 0.342680855535858 
2318	 0.342615272124863 
2319	 0.342588493364463 
2320	 0.342511667100097 
2321	 0.34239921092659 
2322	 0.342266782556933 
2323	 0.342067368627815 
2324	 0.341909340045018 
2325	 0.341758493439826 
2326	 0.341621173949082 
2327	 0.341501576954007 
2328	 0.341392837002698 
2329	 0.341305575735047 
2330	 0.341229611202273 
2331	 0.341172508227866 
2332	 0.341165666804965 
2333	 0.341186068508332 
2334	 0.341166628170416 
2335	 0.34117230911188 
2336	 0.341174157380013 
2337	 0.34107883586202 
2338	 0.340987464103397 
2339	 0.340881705250723 
2340	 0.340702302741705 
2341	 0.340547736866997 
2342	 0.340428490259546 
2343	 0.340298583103878 
2344	 0.340186778836593 
2345	 0.340096777508715 
2346	 0.340054562407841 
2347	 0.339946153934151 
2348	 0.339838001235816 
2349	 0.339697085745802 
2350	 0.339492768109788 
2351	 0.339328960367155 
2352	 0.339148858876823 
2353	 0.339026482408996 
2354	 0.33895284620615 
2355	 0.338846270696402 
2356	 0.338744279719277 
2357	 0.338657564440367 
2358	 0.33853174765544 
2359	 0.338484315745189 
2360	 0.338553261896419 
2361	 0.338535709072603 
2362	 0.338507082007825 
2363	 0.338473170527225 
2364	 0.338391845147528 
2365	 0.33831762670744 
2366	 0.338289002644139 
2367	 0.3381790238275 
2368	 0.33798521923075 
2369	 0.337833211446838 
2370	 0.33764189927457 
2371	 0.337515141105615 
2372	 0.337387940907164 
2373	 0.337153582524007 
2374	 0.336956482189103 
2375	 0.336770928824302 
2376	 0.336580427143925 
2377	 0.336442142443642 
2378	 0.336212522579678 
2379	 0.335897927572128 
2380	 0.335591578746764 
2381	 0.335365571320602 
2382	 0.335233245453204 
2383	 0.335033697420246 
2384	 0.334814800943936 
2385	 0.334602911613034 
2386	 0.334283617356784 
2387	 0.333990567216464 
2388	 0.333781925629071 
2389	 0.333528261528279 
2390	 0.333246343557265 
2391	 0.332969950908967 
2392	 0.332695576804078 
2393	 0.332431130216266 
2394	 0.33213386159924 
2395	 0.33188399221118 
2396	 0.331683646019017 
2397	 0.331427517321487 
2398	 0.331133302620783 
2399	 0.330874844821534 
2400	 0.330538360313686 
2401	 0.330135043824103 
2402	 0.3298500619869 
2403	 0.329541867804808 
2404	 0.329190823474153 
2405	 0.328870489659327 
2406	 0.328537771326957 
2407	 0.328244034683005 
2408	 0.327938982693398 
2409	 0.327579581449184 
2410	 0.327218059182099 
2411	 0.326835332224419 
2412	 0.326443438202267 
2413	 0.326048892212149 
2414	 0.325627181351083 
2415	 0.32524359228434 
2416	 0.324885864034394 
2417	 0.324570750187243 
2418	 0.32423502216747 
2419	 0.323935646947556 
2420	 0.323556071492632 
2421	 0.323119395987969 
2422	 0.32274975904004 
2423	 0.322392357951417 
2424	 0.321991069526617 
2425	 0.321594014302926 
2426	 0.321158942531001 
2427	 0.320664430580276 
2428	 0.320186328480573 
2429	 0.319717733438588 
2430	 0.319271831687803 
2431	 0.318785093578476 
2432	 0.318380802939107 
2433	 0.318040643041141 
2434	 0.31771033385453 
2435	 0.31743296255988 
2436	 0.317150721454682 
2437	 0.316930002173445 
2438	 0.316605741224403 
2439	 0.316214852569256 
2440	 0.315777787186091 
2441	 0.315262786997899 
2442	 0.314845658868356 
2443	 0.314434543840531 
2444	 0.31409586869546 
2445	 0.313794715547159 
2446	 0.313501063089171 
2447	 0.313289447388831 
2448	 0.313033590748439 
2449	 0.312787055095307 
2450	 0.312514615919796 
2451	 0.312160748001533 
2452	 0.311842163928686 
2453	 0.311606781553462 
2454	 0.311333450763033 
2455	 0.311058925591485 
2456	 0.310764675710126 
2457	 0.31036141120233 
2458	 0.310036008363107 
2459	 0.309767873340088 
2460	 0.30949444364624 
2461	 0.309250310320887 
2462	 0.309043402140016 
2463	 0.308848553661869 
2464	 0.308565316623913 
2465	 0.308312147838898 
2466	 0.3080939576665 
2467	 0.307824442655242 
2468	 0.307634452317133 
2469	 0.307512104974661 
2470	 0.307108697413721 
2471	 0.306786598463622 
2472	 0.306480158256812 
2473	 0.306335610120946 
2474	 0.306162839376137 
2475	 0.305974566610041 
2476	 0.305669112052083 
2477	 0.305268859180574 
2478	 0.305123043177766 
2479	 0.304921572581311 
2480	 0.304562659348386 
2481	 0.30431307816443 
2482	 0.304098132849165 
2483	 0.303718775237444 
2484	 0.303368230629798 
2485	 0.303050347454314 
2486	 0.302487825909543 
2487	 0.302153736668392 
2488	 0.302023534048317 
2489	 0.30175242453156 
2490	 0.301703344454408 
2491	 0.301601549127866 
2492	 0.301219830635458 
2493	 0.300923517154835 
2494	 0.300668510567845 
2495	 0.300284364888942 
2496	 0.300058418957008 
2497	 0.300096698533029 
2498	 0.299987808012483 
2499	 0.299822164454491 
2500	 0.299660147331673 
