Wavelength	mm1800006.asd
350	 0.059017961042943 
351	 6.44209588009155E-02 
352	 6.22746011906779E-02 
353	 4.77388263664157E-02 
354	 5.84322507788196E-02 
355	 5.86663766047002E-02 
356	 5.54365240290758E-02 
357	 6.09247276675911E-02 
358	 6.35786048089593E-02 
359	 6.06072825094927E-02 
360	 5.67861645116706E-02 
361	 5.99533923665638E-02 
362	 5.71353483200516E-02 
363	 5.74967956619268E-02 
364	 6.24914104212209E-02 
365	 0.057317152282297 
366	 5.66268513544969E-02 
367	 5.79208211717672E-02 
368	 5.66547323107095E-02 
369	 6.00891562535141E-02 
370	 6.29245204674377E-02 
371	 6.28100467302789E-02 
372	 6.03463514865648E-02 
373	 6.21104316743792E-02 
374	 6.42382001285878E-02 
375	 0.064407390764771 
376	 6.54142628156986E-02 
377	 6.51405673419708E-02 
378	 6.52260070787164E-02 
379	 6.74690613807312E-02 
380	 6.99107840664665E-02 
381	 7.04073898844528E-02 
382	 6.96649503411754E-02 
383	 7.04263042531204E-02 
384	 7.29167226714219E-02 
385	 7.35016555975308E-02 
386	 0.072439698310871 
387	 7.90032337288894E-02 
388	 8.02025441880022E-02 
389	 7.81076518727278E-02 
390	 7.85960785615167E-02 
391	 8.06194673604187E-02 
392	 8.28034980425046E-02 
393	 8.47449470700457E-02 
394	 8.68239705844188E-02 
395	 8.79945214734894E-02 
396	 8.87371310909432E-02 
397	 8.97081667813631E-02 
398	 9.15742636678444E-02 
399	 9.21738610539495E-02 
400	 9.32503073870857E-02 
401	 9.66853078674222E-02 
402	 9.65650813465949E-02 
403	 9.71937181662288E-02 
404	 9.92320870738867E-02 
405	 9.92514148995651E-02 
406	 0.100907696437257 
407	 0.102324300829876 
408	 0.102076656873236 
409	 0.102585477768443 
410	 0.102863382849653 
411	 0.103285130263572 
412	 0.104661759963958 
413	 0.106610362098504 
414	 0.106760543523855 
415	 0.105495122331012 
416	 0.106789748878232 
417	 0.107300377021569 
418	 0.107528254181679 
419	 0.108305018514632 
420	 0.108351900176042 
421	 0.108093892850818 
422	 0.108159337665433 
423	 0.109091270841599 
424	 0.109315059981952 
425	 0.109121891250538 
426	 0.108882325983703 
427	 0.108604741588763 
428	 0.108477411720737 
429	 0.108514631698936 
430	 0.108623085422959 
431	 0.108522369829922 
432	 0.108617762527551 
433	 0.108855065233878 
434	 0.108749910418948 
435	 0.109128112688942 
436	 0.109587342485742 
437	 0.109718131455362 
438	 0.1096003543846 
439	 0.110329178917693 
440	 0.11157965974788 
441	 0.112378932499693 
442	 0.113006567180767 
443	 0.113691710849362 
444	 0.114416050349552 
445	 0.114765986666888 
446	 0.115683070481076 
447	 0.116621044588188 
448	 0.11696188794717 
449	 0.117689414630267 
450	 0.118642006263542 
451	 0.119586101088908 
452	 0.120272368284011 
453	 0.120653421282645 
454	 0.120974591816232 
455	 0.12150789281014 
456	 0.122532654115525 
457	 0.123242799464022 
458	 0.12357081070814 
459	 0.123831755312483 
460	 0.124306171424056 
461	 0.124692226799782 
462	 0.124963922207922 
463	 0.125561739980404 
464	 0.125924668738076 
465	 0.126277963658644 
466	 0.126877727376978 
467	 0.127201507797947 
468	 0.127435659388817 
469	 0.127707423271219 
470	 0.128065519893505 
471	 0.128329793689869 
472	 0.128428904592022 
473	 0.128488907719001 
474	 0.129081268870962 
475	 0.129548183087205 
476	 0.129731014133102 
477	 0.129761674149163 
478	 0.130066700669613 
479	 0.130577225105789 
480	 0.131054465531472 
481	 0.131093632099813 
482	 0.131399482812624 
483	 0.131851937718271 
484	 0.132206657746235 
485	 0.132786378806095 
486	 0.132984664319513 
487	 0.132930714837391 
488	 0.133332324893216 
489	 0.133642516436864 
490	 0.133891060175843 
491	 0.134186211063425 
492	 0.134617718847483 
493	 0.134778346510756 
494	 0.134876465150537 
495	 0.135331129512299 
496	 0.135718867912891 
497	 0.135976990793084 
498	 0.136177403051647 
499	 0.136538188415332 
500	 0.136813555573206 
501	 0.137027297751642 
502	 0.137263627860143 
503	 0.137498329684701 
504	 0.137720603545583 
505	 0.137960911661403 
506	 0.138279903637201 
507	 0.138558218700796 
508	 0.138836275115145 
509	 0.139130394402216 
510	 0.139306878365742 
511	 0.139398241375207 
512	 0.139576732087763 
513	 0.140019192909021 
514	 0.140227478763115 
515	 0.14038125378821 
516	 0.140648857677836 
517	 0.141059675051538 
518	 0.141364413260025 
519	 0.141596370826373 
520	 0.141850500688026 
521	 0.141972831156174 
522	 0.142161657296227 
523	 0.142463061940795 
524	 0.14274529147346 
525	 0.142800706075791 
526	 0.142941239868066 
527	 0.143377513510311 
528	 0.143638057168002 
529	 0.143792730350051 
530	 0.14397270254555 
531	 0.144315711917031 
532	 0.144499871149195 
533	 0.144675049879116 
534	 0.144950938828932 
535	 0.145219178463137 
536	 0.145450765125536 
537	 0.145676437639131 
538	 0.14594680746699 
539	 0.146249732149836 
540	 0.146473615968629 
541	 0.14662343533766 
542	 0.146863446067471 
543	 0.147110890123237 
544	 0.147406509745929 
545	 0.147764028218091 
546	 0.147963733684295 
547	 0.148199206960481 
548	 0.148509430993491 
549	 0.148793864197824 
550	 0.149065352495511 
551	 0.14929083391708 
552	 0.149487982018817 
553	 0.149828010257224 
554	 0.150142261905685 
555	 0.150441990307395 
556	 0.150824499072591 
557	 0.15125548282547 
558	 0.151646346682301 
559	 0.151997173010911 
560	 0.152482986632009 
561	 0.152846869659826 
562	 0.15315363088604 
563	 0.153541301955481 
564	 0.15388289651792 
565	 0.154208215333719 
566	 0.154534064166164 
567	 0.154853741048939 
568	 0.155245417781118 
569	 0.155721259658335 
570	 0.156281357105273 
571	 0.156976851615528 
572	 0.157591269135386 
573	 0.158096684297475 
574	 0.158599772247402 
575	 0.159022333388539 
576	 0.15954315524881 
577	 0.160215119340682 
578	 0.16072969086225 
579	 0.161285243737193 
580	 0.161870444155243 
581	 0.162408331423463 
582	 0.162982766903354 
583	 0.163632552545025 
584	 0.164311187654012 
585	 0.164857692210657 
586	 0.165545262746382 
587	 0.166296610793379 
588	 0.166985267230345 
589	 0.167763505554539 
590	 0.168549186233826 
591	 0.169279671095068 
592	 0.169924591302154 
593	 0.170537080455529 
594	 0.17109666550657 
595	 0.171596432534073 
596	 0.172094585168639 
597	 0.172649454466896 
598	 0.173250700282011 
599	 0.173842912138343 
600	 0.174332032914159 
601	 0.174876539435817 
602	 0.175545415138604 
603	 0.176215238194871 
604	 0.176712304031901 
605	 0.177182949240526 
606	 0.177837589087122 
607	 0.17851753840746 
608	 0.179111524638316 
609	 0.179646079892283 
610	 0.180296845113572 
611	 0.180797023416328 
612	 0.181200276864585 
613	 0.181609964612634 
614	 0.182019327966037 
615	 0.182397583243969 
616	 0.18274996322124 
617	 0.183106279592418 
618	 0.183493310059246 
619	 0.183839857097846 
620	 0.184127012209818 
621	 0.184484921867355 
622	 0.184777479377517 
623	 0.185053838719729 
624	 0.185410521682016 
625	 0.185722294571589 
626	 0.186026103683536 
627	 0.186322869017712 
628	 0.186547185411537 
629	 0.186857812546694 
630	 0.187166896669082 
631	 0.187377427629884 
632	 0.187630556010229 
633	 0.18791764768974 
634	 0.188201770293097 
635	 0.18843181230348 
636	 0.188685916992671 
637	 0.188950430465394 
638	 0.189199563967038 
639	 0.189410333621792 
640	 0.189686521868077 
641	 0.189987325914887 
642	 0.190221027996426 
643	 0.190492227460088 
644	 0.190736654018184 
645	 0.190950112587555 
646	 0.191239201015586 
647	 0.191450704457835 
648	 0.191656265358639 
649	 0.191956497028287 
650	 0.192289328689827 
651	 0.192561337997305 
652	 0.192791639811865 
653	 0.193090361039516 
654	 0.193344585403579 
655	 0.193587816677715 
656	 0.193857251193528 
657	 0.194128530116573 
658	 0.194434907847303 
659	 0.194734495656451 
660	 0.194969794424904 
661	 0.195259697408456 
662	 0.195568547257308 
663	 0.195858750026935 
664	 0.196108523934737 
665	 0.196474864556534 
666	 0.196843382029368 
667	 0.197088649016452 
668	 0.197382140390774 
669	 0.197725803628393 
670	 0.198085950680886 
671	 0.198406519913931 
672	 0.198731092517225 
673	 0.199084631593253 
674	 0.199459098277436 
675	 0.19977260395257 
676	 0.200107823281721 
677	 0.200462157408617 
678	 0.200801762647909 
679	 0.201151386065926 
680	 0.201506868001645 
681	 0.2018749741574 
682	 0.202280124486784 
683	 0.202624252754752 
684	 0.202968787297697 
685	 0.203374178799471 
686	 0.203732047709108 
687	 0.204137944625504 
688	 0.204565620791407 
689	 0.204915821663745 
690	 0.205347024043891 
691	 0.205770877092559 
692	 0.206134741019153 
693	 0.206530271928763 
694	 0.206907047984266 
695	 0.207304190434842 
696	 0.207756293453806 
697	 0.208091227270311 
698	 0.208466524171242 
699	 0.208922880272328 
700	 0.209358667867043 
701	 0.209776050266688 
702	 0.210189466820555 
703	 0.210607630933403 
704	 0.21101156882133 
705	 0.211383884959128 
706	 0.211760950737191 
707	 0.212189771543341 
708	 0.212552326152484 
709	 0.212941507961134 
710	 0.213391358569865 
711	 0.213823730329883 
712	 0.214169566576199 
713	 0.214496333810039 
714	 0.214885353829253 
715	 0.215306339981692 
716	 0.215689053834054 
717	 0.216032258728557 
718	 0.216387635763623 
719	 0.216781075491943 
720	 0.217122599352205 
721	 0.217386251467808 
722	 0.217700889886735 
723	 0.218023409447783 
724	 0.21832879499991 
725	 0.218611793438452 
726	 0.218949071862953 
727	 0.219264743943554 
728	 0.21951952060902 
729	 0.219722639926881 
730	 0.220006604445761 
731	 0.220261452877186 
732	 0.220423019704732 
733	 0.220642955794269 
734	 0.220888308421227 
735	 0.221101788299085 
736	 0.221233220517921 
737	 0.221359658274894 
738	 0.221526737708313 
739	 0.221711998248865 
740	 0.221825898826495 
741	 0.221947888796929 
742	 0.222054302157577 
743	 0.222129325344407 
744	 0.222246195794588 
745	 0.222288090729366 
746	 0.222283397651576 
747	 0.222320343216184 
748	 0.222363595234001 
749	 0.222378113891866 
750	 0.222372883947539 
751	 0.222408169398207 
752	 0.222382472958624 
753	 0.222299196454204 
754	 0.222205118920036 
755	 0.22219450962233 
756	 0.222198886768318 
757	 0.222134508629953 
758	 0.221948873592967 
759	 0.221856364329932 
760	 0.22179727677572 
761	 0.221711166263473 
762	 0.221573520167848 
763	 0.221451379931587 
764	 0.221340231963617 
765	 0.221220230619574 
766	 0.221080803287854 
767	 0.220940286834044 
768	 0.220782664540665 
769	 0.220590998620578 
770	 0.220472642492623 
771	 0.220342094783506 
772	 0.220155978318808 
773	 0.219944006197113 
774	 0.219740733476432 
775	 0.219575834337667 
776	 0.219445310090536 
777	 0.219266370178829 
778	 0.21906974523715 
779	 0.218895637273246 
780	 0.218762917492267 
781	 0.218524026223662 
782	 0.218295640788687 
783	 0.218119831329863 
784	 0.21793924678146 
785	 0.217779126629059 
786	 0.217596004221781 
787	 0.217365794165555 
788	 0.217125840368146 
789	 0.216990311578574 
790	 0.216865535027475 
791	 0.216621850303385 
792	 0.216409134171844 
793	 0.216201642607193 
794	 0.216005555276471 
795	 0.215853303535387 
796	 0.215657377666174 
797	 0.215474762013595 
798	 0.215335375285649 
799	 0.215178965224159 
800	 0.215012762010704 
801	 0.21482737580681 
802	 0.214617680610142 
803	 0.21439301185998 
804	 0.214265898798313 
805	 0.214193839327869 
806	 0.214042070843946 
807	 0.213817832604035 
808	 0.213625679326848 
809	 0.213483678352824 
810	 0.213285256451003 
811	 0.213145414444462 
812	 0.213013035135869 
813	 0.212849129059029 
814	 0.21275405047468 
815	 0.212643969775981 
816	 0.212509366697295 
817	 0.212371461763192 
818	 0.212228274032986 
819	 0.212133970002464 
820	 0.212041692944621 
821	 0.211839968918657 
822	 0.211744635752023 
823	 0.211641650212603 
824	 0.211487767976811 
825	 0.211436205528018 
826	 0.211400125246591 
827	 0.211303594468749 
828	 0.211131652013018 
829	 0.211050537866931 
830	 0.210942175061144 
831	 0.210814564459538 
832	 0.210736068269669 
833	 0.210742367292374 
834	 0.210672611284728 
835	 0.210527535115897 
836	 0.210464754052875 
837	 0.210427656103873 
838	 0.210419636538937 
839	 0.21040372007597 
840	 0.210263717032275 
841	 0.210147295316485 
842	 0.210091568675866 
843	 0.210077335422925 
844	 0.210018236107647 
845	 0.209994141356667 
846	 0.209982868078692 
847	 0.209940686795257 
848	 0.20999661425617 
849	 0.21002083298407 
850	 0.209979876072794 
851	 0.209935220496047 
852	 0.209868516918563 
853	 0.209823403556075 
854	 0.209827889503402 
855	 0.209875118847394 
856	 0.209921311516089 
857	 0.209931059831969 
858	 0.209909524159538 
859	 0.209955672408796 
860	 0.209970305162961 
861	 0.209958730862137 
862	 0.209961769088264 
863	 0.209994038002391 
864	 0.210038638252218 
865	 0.210077888909061 
866	 0.210103399333436 
867	 0.210166340711489 
868	 0.210219811805213 
869	 0.210243502766212 
870	 0.210257603097732 
871	 0.210310667599769 
872	 0.210415374514935 
873	 0.210550039487456 
874	 0.210653879833751 
875	 0.210752276164574 
876	 0.210777487952611 
877	 0.210739356046293 
878	 0.210904797948803 
879	 0.211061872822119 
880	 0.21116584082526 
881	 0.211241509457375 
882	 0.211332546186198 
883	 0.211451301104849 
884	 0.211583321466249 
885	 0.211709047294152 
886	 0.2118908176452 
887	 0.211994218471833 
888	 0.212044927251101 
889	 0.212197564394407 
890	 0.212358887243815 
891	 0.212459042067402 
892	 0.212522967710173 
893	 0.212681896561934 
894	 0.212902216821641 
895	 0.213124737099019 
896	 0.213304115492766 
897	 0.213432889907329 
898	 0.213649279394833 
899	 0.213862885979071 
900	 0.213991359644609 
901	 0.214143662029998 
902	 0.214282125328088 
903	 0.21445370615884 
904	 0.214698130877688 
905	 0.214932167708758 
906	 0.2151676036094 
907	 0.215408374447599 
908	 0.215655727244768 
909	 0.215920155941958 
910	 0.21614091896355 
911	 0.216297299544037 
912	 0.21642375233543 
913	 0.2166844476101 
914	 0.217003816150536 
915	 0.217316107738689 
916	 0.217590254824673 
917	 0.217813464392494 
918	 0.218046184044756 
919	 0.218284922860602 
920	 0.218459662394969 
921	 0.21881594458704 
922	 0.219163761557543 
923	 0.219407089929603 
924	 0.219696163587135 
925	 0.219969587030886 
926	 0.220274641539886 
927	 0.220615786002071 
928	 0.220884723538446 
929	 0.221229589085046 
930	 0.221616430186187 
931	 0.221973610931128 
932	 0.222259072273906 
933	 0.222593852621844 
934	 0.222968747006756 
935	 0.223341925576324 
936	 0.223712993865282 
937	 0.223977077829451 
938	 0.224251980052045 
939	 0.224647645293178 
940	 0.224965239313765 
941	 0.225374035759441 
942	 0.225858612645503 
943	 0.226321942788448 
944	 0.226675574345772 
945	 0.227020792293832 
946	 0.227387507423962 
947	 0.227760176146262 
948	 0.228093159431665 
949	 0.228521829856636 
950	 0.228987573215563 
951	 0.229375423494316 
952	 0.229847660117938 
953	 0.230225646678953 
954	 0.23063088031505 
955	 0.231249276991195 
956	 0.231635923594711 
957	 0.23198737725581 
958	 0.232391294946137 
959	 0.232824058770946 
960	 0.233168830173521 
961	 0.233679753090083 
962	 0.234296082587006 
963	 0.234765682236958 
964	 0.235096634792276 
965	 0.235645431077846 
966	 0.236261885834148 
967	 0.236566858894776 
968	 0.237086316032806 
969	 0.237555044588049 
970	 0.237988459636828 
971	 0.238564708662029 
972	 0.239009616094568 
973	 0.239527118644226 
974	 0.240115833327085 
975	 0.240643283672995 
976	 0.241236555744918 
977	 0.241729469313319 
978	 0.242124396100828 
979	 0.242552043140652 
980	 0.243109351360994 
981	 0.243578036200743 
982	 0.244061507542598 
983	 0.244760486241097 
984	 0.245205052572531 
985	 0.245756405953551 
986	 0.24634796105641 
987	 0.246738452219967 
988	 0.247244431049119 
989	 0.247773670508101 
990	 0.248238338551237 
991	 0.248644423947942 
992	 0.24933380276864 
993	 0.249934236655493 
994	 0.250452562353363 
995	 0.251015940373086 
996	 0.251403779745488 
997	 0.251945298014553 
998	 0.252492377555982 
999	 0.252862176180048 
1000	 0.253472655233033 
1001	 0.250306553280095 
1002	 0.250709401349026 
1003	 0.251155251682873 
1004	 0.25158847925928 
1005	 0.252032254875015 
1006	 0.252457612840255 
1007	 0.252889359567901 
1008	 0.253267825720958 
1009	 0.253647649184582 
1010	 0.254078784990172 
1011	 0.254533986534684 
1012	 0.254953860619752 
1013	 0.255455465905053 
1014	 0.255863979130454 
1015	 0.256186451778777 
1016	 0.256595104374025 
1017	 0.256981491913475 
1018	 0.25731003815843 
1019	 0.257714103874892 
1020	 0.258133415671364 
1021	 0.258490415735063 
1022	 0.258881781623023 
1023	 0.259206282162136 
1024	 0.259542393346333 
1025	 0.25989553794411 
1026	 0.260232605114623 
1027	 0.260575006000531 
1028	 0.26092622295298 
1029	 0.261339976655271 
1030	 0.261707431837769 
1031	 0.262033030095538 
1032	 0.26232164292796 
1033	 0.262632104346739 
1034	 0.262921460511261 
1035	 0.263234295766078 
1036	 0.263601677284821 
1037	 0.26396960148187 
1038	 0.264312080879728 
1039	 0.264647992145512 
1040	 0.265001674128161 
1041	 0.265328312099416 
1042	 0.265650402811236 
1043	 0.265983206447569 
1044	 0.266307922559777 
1045	 0.266608410828779 
1046	 0.266967006975513 
1047	 0.267317172331395 
1048	 0.267643314466576 
1049	 0.268047863993551 
1050	 0.268388167601005 
1051	 0.268708030485513 
1052	 0.269115162502847 
1053	 0.26944010155653 
1054	 0.269745120006103 
1055	 0.270115637481865 
1056	 0.270419434002146 
1057	 0.270743563949184 
1058	 0.271109260073998 
1059	 0.271432410432679 
1060	 0.271714566181595 
1061	 0.272022489050425 
1062	 0.272356120151614 
1063	 0.27268284666016 
1064	 0.273034808425845 
1065	 0.273352545604341 
1066	 0.273671769758175 
1067	 0.273990224096514 
1068	 0.274302029554215 
1069	 0.274641731664333 
1070	 0.274952227947404 
1071	 0.275235351550111 
1072	 0.275529017197399 
1073	 0.275804726390076 
1074	 0.276106777065534 
1075	 0.276461744310646 
1076	 0.276716349180707 
1077	 0.276944563428647 
1078	 0.277143587276882 
1079	 0.27734273225101 
1080	 0.277618375392358 
1081	 0.277845789580612 
1082	 0.278117325169558 
1083	 0.278368077353559 
1084	 0.278545067125819 
1085	 0.27876942401034 
1086	 0.279068517721092 
1087	 0.279300082935096 
1088	 0.279490503802089 
1089	 0.279714119388981 
1090	 0.279932502294447 
1091	 0.280105318046004 
1092	 0.280306864872144 
1093	 0.280507554604562 
1094	 0.280676458343165 
1095	 0.280868733175529 
1096	 0.281039320467752 
1097	 0.281233707625387 
1098	 0.281469316764443 
1099	 0.281759650118623 
1100	 0.281999675088389 
1101	 0.282277392068925 
1102	 0.282494064767438 
1103	 0.282654942180458 
1104	 0.282820497825164 
1105	 0.282990164400923 
1106	 0.283167207561352 
1107	 0.283355807177984 
1108	 0.283560752365064 
1109	 0.283792802743532 
1110	 0.284017403552809 
1111	 0.284227782118853 
1112	 0.284442431871913 
1113	 0.284646618962023 
1114	 0.284833118191758 
1115	 0.285024090087569 
1116	 0.285212443017141 
1117	 0.285411958107294 
1118	 0.285620285010106 
1119	 0.28579522662814 
1120	 0.286006731772899 
1121	 0.286236490182918 
1122	 0.286427129232217 
1123	 0.286635442640435 
1124	 0.28683996800509 
1125	 0.287033262157697 
1126	 0.287231987364991 
1127	 0.287449200913173 
1128	 0.287640942322245 
1129	 0.287820229717058 
1130	 0.288003686559642 
1131	 0.288173037138264 
1132	 0.288347456943401 
1133	 0.288511949034613 
1134	 0.2887002368321 
1135	 0.28890702571914 
1136	 0.28910527457015 
1137	 0.289305988324346 
1138	 0.28951321122356 
1139	 0.289695789729459 
1140	 0.289856040094247 
1141	 0.290018971583064 
1142	 0.29016797491457 
1143	 0.290327827582478 
1144	 0.290491235456742 
1145	 0.290645031281947 
1146	 0.290808610210959 
1147	 0.290953714490244 
1148	 0.291075583177603 
1149	 0.291204515209073 
1150	 0.291319742003603 
1151	 0.291455096368154 
1152	 0.291595105080345 
1153	 0.291730002279731 
1154	 0.291872444268906 
1155	 0.292019811471086 
1156	 0.292168780932274 
1157	 0.292326082911232 
1158	 0.292476154773717 
1159	 0.292641567455556 
1160	 0.292774576468118 
1161	 0.292874782915769 
1162	 0.292996465520635 
1163	 0.293097454488011 
1164	 0.29322590789229 
1165	 0.29337929399426 
1166	 0.293543697311036 
1167	 0.293695822421534 
1168	 0.293838934180695 
1169	 0.293983738546173 
1170	 0.294116381320393 
1171	 0.29426568302284 
1172	 0.29443106138236 
1173	 0.294578395802712 
1174	 0.29473163011724 
1175	 0.294863241804267 
1176	 0.294969020153414 
1177	 0.295089112807233 
1178	 0.295203251916202 
1179	 0.295322276806852 
1180	 0.295448842353395 
1181	 0.29557449128777 
1182	 0.295699196451921 
1183	 0.295824036828258 
1184	 0.295952302591592 
1185	 0.296084158255092 
1186	 0.296216196089691 
1187	 0.296348249045956 
1188	 0.296484406105363 
1189	 0.296631861382135 
1190	 0.296761499028865 
1191	 0.296892874314757 
1192	 0.297009517684768 
1193	 0.297085958708891 
1194	 0.297204367069233 
1195	 0.297350369769038 
1196	 0.297474023426312 
1197	 0.297609712901342 
1198	 0.297741516840878 
1199	 0.297865447342881 
1200	 0.297968075374893 
1201	 0.298075595349279 
1202	 0.29818784492043 
1203	 0.298297347108866 
1204	 0.298387469159775 
1205	 0.298500316371012 
1206	 0.298633156129115 
1207	 0.298754432182262 
1208	 0.298884054246042 
1209	 0.298998694853548 
1210	 0.299103935001174 
1211	 0.299208182886089 
1212	 0.29928854864539 
1213	 0.29939413280225 
1214	 0.299505164690518 
1215	 0.299628740306954 
1216	 0.299765154069544 
1217	 0.299936744939773 
1218	 0.300057760057895 
1219	 0.30017111592196 
1220	 0.300274464636436 
1221	 0.300342924253094 
1222	 0.300433794519806 
1223	 0.300536716990803 
1224	 0.300627953385688 
1225	 0.300709954850782 
1226	 0.300800222865173 
1227	 0.300890304896882 
1228	 0.300982096395605 
1229	 0.301081093950748 
1230	 0.301177660618835 
1231	 0.301274003001283 
1232	 0.301367073414236 
1233	 0.30145883853434 
1234	 0.301549757077275 
1235	 0.301642158019271 
1236	 0.301734400478226 
1237	 0.301823308965249 
1238	 0.301918339329396 
1239	 0.301999070580772 
1240	 0.302060240499687 
1241	 0.302141672221477 
1242	 0.302223521526448 
1243	 0.302310749662925 
1244	 0.302416156741817 
1245	 0.302512057055613 
1246	 0.302608627376811 
1247	 0.302697159012217 
1248	 0.302769881914146 
1249	 0.30285805526085 
1250	 0.302957453749694 
1251	 0.303052473092977 
1252	 0.303141911657579 
1253	 0.303245216305777 
1254	 0.30332774743018 
1255	 0.303387437749512 
1256	 0.303459136019652 
1257	 0.303535508861024 
1258	 0.303602160564137 
1259	 0.303664477830605 
1260	 0.303723877631542 
1261	 0.303770176237651 
1262	 0.303828249650434 
1263	 0.303887580249462 
1264	 0.303951846468485 
1265	 0.304031230537862 
1266	 0.304100792828405 
1267	 0.304172894212431 
1268	 0.304233712569209 
1269	 0.304292845004441 
1270	 0.30433311917063 
1271	 0.304413310496959 
1272	 0.304512604923635 
1273	 0.304597622069992 
1274	 0.304702256550578 
1275	 0.304791555111683 
1276	 0.304841557647088 
1277	 0.304941708585996 
1278	 0.305067504665151 
1279	 0.305198647090255 
1280	 0.305363899858558 
1281	 0.305512097009256 
1282	 0.305670429629128 
1283	 0.305808623630365 
1284	 0.305937853056176 
1285	 0.306057566739571 
1286	 0.306151341230937 
1287	 0.306233240058977 
1288	 0.306336513242929 
1289	 0.306434697721686 
1290	 0.306550624448855 
1291	 0.306693223592071 
1292	 0.306813717028459 
1293	 0.3069331201226 
1294	 0.307037800952185 
1295	 0.307135703755362 
1296	 0.307225124694359 
1297	 0.307306281329543 
1298	 0.307380496192154 
1299	 0.307447446373817 
1300	 0.307501446604609 
1301	 0.307543136898682 
1302	 0.307578343349907 
1303	 0.307599755982934 
1304	 0.307619578913789 
1305	 0.307644181713766 
1306	 0.30765095918771 
1307	 0.307647986909066 
1308	 0.307646036956346 
1309	 0.307636051949367 
1310	 0.307611604276527 
1311	 0.307594045974159 
1312	 0.307583620198767 
1313	 0.307556300357885 
1314	 0.307519881567763 
1315	 0.307485166583003 
1316	 0.307435428026025 
1317	 0.307398135887279 
1318	 0.30736146615061 
1319	 0.307333620368985 
1320	 0.307316521880159 
1321	 0.307296505187945 
1322	 0.307287107626063 
1323	 0.307277658288835 
1324	 0.307225241999812 
1325	 0.307162895703084 
1326	 0.307108850131861 
1327	 0.307047996639377 
1328	 0.306996599333154 
1329	 0.306962379107152 
1330	 0.306908710704815 
1331	 0.30683351924815 
1332	 0.306775375808595 
1333	 0.306726983076997 
1334	 0.306666544830999 
1335	 0.306595931976875 
1336	 0.306541634208297 
1337	 0.30648381780241 
1338	 0.306439930832455 
1339	 0.306421237748607 
1340	 0.306386627122704 
1341	 0.306360573081387 
1342	 0.306314162506797 
1343	 0.306245114965012 
1344	 0.306181355784049 
1345	 0.306143532193227 
1346	 0.306104851201012 
1347	 0.306096283883875 
1348	 0.30609178056051 
1349	 0.306030593431563 
1350	 0.305962765444995 
1351	 0.305903539842466 
1352	 0.30582565973781 
1353	 0.305766407375305 
1354	 0.305724624224761 
1355	 0.305672157741173 
1356	 0.305610547403526 
1357	 0.305559158394304 
1358	 0.305517337325673 
1359	 0.305474027193531 
1360	 0.305436474308294 
1361	 0.305388440661784 
1362	 0.305329094981937 
1363	 0.305278000769505 
1364	 0.305220701730409 
1365	 0.305179641422038 
1366	 0.305152869805201 
1367	 0.305133244622695 
1368	 0.30510550774135 
1369	 0.305063992721344 
1370	 0.304992135174897 
1371	 0.304900201677185 
1372	 0.304790622103265 
1373	 0.304672425244395 
1374	 0.30454696282621 
1375	 0.304417213687685 
1376	 0.304259763984493 
1377	 0.304099570208602 
1378	 0.303896877038184 
1379	 0.303651959454349 
1380	 0.303416709875478 
1381	 0.303169484237962 
1382	 0.302890132869284 
1383	 0.302622280192598 
1384	 0.302293612332343 
1385	 0.301923586229379 
1386	 0.301522180079678 
1387	 0.301087641278601 
1388	 0.300612184381426 
1389	 0.300104729833823 
1390	 0.299551697353726 
1391	 0.2989642813168 
1392	 0.298322072921708 
1393	 0.297602481967707 
1394	 0.296845187409595 
1395	 0.296049260385297 
1396	 0.295234306373942 
1397	 0.294433218879922 
1398	 0.29363151651311 
1399	 0.292826621016848 
1400	 0.292017279837249 
1401	 0.291211903460652 
1402	 0.29039441676543 
1403	 0.289613314193729 
1404	 0.288824200220414 
1405	 0.288091171078446 
1406	 0.287398645875211 
1407	 0.286721203374811 
1408	 0.286042070929199 
1409	 0.285453514025991 
1410	 0.284872401074259 
1411	 0.284411769429445 
1412	 0.2840399170072 
1413	 0.283755120995395 
1414	 0.283565753274652 
1415	 0.283452256429704 
1416	 0.283466931902251 
1417	 0.283555962194031 
1418	 0.28364936932007 
1419	 0.283785157700445 
1420	 0.283913752647144 
1421	 0.284006237990697 
1422	 0.284106555307138 
1423	 0.284189459436345 
1424	 0.284218026622073 
1425	 0.284186111276438 
1426	 0.284168607859643 
1427	 0.284111620518233 
1428	 0.284084670524715 
1429	 0.28407174227564 
1430	 0.284041017489246 
1431	 0.284017746717197 
1432	 0.283969801191503 
1433	 0.283893066273354 
1434	 0.283833643844756 
1435	 0.283742428157988 
1436	 0.283707428684948 
1437	 0.283712696909795 
1438	 0.283707148952305 
1439	 0.2837248667999 
1440	 0.283753897235321 
1441	 0.283754372079596 
1442	 0.283760043069895 
1443	 0.283751374546487 
1444	 0.283722786923076 
1445	 0.283697887627814 
1446	 0.283673360805334 
1447	 0.283662852418862 
1448	 0.283664180433658 
1449	 0.283661827327908 
1450	 0.283653050658695 
1451	 0.283639535406483 
1452	 0.283616392381195 
1453	 0.28361150380751 
1454	 0.283605615947259 
1455	 0.283606185664533 
1456	 0.283634128152066 
1457	 0.283630066320099 
1458	 0.283603990261334 
1459	 0.283598200182876 
1460	 0.283577894445845 
1461	 0.283584535727696 
1462	 0.283614613672653 
1463	 0.283643727828195 
1464	 0.283683739279951 
1465	 0.283723163045168 
1466	 0.283761692059701 
1467	 0.283815673188737 
1468	 0.283855951574512 
1469	 0.283940288177108 
1470	 0.284056545443481 
1471	 0.284187841049465 
1472	 0.284334543048108 
1473	 0.284501245122111 
1474	 0.284658695350405 
1475	 0.284809431409788 
1476	 0.2849520530601 
1477	 0.285093662289153 
1478	 0.285229292559433 
1479	 0.285369635579377 
1480	 0.285543279065158 
1481	 0.285732731599281 
1482	 0.285925898161404 
1483	 0.286152452251682 
1484	 0.286336893658846 
1485	 0.286509171229103 
1486	 0.286676169554383 
1487	 0.286806972655557 
1488	 0.286976676628344 
1489	 0.28717159386922 
1490	 0.287344641683551 
1491	 0.287533670037369 
1492	 0.287699124500219 
1493	 0.287838046658829 
1494	 0.287978754300927 
1495	 0.288104580574309 
1496	 0.28824453529369 
1497	 0.288387684474669 
1498	 0.288531145331791 
1499	 0.288691215983939 
1500	 0.288836941157416 
1501	 0.288973845170524 
1502	 0.289101201970583 
1503	 0.289219227388029 
1504	 0.28932988583828 
1505	 0.289450887907075 
1506	 0.289591395221033 
1507	 0.289734482200964 
1508	 0.289878755159776 
1509	 0.289996443884894 
1510	 0.290096318698631 
1511	 0.290203133755059 
1512	 0.290310472113149 
1513	 0.290431661457825 
1514	 0.290560411080867 
1515	 0.290692538568492 
1516	 0.290818604717698 
1517	 0.290930296163813 
1518	 0.291031275168012 
1519	 0.291139174954395 
1520	 0.29123291072491 
1521	 0.291342706030945 
1522	 0.291465384544683 
1523	 0.291578010239618 
1524	 0.291692365922352 
1525	 0.291802466698817 
1526	 0.291911802491285 
1527	 0.292013215753122 
1528	 0.292111673598653 
1529	 0.292200305586118 
1530	 0.292272941053234 
1531	 0.292361800921133 
1532	 0.292454545317616 
1533	 0.292539657925836 
1534	 0.292635607809959 
1535	 0.292714101592114 
1536	 0.292763209845628 
1537	 0.292840263450469 
1538	 0.292933138973502 
1539	 0.293010616122919 
1540	 0.29309314370651 
1541	 0.293174384028136 
1542	 0.293235977017771 
1543	 0.293313982264276 
1544	 0.293423032129655 
1545	 0.293504503864846 
1546	 0.293576425989493 
1547	 0.29363964252623 
1548	 0.293706779828188 
1549	 0.293739328378916 
1550	 0.293771389034204 
1551	 0.293824744099577 
1552	 0.293862225472073 
1553	 0.293912458752481 
1554	 0.293994074967144 
1555	 0.294061801285606 
1556	 0.294110498217382 
1557	 0.294175235596857 
1558	 0.294243608608412 
1559	 0.294297627764946 
1560	 0.294356164538762 
1561	 0.2944298343968 
1562	 0.294481105535987 
1563	 0.294505801662401 
1564	 0.294565272154453 
1565	 0.294635940194898 
1566	 0.29470183618963 
1567	 0.294793240523836 
1568	 0.294847880815641 
1569	 0.29486735814442 
1570	 0.294923465876164 
1571	 0.294989837957269 
1572	 0.295041483592243 
1573	 0.295110884798599 
1574	 0.295158268853816 
1575	 0.295183580548518 
1576	 0.295204828558922 
1577	 0.295212595590979 
1578	 0.295238035728964 
1579	 0.295243811347058 
1580	 0.295282673851476 
1581	 0.295366006900536 
1582	 0.295419423473424 
1583	 0.295467558250913 
1584	 0.295525156896651 
1585	 0.295588976539041 
1586	 0.295629073420744 
1587	 0.295670905140314 
1588	 0.295698824798039 
1589	 0.295685447468352 
1590	 0.295699519518028 
1591	 0.295727987765389 
1592	 0.295751479734947 
1593	 0.295770916142518 
1594	 0.295804739503761 
1595	 0.295848822984449 
1596	 0.295889207348351 
1597	 0.29594787162104 
1598	 0.295989813630879 
1599	 0.29602099463614 
1600	 0.296048785493349 
1601	 0.296075975688836 
1602	 0.29608934714624 
1603	 0.296078745815679 
1604	 0.296081176406387 
1605	 0.29606036937112 
1606	 0.296075183781288 
1607	 0.296121351414052 
1608	 0.296178664289389 
1609	 0.29622109453052 
1610	 0.296251612287408 
1611	 0.296238512665055 
1612	 0.296229012298625 
1613	 0.296233564239056 
1614	 0.296231264217432 
1615	 0.296230899197876 
1616	 0.296230424946239 
1617	 0.296252728856848 
1618	 0.296279957976767 
1619	 0.296313758522256 
1620	 0.296355311515243 
1621	 0.296373991655695 
1622	 0.296379254377 
1623	 0.296377450689154 
1624	 0.296363007488521 
1625	 0.296351360277517 
1626	 0.296331080188739 
1627	 0.296312569519781 
1628	 0.296282861754861 
1629	 0.296291919473905 
1630	 0.296310832798456 
1631	 0.296340653429628 
1632	 0.296410060146641 
1633	 0.296444435320327 
1634	 0.296477271452595 
1635	 0.296482769896256 
1636	 0.296474519811923 
1637	 0.296447222497393 
1638	 0.296376517451934 
1639	 0.296352489670859 
1640	 0.29632849048524 
1641	 0.296327540822706 
1642	 0.296360830160039 
1643	 0.296377171440358 
1644	 0.296398365165201 
1645	 0.296413709977283 
1646	 0.296426992987112 
1647	 0.296441974444925 
1648	 0.296466315912236 
1649	 0.296460048630917 
1650	 0.296437606093042 
1651	 0.296421791891186 
1652	 0.296378810274411 
1653	 0.296363989359969 
1654	 0.296384221062309 
1655	 0.296361965477085 
1656	 0.296331753048422 
1657	 0.29628505089131 
1658	 0.296196402348638 
1659	 0.296145927971014 
1660	 0.296107460053358 
1661	 0.296062291017499 
1662	 0.296018944196429 
1663	 0.295995191246935 
1664	 0.295972810041278 
1665	 0.295960443546668 
1666	 0.295982134575345 
1667	 0.295978381971519 
1668	 0.295964236930011 
1669	 0.29594790935536 
1670	 0.295932385983265 
1671	 0.29590112079619 
1672	 0.295853710716796 
1673	 0.295813946882075 
1674	 0.295748998264631 
1675	 0.295728926441886 
1676	 0.295741231420703 
1677	 0.295736486839057 
1678	 0.295751184892538 
1679	 0.295753414837754 
1680	 0.295741491299996 
1681	 0.295732974971936 
1682	 0.295734050822606 
1683	 0.295720457278791 
1684	 0.295688211460631 
1685	 0.295670058257259 
1686	 0.29565976720563 
1687	 0.295636330348917 
1688	 0.295610143529929 
1689	 0.29558335624184 
1690	 0.295543162184712 
1691	 0.295514850292196 
1692	 0.295492713669595 
1693	 0.295474627214565 
1694	 0.295466467769248 
1695	 0.295443981728253 
1696	 0.295414634911553 
1697	 0.295398086114561 
1698	 0.295383291551996 
1699	 0.295359593702573 
1700	 0.295350709401803 
1701	 0.295320088238551 
1702	 0.295263417766997 
1703	 0.295216226388523 
1704	 0.295168551659209 
1705	 0.2951169790439 
1706	 0.295067093641688 
1707	 0.295006154218259 
1708	 0.294933583652936 
1709	 0.294868653498059 
1710	 0.294793703156081 
1711	 0.294734232086562 
1712	 0.294697882722275 
1713	 0.294633436328026 
1714	 0.294552830938493 
1715	 0.294493904238074 
1716	 0.294416901812644 
1717	 0.294373299945914 
1718	 0.294370014457289 
1719	 0.29434273888702 
1720	 0.294319458626249 
1721	 0.294294417582065 
1722	 0.294264214245107 
1723	 0.294232126371555 
1724	 0.294215212736022 
1725	 0.294159215623406 
1726	 0.29407758423698 
1727	 0.294001004655056 
1728	 0.293892805704702 
1729	 0.29381973976998 
1730	 0.293776693916824 
1731	 0.293695880821424 
1732	 0.293606588571829 
1733	 0.293523903128705 
1734	 0.293432877873213 
1735	 0.293323649881835 
1736	 0.293212037276143 
1737	 0.293106165429781 
1738	 0.292967984206623 
1739	 0.292863948121794 
1740	 0.292799368692939 
1741	 0.292706723430125 
1742	 0.292595360803072 
1743	 0.292517276633774 
1744	 0.292457265256678 
1745	 0.292366158269881 
1746	 0.292278999642169 
1747	 0.292160415203529 
1748	 0.292072080088236 
1749	 0.292010752669096 
1750	 0.291942386872165 
1751	 0.291898606508038 
1752	 0.29182660262893 
1753	 0.291733560361264 
1754	 0.291649716039223 
1755	 0.291527886962911 
1756	 0.291411576498064 
1757	 0.291310026090179 
1758	 0.291199232744437 
1759	 0.29107730611272 
1760	 0.290971583128282 
1761	 0.290900707064358 
1762	 0.290804647031202 
1763	 0.290717924977731 
1764	 0.290631797593445 
1765	 0.290489119664545 
1766	 0.290358668824862 
1767	 0.290266594895313 
1768	 0.290176732194768 
1769	 0.290101470180389 
1770	 0.290052526063034 
1771	 0.290003442571101 
1772	 0.289925908607471 
1773	 0.289842197504069 
1774	 0.289769504998456 
1775	 0.289688763403536 
1776	 0.289631196267839 
1777	 0.289587109099308 
1778	 0.289508810153632 
1779	 0.289407812561503 
1780	 0.289303474668505 
1781	 0.289230290184902 
1782	 0.289177424397202 
1783	 0.289166284542259 
1784	 0.289155741981777 
1785	 0.289171793217409 
1786	 0.289144316070203 
1787	 0.289095958917491 
1788	 0.289043993575197 
1789	 0.288957387541451 
1790	 0.288878387351902 
1791	 0.288806720106861 
1792	 0.288747339827396 
1793	 0.288663954965975 
1794	 0.288624112625444 
1795	 0.288619259175734 
1796	 0.288622998320654 
1797	 0.28868233071187 
1798	 0.28867024984738 
1799	 0.288636444412567 
1800	 0.288598764398963 
1801	 0.28734265009377 
1802	 0.287523274076631 
1803	 0.287704691977907 
1804	 0.287912596225631 
1805	 0.288148227922553 
1806	 0.28839304409983 
1807	 0.288632596690268 
1808	 0.288819249822056 
1809	 0.288991048298059 
1810	 0.28913151870375 
1811	 0.289229964877384 
1812	 0.289308921951667 
1813	 0.289366474008058 
1814	 0.28941027232056 
1815	 0.289414398497712 
1816	 0.289381376031564 
1817	 0.289380995642313 
1818	 0.289391110898085 
1819	 0.289384342062607 
1820	 0.289365476527781 
1821	 0.28938610401355 
1822	 0.289387923477009 
1823	 0.289367447745247 
1824	 0.289409350639299 
1825	 0.289414013653758 
1826	 0.289413588266724 
1827	 0.289440667750676 
1828	 0.289414259202474 
1829	 0.289353352098088 
1830	 0.289299782192325 
1831	 0.289213732166217 
1832	 0.289135346871443 
1833	 0.289090558850781 
1834	 0.288997940227263 
1835	 0.28896387572099 
1836	 0.288926224578005 
1837	 0.28885889625883 
1838	 0.288852838879452 
1839	 0.288820538586009 
1840	 0.288782065329174 
1841	 0.288712302512851 
1842	 0.288674258803472 
1843	 0.288634425154035 
1844	 0.288590783711027 
1845	 0.288554170146206 
1846	 0.288499057903073 
1847	 0.288451080563163 
1848	 0.288411759698566 
1849	 0.288363689598198 
1850	 0.288303624919964 
1851	 0.28824761250793 
1852	 0.288162324225337 
1853	 0.288073061466722 
1854	 0.287983796266771 
1855	 0.287882611316283 
1856	 0.287752659345974 
1857	 0.287573610598306 
1858	 0.28740118348013 
1859	 0.287233400226534 
1860	 0.287028210557214 
1861	 0.286812277924051 
1862	 0.286572389791887 
1863	 0.286302647230339 
1864	 0.286022994980466 
1865	 0.285736868538338 
1866	 0.285443856007587 
1867	 0.285114790321765 
1868	 0.284717293781655 
1869	 0.284276936676999 
1870	 0.283836249001982 
1871	 0.283361134203256 
1872	 0.28286276469589 
1873	 0.28233068685253 
1874	 0.281779011396103 
1875	 0.28116657600462 
1876	 0.280500577992664 
1877	 0.279780621383327 
1878	 0.278963051840958 
1879	 0.278088610899858 
1880	 0.277136672982847 
1881	 0.276098223396287 
1882	 0.274996089534185 
1883	 0.273847041177648 
1884	 0.272571749658199 
1885	 0.271226648187216 
1886	 0.269799191098406 
1887	 0.268249060406336 
1888	 0.266642039117748 
1889	 0.264943148390056 
1890	 0.263189630633395 
1891	 0.261416960037218 
1892	 0.25958539072742 
1893	 0.257737029880372 
1894	 0.255860170601837 
1895	 0.253950878904648 
1896	 0.252015213161862 
1897	 0.250112584742626 
1898	 0.248192755683755 
1899	 0.246298472166766 
1900	 0.244486148223471 
1901	 0.242711055972706 
1902	 0.241019325992152 
1903	 0.239440684470512 
1904	 0.237894451006179 
1905	 0.236398867789963 
1906	 0.234955045090227 
1907	 0.233591815385842 
1908	 0.232271799008706 
1909	 0.231030071835843 
1910	 0.229855395582059 
1911	 0.228737809059997 
1912	 0.227687607364944 
1913	 0.226702632106868 
1914	 0.225786165538485 
1915	 0.224925771503799 
1916	 0.224128114591509 
1917	 0.223393287340428 
1918	 0.222711505273071 
1919	 0.222071245150196 
1920	 0.221502704926828 
1921	 0.220973852346686 
1922	 0.22049703380635 
1923	 0.22009163813968 
1924	 0.219717025079038 
1925	 0.219392139439044 
1926	 0.219106990152942 
1927	 0.218865836346825 
1928	 0.218652008517798 
1929	 0.218489315526377 
1930	 0.218369032542963 
1931	 0.218286918432441 
1932	 0.218242415439927 
1933	 0.218221836585719 
1934	 0.21823495403772 
1935	 0.218269948521768 
1936	 0.218329811689461 
1937	 0.218413463468404 
1938	 0.218518704087027 
1939	 0.218653322892423 
1940	 0.21881654841575 
1941	 0.219002489967377 
1942	 0.219211679905032 
1943	 0.219431842455211 
1944	 0.219670224612169 
1945	 0.219927979785238 
1946	 0.220188781384231 
1947	 0.220474187847093 
1948	 0.220750518390739 
1949	 0.22100631950292 
1950	 0.221298974859328 
1951	 0.221603944088924 
1952	 0.221928934037795 
1953	 0.22226496654743 
1954	 0.222643133273648 
1955	 0.223032275850882 
1956	 0.223409610754258 
1957	 0.223785092838022 
1958	 0.224167466068263 
1959	 0.224548814378385 
1960	 0.22491131465438 
1961	 0.225300087762722 
1962	 0.225706119858869 
1963	 0.226119802424822 
1964	 0.226540645459218 
1965	 0.226967914884696 
1966	 0.227425773052177 
1967	 0.227901850435357 
1968	 0.228360752150827 
1969	 0.228826777266202 
1970	 0.229291636636254 
1971	 0.229744032931125 
1972	 0.230205827581651 
1973	 0.230698379547692 
1974	 0.231154925507465 
1975	 0.231588143389128 
1976	 0.23202279508476 
1977	 0.232460923341753 
1978	 0.232903180741929 
1979	 0.233377654727063 
1980	 0.233848068243197 
1981	 0.23430133406756 
1982	 0.234734942441328 
1983	 0.235188170980678 
1984	 0.235634504720645 
1985	 0.236094862157291 
1986	 0.2365811969549 
1987	 0.237049931255635 
1988	 0.237511240651817 
1989	 0.237973690124475 
1990	 0.238448329148246 
1991	 0.238924159813503 
1992	 0.239393142309152 
1993	 0.239872475365672 
1994	 0.240338605771082 
1995	 0.240792188205624 
1996	 0.241243690770259 
1997	 0.241684907837778 
1998	 0.242139663251621 
1999	 0.242590375914122 
2000	 0.243050288845389 
2001	 0.243537273114751 
2002	 0.243997948203912 
2003	 0.244464467786241 
2004	 0.24493951194814 
2005	 0.245389113561541 
2006	 0.245838454830954 
2007	 0.246263334335027 
2008	 0.246646348434918 
2009	 0.247052808758985 
2010	 0.247452262850838 
2011	 0.247858831121824 
2012	 0.248288466209357 
2013	 0.248698929394631 
2014	 0.249103031877001 
2015	 0.24949621401697 
2016	 0.249877149287674 
2017	 0.25026849544164 
2018	 0.250656424955931 
2019	 0.251043962955715 
2020	 0.251429137884242 
2021	 0.251812618471792 
2022	 0.252197094818987 
2023	 0.252582987850841 
2024	 0.252967140035035 
2025	 0.253340356781164 
2026	 0.253729178513572 
2027	 0.254140733563376 
2028	 0.254528418349285 
2029	 0.254905833314261 
2030	 0.255289262792703 
2031	 0.255657184170735 
2032	 0.255987885078575 
2033	 0.256349555895948 
2034	 0.256746610866846 
2035	 0.25709229128692 
2036	 0.257435343245015 
2037	 0.257748076700489 
2038	 0.25799835202105 
2039	 0.258275596240961 
2040	 0.258570848771767 
2041	 0.258825796360072 
2042	 0.259068071164705 
2043	 0.259332820319054 
2044	 0.259591419101285 
2045	 0.259820780958391 
2046	 0.260095391982649 
2047	 0.260413830826888 
2048	 0.260700088990746 
2049	 0.26099647759625 
2050	 0.261273599726974 
2051	 0.26153412048765 
2052	 0.261785014866304 
2053	 0.262023763729124 
2054	 0.262260611019148 
2055	 0.262475476011695 
2056	 0.262708099942811 
2057	 0.262931597108912 
2058	 0.263154587549567 
2059	 0.263374059086057 
2060	 0.263579628293762 
2061	 0.26380827724885 
2062	 0.264055266615122 
2063	 0.264284942409629 
2064	 0.264532152113025 
2065	 0.264752544720669 
2066	 0.26495875957899 
2067	 0.265144066053185 
2068	 0.265294975855076 
2069	 0.265458013107617 
2070	 0.265632352449276 
2071	 0.26579115000068 
2072	 0.265976942323896 
2073	 0.266191807306556 
2074	 0.266397149184949 
2075	 0.266604663806433 
2076	 0.266814636836588 
2077	 0.267031008505412 
2078	 0.267245952726257 
2079	 0.267473819589628 
2080	 0.267677792182038 
2081	 0.267869922144283 
2082	 0.268065251327135 
2083	 0.268244162565514 
2084	 0.26842350984666 
2085	 0.268610216680676 
2086	 0.268812634772589 
2087	 0.26899075720433 
2088	 0.269151194924692 
2089	 0.26933140030534 
2090	 0.269525462418547 
2091	 0.269688959815993 
2092	 0.269845956077855 
2093	 0.270003662949405 
2094	 0.270113812484256 
2095	 0.270266985743651 
2096	 0.270469814571097 
2097	 0.270645025885111 
2098	 0.27081393855925 
2099	 0.270992362166098 
2100	 0.271166103187198 
2101	 0.271323247295142 
2102	 0.271494510413974 
2103	 0.271682329320043 
2104	 0.271857871755921 
2105	 0.272019390022418 
2106	 0.272198886571369 
2107	 0.272395946832842 
2108	 0.272574091510176 
2109	 0.272736773411041 
2110	 0.272924554625356 
2111	 0.2731085304543 
2112	 0.273303416571943 
2113	 0.273518388126517 
2114	 0.273759614876688 
2115	 0.273956705397048 
2116	 0.274134262755225 
2117	 0.274321209708976 
2118	 0.274485502227172 
2119	 0.274677458028628 
2120	 0.27490393898806 
2121	 0.275089654295606 
2122	 0.275260945116196 
2123	 0.275435938334061 
2124	 0.275612516429559 
2125	 0.27575224374624 
2126	 0.275885543547432 
2127	 0.27600076978319 
2128	 0.276042113214014 
2129	 0.276128021743058 
2130	 0.276239154026255 
2131	 0.276351511086842 
2132	 0.276442097556698 
2133	 0.27654751810813 
2134	 0.276621761578326 
2135	 0.27666037294786 
2136	 0.276710693389698 
2137	 0.276774161928807 
2138	 0.276795300154065 
2139	 0.276801148839226 
2140	 0.276783111015347 
2141	 0.2767340780472 
2142	 0.276670297681043 
2143	 0.276586405199913 
2144	 0.276486761805387 
2145	 0.276345631817298 
2146	 0.276221872042652 
2147	 0.276092388635136 
2148	 0.275968005948525 
2149	 0.275839863233179 
2150	 0.275733034232778 
2151	 0.275580113298063 
2152	 0.275406310837855 
2153	 0.275221449098773 
2154	 0.275001547158022 
2155	 0.274796227100874 
2156	 0.274607985187686 
2157	 0.274379538409483 
2158	 0.27413513619841 
2159	 0.273876276666225 
2160	 0.273566965839317 
2161	 0.27328174932391 
2162	 0.273004748353765 
2163	 0.272722910968832 
2164	 0.27244700212113 
2165	 0.272167869906192 
2166	 0.27187558416318 
2167	 0.271568269422817 
2168	 0.271271511543936 
2169	 0.270970095178962 
2170	 0.270673614183903 
2171	 0.27039939434329 
2172	 0.270083981746941 
2173	 0.269761171077209 
2174	 0.269410310243269 
2175	 0.269024398914211 
2176	 0.268635516946216 
2177	 0.268233944473228 
2178	 0.267812581763366 
2179	 0.267378465638982 
2180	 0.266925382465506 
2181	 0.266442571230504 
2182	 0.265958951472267 
2183	 0.265460988137663 
2184	 0.264952706658797 
2185	 0.264448879843958 
2186	 0.263941930507658 
2187	 0.263429927765852 
2188	 0.262890500722638 
2189	 0.262409746222859 
2190	 0.261931485504801 
2191	 0.261500571408782 
2192	 0.261115729390945 
2193	 0.260759484448616 
2194	 0.260422615318802 
2195	 0.260130691694046 
2196	 0.259908761103951 
2197	 0.259673961770232 
2198	 0.259444284878307 
2199	 0.25925839794327 
2200	 0.259099458058057 
2201	 0.258952442749734 
2202	 0.258820016336461 
2203	 0.25874242403996 
2204	 0.258692861985823 
2205	 0.258641624552653 
2206	 0.258680143662765 
2207	 0.25877503695536 
2208	 0.258938475002864 
2209	 0.259190263234037 
2210	 0.259435653955487 
2211	 0.259754399762704 
2212	 0.260051611521684 
2213	 0.260348687119893 
2214	 0.260655991607823 
2215	 0.26100755342093 
2216	 0.261311008828431 
2217	 0.261594510726054 
2218	 0.261872124591674 
2219	 0.262123783189856 
2220	 0.262371267520396 
2221	 0.26262312924133 
2222	 0.262858653509328 
2223	 0.263068089158108 
2224	 0.26324792017809 
2225	 0.263410560283635 
2226	 0.263551368981237 
2227	 0.263665364101805 
2228	 0.263758061845035 
2229	 0.263825639686416 
2230	 0.263846432373716 
2231	 0.263890794592368 
2232	 0.263931621744777 
2233	 0.263954833547196 
2234	 0.263984857147763 
2235	 0.263983823011433 
2236	 0.263958779102253 
2237	 0.263916143917511 
2238	 0.263832310212263 
2239	 0.263775128491303 
2240	 0.263720589739359 
2241	 0.263652294732609 
2242	 0.26359135703323 
2243	 0.263524362696467 
2244	 0.263448957070567 
2245	 0.263348167867729 
2246	 0.263260386914966 
2247	 0.263172758920066 
2248	 0.263073990994924 
2249	 0.262970896715139 
2250	 0.262842728638329 
2251	 0.262697532354125 
2252	 0.262555531626151 
2253	 0.262367800167835 
2254	 0.262245786002369 
2255	 0.262148684807864 
2256	 0.262075951711886 
2257	 0.262046881330411 
2258	 0.262012769826088 
2259	 0.262000252631337 
2260	 0.261978586534337 
2261	 0.261965039055952 
2262	 0.261946377548903 
2263	 0.261922326206979 
2264	 0.261899765618104 
2265	 0.261847765735313 
2266	 0.261850048349466 
2267	 0.261895717011065 
2268	 0.261929469969281 
2269	 0.261995863599304 
2270	 0.262059797977339 
2271	 0.262096173109019 
2272	 0.262122860165775 
2273	 0.262143570592249 
2274	 0.262166413445644 
2275	 0.262194828983915 
2276	 0.262213774884529 
2277	 0.262247600423142 
2278	 0.262295397658553 
2279	 0.262334543288422 
2280	 0.262381409400736 
2281	 0.262409421458968 
2282	 0.262411009848125 
2283	 0.262461266377116 
2284	 0.262545833471451 
2285	 0.26258702795332 
2286	 0.262640907873271 
2287	 0.262672550581076 
2288	 0.262654838104449 
2289	 0.26264931075754 
2290	 0.262678708893018 
2291	 0.262655624383298 
2292	 0.262586826979042 
2293	 0.262524060605201 
2294	 0.262398836048545 
2295	 0.262343463477372 
2296	 0.262323997402495 
2297	 0.262315644233676 
2298	 0.262357932969278 
2299	 0.262344740211371 
2300	 0.262322333564948 
2301	 0.262307716466175 
2302	 0.262255649996588 
2303	 0.262216293026223 
2304	 0.262172059424098 
2305	 0.262076736316227 
2306	 0.261959522158072 
2307	 0.261799524876257 
2308	 0.261677837054703 
2309	 0.261535303877174 
2310	 0.261407201478524 
2311	 0.261296058889828 
2312	 0.261207812965356 
2313	 0.261131230331109 
2314	 0.261042750355802 
2315	 0.260998011351438 
2316	 0.260903719493174 
2317	 0.260763219143376 
2318	 0.260633116946576 
2319	 0.260505397055722 
2320	 0.260354426403611 
2321	 0.260175541185406 
2322	 0.260005032611579 
2323	 0.259798968037396 
2324	 0.25964075056203 
2325	 0.25951801211636 
2326	 0.259394830656358 
2327	 0.2593137943714 
2328	 0.259202185514709 
2329	 0.259044767159735 
2330	 0.258897723495811 
2331	 0.258755620490792 
2332	 0.258622773856392 
2333	 0.258505790227804 
2334	 0.25838512650224 
2335	 0.258259701970256 
2336	 0.258133029103066 
2337	 0.257987149788125 
2338	 0.257776006194264 
2339	 0.257553061826051 
2340	 0.257327945876356 
2341	 0.257111499050334 
2342	 0.256976676913831 
2343	 0.256880611736461 
2344	 0.256741431502119 
2345	 0.256583030263237 
2346	 0.256431648848809 
2347	 0.256245170568969 
2348	 0.256018615954459 
2349	 0.255783164425159 
2350	 0.255506850521532 
2351	 0.255273091024469 
2352	 0.255010718042525 
2353	 0.254810398275167 
2354	 0.25469765920341 
2355	 0.254534070503897 
2356	 0.254362851108004 
2357	 0.254200977423715 
2358	 0.254030150270518 
2359	 0.253850610010624 
2360	 0.253685776026497 
2361	 0.253511193109918 
2362	 0.253298009861292 
2363	 0.253141741815849 
2364	 0.253034319192588 
2365	 0.252882642395193 
2366	 0.252765182498542 
2367	 0.252568915823243 
2368	 0.252261646467325 
2369	 0.252044586873452 
2370	 0.251813133749236 
2371	 0.251659845130436 
2372	 0.251550532427744 
2373	 0.251359558443434 
2374	 0.251131856898453 
2375	 0.250829574746352 
2376	 0.250451367234997 
2377	 0.2501080292542 
2378	 0.249802793127762 
2379	 0.249453057223825 
2380	 0.249150587930602 
2381	 0.248884388807138 
2382	 0.248605896150681 
2383	 0.248411077858992 
2384	 0.248145860550386 
2385	 0.247848063787142 
2386	 0.247521299396194 
2387	 0.247068855907306 
2388	 0.246660817399594 
2389	 0.246296231922048 
2390	 0.245928038364596 
2391	 0.24557285452591 
2392	 0.245253642497996 
2393	 0.244999781058174 
2394	 0.244764979766274 
2395	 0.244460636319085 
2396	 0.244127098668987 
2397	 0.243829461780085 
2398	 0.243522372464345 
2399	 0.243191226874588 
2400	 0.242928821903663 
2401	 0.242614706706586 
2402	 0.242107151153872 
2403	 0.241762007539414 
2404	 0.241473799083143 
2405	 0.241007312881945 
2406	 0.240651815939449 
2407	 0.240302942198726 
2408	 0.239801710033187 
2409	 0.239277704160182 
2410	 0.238760836033336 
2411	 0.23825176705218 
2412	 0.237845446341943 
2413	 0.237511682507008 
2414	 0.237135324048072 
2415	 0.236761145318578 
2416	 0.236404283244515 
2417	 0.236017155893713 
2418	 0.235613929758731 
2419	 0.235266506216055 
2420	 0.234832168969753 
2421	 0.234279312717625 
2422	 0.233848465753998 
2423	 0.233480949881141 
2424	 0.233059533162836 
2425	 0.232658281820825 
2426	 0.232248281887291 
2427	 0.23178124724772 
2428	 0.231294655377311 
2429	 0.2308304338373 
2430	 0.230312338893464 
2431	 0.229735734056002 
2432	 0.22924221422042 
2433	 0.22875259384998 
2434	 0.228293991810692 
2435	 0.227815742483725 
2436	 0.227460350839482 
2437	 0.227347874337752 
2438	 0.226992823256446 
2439	 0.226513928661752 
2440	 0.226109566847794 
2441	 0.225561378114855 
2442	 0.225045121880729 
2443	 0.22465698384123 
2444	 0.224249375458293 
2445	 0.223742577816904 
2446	 0.223362243202331 
2447	 0.22311380067558 
2448	 0.222839488843408 
2449	 0.222640963472475 
2450	 0.222354438274179 
2451	 0.22207862962915 
2452	 0.221646253332036 
2453	 0.220990544307562 
2454	 0.220510885964097 
2455	 0.220009010268895 
2456	 0.219602205877815 
2457	 0.219415518155934 
2458	 0.219064677569357 
2459	 0.218575348772893 
2460	 0.218294844628694 
2461	 0.218102993720251 
2462	 0.217805123951855 
2463	 0.21761475603203 
2464	 0.217258755065809 
2465	 0.216692018119853 
2466	 0.216278987952982 
2467	 0.215827861994619 
2468	 0.215539823868381 
2469	 0.215435796653857 
2470	 0.215220672200255 
2471	 0.215109518790996 
2472	 0.214735060538903 
2473	 0.214334614875199 
2474	 0.214075862227225 
2475	 0.213758641590308 
2476	 0.213654902288588 
2477	 0.213410763283754 
2478	 0.212977020949071 
2479	 0.212637137931579 
2480	 0.212196337963765 
2481	 0.211771066525989 
2482	 0.211584208378944 
2483	 0.211395835371218 
2484	 0.210918335936741 
2485	 0.210507157482876 
2486	 0.210152047191479 
2487	 0.209755384836298 
2488	 0.209586539640098 
2489	 0.209369630335904 
2490	 0.209116265323064 
2491	 0.208830485314599 
2492	 0.208511451797005 
2493	 0.208279426841131 
2494	 0.207932656260241 
2495	 0.20761058196883 
2496	 0.207447942922507 
2497	 0.20734517081874 
2498	 0.207202780138875 
2499	 0.206982469340869 
2500	 0.206706713874831 
