Wavelength	mm1800000.asd
350	 5.33494184920128E-02 
351	 5.99859241923046E-02 
352	 6.21987626575032E-02 
353	 5.77494026192677E-02 
354	 5.56216650018335E-02 
355	 5.05172564228867E-02 
356	 4.85687367606067E-02 
357	 5.43389531820827E-02 
358	 5.81318687988709E-02 
359	 5.69192789717817E-02 
360	 5.39595554015454E-02 
361	 5.53708175829657E-02 
362	 5.31338876325535E-02 
363	 5.42301151969074E-02 
364	 5.93498226793232E-02 
365	 5.69249889978435E-02 
366	 0.053374688540574 
367	 5.26648492865258E-02 
368	 5.63296424247779E-02 
369	 6.07519404203102E-02 
370	 5.92608409163797E-02 
371	 5.48459641687274E-02 
372	 0.056488786796108 
373	 0.06138271403297 
374	 6.38705852256927E-02 
375	 6.23618388771187E-02 
376	 6.27632468957502E-02 
377	 6.02747528157389E-02 
378	 5.93775842939411E-02 
379	 6.42164571723908E-02 
380	 0.066337746903832 
381	 6.49639363294888E-02 
382	 6.41855919080659E-02 
383	 7.02139603220324E-02 
384	 7.11556624911144E-02 
385	 6.99436540463181E-02 
386	 7.03329626136944E-02 
387	 7.36651851430013E-02 
388	 7.40540326839137E-02 
389	 7.40216658377795E-02 
390	 7.70287858969159E-02 
391	 7.71255354090144E-02 
392	 7.70481735825226E-02 
393	 0.07871707623576 
394	 8.26107123215042E-02 
395	 8.29673824370169E-02 
396	 8.31306038958835E-02 
397	 8.55264140086323E-02 
398	 8.74442642303754E-02 
399	 8.91466510651097E-02 
400	 0.089970305596451 
401	 0.089516243218738 
402	 9.00153991511201E-02 
403	 9.10146704844388E-02 
404	 9.25453660650134E-02 
405	 0.095251195795223 
406	 9.67703134944671E-02 
407	 9.76213890535164E-02 
408	 9.83070124096466E-02 
409	 9.73853576858491E-02 
410	 0.097808175752587 
411	 9.91355141309695E-02 
412	 9.96279579246741E-02 
413	 0.101078308728353 
414	 0.101681690763925 
415	 0.101300389838492 
416	 0.10224807172634 
417	 0.102904241817742 
418	 0.103675390162892 
419	 0.10488780500192 
420	 0.104990125992333 
421	 0.104681318216923 
422	 0.104658436099454 
423	 0.105380194868821 
424	 0.104979637044821 
425	 0.104775661954017 
426	 0.105396120960958 
427	 0.105594104909811 
428	 0.104926930351503 
429	 0.104175924293769 
430	 0.104231292277213 
431	 0.104224468200298 
432	 0.104165437919495 
433	 0.104256117397833 
434	 0.104803199178927 
435	 0.105063701502802 
436	 0.105334941953371 
437	 0.105847950418998 
438	 0.106034403262875 
439	 0.106729212789363 
440	 0.107694011932539 
441	 0.108250827444802 
442	 0.10894751314591 
443	 0.109699879334511 
444	 0.11037984812738 
445	 0.110875711733679 
446	 0.111516203497585 
447	 0.112273922337186 
448	 0.113021040076386 
449	 0.113665598348681 
450	 0.114677672274272 
451	 0.115757766077227 
452	 0.116031804063251 
453	 0.11652134209932 
454	 0.11705154265149 
455	 0.117482284569543 
456	 0.118348515997226 
457	 0.118850519322396 
458	 0.119096743919827 
459	 0.119571986310544 
460	 0.120161266872299 
461	 0.120607803837993 
462	 0.120855518583156 
463	 0.121136211154534 
464	 0.121583579119727 
465	 0.122063383856558 
466	 0.122417159763061 
467	 0.122735371445052 
468	 0.123128486788698 
469	 0.123534429635421 
470	 0.123772050662977 
471	 0.124104308634872 
472	 0.124403477634979 
473	 0.124562010792747 
474	 0.124642744527933 
475	 0.124906894586273 
476	 0.125235979183162 
477	 0.125409631287281 
478	 0.125859748555141 
479	 0.126295249310582 
480	 0.126538859760914 
481	 0.126646359275516 
482	 0.127087629461909 
483	 0.127457843747706 
484	 0.127416078547247 
485	 0.127952840595354 
486	 0.128376546750292 
487	 0.128461931125325 
488	 0.128433802314512 
489	 0.128709740998672 
490	 0.129132883130452 
491	 0.129516285411594 
492	 0.129893790386003 
493	 0.130206627624046 
494	 0.130430011643986 
495	 0.130584717925058 
496	 0.130860373435492 
497	 0.131185302363262 
498	 0.131510429532436 
499	 0.131868908698356 
500	 0.132130966307287 
501	 0.132218833888398 
502	 0.132181379219991 
503	 0.132480183940366 
504	 0.132952667542716 
505	 0.133370866932581 
506	 0.13349581840667 
507	 0.133620090335668 
508	 0.133934993121307 
509	 0.134395569231763 
510	 0.134372302502468 
511	 0.134506168133373 
512	 0.134812119361299 
513	 0.134999978597791 
514	 0.135299253966097 
515	 0.135554845757228 
516	 0.135731067409069 
517	 0.136072969440886 
518	 0.136312716882164 
519	 0.136503277526611 
520	 0.136771692715705 
521	 0.137038987763147 
522	 0.137351791579876 
523	 0.137648487650452 
524	 0.137755088100872 
525	 0.137808582084756 
526	 0.137997877444586 
527	 0.13839168017116 
528	 0.138690758052654 
529	 0.138825969427152 
530	 0.138937867159767 
531	 0.139268998776951 
532	 0.139488112843994 
533	 0.13971493975001 
534	 0.14002301460636 
535	 0.14026023517239 
536	 0.140433162552294 
537	 0.140640165089338 
538	 0.140980929787618 
539	 0.141277609148808 
540	 0.141515575699912 
541	 0.141723161063945 
542	 0.141962972870423 
543	 0.142226316090996 
544	 0.142526573667887 
545	 0.142857500704995 
546	 0.143134896101157 
547	 0.143327030652501 
548	 0.143530269116948 
549	 0.143923999528971 
550	 0.144136611980337 
551	 0.144356789861208 
552	 0.144736192123115 
553	 0.145068238737248 
554	 0.145313960208565 
555	 0.145572693436476 
556	 0.145991736440641 
557	 0.146380769357126 
558	 0.146764707599182 
559	 0.147185979850577 
560	 0.147689355908143 
561	 0.148014106906213 
562	 0.148300260118193 
563	 0.148764984268549 
564	 0.14920921380953 
565	 0.149555341270698 
566	 0.149839889298154 
567	 0.150214909680022 
568	 0.150595974621466 
569	 0.151061171166324 
570	 0.151671811620621 
571	 0.152335741045958 
572	 0.152937894950917 
573	 0.153471803662425 
574	 0.154008263528512 
575	 0.154498638543895 
576	 0.15505195881974 
577	 0.155686146873504 
578	 0.156155306734721 
579	 0.156709195379617 
580	 0.157311531791708 
581	 0.157841028684767 
582	 0.158492484397285 
583	 0.159172428178482 
584	 0.159818154979894 
585	 0.160447945873746 
586	 0.161123886038353 
587	 0.161844640157859 
588	 0.162589195487123 
589	 0.163360837380847 
590	 0.164111616937471 
591	 0.164829690847829 
592	 0.165536762045397 
593	 0.166139412325857 
594	 0.166718938900617 
595	 0.167318897521604 
596	 0.167776268876828 
597	 0.16828529477302 
598	 0.168844279935374 
599	 0.169359028567765 
600	 0.169921682074958 
601	 0.17052868448137 
602	 0.171147320888355 
603	 0.171718443414631 
604	 0.172238173640986 
605	 0.172770747155241 
606	 0.173387335266982 
607	 0.174047329985132 
608	 0.174661092013225 
609	 0.175205941836423 
610	 0.175739389325935 
611	 0.176288378439085 
612	 0.17675758728624 
613	 0.177099290369697 
614	 0.177536817675671 
615	 0.17791910609735 
616	 0.178251818844127 
617	 0.178641021852478 
618	 0.179017635028741 
619	 0.179338945552826 
620	 0.179612784435062 
621	 0.179947124939211 
622	 0.180258395949302 
623	 0.180565680196842 
624	 0.180908806938152 
625	 0.181181073813223 
626	 0.181438293392586 
627	 0.181717974332935 
628	 0.182015384594106 
629	 0.182315316850681 
630	 0.18258290887038 
631	 0.182804511874756 
632	 0.183054616238748 
633	 0.183346510943482 
634	 0.183632493413372 
635	 0.18382667447485 
636	 0.184042771884793 
637	 0.184295549304181 
638	 0.184562011448121 
639	 0.184763658762043 
640	 0.185045515988447 
641	 0.18536208425358 
642	 0.185594972325664 
643	 0.185822730474053 
644	 0.186053682407237 
645	 0.186297002782562 
646	 0.186574233818255 
647	 0.186772698906444 
648	 0.186982923778373 
649	 0.18730086478074 
650	 0.187584681657461 
651	 0.187807246743381 
652	 0.188013426218243 
653	 0.188301541203933 
654	 0.188609699754977 
655	 0.188879328526369 
656	 0.189107779658059 
657	 0.189435415217535 
658	 0.189708809421018 
659	 0.189952845547554 
660	 0.19026313993028 
661	 0.19058028831529 
662	 0.190850006472512 
663	 0.191073381298869 
664	 0.191325968314752 
665	 0.191678342354948 
666	 0.19203531817642 
667	 0.192301515904643 
668	 0.192599871880159 
669	 0.192922112769101 
670	 0.193268641715805 
671	 0.193642241239639 
672	 0.193938378142255 
673	 0.194247878805608 
674	 0.194618437873725 
675	 0.194906392368425 
676	 0.195237053149903 
677	 0.195600803577014 
678	 0.195940233752833 
679	 0.196301967913671 
680	 0.196672287203381 
681	 0.197043499810087 
682	 0.197422615170353 
683	 0.197758447290637 
684	 0.198104631807665 
685	 0.198511068843689 
686	 0.198912205752536 
687	 0.199327823006949 
688	 0.199728956198555 
689	 0.200062459058378 
690	 0.200423126347894 
691	 0.200812329542271 
692	 0.201220168110189 
693	 0.201648856738629 
694	 0.202061916691523 
695	 0.202469031236247 
696	 0.202881947434362 
697	 0.203209149949949 
698	 0.203579668992392 
699	 0.20402304521314 
700	 0.204452119465512 
701	 0.204899095730399 
702	 0.205323524844658 
703	 0.205695486810446 
704	 0.206044070402171 
705	 0.206426445386698 
706	 0.206834690618962 
707	 0.20723013638928 
708	 0.207653625325856 
709	 0.208078084863209 
710	 0.208484669107132 
711	 0.208878277206709 
712	 0.209226967012088 
713	 0.209570758657484 
714	 0.209958871477141 
715	 0.21040420569331 
716	 0.210768337200662 
717	 0.211065223782212 
718	 0.211419564683617 
719	 0.211828126363664 
720	 0.212193271212424 
721	 0.212477738220063 
722	 0.212784724357699 
723	 0.213126130454468 
724	 0.213445242238817 
725	 0.213694011870831 
726	 0.214011386389093 
727	 0.214298622485235 
728	 0.214535032240574 
729	 0.214782499197683 
730	 0.215057666218883 
731	 0.215303075920142 
732	 0.21549122158351 
733	 0.215695206991344 
734	 0.215930260996315 
735	 0.21613017092458 
736	 0.216229750645866 
737	 0.216401871308078 
738	 0.216587394766416 
739	 0.216749586639199 
740	 0.216894756005696 
741	 0.216975109424129 
742	 0.217041849415225 
743	 0.21714539401628 
744	 0.217287635634924 
745	 0.21733398724098 
746	 0.217319697369676 
747	 0.217351516153879 
748	 0.217383139582378 
749	 0.217387036342798 
750	 0.217377908660452 
751	 0.217417584067093 
752	 0.217401188212677 
753	 0.21732833347748 
754	 0.217243419180777 
755	 0.217246176213886 
756	 0.217228241508716 
757	 0.217138843793009 
758	 0.216981816054035 
759	 0.216900510553939 
760	 0.216824084345433 
761	 0.21670308882662 
762	 0.216543538867518 
763	 0.216447418591964 
764	 0.216351534294975 
765	 0.216200483550573 
766	 0.216086521129352 
767	 0.215962794138446 
768	 0.215807255461925 
769	 0.215619482674129 
770	 0.215449844272825 
771	 0.215304837985649 
772	 0.2151588057986 
773	 0.214956592976208 
774	 0.21475688848751 
775	 0.214579928783188 
776	 0.214420863571106 
777	 0.214235739895764 
778	 0.214019611745031 
779	 0.213831227840927 
780	 0.21372001745463 
781	 0.213477878037847 
782	 0.213253088759299 
783	 0.213094602914161 
784	 0.212918414857622 
785	 0.212731933614739 
786	 0.212532945136751 
787	 0.212322264954238 
788	 0.212098564544121 
789	 0.211957056401214 
790	 0.211819869801324 
791	 0.211580515325979 
792	 0.211363322403213 
793	 0.211156971609851 
794	 0.210968554801775 
795	 0.210818133607281 
796	 0.210613314818304 
797	 0.210423213527874 
798	 0.210275292525206 
799	 0.210072268893075 
800	 0.209907913903537 
801	 0.209742861264675 
802	 0.209531630470247 
803	 0.209364329637947 
804	 0.209225748899792 
805	 0.209093415953796 
806	 0.20894063659537 
807	 0.208739761395077 
808	 0.208560256503317 
809	 0.208416829158948 
810	 0.208240631954059 
811	 0.208100538521539 
812	 0.20796692416958 
813	 0.207820478709927 
814	 0.20773706866968 
815	 0.207614175270078 
816	 0.207451608644035 
817	 0.207293847909527 
818	 0.207157754293901 
819	 0.207064920830679 
820	 0.206970932584254 
821	 0.206793824401246 
822	 0.206695948926586 
823	 0.206583160115473 
824	 0.206425933979002 
825	 0.2063615894397 
826	 0.206342624128822 
827	 0.206265089968821 
828	 0.206091749437844 
829	 0.206052752643311 
830	 0.205942222882091 
831	 0.205783893658139 
832	 0.205701122070963 
833	 0.20567109731147 
834	 0.205604871594018 
835	 0.205503362538972 
836	 0.205452486067416 
837	 0.205421093627538 
838	 0.20538600638979 
839	 0.20532015742168 
840	 0.205188581252576 
841	 0.205100176150707 
842	 0.205059733491802 
843	 0.205041122509116 
844	 0.205027980406319 
845	 0.20504461547738 
846	 0.205021450347761 
847	 0.204895441987583 
848	 0.204883786606381 
849	 0.204906373248302 
850	 0.204908663090814 
851	 0.204879235167205 
852	 0.204839451921935 
853	 0.204800455809907 
854	 0.204789409307135 
855	 0.204855029111199 
856	 0.204879020599076 
857	 0.204897035841998 
858	 0.204945682088332 
859	 0.204965744479489 
860	 0.204976686965691 
861	 0.204971747679094 
862	 0.204947581991117 
863	 0.204943317135913 
864	 0.20497612583658 
865	 0.205032896635017 
866	 0.205087077309382 
867	 0.205165193406489 
868	 0.205253690301795 
869	 0.205302214619666 
870	 0.205248093901766 
871	 0.205305774281386 
872	 0.205419008724829 
873	 0.205525715794951 
874	 0.205633892921042 
875	 0.205714259877822 
876	 0.205768105166112 
877	 0.205816225230739 
878	 0.205899416064166 
879	 0.206056115467244 
880	 0.206199794238493 
881	 0.206249295987967 
882	 0.206338814592568 
883	 0.206452510231009 
884	 0.206570426295915 
885	 0.206680536915111 
886	 0.206833762634659 
887	 0.20698658629421 
888	 0.207104309030214 
889	 0.207181519867617 
890	 0.207346744398169 
891	 0.207485566883495 
892	 0.207580895102679 
893	 0.207768862516337 
894	 0.207990601646081 
895	 0.208159727605942 
896	 0.208261930719362 
897	 0.208417786669283 
898	 0.208625374943358 
899	 0.208841445528223 
900	 0.209015379132737 
901	 0.209100474533979 
902	 0.209330984085856 
903	 0.209602603445696 
904	 0.209758042794983 
905	 0.209929315856074 
906	 0.210107299397309 
907	 0.210333230047515 
908	 0.21064287081738 
909	 0.210949584812406 
910	 0.211170926773672 
911	 0.211346532001291 
912	 0.211578677220559 
913	 0.211788939360944 
914	 0.212042441987712 
915	 0.212342827876518 
916	 0.212623755656895 
917	 0.212788624074314 
918	 0.213002347834565 
919	 0.213306845182554 
920	 0.213570803418994 
921	 0.213878321340022 
922	 0.214197672320615 
923	 0.214497600457797 
924	 0.214777659466791 
925	 0.215027444924639 
926	 0.215330726189645 
927	 0.215689815848227 
928	 0.215928992411199 
929	 0.216267067640176 
930	 0.216674183681866 
931	 0.217053118175487 
932	 0.217312110759038 
933	 0.217632374850302 
934	 0.21794775980946 
935	 0.21821092108671 
936	 0.218654850726342 
937	 0.219032578512026 
938	 0.219349264391455 
939	 0.219684966859509 
940	 0.220050645412978 
941	 0.220414565507874 
942	 0.220837932719059 
943	 0.221349603761383 
944	 0.221718623075752 
945	 0.222053815224799 
946	 0.222437454091314 
947	 0.22288731578364 
948	 0.223226976116915 
949	 0.223589936472515 
950	 0.223987933020889 
951	 0.224383820431761 
952	 0.224867185878475 
953	 0.225306699868724 
954	 0.225707121970983 
955	 0.226151440333697 
956	 0.226651038885902 
957	 0.227120958600464 
958	 0.227508587947137 
959	 0.227822723105762 
960	 0.228210437527758 
961	 0.22877879956009 
962	 0.229396417631721 
963	 0.229823842155403 
964	 0.230138590106195 
965	 0.230545693554226 
966	 0.231072167354425 
967	 0.231612963555628 
968	 0.232144663790047 
969	 0.232661362704225 
970	 0.233135102884624 
971	 0.233552696307579 
972	 0.234077611415081 
973	 0.234624768759124 
974	 0.235130344708967 
975	 0.23558375902364 
976	 0.236096924339075 
977	 0.236606651164336 
978	 0.237117374662318 
979	 0.237660574194841 
980	 0.238114815040644 
981	 0.238584306306617 
982	 0.239094077030448 
983	 0.239614927639976 
984	 0.240170512379694 
985	 0.240756225983348 
986	 0.241315451219435 
987	 0.241792796833021 
988	 0.242273282998438 
989	 0.242751954946522 
990	 0.243306815535505 
991	 0.24398797552196 
992	 0.24455010142883 
993	 0.245081618708593 
994	 0.245585815154656 
995	 0.246029973607404 
996	 0.246404759960267 
997	 0.246937549279685 
998	 0.247500070246757 
999	 0.247930521999917 
1000	 0.248488916290392 
1001	 0.245328453327554 
1002	 0.245762407718104 
1003	 0.246179221408537 
1004	 0.246622138693215 
1005	 0.247101032184914 
1006	 0.247557079293563 
1007	 0.248013240088425 
1008	 0.248485389016565 
1009	 0.248880302236864 
1010	 0.249278970327079 
1011	 0.249685922210523 
1012	 0.249988911129234 
1013	 0.250346755752168 
1014	 0.250758884786956 
1015	 0.25113268730481 
1016	 0.251606799345051 
1017	 0.252064194124636 
1018	 0.252553105869598 
1019	 0.252946760543921 
1020	 0.253377968323074 
1021	 0.253768983366248 
1022	 0.254045842445024 
1023	 0.254374649833971 
1024	 0.254732387011845 
1025	 0.255034550477222 
1026	 0.25537982638914 
1027	 0.255742343036951 
1028	 0.256074968866405 
1029	 0.256452860159575 
1030	 0.256810334266665 
1031	 0.257149536452021 
1032	 0.257486748761784 
1033	 0.257835231544192 
1034	 0.258136128108288 
1035	 0.258444595476491 
1036	 0.258759814226545 
1037	 0.259083074627685 
1038	 0.259404846797077 
1039	 0.259682357530931 
1040	 0.25999613400566 
1041	 0.260363989443904 
1042	 0.260702130048983 
1043	 0.261025139721273 
1044	 0.261355562188071 
1045	 0.261699165795205 
1046	 0.261982784906885 
1047	 0.26227473236177 
1048	 0.262650517965949 
1049	 0.263002385935169 
1050	 0.263346269951903 
1051	 0.263737125301939 
1052	 0.264075404639025 
1053	 0.264395097166463 
1054	 0.26471549210569 
1055	 0.265020515142472 
1056	 0.26533113357431 
1057	 0.265627800801674 
1058	 0.265909127505352 
1059	 0.266230247309044 
1060	 0.266551875743557 
1061	 0.266880688194656 
1062	 0.267237219956301 
1063	 0.267601243677218 
1064	 0.267978984610513 
1065	 0.268327734917673 
1066	 0.268611902398967 
1067	 0.26889726132695 
1068	 0.26917745001374 
1069	 0.269431939965838 
1070	 0.269725400613624 
1071	 0.270098316706366 
1072	 0.270407157814222 
1073	 0.270690871458746 
1074	 0.270970971042955 
1075	 0.271232757560221 
1076	 0.271506218195364 
1077	 0.271737284321142 
1078	 0.271948092743667 
1079	 0.272191066887282 
1080	 0.272450613686968 
1081	 0.272741676469398 
1082	 0.273028599502581 
1083	 0.273274474215212 
1084	 0.273463563856529 
1085	 0.273709354220912 
1086	 0.273975250532334 
1087	 0.274199795625103 
1088	 0.274437898467133 
1089	 0.274667224216497 
1090	 0.274816063992507 
1091	 0.274989189345773 
1092	 0.275189575864141 
1093	 0.275393998270519 
1094	 0.275592379626763 
1095	 0.275801104854265 
1096	 0.276033477339955 
1097	 0.276254167442341 
1098	 0.276472866511104 
1099	 0.276711721962309 
1100	 0.27691659586622 
1101	 0.277091362012204 
1102	 0.277279827180876 
1103	 0.277456274261878 
1104	 0.277642849155147 
1105	 0.277860580050119 
1106	 0.278059293633894 
1107	 0.278253591092301 
1108	 0.27844835493022 
1109	 0.278607445457629 
1110	 0.2788150077024 
1111	 0.279026487826471 
1112	 0.279259955515689 
1113	 0.279470066973752 
1114	 0.279693659874704 
1115	 0.279892692694745 
1116	 0.280062936177835 
1117	 0.280256730854875 
1118	 0.280457883354948 
1119	 0.280640843760542 
1120	 0.280859644040008 
1121	 0.28107228539106 
1122	 0.281265570820462 
1123	 0.281462687232247 
1124	 0.28166446691973 
1125	 0.281870931967459 
1126	 0.282049896058246 
1127	 0.282211093874965 
1128	 0.282399748000361 
1129	 0.282588222480211 
1130	 0.282760996152045 
1131	 0.282946510667754 
1132	 0.283130171530169 
1133	 0.283271012203595 
1134	 0.283449545995365 
1135	 0.283659051739989 
1136	 0.283883875438173 
1137	 0.284085310145525 
1138	 0.284271517218039 
1139	 0.284452624203226 
1140	 0.284610327321964 
1141	 0.284777507820265 
1142	 0.284959011894245 
1143	 0.28511671795306 
1144	 0.285267808802039 
1145	 0.285401695609029 
1146	 0.285503552890305 
1147	 0.285623703677857 
1148	 0.285732538524987 
1149	 0.285858775236751 
1150	 0.286002079260447 
1151	 0.286145525581851 
1152	 0.286298892169315 
1153	 0.286444230737882 
1154	 0.286589820475206 
1155	 0.286739068547737 
1156	 0.286882167080252 
1157	 0.287027151345115 
1158	 0.287158357477161 
1159	 0.287274006629465 
1160	 0.287403674311099 
1161	 0.287520936793755 
1162	 0.287654562012238 
1163	 0.287822227010879 
1164	 0.287963162300952 
1165	 0.288087147427742 
1166	 0.288224991668881 
1167	 0.28836490756343 
1168	 0.288470001620134 
1169	 0.288612309793417 
1170	 0.288777289019903 
1171	 0.288929785388648 
1172	 0.289101717434522 
1173	 0.289239702623301 
1174	 0.28935536479648 
1175	 0.289477959273522 
1176	 0.289575479396869 
1177	 0.289697769768889 
1178	 0.289844507886836 
1179	 0.289975868331776 
1180	 0.290109232287601 
1181	 0.29023761206253 
1182	 0.290360550936381 
1183	 0.290476108670134 
1184	 0.290591490430957 
1185	 0.290703144299605 
1186	 0.290821005912458 
1187	 0.290934057382212 
1188	 0.291056860831131 
1189	 0.291186647334912 
1190	 0.291319786597497 
1191	 0.291469541179294 
1192	 0.291596820423299 
1193	 0.291721797005107 
1194	 0.291838003901286 
1195	 0.291918237778729 
1196	 0.292029312509545 
1197	 0.292168969310594 
1198	 0.292287224028072 
1199	 0.29240245371726 
1200	 0.292520788536206 
1201	 0.292645398903716 
1202	 0.292763598361016 
1203	 0.292875067468344 
1204	 0.292995337464952 
1205	 0.293113006064879 
1206	 0.293207157529582 
1207	 0.293323037454513 
1208	 0.293473118257208 
1209	 0.293591343363608 
1210	 0.293691629635372 
1211	 0.293800184356775 
1212	 0.293898610399372 
1213	 0.294000574351289 
1214	 0.294112783944341 
1215	 0.29421891980915 
1216	 0.294321856032753 
1217	 0.294418875432255 
1218	 0.294518170924924 
1219	 0.294613134840989 
1220	 0.294717293327397 
1221	 0.294831736298236 
1222	 0.294929730759488 
1223	 0.29502819542932 
1224	 0.295119951332753 
1225	 0.295183694111461 
1226	 0.295276523829817 
1227	 0.295390596306613 
1228	 0.295491813809597 
1229	 0.295609174516442 
1230	 0.295708543661034 
1231	 0.295784646816524 
1232	 0.295868746682348 
1233	 0.295952269806812 
1234	 0.296027304817386 
1235	 0.296120578462225 
1236	 0.296229940379238 
1237	 0.296320837483557 
1238	 0.296420812305031 
1239	 0.296499310641323 
1240	 0.296541281928385 
1241	 0.296620354544214 
1242	 0.296713112768702 
1243	 0.296798572467385 
1244	 0.296902539997435 
1245	 0.296995666721704 
1246	 0.297071294422533 
1247	 0.297155685216298 
1248	 0.297236863221719 
1249	 0.297338808894548 
1250	 0.297438731043306 
1251	 0.297513640560829 
1252	 0.297604525341763 
1253	 0.297703448859904 
1254	 0.297783485472666 
1255	 0.29786304373273 
1256	 0.29793161276879 
1257	 0.297986604710073 
1258	 0.298035294812143 
1259	 0.298065440314933 
1260	 0.298115855224533 
1261	 0.298153401189079 
1262	 0.298214030097447 
1263	 0.298318995874701 
1264	 0.29839133562306 
1265	 0.298453730475888 
1266	 0.298522118234116 
1267	 0.298593790603518 
1268	 0.298627968214068 
1269	 0.29868971682485 
1270	 0.298760998862863 
1271	 0.298836346153908 
1272	 0.298918140962909 
1273	 0.298998779644932 
1274	 0.299086204620507 
1275	 0.299171571362799 
1276	 0.299235264303394 
1277	 0.299337940692653 
1278	 0.299461979129497 
1279	 0.299591432179003 
1280	 0.299751784434814 
1281	 0.299902764700997 
1282	 0.300068811262555 
1283	 0.300211935026456 
1284	 0.300352501273102 
1285	 0.300469536211307 
1286	 0.300575619102514 
1287	 0.300696635622766 
1288	 0.300816677545841 
1289	 0.300943467206424 
1290	 0.301061043144215 
1291	 0.301173514814482 
1292	 0.301285858423727 
1293	 0.301404205057367 
1294	 0.301510484970064 
1295	 0.301619868569572 
1296	 0.301706790141681 
1297	 0.301772539623524 
1298	 0.301836142294392 
1299	 0.301886089497222 
1300	 0.301932773091175 
1301	 0.30197391325865 
1302	 0.302012732398169 
1303	 0.302042871832441 
1304	 0.302077219486288 
1305	 0.302108208183806 
1306	 0.302109661304487 
1307	 0.302102976985875 
1308	 0.302096661575296 
1309	 0.302090393366201 
1310	 0.302089402405362 
1311	 0.302070448186788 
1312	 0.30203786054668 
1313	 0.302013667514073 
1314	 0.301981597937986 
1315	 0.301947591173187 
1316	 0.301913911330461 
1317	 0.30188726314165 
1318	 0.301857567385357 
1319	 0.301829364081618 
1320	 0.301818177976475 
1321	 0.301794545803191 
1322	 0.301758175969537 
1323	 0.301725769010243 
1324	 0.301692129910818 
1325	 0.301662488195064 
1326	 0.30164355282125 
1327	 0.301600456522741 
1328	 0.301561809240226 
1329	 0.301529442564665 
1330	 0.301477838280035 
1331	 0.301419452512904 
1332	 0.301351146803836 
1333	 0.301259251620223 
1334	 0.30118766373903 
1335	 0.301105334891311 
1336	 0.301053160429713 
1337	 0.301026824196097 
1338	 0.300990105016042 
1339	 0.300972928340512 
1340	 0.300936973549326 
1341	 0.300886380227503 
1342	 0.300844607710883 
1343	 0.300794473387777 
1344	 0.300758240704657 
1345	 0.300733375457173 
1346	 0.300688578111668 
1347	 0.30066352709966 
1348	 0.300629574403796 
1349	 0.300560415748131 
1350	 0.300502745778576 
1351	 0.300448385355672 
1352	 0.300380002846596 
1353	 0.300324004358049 
1354	 0.300290635755734 
1355	 0.300238292457613 
1356	 0.300172188170952 
1357	 0.300110799243312 
1358	 0.300044812689341 
1359	 0.299989330933381 
1360	 0.299928175194345 
1361	 0.299885808034532 
1362	 0.299878518642746 
1363	 0.299836811524505 
1364	 0.29978004842829 
1365	 0.29973609503568 
1366	 0.299682960857991 
1367	 0.299625833883852 
1368	 0.299588246175315 
1369	 0.299550226593351 
1370	 0.299493594893416 
1371	 0.299423640084807 
1372	 0.299338179508672 
1373	 0.299246626877252 
1374	 0.299138597106915 
1375	 0.299019548118683 
1376	 0.29887143577538 
1377	 0.298711778088059 
1378	 0.298520089948135 
1379	 0.298295288757214 
1380	 0.298062892451393 
1381	 0.297810865501926 
1382	 0.297539411593169 
1383	 0.297259767992938 
1384	 0.296946083970846 
1385	 0.296623226091492 
1386	 0.296251329284181 
1387	 0.295854421590089 
1388	 0.295411237144044 
1389	 0.294935286784578 
1390	 0.294398876333305 
1391	 0.293814114772594 
1392	 0.293171280310327 
1393	 0.292468747990239 
1394	 0.291746028851119 
1395	 0.29098534186144 
1396	 0.290199416857318 
1397	 0.289423709735853 
1398	 0.288627682773718 
1399	 0.287838345839493 
1400	 0.287052607762725 
1401	 0.286270752398332 
1402	 0.285472872266065 
1403	 0.284709475761829 
1404	 0.2839411449391 
1405	 0.283231557377495 
1406	 0.282553648558473 
1407	 0.281900714613896 
1408	 0.281269595850909 
1409	 0.280705905363813 
1410	 0.280136782033166 
1411	 0.279693963348988 
1412	 0.279328816638427 
1413	 0.279053694532215 
1414	 0.278904982283285 
1415	 0.278826527088635 
1416	 0.278846577085655 
1417	 0.278925823236423 
1418	 0.279011147998854 
1419	 0.279134495938914 
1420	 0.279283982630645 
1421	 0.279418441856846 
1422	 0.279536384047497 
1423	 0.279630552700366 
1424	 0.279659714505567 
1425	 0.279613459218395 
1426	 0.279586653014899 
1427	 0.279513245413063 
1428	 0.279469325116162 
1429	 0.279430424938108 
1430	 0.279392476071995 
1431	 0.27937063957444 
1432	 0.279326476124215 
1433	 0.279266159950374 
1434	 0.279220176314803 
1435	 0.279146188015823 
1436	 0.279112387043343 
1437	 0.279115970653156 
1438	 0.279111979128662 
1439	 0.279121203708604 
1440	 0.279144930285292 
1441	 0.279138520362886 
1442	 0.279112010960772 
1443	 0.279067326229706 
1444	 0.279012369807054 
1445	 0.278989160476425 
1446	 0.278977330194601 
1447	 0.278988785439178 
1448	 0.279015977615536 
1449	 0.279003232374296 
1450	 0.278979335309329 
1451	 0.278961843951886 
1452	 0.278921080938703 
1453	 0.278911689735413 
1454	 0.278921968190016 
1455	 0.278931629079435 
1456	 0.278967267574139 
1457	 0.278963455833033 
1458	 0.278944079526319 
1459	 0.278931668037822 
1460	 0.278883493790333 
1461	 0.278875177282815 
1462	 0.278886866700441 
1463	 0.278904348237468 
1464	 0.27894420765261 
1465	 0.278980646136833 
1466	 0.279026857190422 
1467	 0.279073212847656 
1468	 0.279096802297602 
1469	 0.279162184083595 
1470	 0.279251079992037 
1471	 0.279346509129336 
1472	 0.279477597215702 
1473	 0.27962449029658 
1474	 0.279752618641327 
1475	 0.279885443173438 
1476	 0.280015017771461 
1477	 0.280146154888244 
1478	 0.280298741382309 
1479	 0.280473040849594 
1480	 0.28064774051055 
1481	 0.280818618805404 
1482	 0.280989137441613 
1483	 0.281154541525879 
1484	 0.281319199009693 
1485	 0.281487288353471 
1486	 0.281653928963058 
1487	 0.281811602641256 
1488	 0.281979583931022 
1489	 0.282156242611087 
1490	 0.282325763980035 
1491	 0.28250603079575 
1492	 0.282665483195056 
1493	 0.282810533781639 
1494	 0.282956694918942 
1495	 0.283083098744613 
1496	 0.283224759959303 
1497	 0.283386246653896 
1498	 0.283525558369556 
1499	 0.283663622446488 
1500	 0.283789812432102 
1501	 0.283891396150266 
1502	 0.284000626628983 
1503	 0.284104556133688 
1504	 0.284209367591006 
1505	 0.284345980141643 
1506	 0.284470306982079 
1507	 0.284598520620439 
1508	 0.284740749857877 
1509	 0.284843136096547 
1510	 0.284948286030069 
1511	 0.285054472855516 
1512	 0.285155339588489 
1513	 0.285286707955697 
1514	 0.285411234464249 
1515	 0.285522402327259 
1516	 0.285643112307063 
1517	 0.285755463559966 
1518	 0.285858290277354 
1519	 0.285955776450367 
1520	 0.286052457622229 
1521	 0.286144498669861 
1522	 0.286220131362467 
1523	 0.286307300880305 
1524	 0.286399554866184 
1525	 0.286499311733807 
1526	 0.286608279758299 
1527	 0.286698929024229 
1528	 0.286790444011348 
1529	 0.286874376570643 
1530	 0.286935327386408 
1531	 0.287017583978502 
1532	 0.28711534016885 
1533	 0.287200325546629 
1534	 0.287286490219688 
1535	 0.287366793718717 
1536	 0.287438776154172 
1537	 0.287512000783379 
1538	 0.28758629793693 
1539	 0.287652633367067 
1540	 0.287708576043415 
1541	 0.287773672168057 
1542	 0.287837299206591 
1543	 0.287902063283952 
1544	 0.28798848733806 
1545	 0.288048378581884 
1546	 0.28808330208119 
1547	 0.288130691567462 
1548	 0.288181049577552 
1549	 0.288211947333592 
1550	 0.288268283894226 
1551	 0.288335606002058 
1552	 0.288379742982251 
1553	 0.288446913068716 
1554	 0.288519949500353 
1555	 0.28857034757634 
1556	 0.288626933893195 
1557	 0.288685834177792 
1558	 0.288744752235572 
1559	 0.288812480691689 
1560	 0.288882325378209 
1561	 0.288967613500858 
1562	 0.289032812564787 
1563	 0.289095270113143 
1564	 0.289147559835773 
1565	 0.289187127788179 
1566	 0.289228366278374 
1567	 0.289261274293395 
1568	 0.289298459639776 
1569	 0.289333942323848 
1570	 0.289375275374168 
1571	 0.28942114908419 
1572	 0.28946369338446 
1573	 0.289505963061909 
1574	 0.289552336174825 
1575	 0.289604556191106 
1576	 0.289640414664388 
1577	 0.289675642852413 
1578	 0.289705227380994 
1579	 0.289708033387354 
1580	 0.289740855434396 
1581	 0.289788494778187 
1582	 0.28983181390751 
1583	 0.289888340154321 
1584	 0.289938450295621 
1585	 0.289990655718756 
1586	 0.29003178898155 
1587	 0.290072525325512 
1588	 0.290103072039466 
1589	 0.290112785234951 
1590	 0.29013297377163 
1591	 0.290150649060017 
1592	 0.290174850643272 
1593	 0.290200820512893 
1594	 0.290235381067044 
1595	 0.29027649022471 
1596	 0.290321251143674 
1597	 0.290392375612819 
1598	 0.290433786990412 
1599	 0.29047088555504 
1600	 0.290486100405252 
1601	 0.290455997901921 
1602	 0.290450240707208 
1603	 0.290440654526587 
1604	 0.290442809388577 
1605	 0.290454049045637 
1606	 0.290476760838357 
1607	 0.290515453259613 
1608	 0.290548016946404 
1609	 0.290592260651324 
1610	 0.290649184193953 
1611	 0.290653514919984 
1612	 0.290640481856051 
1613	 0.290631760203779 
1614	 0.290619566108523 
1615	 0.290615474521822 
1616	 0.290616683361645 
1617	 0.290615791971652 
1618	 0.290607358929373 
1619	 0.290636424663068 
1620	 0.290692767635308 
1621	 0.290714250324354 
1622	 0.290743942288024 
1623	 0.290739617177067 
1624	 0.29069703954864 
1625	 0.290680432044986 
1626	 0.290660534408883 
1627	 0.290643889125935 
1628	 0.290628120371086 
1629	 0.290631408023719 
1630	 0.290633509258205 
1631	 0.290660320968925 
1632	 0.290725213038263 
1633	 0.290748032097945 
1634	 0.29077531276713 
1635	 0.290772399172714 
1636	 0.290731837613652 
1637	 0.290714483984309 
1638	 0.290685535506462 
1639	 0.29067735169334 
1640	 0.290682767951542 
1641	 0.290689484061279 
1642	 0.290701871695608 
1643	 0.290722880682926 
1644	 0.290755392116732 
1645	 0.290779678601287 
1646	 0.290819662694201 
1647	 0.29082903075573 
1648	 0.290821358958335 
1649	 0.2908096562914 
1650	 0.290776760471959 
1651	 0.290756060482693 
1652	 0.290737870948597 
1653	 0.290712681647079 
1654	 0.290682230635864 
1655	 0.290660383039105 
1656	 0.290642104523042 
1657	 0.290613069679021 
1658	 0.290582493295288 
1659	 0.290557446103302 
1660	 0.29052287564446 
1661	 0.290496333436871 
1662	 0.290487053480308 
1663	 0.290462162649542 
1664	 0.290424806742874 
1665	 0.290396635776366 
1666	 0.290366140587317 
1667	 0.290343674267782 
1668	 0.290335865077713 
1669	 0.290309051402216 
1670	 0.290277726976876 
1671	 0.290244599992455 
1672	 0.290185982616548 
1673	 0.290162469284367 
1674	 0.290164417394364 
1675	 0.29014867258381 
1676	 0.290137378392886 
1677	 0.290132109947816 
1678	 0.290131393921299 
1679	 0.290108873472539 
1680	 0.290080077593617 
1681	 0.29006229930918 
1682	 0.290013974881799 
1683	 0.290004879365893 
1684	 0.290051138487305 
1685	 0.290048303056539 
1686	 0.290039339988727 
1687	 0.290013646988193 
1688	 0.289947062391607 
1689	 0.289910270944235 
1690	 0.289892294047067 
1691	 0.289846039100786 
1692	 0.289782807836892 
1693	 0.289745270837161 
1694	 0.289690113448388 
1695	 0.289665696647491 
1696	 0.289688672958765 
1697	 0.289685559480784 
1698	 0.289675617192998 
1699	 0.289671727821162 
1700	 0.289677716288631 
1701	 0.289658911391452 
1702	 0.289648419802361 
1703	 0.289595700223572 
1704	 0.289486524575754 
1705	 0.289422906215629 
1706	 0.289358797260714 
1707	 0.289291453749394 
1708	 0.289247996155484 
1709	 0.289189278211211 
1710	 0.289104160255435 
1711	 0.289043939619835 
1712	 0.289005816269527 
1713	 0.288950191428895 
1714	 0.288891290655543 
1715	 0.28883031434643 
1716	 0.288745003530051 
1717	 0.28870318819034 
1718	 0.288691633227006 
1719	 0.288660510903824 
1720	 0.288656799813624 
1721	 0.288616887420813 
1722	 0.288545040752742 
1723	 0.288483025535712 
1724	 0.288407074945639 
1725	 0.288352174929798 
1726	 0.288311297616641 
1727	 0.288243253847213 
1728	 0.288175633210381 
1729	 0.288104828933349 
1730	 0.288017158000119 
1731	 0.287929121273171 
1732	 0.28784866644742 
1733	 0.287755453202523 
1734	 0.287634942645586 
1735	 0.28754277399195 
1736	 0.287470692321911 
1737	 0.287371008326005 
1738	 0.287262376741497 
1739	 0.287168849494659 
1740	 0.287063399744119 
1741	 0.28698250914718 
1742	 0.286933547280663 
1743	 0.286855000848784 
1744	 0.286766080932694 
1745	 0.286675007074453 
1746	 0.286571422043711 
1747	 0.286482384775873 
1748	 0.28641646932442 
1749	 0.28634650114822 
1750	 0.28626364369851 
1751	 0.286206020323676 
1752	 0.286130339449167 
1753	 0.286014357109182 
1754	 0.285898618912511 
1755	 0.285743094299864 
1756	 0.285574141061736 
1757	 0.285463823403148 
1758	 0.285379364493398 
1759	 0.285319274348883 
1760	 0.285286697716726 
1761	 0.285228433683306 
1762	 0.285152527488063 
1763	 0.285064565816487 
1764	 0.284954088149432 
1765	 0.284864184876939 
1766	 0.284755565113186 
1767	 0.284622401441772 
1768	 0.284509876982545 
1769	 0.284412164634251 
1770	 0.284349746760322 
1771	 0.284307532597008 
1772	 0.284255099156362 
1773	 0.284181473428325 
1774	 0.284087812115568 
1775	 0.28400534732987 
1776	 0.283951867978308 
1777	 0.283887644939375 
1778	 0.283794451459529 
1779	 0.283711051224407 
1780	 0.28361886682631 
1781	 0.283534675628659 
1782	 0.283504095584437 
1783	 0.283479130805108 
1784	 0.283433893452693 
1785	 0.283379799343541 
1786	 0.28334248552309 
1787	 0.283315880857255 
1788	 0.283273009186961 
1789	 0.283235382288633 
1790	 0.283184399341695 
1791	 0.283102787337495 
1792	 0.283042898653492 
1793	 0.282984483932986 
1794	 0.282953050569367 
1795	 0.282946941896763 
1796	 0.282924003112838 
1797	 0.282920956758229 
1798	 0.282901648040694 
1799	 0.282863889110672 
1800	 0.282830367752166 
1801	 0.281491938564171 
1802	 0.281669141812109 
1803	 0.281888867102334 
1804	 0.282106859717702 
1805	 0.282338847380312 
1806	 0.28256953916714 
1807	 0.282779811110171 
1808	 0.282959471417184 
1809	 0.283114670710912 
1810	 0.283248287575029 
1811	 0.283352082675171 
1812	 0.283457397837205 
1813	 0.283538724939428 
1814	 0.283603316406668 
1815	 0.2836133762433 
1816	 0.283613036866757 
1817	 0.283629607173096 
1818	 0.283627407916177 
1819	 0.283633125516067 
1820	 0.283657761493002 
1821	 0.283672779934214 
1822	 0.283662894191144 
1823	 0.28367012228908 
1824	 0.283694886102055 
1825	 0.283700246538285 
1826	 0.283719532849291 
1827	 0.283716487095351 
1828	 0.283671231179368 
1829	 0.283574701346462 
1830	 0.283518057446755 
1831	 0.283443575396932 
1832	 0.28336754361325 
1833	 0.283337746056125 
1834	 0.283292456585142 
1835	 0.283239268979283 
1836	 0.283183693668712 
1837	 0.283108189948135 
1838	 0.283035613897274 
1839	 0.282983314449857 
1840	 0.282941251809111 
1841	 0.282897685141592 
1842	 0.282838330798491 
1843	 0.282796042782787 
1844	 0.282729012573642 
1845	 0.282636714572125 
1846	 0.282596666640644 
1847	 0.282553812982405 
1848	 0.282499159631041 
1849	 0.282464063742341 
1850	 0.282420529605296 
1851	 0.282373683125302 
1852	 0.282322920737512 
1853	 0.282270572311391 
1854	 0.282200397541165 
1855	 0.28212245639983 
1856	 0.282023506649331 
1857	 0.281900000141313 
1858	 0.281755797509815 
1859	 0.281594503320378 
1860	 0.281419130498286 
1861	 0.281233678921108 
1862	 0.281015445946316 
1863	 0.280767215749442 
1864	 0.280490771095319 
1865	 0.280196935502823 
1866	 0.279895264763314 
1867	 0.279577123694021 
1868	 0.27924314462714 
1869	 0.278859504753064 
1870	 0.27844987431309 
1871	 0.27801084278055 
1872	 0.277546364664584 
1873	 0.277057415432949 
1874	 0.276544520530733 
1875	 0.275964614945813 
1876	 0.275350617022071 
1877	 0.274678502198884 
1878	 0.273930878295912 
1879	 0.273154850850342 
1880	 0.27229463064999 
1881	 0.271373105525972 
1882	 0.270367368493387 
1883	 0.269296150211027 
1884	 0.268112846183615 
1885	 0.266868983514927 
1886	 0.265561049916703 
1887	 0.264160871757618 
1888	 0.262656905720318 
1889	 0.261067288707591 
1890	 0.259419402160269 
1891	 0.257739738560746 
1892	 0.255975681966189 
1893	 0.254229735250096 
1894	 0.252468758512888 
1895	 0.250666457603898 
1896	 0.248835409706215 
1897	 0.247026864380582 
1898	 0.24519521239387 
1899	 0.243391979187818 
1900	 0.241651067695196 
1901	 0.239940193007586 
1902	 0.238306671862577 
1903	 0.236759815669267 
1904	 0.235239332048419 
1905	 0.233757700551433 
1906	 0.23235295015829 
1907	 0.231006255917785 
1908	 0.229720994866197 
1909	 0.228525549364243 
1910	 0.227386829993369 
1911	 0.226319095479026 
1912	 0.225308018647139 
1913	 0.224337405792415 
1914	 0.223415964396176 
1915	 0.222560881532753 
1916	 0.221757235930837 
1917	 0.220993263159784 
1918	 0.220318079541641 
1919	 0.219675018783469 
1920	 0.219069116944828 
1921	 0.218536442816211 
1922	 0.218067057027497 
1923	 0.217663846584851 
1924	 0.217289749067877 
1925	 0.216983303125262 
1926	 0.216691144166965 
1927	 0.216426492421572 
1928	 0.216186463999997 
1929	 0.215987297557077 
1930	 0.21583599128195 
1931	 0.215728954025907 
1932	 0.215642933062311 
1933	 0.215596863318358 
1934	 0.215585457648439 
1935	 0.215593651050477 
1936	 0.215628648172387 
1937	 0.215684639894472 
1938	 0.215777313959246 
1939	 0.215871243027604 
1940	 0.215974514314927 
1941	 0.216089593153737 
1942	 0.21624252916513 
1943	 0.216415165130278 
1944	 0.216604274263849 
1945	 0.216848250203946 
1946	 0.217092935467555 
1947	 0.217349511237147 
1948	 0.217618412164349 
1949	 0.217910510997899 
1950	 0.218202235436343 
1951	 0.218488908507446 
1952	 0.218823582851277 
1953	 0.219148324919352 
1954	 0.219479696523451 
1955	 0.219813080274041 
1956	 0.220139951955502 
1957	 0.22048111379231 
1958	 0.220819554961563 
1959	 0.221182750877287 
1960	 0.221582437840093 
1961	 0.221952692780158 
1962	 0.222316858363314 
1963	 0.222693265649276 
1964	 0.223052672845864 
1965	 0.223418592833506 
1966	 0.223842545656021 
1967	 0.224291191620114 
1968	 0.224737725245558 
1969	 0.225225268665345 
1970	 0.225671116010192 
1971	 0.226099509216075 
1972	 0.226535262604964 
1973	 0.226960588625499 
1974	 0.227392264922825 
1975	 0.227841299308465 
1976	 0.228259851169145 
1977	 0.228680582083669 
1978	 0.229111081352669 
1979	 0.229533026765856 
1980	 0.229974725697157 
1981	 0.230402026944811 
1982	 0.230818520562762 
1983	 0.231251189494758 
1984	 0.231677699493292 
1985	 0.232126027477176 
1986	 0.232614534156769 
1987	 0.233067566451885 
1988	 0.233517814452341 
1989	 0.233963135728917 
1990	 0.234362287276081 
1991	 0.23477513309668 
1992	 0.235204786905204 
1993	 0.235643961077469 
1994	 0.236078179761373 
1995	 0.23652305145783 
1996	 0.236967933704355 
1997	 0.237417429611849 
1998	 0.237845014175358 
1999	 0.238269799672428 
2000	 0.238699176080205 
2001	 0.239102373191746 
2002	 0.239526122358883 
2003	 0.239979880857215 
2004	 0.240402628800958 
2005	 0.240819722086482 
2006	 0.241230347032155 
2007	 0.241629461716321 
2008	 0.242000474108094 
2009	 0.242397799844342 
2010	 0.242801631389321 
2011	 0.243201396845578 
2012	 0.24362148379404 
2013	 0.244021699437996 
2014	 0.244406433448993 
2015	 0.244790591034537 
2016	 0.245156590207172 
2017	 0.245525968851331 
2018	 0.245914727930353 
2019	 0.246318919428354 
2020	 0.246702672132931 
2021	 0.247102069712035 
2022	 0.2474780645823 
2023	 0.247821709145518 
2024	 0.248180961327412 
2025	 0.248550483984391 
2026	 0.248905624971109 
2027	 0.249249472820282 
2028	 0.249593724490431 
2029	 0.249945374991593 
2030	 0.250290785185739 
2031	 0.250645088198269 
2032	 0.251025864063458 
2033	 0.251366526792223 
2034	 0.251691220760584 
2035	 0.252012602005452 
2036	 0.252308166434986 
2037	 0.252612998188946 
2038	 0.252937103657745 
2039	 0.253227533798378 
2040	 0.253490605332971 
2041	 0.25376534368194 
2042	 0.25401840590492 
2043	 0.254255444052991 
2044	 0.254512216815011 
2045	 0.254767258630949 
2046	 0.255047130621768 
2047	 0.25536000128405 
2048	 0.255638377393942 
2049	 0.255938708060438 
2050	 0.256198199326453 
2051	 0.256400651866919 
2052	 0.256629832160726 
2053	 0.256852805412059 
2054	 0.257076523301835 
2055	 0.257302151934233 
2056	 0.257545743817357 
2057	 0.257767321733272 
2058	 0.257981216286853 
2059	 0.258196132432664 
2060	 0.258403052739577 
2061	 0.258610065354573 
2062	 0.258819707351143 
2063	 0.25902171980405 
2064	 0.259217668080165 
2065	 0.25941050683676 
2066	 0.25959918235831 
2067	 0.259782763139749 
2068	 0.259945186912508 
2069	 0.260138593652787 
2070	 0.260318239795176 
2071	 0.260490176433977 
2072	 0.260676762969644 
2073	 0.260869766901964 
2074	 0.261063428343984 
2075	 0.261267259831403 
2076	 0.261466104627056 
2077	 0.261660520663597 
2078	 0.261861494964764 
2079	 0.262072489717759 
2080	 0.2622722119732 
2081	 0.262470603115361 
2082	 0.262667660945632 
2083	 0.262855366692781 
2084	 0.263044112510899 
2085	 0.263236271638059 
2086	 0.263433937491738 
2087	 0.263621117311672 
2088	 0.263808472730133 
2089	 0.263987613691358 
2090	 0.26416051524147 
2091	 0.264327312608014 
2092	 0.26448570890198 
2093	 0.264643721317998 
2094	 0.264800572148943 
2095	 0.264947308041407 
2096	 0.265068954388793 
2097	 0.265220574853918 
2098	 0.265388260401925 
2099	 0.265545614805813 
2100	 0.265701694082909 
2101	 0.265875528201334 
2102	 0.266036632823035 
2103	 0.266173742383642 
2104	 0.266332853175046 
2105	 0.266517590646305 
2106	 0.266679729157782 
2107	 0.266822692412023 
2108	 0.266986905150474 
2109	 0.267145459191832 
2110	 0.26732019700524 
2111	 0.267514337807031 
2112	 0.267712532000782 
2113	 0.267927619131228 
2114	 0.268143939270419 
2115	 0.268327754071821 
2116	 0.2684960109442 
2117	 0.268685213899796 
2118	 0.268855999126466 
2119	 0.269041428296509 
2120	 0.269273119348756 
2121	 0.269450081117785 
2122	 0.269589834444814 
2123	 0.269741410338819 
2124	 0.269880612425128 
2125	 0.270016013316727 
2126	 0.270166971058546 
2127	 0.270285524290294 
2128	 0.270370586754101 
2129	 0.270463978034911 
2130	 0.27054694881691 
2131	 0.270616765324418 
2132	 0.270695993904827 
2133	 0.270787991220794 
2134	 0.270859766002633 
2135	 0.270933357887261 
2136	 0.270973576138815 
2137	 0.270997464494374 
2138	 0.271003192146255 
2139	 0.270977537905192 
2140	 0.270951958724957 
2141	 0.270919783361586 
2142	 0.270870328347191 
2143	 0.270818337101289 
2144	 0.270735104679534 
2145	 0.270613445475376 
2146	 0.270498193923568 
2147	 0.270362948308479 
2148	 0.270220623358093 
2149	 0.270092499687004 
2150	 0.269982493789077 
2151	 0.269842229268843 
2152	 0.269695418071751 
2153	 0.269540419218552 
2154	 0.269377893196802 
2155	 0.269189921524381 
2156	 0.268999400129927 
2157	 0.268777422826363 
2158	 0.268527527437919 
2159	 0.268255875380904 
2160	 0.267932390688636 
2161	 0.267639326086004 
2162	 0.267321153388845 
2163	 0.267031665654417 
2164	 0.266762626347957 
2165	 0.266534843577171 
2166	 0.266266858349146 
2167	 0.265999673616943 
2168	 0.265717982888721 
2169	 0.265422105974901 
2170	 0.265118208082474 
2171	 0.264816633923778 
2172	 0.264483523426832 
2173	 0.264130443594195 
2174	 0.263760611255638 
2175	 0.263358937002945 
2176	 0.262966369894585 
2177	 0.262562296135131 
2178	 0.262152285265945 
2179	 0.261758028281524 
2180	 0.261326568305658 
2181	 0.260881725962254 
2182	 0.260409253248491 
2183	 0.259892288730408 
2184	 0.259358153345578 
2185	 0.258861701490912 
2186	 0.258355507346328 
2187	 0.257873677797919 
2188	 0.257419667159996 
2189	 0.256972161214421 
2190	 0.256524789524702 
2191	 0.256097405080136 
2192	 0.255683086348512 
2193	 0.255302179208804 
2194	 0.254918934611091 
2195	 0.254596028361436 
2196	 0.25432771735788 
2197	 0.254079316460967 
2198	 0.253854089047639 
2199	 0.253681660826214 
2200	 0.253565458300203 
2201	 0.253459737829342 
2202	 0.25341717367576 
2203	 0.253363257751752 
2204	 0.253315234522762 
2205	 0.253233324204327 
2206	 0.253271901272726 
2207	 0.253337843737934 
2208	 0.253495919192005 
2209	 0.253772758749475 
2210	 0.254041736463593 
2211	 0.254376256461952 
2212	 0.254688183839817 
2213	 0.25502452626655 
2214	 0.255355335578023 
2215	 0.255707027937229 
2216	 0.256019415270986 
2217	 0.256339025289669 
2218	 0.256614277559255 
2219	 0.256823181559501 
2220	 0.257055671150052 
2221	 0.257278859158348 
2222	 0.257503152467053 
2223	 0.257721568383425 
2224	 0.257907431058091 
2225	 0.258057571204611 
2226	 0.258169857170804 
2227	 0.258260846095774 
2228	 0.25831163848153 
2229	 0.258368898273487 
2230	 0.258402082722062 
2231	 0.258438346173741 
2232	 0.258482428668781 
2233	 0.258495517624367 
2234	 0.25848370222242 
2235	 0.258475237471405 
2236	 0.258456891653741 
2237	 0.258425072451136 
2238	 0.25837500666974 
2239	 0.258334318885527 
2240	 0.258287560760633 
2241	 0.258235146014304 
2242	 0.258194311270883 
2243	 0.25814109803713 
2244	 0.258088632018399 
2245	 0.257999539952434 
2246	 0.257885956768292 
2247	 0.257797071199312 
2248	 0.257696128003887 
2249	 0.257571130808773 
2250	 0.257470585001061 
2251	 0.257391136108882 
2252	 0.257286763696959 
2253	 0.257164413596246 
2254	 0.257070124154969 
2255	 0.256984368392214 
2256	 0.256894306699846 
2257	 0.256807102575875 
2258	 0.256741109355785 
2259	 0.256662921037799 
2260	 0.256624749494508 
2261	 0.256648981651492 
2262	 0.256637049839077 
2263	 0.256619664131467 
2264	 0.256606353626475 
2265	 0.256564094471813 
2266	 0.256561942623379 
2267	 0.256589301744403 
2268	 0.256625705462579 
2269	 0.256705535622882 
2270	 0.256751749309781 
2271	 0.256804605288364 
2272	 0.256857699146234 
2273	 0.256875682155905 
2274	 0.256885754092834 
2275	 0.256914691769057 
2276	 0.256946640677391 
2277	 0.256964185850365 
2278	 0.256994286861066 
2279	 0.257011857529216 
2280	 0.256984507939851 
2281	 0.25701413384417 
2282	 0.257068686062868 
2283	 0.257130539516451 
2284	 0.257247726226329 
2285	 0.257310257521444 
2286	 0.257363587761423 
2287	 0.257395007712321 
2288	 0.257383224871531 
2289	 0.257380149561589 
2290	 0.257385447294365 
2291	 0.257359773131488 
2292	 0.257293777915136 
2293	 0.257256244964457 
2294	 0.257209613966665 
2295	 0.257166698010669 
2296	 0.257136125189232 
2297	 0.257132913546694 
2298	 0.257077075126025 
2299	 0.257007746569169 
2300	 0.256979592940986 
2301	 0.256967491455566 
2302	 0.256954921826784 
2303	 0.256974710357391 
2304	 0.256956305096189 
2305	 0.256861950112689 
2306	 0.256750264777536 
2307	 0.256576805325638 
2308	 0.256460654160354 
2309	 0.256328404913315 
2310	 0.256214609223143 
2311	 0.25614872254042 
2312	 0.256037983794008 
2313	 0.255881139602483 
2314	 0.255784064552307 
2315	 0.255731309191239 
2316	 0.255644702899351 
2317	 0.255585951521372 
2318	 0.255472070021704 
2319	 0.255292825082868 
2320	 0.255133163762167 
2321	 0.254946701986058 
2322	 0.254797812054579 
2323	 0.254681118924823 
2324	 0.254542813556286 
2325	 0.254409689984194 
2326	 0.254280126823455 
2327	 0.254145657533415 
2328	 0.253995318268546 
2329	 0.253870953220455 
2330	 0.25374223846341 
2331	 0.253632397516603 
2332	 0.253520822054214 
2333	 0.253386631311574 
2334	 0.253261352045025 
2335	 0.25312597179414 
2336	 0.25302220402614 
2337	 0.252948489832572 
2338	 0.252879449271183 
2339	 0.252734841929522 
2340	 0.252498287803384 
2341	 0.252253348468277 
2342	 0.252008655615036 
2343	 0.251819898318489 
2344	 0.251711258152814 
2345	 0.251540434113888 
2346	 0.251364457154957 
2347	 0.251176630055453 
2348	 0.250959311278826 
2349	 0.250748884550239 
2350	 0.250565195976846 
2351	 0.250349991045791 
2352	 0.250063438218238 
2353	 0.249878090885903 
2354	 0.249727463221063 
2355	 0.249570027608695 
2356	 0.249524919568996 
2357	 0.249364071965703 
2358	 0.249090046709373 
2359	 0.248917283762079 
2360	 0.24875540743334 
2361	 0.248566063620463 
2362	 0.248416581612048 
2363	 0.248267660266973 
2364	 0.248082493291754 
2365	 0.247918953889904 
2366	 0.247816572432702 
2367	 0.247665028963555 
2368	 0.247480785012992 
2369	 0.247284653863825 
2370	 0.247063568083363 
2371	 0.246855572164733 
2372	 0.246627125177279 
2373	 0.246324959893642 
2374	 0.246052994670002 
2375	 0.245746309839029 
2376	 0.245404169032521 
2377	 0.24518509696304 
2378	 0.24499549026834 
2379	 0.244710692597454 
2380	 0.244403605471946 
2381	 0.244114259644756 
2382	 0.243791258054618 
2383	 0.243477322762939 
2384	 0.243187257217116 
2385	 0.242925733874999 
2386	 0.24263014915549 
2387	 0.242307205831665 
2388	 0.24212742329346 
2389	 0.241903137780556 
2390	 0.241561670358822 
2391	 0.241284921141783 
2392	 0.240920647462592 
2393	 0.240504981805586 
2394	 0.24022711207385 
2395	 0.239918602035879 
2396	 0.239552735953193 
2397	 0.239211701990814 
2398	 0.238869915991297 
2399	 0.238574729182138 
2400	 0.238311769472395 
2401	 0.238040558926488 
2402	 0.237678466898151 
2403	 0.237248953539482 
2404	 0.236865152659344 
2405	 0.236493836607676 
2406	 0.236121368922164 
2407	 0.235743581542575 
2408	 0.235332042662853 
2409	 0.234939180568169 
2410	 0.234531413671083 
2411	 0.234121918233475 
2412	 0.233671295807382 
2413	 0.233167390111401 
2414	 0.232757391553744 
2415	 0.232397197454381 
2416	 0.232008940758138 
2417	 0.231661541435548 
2418	 0.231246762246209 
2419	 0.230811553283507 
2420	 0.23033518230257 
2421	 0.229792918924851 
2422	 0.229425574141551 
2423	 0.229090111221749 
2424	 0.22866626138996 
2425	 0.228312950189543 
2426	 0.227925531940597 
2427	 0.22744985402003 
2428	 0.227028745630665 
2429	 0.226715041459159 
2430	 0.226309749889811 
2431	 0.22575280448141 
2432	 0.225340439724692 
2433	 0.225053166590239 
2434	 0.224613551478583 
2435	 0.22413250446856 
2436	 0.223700119772651 
2437	 0.22318135574387 
2438	 0.222780859654042 
2439	 0.222532386491129 
2440	 0.222191814517385 
2441	 0.221772152731552 
2442	 0.221446269691756 
2443	 0.221212785072392 
2444	 0.22086071243218 
2445	 0.220509402312139 
2446	 0.220136040737168 
2447	 0.21963522796963 
2448	 0.219210050625596 
2449	 0.218854404894245 
2450	 0.218469119143937 
2451	 0.218041136794514 
2452	 0.2176553790406 
2453	 0.217349788008144 
2454	 0.216977312456764 
2455	 0.216547840621853 
2456	 0.216213076373462 
2457	 0.215887477296492 
2458	 0.215548835625903 
2459	 0.215268156764648 
2460	 0.214956861934004 
2461	 0.214606403130251 
2462	 0.214219045102551 
2463	 0.213841097683831 
2464	 0.213549142456508 
2465	 0.213233600672275 
2466	 0.212990321231612 
2467	 0.212920191029322 
2468	 0.212618103939683 
2469	 0.21215202804437 
2470	 0.211698135455292 
2471	 0.211266461255059 
2472	 0.210868589940142 
2473	 0.210664062708079 
2474	 0.210444578739075 
2475	 0.210221112948093 
2476	 0.210102476999056 
2477	 0.209960276150421 
2478	 0.209619623802855 
2479	 0.209095936579728 
2480	 0.208537950184203 
2481	 0.207927472146873 
2482	 0.207640374623126 
2483	 0.207607358742676 
2484	 0.207477376660675 
2485	 0.207312485193565 
2486	 0.206866406850666 
2487	 0.206341508831357 
2488	 0.206078754542944 
2489	 0.205784687550307 
2490	 0.205573378153311 
2491	 0.205458258414452 
2492	 0.205192679982793 
2493	 0.205025371400798 
2494	 0.204741832069117 
2495	 0.204396382660271 
2496	 0.20424879603569 
2497	 0.203932340134542 
2498	 0.203644423061298 
2499	 0.203413494524133 
2500	 0.20296171306258 
