Wavelength	mm1900007.asd
350	 5.26353252494369E-02 
351	 4.93766450888235E-02 
352	 3.80273649828514E-02 
353	 3.18399838289846E-02 
354	 4.34028368822483E-02 
355	 0.048693362482635 
356	 4.37105822717491E-02 
357	 3.46686221169599E-02 
358	 4.23945461634111E-02 
359	 4.05460323549939E-02 
360	 0.031682078595603 
361	 3.56336440929437E-02 
362	 3.76335495185797E-02 
363	 3.79988933298398E-02 
364	 3.80496651098062E-02 
365	 3.74987686462207E-02 
366	 3.97518800803724E-02 
367	 4.19284516463863E-02 
368	 0.04092706046663 
369	 0.03991963303477 
370	 3.69948564242698E-02 
371	 3.57350153021822E-02 
372	 4.19997775676931E-02 
373	 4.27670428840317E-02 
374	 4.27040627270801E-02 
375	 4.42067000465453E-02 
376	 4.14506898880171E-02 
377	 4.05933428387759E-02 
378	 4.11525933370996E-02 
379	 4.13096650064485E-02 
380	 4.28815965941982E-02 
381	 4.26770571305754E-02 
382	 4.21739932895214E-02 
383	 4.56942067424996E-02 
384	 0.046115060780274 
385	 4.47145380732063E-02 
386	 4.37212681236068E-02 
387	 4.48184273305965E-02 
388	 4.50027883961293E-02 
389	 4.47902889071034E-02 
390	 4.51986718644242E-02 
391	 4.37507797328923E-02 
392	 4.27220225325277E-02 
393	 4.38183912571298E-02 
394	 4.76187680721559E-02 
395	 4.75354463216741E-02 
396	 4.63126315025475E-02 
397	 4.65255755509817E-02 
398	 4.68498362765358E-02 
399	 4.79863483666695E-02 
400	 4.91487089769165E-02 
401	 4.91955021569253E-02 
402	 4.79712752047594E-02 
403	 4.76789582933518E-02 
404	 4.82950607628509E-02 
405	 4.75638193032473E-02 
406	 4.79165743195292E-02 
407	 0.048934030515308 
408	 4.96159759875366E-02 
409	 4.87252154181069E-02 
410	 0.049357238853005 
411	 5.06971602993216E-02 
412	 5.04029010196454E-02 
413	 4.95566419902933E-02 
414	 4.92030099234552E-02 
415	 4.96152422436206E-02 
416	 5.01612908457462E-02 
417	 4.97442755462084E-02 
418	 4.92521989912669E-02 
419	 4.96222209807512E-02 
420	 5.03759128142623E-02 
421	 4.97336191651327E-02 
422	 4.86467814747075E-02 
423	 4.94730181417307E-02 
424	 4.93747714517275E-02 
425	 4.89365531461443E-02 
426	 4.88495825207226E-02 
427	 4.92293675213197E-02 
428	 4.93620263021608E-02 
429	 4.92343885011734E-02 
430	 4.91062205218413E-02 
431	 4.93004561086608E-02 
432	 4.92750270105975E-02 
433	 4.90737627721275E-02 
434	 4.92960777032009E-02 
435	 4.91060356135745E-02 
436	 4.89997376348248E-02 
437	 4.92740671960887E-02 
438	 4.89885080122242E-02 
439	 4.89532457166125E-02 
440	 4.91629106415831E-02 
441	 4.92093679297556E-02 
442	 4.89593274953461E-02 
443	 4.90350751555919E-02 
444	 4.94492825547289E-02 
445	 4.91912161006519E-02 
446	 4.92829156087909E-02 
447	 4.95272188324065E-02 
448	 0.049509522961545 
449	 4.94450243101174E-02 
450	 4.94387914463869E-02 
451	 4.95929769238501E-02 
452	 4.99667143626382E-02 
453	 4.99060845002114E-02 
454	 4.95358280982491E-02 
455	 4.92695535812328E-02 
456	 4.99534003024334E-02 
457	 5.01162611138005E-02 
458	 4.98467176811258E-02 
459	 4.98786016252476E-02 
460	 4.98608229817181E-02 
461	 4.97507674208959E-02 
462	 4.96757724066652E-02 
463	 4.99733072882661E-02 
464	 5.00052423061354E-02 
465	 4.98077991802602E-02 
466	 4.96681355620044E-02 
467	 5.00546931596941E-02 
468	 5.02790943280934E-02 
469	 5.00913449419665E-02 
470	 4.96678639195065E-02 
471	 4.96218404184205E-02 
472	 4.96992692988495E-02 
473	 4.96664005816167E-02 
474	 4.97339372774786E-02 
475	 4.97320674625901E-02 
476	 4.96884438798886E-02 
477	 4.96953350246529E-02 
478	 4.96225676360686E-02 
479	 4.96413385992985E-02 
480	 4.97725462845289E-02 
481	 4.98006395610493E-02 
482	 4.97988081974032E-02 
483	 4.97847641337996E-02 
484	 4.97970945737734E-02 
485	 5.00488843795397E-02 
486	 4.99822813708766E-02 
487	 4.96321946189502E-02 
488	 4.95207310988681E-02 
489	 4.94474545798907E-02 
490	 4.95384006715846E-02 
491	 4.98339448626384E-02 
492	 5.01075749825364E-02 
493	 4.99944261199202E-02 
494	 4.97499756477515E-02 
495	 4.98489989371931E-02 
496	 4.98765702797872E-02 
497	 4.97210022646613E-02 
498	 4.95394397069054E-02 
499	 4.98566624156683E-02 
500	 4.98287619956465E-02 
501	 4.95910700497336E-02 
502	 4.95456824633868E-02 
503	 0.049910043564841 
504	 5.00058263041805E-02 
505	 4.97943280131521E-02 
506	 4.98272410308694E-02 
507	 4.99395463099018E-02 
508	 4.99962044356624E-02 
509	 4.99413977483186E-02 
510	 0.049925504590056 
511	 4.98983185050791E-02 
512	 4.98469823206552E-02 
513	 4.97918038067566E-02 
514	 0.049877907947136 
515	 0.049964583683208 
516	 0.04998762109874 
517	 5.00727446007868E-02 
518	 5.00918863123129E-02 
519	 5.00376305390012E-02 
520	 0.049970518237381 
521	 5.00774460194482E-02 
522	 5.01309284585877E-02 
523	 5.00850124124703E-02 
524	 0.050103700671981 
525	 0.050022893053254 
526	 4.99596304698096E-02 
527	 5.00286856476945E-02 
528	 0.050158581936281 
529	 5.02200705132486E-02 
530	 5.02242837734554E-02 
531	 5.02656287057468E-02 
532	 5.01991025309228E-02 
533	 5.02316443037078E-02 
534	 0.050418883370497 
535	 0.050401537761579 
536	 5.03871294995955E-02 
537	 5.04377362323501E-02 
538	 5.05433710027655E-02 
539	 5.05868059883929E-02 
540	 0.050604987775177 
541	 0.050651858888581 
542	 5.07875533258835E-02 
543	 5.08638531043756E-02 
544	 5.09299983986742E-02 
545	 5.10565158709135E-02 
546	 0.051170609311679 
547	 5.12382530270556E-02 
548	 5.13049037333703E-02 
549	 5.14698664837494E-02 
550	 5.15248611829684E-02 
551	 5.16094900580726E-02 
552	 5.18198199006916E-02 
553	 5.19768741612434E-02 
554	 5.21121387859291E-02 
555	 5.22397775890316E-02 
556	 5.23778033391038E-02 
557	 5.26267825246826E-02 
558	 0.05285500988027 
559	 5.30439576296275E-02 
560	 5.34350304022808E-02 
561	 5.36590308318576E-02 
562	 0.053839441110642 
563	 5.42098269623048E-02 
564	 5.46052007348192E-02 
565	 5.48936097430265E-02 
566	 5.51084799548898E-02 
567	 5.54604209801334E-02 
568	 5.58607821088579E-02 
569	 5.62682507006696E-02 
570	 0.056683273759443 
571	 5.72259950081789E-02 
572	 5.77554575849029E-02 
573	 5.82468717328459E-02 
574	 5.87569984339671E-02 
575	 5.92196873894799E-02 
576	 5.97722218785599E-02 
577	 6.04519039361504E-02 
578	 6.10066849675434E-02 
579	 6.15997166050773E-02 
580	 6.22222134372434E-02 
581	 6.28131671821061E-02 
582	 6.34554807122471E-02 
583	 0.064141695797968 
584	 6.48471829577618E-02 
585	 6.55361034237761E-02 
586	 6.63335369269988E-02 
587	 6.71628647016363E-02 
588	 6.79260521862783E-02 
589	 6.87180344364802E-02 
590	 6.95115598309231E-02 
591	 7.02981624868957E-02 
592	 7.10918012274893E-02 
593	 7.18834834359344E-02 
594	 7.26719015607979E-02 
595	 7.34261837213788E-02 
596	 7.40121234123133E-02 
597	 7.47033297255326E-02 
598	 0.075485083463773 
599	 7.61969099757177E-02 
600	 7.69019684309237E-02 
601	 7.76017584201087E-02 
602	 7.82891584997113E-02 
603	 7.89584448184902E-02 
604	 7.95717888621862E-02 
605	 0.080182742310027 
606	 0.080853009876003 
607	 0.081497147739173 
608	 8.20876626025268E-02 
609	 8.26412071773659E-02 
610	 8.32194999918586E-02 
611	 8.37325942482029E-02 
612	 8.42051872973299E-02 
613	 8.46636824514602E-02 
614	 8.50463231569502E-02 
615	 8.53897735209034E-02 
616	 8.57305094277503E-02 
617	 8.60976907762855E-02 
618	 0.08647140486678 
619	 8.67842692849235E-02 
620	 8.70290076821822E-02 
621	 8.73432259272006E-02 
622	 8.76146405588396E-02 
623	 8.78499740145133E-02 
624	 8.80968986753384E-02 
625	 8.83358664012484E-02 
626	 8.85770517220676E-02 
627	 8.88174210102148E-02 
628	 8.90335956253993E-02 
629	 8.92566844505574E-02 
630	 8.94662613056187E-02 
631	 8.96430902345153E-02 
632	 8.98187887621257E-02 
633	 9.00479534162146E-02 
634	 9.02844416909739E-02 
635	 9.04131920903354E-02 
636	 0.090597971119059 
637	 9.08159133807979E-02 
638	 9.10166632666507E-02 
639	 9.11625505253492E-02 
640	 9.13185782942896E-02 
641	 9.15017811357085E-02 
642	 9.17044251566296E-02 
643	 9.19244270620181E-02 
644	 9.21286288084941E-02 
645	 9.23207535093532E-02 
646	 9.25621193548464E-02 
647	 9.27620854613885E-02 
648	 9.29639376841145E-02 
649	 9.32154352915833E-02 
650	 9.34096055131637E-02 
651	 9.35921367509374E-02 
652	 9.38055842799155E-02 
653	 9.40801516996728E-02 
654	 0.094349038075454 
655	 9.45646118098139E-02 
656	 9.47450185897638E-02 
657	 9.50634886955244E-02 
658	 9.53578991327846E-02 
659	 9.56174118226624E-02 
660	 0.095896668046084 
661	 0.096162334697361 
662	 0.096428066573465 
663	 0.096719381627255 
664	 9.70748012114245E-02 
665	 9.73826556449128E-02 
666	 0.097660035488024 
667	 9.79580000052128E-02 
668	 9.82912796124612E-02 
669	 9.86450923020865E-02 
670	 9.90021617977753E-02 
671	 0.099346595177561 
672	 9.97131360961663E-02 
673	 0.100088701435718 
674	 0.10046679703069 
675	 0.100883663748204 
676	 0.101254256303198 
677	 0.101614061280624 
678	 0.102037564764245 
679	 0.102458766626895 
680	 0.102879917134909 
681	 0.103307482965726 
682	 0.103745982817608 
683	 0.104179443698118 
684	 0.104632581451321 
685	 0.105118456222305 
686	 0.10556749952007 
687	 0.10605814275084 
688	 0.106579683333116 
689	 0.107062053158176 
690	 0.10756091732883 
691	 0.108053819449746 
692	 0.108532461835826 
693	 0.109038570802874 
694	 0.109558959997472 
695	 0.110101239268987 
696	 0.110665741664095 
697	 0.111174051940258 
698	 0.111713197779125 
699	 0.112301123683043 
700	 0.11287293201334 
701	 0.113421239949369 
702	 0.113954384984219 
703	 0.114487458867739 
704	 0.115040423275782 
705	 0.115581865047191 
706	 0.116142797100812 
707	 0.116768263660637 
708	 0.117344569337088 
709	 0.117902514697472 
710	 0.118465103075161 
711	 0.11902204850717 
712	 0.1195845717805 
713	 0.120140204069124 
714	 0.120679731849829 
715	 0.121226887459576 
716	 0.121793136285312 
717	 0.122343105257621 
718	 0.122821758464385 
719	 0.123362811410053 
720	 0.12389514059425 
721	 0.124370853231539 
722	 0.124846285433889 
723	 0.12532787231995 
724	 0.125794433090144 
725	 0.126225115489573 
726	 0.126662586999144 
727	 0.12706726646489 
728	 0.127434365622966 
729	 0.127795694852219 
730	 0.128182913181084 
731	 0.128557740894968 
732	 0.128875017349995 
733	 0.129092514352518 
734	 0.129370418444826 
735	 0.129660039546146 
736	 0.1298545942674 
737	 0.130092625140861 
738	 0.130297728895266 
739	 0.130450212495785 
740	 0.130606918603797 
741	 0.130723501760388 
742	 0.130808491728194 
743	 0.130881212881349 
744	 0.130968618482022 
745	 0.130960916931001 
746	 0.130923869007553 
747	 0.130972940448332 
748	 0.130922505051028 
749	 0.130834693194267 
750	 0.130763608258984 
751	 0.130724128722966 
752	 0.130598365972714 
753	 0.130425724282555 
754	 0.130261518795503 
755	 0.130087094114501 
756	 0.129921238392693 
757	 0.129734289169116 
758	 0.129484842464278 
759	 0.129236645322439 
760	 0.128991397990603 
761	 0.128742279987136 
762	 0.128479781708967 
763	 0.128203154968692 
764	 0.12790478865189 
765	 0.12758349472775 
766	 0.127252576089929 
767	 0.126955206962665 
768	 0.126662710270463 
769	 0.126318245672411 
770	 0.125959398944077 
771	 0.125591785957943 
772	 0.125221327625173 
773	 0.124856764146528 
774	 0.124486944757072 
775	 0.124118209028455 
776	 0.123755683574449 
777	 0.123391913882473 
778	 0.12301608069719 
779	 0.122638672712579 
780	 0.122273436953376 
781	 0.121885016160285 
782	 0.121502984125763 
783	 0.121128894320729 
784	 0.120732971941181 
785	 0.120352699274917 
786	 0.1199792616444 
787	 0.11960096023763 
788	 0.11921532006747 
789	 0.118894584292923 
790	 0.118566373151204 
791	 0.118142200463778 
792	 0.117754380334891 
793	 0.117420899346385 
794	 0.117101813396111 
795	 0.116719476490359 
796	 0.116315237952972 
797	 0.115962374696986 
798	 0.115675097524811 
799	 0.115355225988921 
800	 0.115023937558532 
801	 0.114695215351882 
802	 0.11437607850827 
803	 0.114043661138219 
804	 0.11373405999714 
805	 0.113440233718997 
806	 0.113133120571718 
807	 0.112854372397955 
808	 0.112559813082424 
809	 0.112240494181046 
810	 0.111943158741605 
811	 0.11166564401578 
812	 0.111380590255797 
813	 0.111083812823979 
814	 0.110849494192987 
815	 0.110651045454543 
816	 0.110431305311139 
817	 0.110147823166533 
818	 0.109905757266998 
819	 0.10968730382179 
820	 0.109473354214939 
821	 0.109251956690726 
822	 0.10903968726296 
823	 0.108819325051881 
824	 0.108596180893535 
825	 0.108418482124955 
826	 0.108254972615603 
827	 0.108082153695476 
828	 0.107893232704134 
829	 0.107731393406335 
830	 0.107511731488698 
831	 0.107300394991636 
832	 0.10720181300524 
833	 0.107070364724152 
834	 0.106928393234247 
835	 0.106782920134492 
836	 0.106622367320544 
837	 0.10653183420817 
838	 0.106451591101537 
839	 0.106335524883372 
840	 0.106202864881797 
841	 0.106081525176343 
842	 0.105971793457743 
843	 0.105874059743744 
844	 0.105824309124543 
845	 0.105754728590394 
846	 0.105653259450236 
847	 0.105552617893563 
848	 0.105563334086617 
849	 0.105518400170155 
850	 0.105418989126665 
851	 0.105406946484313 
852	 0.105346939847654 
853	 0.105289374601866 
854	 0.105267793709975 
855	 0.105254089370723 
856	 0.105284366805526 
857	 0.105301826970616 
858	 0.105279726902851 
859	 0.105327981545785 
860	 0.10532700918363 
861	 0.105304251432303 
862	 0.105311594518162 
863	 0.105247746251788 
864	 0.10529655880342 
865	 0.10540603197477 
866	 0.10540710276472 
867	 0.105463151428856 
868	 0.105498009560955 
869	 0.105515279926557 
870	 0.1056093066213 
871	 0.105694992906705 
872	 0.105756727615185 
873	 0.105816954062722 
874	 0.105937354108525 
875	 0.106002763294668 
876	 0.106074110558117 
877	 0.106204095240449 
878	 0.106302469650502 
879	 0.106436542560459 
880	 0.106567407235393 
881	 0.106656855864588 
882	 0.10682679771947 
883	 0.106979397884204 
884	 0.107108656098173 
885	 0.107257014493157 
886	 0.107400528230077 
887	 0.107554152610936 
888	 0.107710407062088 
889	 0.107849906514799 
890	 0.108052670904379 
891	 0.108247132994597 
892	 0.108414302749089 
893	 0.108620876235606 
894	 0.108794994891538 
895	 0.10901494377523 
896	 0.109284864659786 
897	 0.109429568769418 
898	 0.10966877193857 
899	 0.109913742696615 
900	 0.110089979431879 
901	 0.110384038754376 
902	 0.110676921523263 
903	 0.110931545073423 
904	 0.111155049309213 
905	 0.111402851061707 
906	 0.111689403681351 
907	 0.11201035314283 
908	 0.11234608341448 
909	 0.112670936875741 
910	 0.112942240215293 
911	 0.113204169332428 
912	 0.113540010403463 
913	 0.113883590512227 
914	 0.114236681872125 
915	 0.114585376274555 
916	 0.11490653231059 
917	 0.115252209253 
918	 0.115607609178893 
919	 0.11595813838668 
920	 0.116304424876855 
921	 0.11673607915414 
922	 0.117145605275541 
923	 0.117500912095192 
924	 0.117926032447602 
925	 0.118390166827828 
926	 0.118839938826257 
927	 0.119237590889367 
928	 0.119584248166405 
929	 0.120123052612236 
930	 0.120699457998914 
931	 0.121163430124032 
932	 0.121632402522663 
933	 0.122091011879113 
934	 0.122545048564219 
935	 0.123011805707145 
936	 0.123532277790935 
937	 0.124021511134798 
938	 0.124507333793751 
939	 0.125049429587587 
940	 0.125677216357224 
941	 0.126249298027239 
942	 0.126807721442716 
943	 0.127420826941684 
944	 0.127933022661294 
945	 0.128476297399081 
946	 0.129128121366805 
947	 0.129861218728094 
948	 0.130361733151251 
949	 0.130910105905643 
950	 0.131549162047536 
951	 0.132201441267817 
952	 0.13293207487685 
953	 0.133603951992217 
954	 0.134235267277306 
955	 0.134921700148559 
956	 0.135621060912102 
957	 0.136323028466452 
958	 0.136989373136246 
959	 0.137601901142582 
960	 0.138331740956372 
961	 0.139080839850971 
962	 0.139810229443253 
963	 0.140534008899908 
964	 0.141257407254527 
965	 0.142089695002538 
966	 0.142924126009356 
967	 0.143582099865848 
968	 0.14437640510407 
969	 0.14516596471545 
970	 0.145918170478481 
971	 0.146695301864217 
972	 0.147528093833741 
973	 0.148388235430285 
974	 0.149220033886633 
975	 0.149993169906165 
976	 0.150899593872559 
977	 0.151771617850181 
978	 0.152599767088477 
979	 0.153463654670442 
980	 0.154200994400944 
981	 0.155115965785948 
982	 0.156095149866188 
983	 0.156857765862294 
984	 0.157808218696809 
985	 0.158612303412655 
986	 0.159376047289991 
987	 0.160372014135377 
988	 0.16128796569196 
989	 0.162028072601639 
990	 0.162736549270469 
991	 0.16363539586513 
992	 0.164706053785348 
993	 0.165617661396113 
994	 0.166436950383382 
995	 0.167370606530569 
996	 0.168345025690556 
997	 0.169230298084595 
998	 0.169992944360346 
999	 0.170715295653312 
1000	 0.171672672937232 
1001	 0.170666667004348 
1002	 0.171492594627137 
1003	 0.172336527238266 
1004	 0.173171532576173 
1005	 0.174054513840602 
1006	 0.174863356020412 
1007	 0.175624902731996 
1008	 0.176396865904351 
1009	 0.177167607355936 
1010	 0.177930999893114 
1011	 0.178730479869548 
1012	 0.179523020065484 
1013	 0.180292084564041 
1014	 0.181036968307195 
1015	 0.18179125739783 
1016	 0.182541251865996 
1017	 0.183255440366299 
1018	 0.183928176859983 
1019	 0.184617695760148 
1020	 0.185315905490929 
1021	 0.185932099898616 
1022	 0.186556944811799 
1023	 0.187218699406665 
1024	 0.187856189160241 
1025	 0.188550050837551 
1026	 0.189313095275388 
1027	 0.190077126995944 
1028	 0.190782855902746 
1029	 0.191469506899035 
1030	 0.192095717270367 
1031	 0.192706189943472 
1032	 0.193252276918834 
1033	 0.193868339275114 
1034	 0.19446063772788 
1035	 0.195038954004034 
1036	 0.195624731496359 
1037	 0.196149827455402 
1038	 0.196706770466959 
1039	 0.197338053698692 
1040	 0.19796496578202 
1041	 0.198596863800399 
1042	 0.199236035554373 
1043	 0.199783642244751 
1044	 0.200394101117271 
1045	 0.201021066232973 
1046	 0.201699949302026 
1047	 0.202265875451684 
1048	 0.202883352276216 
1049	 0.203496550740343 
1050	 0.204031403804497 
1051	 0.204613848280666 
1052	 0.205147328321756 
1053	 0.205651864907396 
1054	 0.206170767391128 
1055	 0.206720905005663 
1056	 0.207356797727404 
1057	 0.207920542992523 
1058	 0.208430831246893 
1059	 0.208966584391453 
1060	 0.20949153669919 
1061	 0.210001421719233 
1062	 0.210535209084387 
1063	 0.211133605889937 
1064	 0.211675778700167 
1065	 0.212180870182929 
1066	 0.212740719422389 
1067	 0.213300157369153 
1068	 0.213834045920711 
1069	 0.21435199754202 
1070	 0.214882144598002 
1071	 0.215413931182669 
1072	 0.215915146643369 
1073	 0.216393909664583 
1074	 0.216903532118587 
1075	 0.217419645664864 
1076	 0.217872358052641 
1077	 0.218366830141418 
1078	 0.21884891387171 
1079	 0.219292976289015 
1080	 0.219752975778636 
1081	 0.220245378697185 
1082	 0.220775281357708 
1083	 0.221240578222365 
1084	 0.221677209955485 
1085	 0.222136436036316 
1086	 0.222540038197074 
1087	 0.222974910364776 
1088	 0.223438829244754 
1089	 0.223923496096631 
1090	 0.224381950172555 
1091	 0.224852902259758 
1092	 0.225287066738763 
1093	 0.225702909753042 
1094	 0.226133369104422 
1095	 0.226549881764432 
1096	 0.226980852234215 
1097	 0.227435959970501 
1098	 0.227873230804001 
1099	 0.228279474620648 
1100	 0.228714872157268 
1101	 0.229165628518128 
1102	 0.22960853318895 
1103	 0.230060495319907 
1104	 0.230505565301637 
1105	 0.23091163622054 
1106	 0.231336003460231 
1107	 0.231738010974286 
1108	 0.232140122975871 
1109	 0.232587342278524 
1110	 0.233034958761097 
1111	 0.233476427079533 
1112	 0.233921579138497 
1113	 0.234369137606582 
1114	 0.234821399744816 
1115	 0.235254608406419 
1116	 0.235684265716474 
1117	 0.236113484375201 
1118	 0.236518961405599 
1119	 0.236945102863216 
1120	 0.237390589419146 
1121	 0.237824389173471 
1122	 0.238255066191258 
1123	 0.238687119039266 
1124	 0.239096867999342 
1125	 0.23948221331668 
1126	 0.239886914075257 
1127	 0.240287015310926 
1128	 0.240689794833864 
1129	 0.241097284191724 
1130	 0.241511504208984 
1131	 0.241932019726198 
1132	 0.242339028160404 
1133	 0.242764883928469 
1134	 0.24316473970479 
1135	 0.243551383882113 
1136	 0.243907076634763 
1137	 0.244257489841052 
1138	 0.244603539256242 
1139	 0.24497314508123 
1140	 0.24535421273056 
1141	 0.24572856674532 
1142	 0.246136604306555 
1143	 0.246491666443907 
1144	 0.246814192511276 
1145	 0.24713965879439 
1146	 0.247434049313129 
1147	 0.247744687374655 
1148	 0.24806495140851 
1149	 0.248377242866522 
1150	 0.248681521751131 
1151	 0.248998197735811 
1152	 0.24930814821962 
1153	 0.249626351820872 
1154	 0.249941774448579 
1155	 0.250257692065834 
1156	 0.250581482324883 
1157	 0.250919515314025 
1158	 0.251229956040297 
1159	 0.251544957880533 
1160	 0.251840368214097 
1161	 0.252092647874892 
1162	 0.252376167131601 
1163	 0.252675841946423 
1164	 0.252962088697825 
1165	 0.253246357095297 
1166	 0.253540234074457 
1167	 0.253827845796533 
1168	 0.254119601602847 
1169	 0.254403640974398 
1170	 0.254706964649838 
1171	 0.25496852654575 
1172	 0.255197065588767 
1173	 0.25544258696077 
1174	 0.255668302997937 
1175	 0.25591744840063 
1176	 0.256200086787861 
1177	 0.256446951743596 
1178	 0.256674778249848 
1179	 0.256916807771154 
1180	 0.257148624000242 
1181	 0.257380367742757 
1182	 0.257627902889218 
1183	 0.257874756604133 
1184	 0.258094921898601 
1185	 0.25829056233239 
1186	 0.258500663057271 
1187	 0.258700997329313 
1188	 0.25890934769169 
1189	 0.259130878731023 
1190	 0.25933556855051 
1191	 0.259538057525525 
1192	 0.259730525589605 
1193	 0.25989905963602 
1194	 0.260088659550037 
1195	 0.260296401905527 
1196	 0.260480927441159 
1197	 0.260658431663662 
1198	 0.260841502533777 
1199	 0.261020030694244 
1200	 0.261180023122475 
1201	 0.261350833594161 
1202	 0.261535066780204 
1203	 0.26170801002112 
1204	 0.261876975111128 
1205	 0.262033900708858 
1206	 0.262183269273362 
1207	 0.262336899035172 
1208	 0.26247883260334 
1209	 0.262625181803703 
1210	 0.262790834620966 
1211	 0.262933208880341 
1212	 0.263044436205967 
1213	 0.263180086293997 
1214	 0.263326270023484 
1215	 0.263462030460937 
1216	 0.263598843523615 
1217	 0.26375567534405 
1218	 0.263880364702191 
1219	 0.263976286190298 
1220	 0.264095421601212 
1221	 0.26421311213052 
1222	 0.264334982517749 
1223	 0.26447047347314 
1224	 0.264593866130395 
1225	 0.264715096334422 
1226	 0.264830146210357 
1227	 0.264927904037831 
1228	 0.265045046710966 
1229	 0.265177272867398 
1230	 0.265293877149378 
1231	 0.265417666957445 
1232	 0.265533200724938 
1233	 0.265640223111822 
1234	 0.265728599283885 
1235	 0.26582646075098 
1236	 0.265928767928282 
1237	 0.26602297068579 
1238	 0.266105725567155 
1239	 0.266199416444505 
1240	 0.266298076741074 
1241	 0.266391112874375 
1242	 0.266486900547835 
1243	 0.266580170654219 
1244	 0.266672648683991 
1245	 0.266757577154755 
1246	 0.266839501961501 
1247	 0.266920211203355 
1248	 0.266991098853587 
1249	 0.267066261532346 
1250	 0.267140138781607 
1251	 0.267207579770042 
1252	 0.267276415040996 
1253	 0.267343521240715 
1254	 0.267402524105011 
1255	 0.267461424223442 
1256	 0.267513577174238 
1257	 0.267551230165867 
1258	 0.267597946966773 
1259	 0.26763294272992 
1260	 0.267694398531358 
1261	 0.267780967533252 
1262	 0.26784978253905 
1263	 0.26794462063663 
1264	 0.26800620447204 
1265	 0.268019516368148 
1266	 0.268062130971242 
1267	 0.268101832733867 
1268	 0.26814603459432 
1269	 0.268213015197893 
1270	 0.26830591421722 
1271	 0.268388973440328 
1272	 0.268486335220365 
1273	 0.268564342318311 
1274	 0.268638820316469 
1275	 0.268711865779472 
1276	 0.268760982612089 
1277	 0.268842971222772 
1278	 0.268936886294312 
1279	 0.269034298645548 
1280	 0.269158792732579 
1281	 0.269267162944221 
1282	 0.269367697219563 
1283	 0.269475928045211 
1284	 0.269587013227442 
1285	 0.269695720500012 
1286	 0.269793805290768 
1287	 0.269892947622061 
1288	 0.269999418312918 
1289	 0.270103822870848 
1290	 0.2702016427558 
1291	 0.27031463856492 
1292	 0.270400670974806 
1293	 0.270465186753272 
1294	 0.270531267353323 
1295	 0.270585805092789 
1296	 0.270644195460733 
1297	 0.270702687762174 
1298	 0.270751627691636 
1299	 0.270806654124043 
1300	 0.27084268844966 
1301	 0.270868548646922 
1302	 0.270876688834788 
1303	 0.270869303870736 
1304	 0.270845331408929 
1305	 0.270820998500802 
1306	 0.270785729250434 
1307	 0.27073897866986 
1308	 0.27069970593719 
1309	 0.270665558218294 
1310	 0.270631551510816 
1311	 0.270588313320714 
1312	 0.270562707673495 
1313	 0.270504852851934 
1314	 0.27041395912909 
1315	 0.270343098450741 
1316	 0.270271730147756 
1317	 0.270194492102526 
1318	 0.270116640239089 
1319	 0.270037860181178 
1320	 0.26994556601567 
1321	 0.269867980223392 
1322	 0.269795364058193 
1323	 0.269743626549184 
1324	 0.269672362576871 
1325	 0.269583488060346 
1326	 0.269489885999382 
1327	 0.269389629208422 
1328	 0.269296459597619 
1329	 0.269219169021684 
1330	 0.26913656026572 
1331	 0.269062047152248 
1332	 0.268970574725382 
1333	 0.268877571113652 
1334	 0.268769302693552 
1335	 0.268627849006666 
1336	 0.268526715678204 
1337	 0.26843575772004 
1338	 0.268350569914461 
1339	 0.268293806662217 
1340	 0.26822077803942 
1341	 0.26813422149126 
1342	 0.268061812737995 
1343	 0.267991313798595 
1344	 0.26792869846599 
1345	 0.267884819638336 
1346	 0.267831603106573 
1347	 0.267795847204117 
1348	 0.2677675876511 
1349	 0.267705425159026 
1350	 0.267636562126674 
1351	 0.267566959390164 
1352	 0.267473943078218 
1353	 0.267397790720745 
1354	 0.267337236551935 
1355	 0.267261806754602 
1356	 0.267173921756574 
1357	 0.267097708760119 
1358	 0.267024914465359 
1359	 0.266952074481197 
1360	 0.266882578902452 
1361	 0.266813936080611 
1362	 0.266748304567945 
1363	 0.266674076934578 
1364	 0.266605124002071 
1365	 0.266524658395094 
1366	 0.266428823611495 
1367	 0.266338113649028 
1368	 0.266254828252419 
1369	 0.266163146033594 
1370	 0.266057755146965 
1371	 0.265928263360869 
1372	 0.265752270048527 
1373	 0.265569267054874 
1374	 0.265382513995055 
1375	 0.265185052144412 
1376	 0.264966126797936 
1377	 0.264759383688335 
1378	 0.264486904830904 
1379	 0.264160116229139 
1380	 0.263844373298562 
1381	 0.263510356300215 
1382	 0.263140872009615 
1383	 0.262779956511826 
1384	 0.26235828688957 
1385	 0.261883958552337 
1386	 0.261382163562149 
1387	 0.260842416567768 
1388	 0.260281995015311 
1389	 0.259697027619201 
1390	 0.259078945063811 
1391	 0.258431907012484 
1392	 0.257724180167721 
1393	 0.25693665135151 
1394	 0.256125615900789 
1395	 0.255288073946919 
1396	 0.254437587736715 
1397	 0.253591536779779 
1398	 0.252750075278027 
1399	 0.251887542359546 
1400	 0.25100568375938 
1401	 0.250130779157929 
1402	 0.24923429624798 
1403	 0.248373385397699 
1404	 0.247512836143629 
1405	 0.246696073610863 
1406	 0.245906139110586 
1407	 0.245139311354064 
1408	 0.244397894606357 
1409	 0.243683976417665 
1410	 0.242971820153893 
1411	 0.242330750008167 
1412	 0.241727104022375 
1413	 0.241176731617883 
1414	 0.240712604367164 
1415	 0.240275917016073 
1416	 0.239879602010923 
1417	 0.239519355688375 
1418	 0.23914268805317 
1419	 0.238801604554715 
1420	 0.23849244768918 
1421	 0.238193272304629 
1422	 0.237944956373079 
1423	 0.237708268103642 
1424	 0.237459365228702 
1425	 0.237216855445185 
1426	 0.236976737109643 
1427	 0.236713951190727 
1428	 0.236503657380987 
1429	 0.236319451421486 
1430	 0.236141228263089 
1431	 0.235993043971698 
1432	 0.235841740874049 
1433	 0.235693396804978 
1434	 0.235561180790541 
1435	 0.235430858769486 
1436	 0.235331171554173 
1437	 0.235248817217491 
1438	 0.235180589736562 
1439	 0.235147229657201 
1440	 0.235111939100202 
1441	 0.235057461012266 
1442	 0.235011476058153 
1443	 0.234944631115929 
1444	 0.234892025085516 
1445	 0.234875670394322 
1446	 0.234865262164978 
1447	 0.234870673908844 
1448	 0.234873098425469 
1449	 0.234854642317927 
1450	 0.234843730112424 
1451	 0.2348438087651 
1452	 0.234844006802737 
1453	 0.234864558748871 
1454	 0.234904899488391 
1455	 0.23493690183264 
1456	 0.234978975557039 
1457	 0.235013171368687 
1458	 0.235037713701191 
1459	 0.235081992595007 
1460	 0.235124738675835 
1461	 0.235189305111599 
1462	 0.235271173889436 
1463	 0.235361007592166 
1464	 0.235467194017744 
1465	 0.235579174399566 
1466	 0.235700267109822 
1467	 0.235828847976353 
1468	 0.235950803488938 
1469	 0.236108521367256 
1470	 0.236294175000544 
1471	 0.236482961204186 
1472	 0.236694361536477 
1473	 0.23690870113731 
1474	 0.237103511467354 
1475	 0.237304651899534 
1476	 0.237498649430316 
1477	 0.237705276242431 
1478	 0.237920470585489 
1479	 0.238134914809933 
1480	 0.238386771997839 
1481	 0.238648938819936 
1482	 0.238903795391878 
1483	 0.239174745269939 
1484	 0.239427348273982 
1485	 0.239658748515475 
1486	 0.239913176669376 
1487	 0.24017207560447 
1488	 0.24044129504802 
1489	 0.240736608075235 
1490	 0.2410024095886 
1491	 0.241262060474898 
1492	 0.241513561320342 
1493	 0.24174363946708 
1494	 0.241984863657474 
1495	 0.242231532792322 
1496	 0.242467774202993 
1497	 0.242702573792562 
1498	 0.242931583758765 
1499	 0.243154451380004 
1500	 0.243372824898831 
1501	 0.243578964741675 
1502	 0.24379354972914 
1503	 0.244007848547585 
1504	 0.244221674132533 
1505	 0.244442490540092 
1506	 0.244665090834302 
1507	 0.244874350864507 
1508	 0.245074194618435 
1509	 0.245274927987749 
1510	 0.245470566453775 
1511	 0.245665598740489 
1512	 0.245865055481833 
1513	 0.246056723301728 
1514	 0.246247049359286 
1515	 0.246446389222802 
1516	 0.246648628724708 
1517	 0.24684531823466 
1518	 0.247043516479952 
1519	 0.247239947315738 
1520	 0.24743329479175 
1521	 0.247622276059407 
1522	 0.247813934760256 
1523	 0.247995415702081 
1524	 0.248166035573776 
1525	 0.248337191158933 
1526	 0.2485047715825 
1527	 0.248672230140142 
1528	 0.248845183544483 
1529	 0.248999580700315 
1530	 0.249139922151617 
1531	 0.249285510655564 
1532	 0.249421922624233 
1533	 0.249555675156451 
1534	 0.249691887001403 
1535	 0.249827963975599 
1536	 0.249955577989352 
1537	 0.250086198353227 
1538	 0.250226957839527 
1539	 0.250355401422594 
1540	 0.250466706254904 
1541	 0.250592298742271 
1542	 0.250723751795957 
1543	 0.250849797282955 
1544	 0.250989768412044 
1545	 0.251113933040384 
1546	 0.251222207071116 
1547	 0.251335596780201 
1548	 0.251436679505826 
1549	 0.251526217054348 
1550	 0.251615733195775 
1551	 0.251707486474138 
1552	 0.25180531620304 
1553	 0.251910045201635 
1554	 0.252024969849161 
1555	 0.252131678013647 
1556	 0.252228638247377 
1557	 0.252320564106265 
1558	 0.252423907008823 
1559	 0.252526359930742 
1560	 0.252622446916547 
1561	 0.252729366438525 
1562	 0.252816472507681 
1563	 0.252875942275748 
1564	 0.252968981051037 
1565	 0.253076064357077 
1566	 0.253165637368712 
1567	 0.253269387588777 
1568	 0.253350209065693 
1569	 0.253407435412409 
1570	 0.253469105327626 
1571	 0.253524405264099 
1572	 0.253585579501276 
1573	 0.253641450279548 
1574	 0.253702835223839 
1575	 0.253779226065726 
1576	 0.253832757709677 
1577	 0.25386532321583 
1578	 0.253919970704413 
1579	 0.25397674200151 
1580	 0.254035768362067 
1581	 0.254100301933195 
1582	 0.254179051332011 
1583	 0.254269600046342 
1584	 0.254343298449527 
1585	 0.254436134287745 
1586	 0.254504605190601 
1587	 0.254541063603153 
1588	 0.254586454394033 
1589	 0.254631735732367 
1590	 0.254670845527943 
1591	 0.254698318664777 
1592	 0.254737820114569 
1593	 0.254777042663761 
1594	 0.254822172458596 
1595	 0.254874979935829 
1596	 0.254928997972029 
1597	 0.25499632201108 
1598	 0.255046780136209 
1599	 0.25509355483501 
1600	 0.255136523649171 
1601	 0.255165335211666 
1602	 0.255195228828615 
1603	 0.255224758246052 
1604	 0.255252958587845 
1605	 0.255265491479022 
1606	 0.255296401407899 
1607	 0.255342874733265 
1608	 0.255386328676956 
1609	 0.255422392136854 
1610	 0.255466005023507 
1611	 0.255491418541948 
1612	 0.255504451782805 
1613	 0.255514118632008 
1614	 0.255516031412923 
1615	 0.255536000612886 
1616	 0.255558688958547 
1617	 0.255601033984413 
1618	 0.255653469606166 
1619	 0.255683978626019 
1620	 0.255720018050965 
1621	 0.255740917064988 
1622	 0.255753931961489 
1623	 0.255759454986391 
1624	 0.255751870038597 
1625	 0.25575153580926 
1626	 0.25574582780904 
1627	 0.255747235914429 
1628	 0.255750484968191 
1629	 0.255761646661538 
1630	 0.255774976644214 
1631	 0.255799980643372 
1632	 0.255845565564659 
1633	 0.255860102398184 
1634	 0.255870601199303 
1635	 0.255872816009776 
1636	 0.25585041909293 
1637	 0.255846195573673 
1638	 0.255849079926043 
1639	 0.255848384359638 
1640	 0.255830585936419 
1641	 0.255862154695278 
1642	 0.255923426872731 
1643	 0.255965692618431 
1644	 0.256040376895589 
1645	 0.256081344831293 
1646	 0.256094994794228 
1647	 0.256111200115509 
1648	 0.256123689083641 
1649	 0.256134842873025 
1650	 0.256139768172743 
1651	 0.256133020755426 
1652	 0.256117200812498 
1653	 0.256112402257105 
1654	 0.256097051459355 
1655	 0.256090039799685 
1656	 0.256104608262992 
1657	 0.256097996187239 
1658	 0.256082890671945 
1659	 0.256057379334007 
1660	 0.256021933658526 
1661	 0.255985085923648 
1662	 0.255931954541024 
1663	 0.255890963056913 
1664	 0.255840767784159 
1665	 0.255823091117431 
1666	 0.255834371625093 
1667	 0.255822051617422 
1668	 0.255826141252967 
1669	 0.255811515323909 
1670	 0.255767136154201 
1671	 0.255740347657374 
1672	 0.255713860410714 
1673	 0.255702739593275 
1674	 0.255709036278827 
1675	 0.255695248977876 
1676	 0.25568687483351 
1677	 0.255669920613438 
1678	 0.255625681178813 
1679	 0.255604486856305 
1680	 0.255594124927806 
1681	 0.255588032674105 
1682	 0.255600486572361 
1683	 0.255588728229906 
1684	 0.255563080190747 
1685	 0.255554797576133 
1686	 0.255545533449978 
1687	 0.255529020414612 
1688	 0.255533072528778 
1689	 0.255508123956862 
1690	 0.255446844351232 
1691	 0.255409367521052 
1692	 0.255372691676136 
1693	 0.255343216372783 
1694	 0.255322683000599 
1695	 0.255301630709348 
1696	 0.255286033495599 
1697	 0.255266576357625 
1698	 0.255244985656717 
1699	 0.255230429978492 
1700	 0.255228550134509 
1701	 0.255199876455344 
1702	 0.255167715169729 
1703	 0.255122660304305 
1704	 0.255050329630121 
1705	 0.254988277150172 
1706	 0.254923211989221 
1707	 0.254862263460194 
1708	 0.254801972432365 
1709	 0.254740274910721 
1710	 0.254689351550287 
1711	 0.254619678273852 
1712	 0.254535430497263 
1713	 0.254454990646543 
1714	 0.254362543062871 
1715	 0.254281833460371 
1716	 0.254197464318289 
1717	 0.254140797224453 
1718	 0.254100021743242 
1719	 0.254061003544898 
1720	 0.254050538440139 
1721	 0.254012771939516 
1722	 0.253973484115425 
1723	 0.253913651524385 
1724	 0.253832792101068 
1725	 0.253759846112042 
1726	 0.253675289708513 
1727	 0.253586486080604 
1728	 0.253493849535073 
1729	 0.253416218785088 
1730	 0.253342252414115 
1731	 0.253259033311832 
1732	 0.253181314145283 
1733	 0.253101713186399 
1734	 0.253009967218194 
1735	 0.252918362643858 
1736	 0.252842625242892 
1737	 0.252747118874254 
1738	 0.252627388625149 
1739	 0.252527249033461 
1740	 0.252428675053048 
1741	 0.252334984082492 
1742	 0.252248095248364 
1743	 0.252160859651412 
1744	 0.252083303740097 
1745	 0.251985281659043 
1746	 0.251885721958226 
1747	 0.251771179577765 
1748	 0.251640474342482 
1749	 0.25152647915257 
1750	 0.251400766975859 
1751	 0.251290177251116 
1752	 0.251197664482638 
1753	 0.251085465257681 
1754	 0.25096754499431 
1755	 0.250839379236179 
1756	 0.250704227549947 
1757	 0.250581010143709 
1758	 0.25045616847262 
1759	 0.25032148960352 
1760	 0.25020984098019 
1761	 0.25012988658401 
1762	 0.250033998938141 
1763	 0.249949941810052 
1764	 0.249870363614609 
1765	 0.249743901647133 
1766	 0.249611723906665 
1767	 0.24950164488204 
1768	 0.249384267704155 
1769	 0.249246824433616 
1770	 0.249165971416365 
1771	 0.249110847206245 
1772	 0.249033454448977 
1773	 0.248999146070016 
1774	 0.248951807673478 
1775	 0.248884454840843 
1776	 0.248812562559017 
1777	 0.248722600724586 
1778	 0.24864832458123 
1779	 0.248539612365093 
1780	 0.248431408977383 
1781	 0.248363466451105 
1782	 0.248291539751671 
1783	 0.248259349175828 
1784	 0.24821812630573 
1785	 0.248179387511896 
1786	 0.248137227817803 
1787	 0.248088501568363 
1788	 0.248045962229854 
1789	 0.247994393155965 
1790	 0.247966931146726 
1791	 0.247971946983844 
1792	 0.247949979967532 
1793	 0.247925085662207 
1794	 0.247898859339773 
1795	 0.247853029293234 
1796	 0.247818266034468 
1797	 0.247795890295853 
1798	 0.247770531615595 
1799	 0.247731417642971 
1800	 0.247710548037029 
1801	 0.247230651770469 
1802	 0.247412685899999 
1803	 0.247646552453026 
1804	 0.247904468911667 
1805	 0.248127548532116 
1806	 0.248330072840191 
1807	 0.248525867756472 
1808	 0.248687866295193 
1809	 0.248828608195438 
1810	 0.248936892220116 
1811	 0.249008068232664 
1812	 0.249076569322008 
1813	 0.249158758535152 
1814	 0.249184864963161 
1815	 0.249188068356571 
1816	 0.249211127575614 
1817	 0.249204299433465 
1818	 0.249119161731197 
1819	 0.249109541127769 
1820	 0.249132541729933 
1821	 0.249148964287391 
1822	 0.249168912610567 
1823	 0.249219768833353 
1824	 0.249259383805088 
1825	 0.249254894114078 
1826	 0.249264382597278 
1827	 0.249268499226163 
1828	 0.249245742425407 
1829	 0.249218619307096 
1830	 0.249154631248402 
1831	 0.249038455195239 
1832	 0.248950382875485 
1833	 0.248877307144956 
1834	 0.248806302277384 
1835	 0.248792126841085 
1836	 0.248771876640391 
1837	 0.248737343053853 
1838	 0.24871035582984 
1839	 0.248675585167961 
1840	 0.248650100716035 
1841	 0.248595558857217 
1842	 0.248518392714862 
1843	 0.248457658959607 
1844	 0.248369261458386 
1845	 0.248251420712756 
1846	 0.248144275321931 
1847	 0.248017796735537 
1848	 0.247874663426133 
1849	 0.247742181717224 
1850	 0.247595561814657 
1851	 0.247447861110257 
1852	 0.2472644169279 
1853	 0.247068458104184 
1854	 0.246866270058057 
1855	 0.246645019603263 
1856	 0.24639261906187 
1857	 0.246107094095462 
1858	 0.245789582503585 
1859	 0.245422148742434 
1860	 0.245019828611353 
1861	 0.244578103437994 
1862	 0.244109944858507 
1863	 0.243617322884844 
1864	 0.243100758604742 
1865	 0.242563582447435 
1866	 0.241969481385143 
1867	 0.241292686429408 
1868	 0.240569742019289 
1869	 0.239786986200206 
1870	 0.238932228287334 
1871	 0.23803150827234 
1872	 0.237088314485212 
1873	 0.236100160105889 
1874	 0.235044400096518 
1875	 0.233927056011557 
1876	 0.232766388770336 
1877	 0.231506101486609 
1878	 0.230123996287637 
1879	 0.22868380802629 
1880	 0.227139490700469 
1881	 0.2254817813268 
1882	 0.223743528371013 
1883	 0.221929588330293 
1884	 0.219977927404198 
1885	 0.217956905271266 
1886	 0.215876700516804 
1887	 0.213688179646837 
1888	 0.211439552296843 
1889	 0.209120541636612 
1890	 0.206752121920396 
1891	 0.204410253059097 
1892	 0.202025637458774 
1893	 0.199684277670822 
1894	 0.197362026073737 
1895	 0.195046436903531 
1896	 0.192722439065709 
1897	 0.190479148294901 
1898	 0.188240244701147 
1899	 0.186062375073539 
1900	 0.184013443954812 
1901	 0.182021268846949 
1902	 0.1801285618948 
1903	 0.178356552216647 
1904	 0.176658207928625 
1905	 0.175026114706566 
1906	 0.173512263017523 
1907	 0.172084835048212 
1908	 0.170735309143149 
1909	 0.169498554734039 
1910	 0.168314866661632 
1911	 0.167232657614709 
1912	 0.166247863585364 
1913	 0.16530374810963 
1914	 0.164416077616928 
1915	 0.163602958047901 
1916	 0.162850310820038 
1917	 0.162166532895338 
1918	 0.16156017309725 
1919	 0.160984126117412 
1920	 0.160471964448579 
1921	 0.159998883678347 
1922	 0.159562439258329 
1923	 0.159183850047614 
1924	 0.158856189782033 
1925	 0.158579171064339 
1926	 0.15834820071296 
1927	 0.158164222561872 
1928	 0.158041029045992 
1929	 0.157953758495223 
1930	 0.157902398900421 
1931	 0.157889906784774 
1932	 0.15789981352855 
1933	 0.157946297992492 
1934	 0.158004844686242 
1935	 0.158091459475321 
1936	 0.158200752464718 
1937	 0.158342130864825 
1938	 0.158509270307593 
1939	 0.158707062187536 
1940	 0.158942673641033 
1941	 0.159196877084784 
1942	 0.159456195525399 
1943	 0.159720566663291 
1944	 0.160020022603883 
1945	 0.160367341038589 
1946	 0.16069979118157 
1947	 0.161051192338899 
1948	 0.161413704265717 
1949	 0.161756011490879 
1950	 0.162139984881959 
1951	 0.162552023419875 
1952	 0.163014686717255 
1953	 0.163450045755585 
1954	 0.163887751326022 
1955	 0.164335563962673 
1956	 0.164785399773701 
1957	 0.165249726885953 
1958	 0.165733460736017 
1959	 0.166223224432702 
1960	 0.166722061377592 
1961	 0.167222687492523 
1962	 0.167732958491709 
1963	 0.168250222686148 
1964	 0.168768282328258 
1965	 0.169295723514206 
1966	 0.169829162367284 
1967	 0.170391390856317 
1968	 0.170957238304482 
1969	 0.171543747970039 
1970	 0.17210876409706 
1971	 0.172685481373483 
1972	 0.17324254255929 
1973	 0.173763396319665 
1974	 0.174316344755726 
1975	 0.174876190018268 
1976	 0.175440101051631 
1977	 0.17603672258097 
1978	 0.176630909672297 
1979	 0.177208067893182 
1980	 0.177802482400719 
1981	 0.178372346995523 
1982	 0.178909562205334 
1983	 0.179478028033102 
1984	 0.180054007295341 
1985	 0.180625350209089 
1986	 0.181207168652714 
1987	 0.181789818216199 
1988	 0.182370795909458 
1989	 0.182951079845279 
1990	 0.183535717729973 
1991	 0.184118007963947 
1992	 0.184683839499494 
1993	 0.185226649073042 
1994	 0.18578740345533 
1995	 0.186345705629976 
1996	 0.186907345168316 
1997	 0.187483242138137 
1998	 0.188050823932845 
1999	 0.188608673567269 
2000	 0.189171840412491 
2001	 0.189745471376809 
2002	 0.190305620527243 
2003	 0.190858122139449 
2004	 0.191409359861505 
2005	 0.191938507671807 
2006	 0.192444802296168 
2007	 0.192957348572673 
2008	 0.193456451130717 
2009	 0.193959747337477 
2010	 0.194456359775402 
2011	 0.19496171415231 
2012	 0.19547284094504 
2013	 0.195980866837529 
2014	 0.196497626393805 
2015	 0.197010820296462 
2016	 0.197506626221922 
2017	 0.197999572254247 
2018	 0.19849649637599 
2019	 0.198992297926836 
2020	 0.199489097601559 
2021	 0.199991929006402 
2022	 0.200482969086477 
2023	 0.20097056767692 
2024	 0.201450637371703 
2025	 0.20192393516999 
2026	 0.202394509738557 
2027	 0.202867570363802 
2028	 0.203321065311581 
2029	 0.203768890737521 
2030	 0.204206714371217 
2031	 0.204644609080999 
2032	 0.205072809023685 
2033	 0.205499994236204 
2034	 0.205936104590255 
2035	 0.206346699032559 
2036	 0.206736061504058 
2037	 0.207132966408112 
2038	 0.207523269275852 
2039	 0.207904312381117 
2040	 0.208291636237067 
2041	 0.208655273756965 
2042	 0.209011215813458 
2043	 0.209373045629026 
2044	 0.209742163058339 
2045	 0.210119425255298 
2046	 0.210496871429369 
2047	 0.210889571004192 
2048	 0.211258062243691 
2049	 0.211626113242357 
2050	 0.211976310247375 
2051	 0.212297875742111 
2052	 0.212629329417263 
2053	 0.212954035587704 
2054	 0.21327945475074 
2055	 0.213615492403278 
2056	 0.213933193683818 
2057	 0.214250070507811 
2058	 0.214551080616424 
2059	 0.214881615514076 
2060	 0.215219195503137 
2061	 0.2155577291654 
2062	 0.215926251427968 
2063	 0.216267973996615 
2064	 0.216609225109218 
2065	 0.216923267131832 
2066	 0.217200311954005 
2067	 0.217499268656169 
2068	 0.21779527861453 
2069	 0.218081589323075 
2070	 0.218366835173615 
2071	 0.218667021611991 
2072	 0.218952125537076 
2073	 0.219218611460434 
2074	 0.219489425169675 
2075	 0.219760158505035 
2076	 0.220038031298045 
2077	 0.220314417814364 
2078	 0.220586029980993 
2079	 0.220863874671032 
2080	 0.22114101162486 
2081	 0.221402631301577 
2082	 0.221675571543344 
2083	 0.221947866707207 
2084	 0.222245198001387 
2085	 0.222540317252713 
2086	 0.222844084655757 
2087	 0.223140335361096 
2088	 0.223451980795465 
2089	 0.223736374789771 
2090	 0.224007889416325 
2091	 0.224269929793286 
2092	 0.224514860251465 
2093	 0.224758863343065 
2094	 0.224997852332196 
2095	 0.225228442621213 
2096	 0.225431582103731 
2097	 0.225662802726327 
2098	 0.225909560708802 
2099	 0.226138079451164 
2100	 0.22639134438803 
2101	 0.226675852282172 
2102	 0.226935352094185 
2103	 0.227179577429533 
2104	 0.227448529664116 
2105	 0.227727590300633 
2106	 0.228000757241802 
2107	 0.228301872685538 
2108	 0.228570503567204 
2109	 0.228807967774095 
2110	 0.229061415175107 
2111	 0.229302105024557 
2112	 0.229555067097075 
2113	 0.229820203616396 
2114	 0.230093556506561 
2115	 0.230348023296603 
2116	 0.230602145702 
2117	 0.23084215666038 
2118	 0.231062401184109 
2119	 0.231297523805731 
2120	 0.231532129612679 
2121	 0.231768767316226 
2122	 0.232015981562265 
2123	 0.232247456859717 
2124	 0.23248550479951 
2125	 0.232694699521148 
2126	 0.232890042939476 
2127	 0.233068728991077 
2128	 0.233212066056 
2129	 0.23336212497286 
2130	 0.233505657195322 
2131	 0.23363915892301 
2132	 0.233779644932777 
2133	 0.233932077440962 
2134	 0.234054683289791 
2135	 0.234167049370698 
2136	 0.234269987025642 
2137	 0.234358244076232 
2138	 0.23442994761238 
2139	 0.234490815235604 
2140	 0.234544576535592 
2141	 0.23457789931381 
2142	 0.234606147888605 
2143	 0.234648202984904 
2144	 0.23465170262363 
2145	 0.234607122174947 
2146	 0.2345806803423 
2147	 0.234525551554743 
2148	 0.23449149777837 
2149	 0.234476044037956 
2150	 0.234496718728357 
2151	 0.234482066314192 
2152	 0.234469878649713 
2153	 0.23444410759448 
2154	 0.23440599500771 
2155	 0.234350868853286 
2156	 0.234299285414496 
2157	 0.234217341258796 
2158	 0.234104533734683 
2159	 0.233982120512656 
2160	 0.233852590991909 
2161	 0.233690651064403 
2162	 0.233474837158119 
2163	 0.233289304149894 
2164	 0.233092821052531 
2165	 0.232902414946117 
2166	 0.232721862730086 
2167	 0.23256728554098 
2168	 0.232396900561858 
2169	 0.23221643322308 
2170	 0.232048523348917 
2171	 0.231893816464115 
2172	 0.231725609399454 
2173	 0.231553254781879 
2174	 0.231381339697375 
2175	 0.231215009869089 
2176	 0.231029063390262 
2177	 0.230842595803019 
2178	 0.230637882920457 
2179	 0.230390155143738 
2180	 0.230171195834218 
2181	 0.22995564260388 
2182	 0.229744392792964 
2183	 0.229556586491249 
2184	 0.229357979220752 
2185	 0.229153172064306 
2186	 0.228929847668002 
2187	 0.228740328766604 
2188	 0.228562476978311 
2189	 0.228378736771185 
2190	 0.228216098847495 
2191	 0.228042047873441 
2192	 0.227841467355827 
2193	 0.227673280072776 
2194	 0.227509924211756 
2195	 0.227374388391145 
2196	 0.22727426116162 
2197	 0.227166123631932 
2198	 0.227062966138077 
2199	 0.226982573607276 
2200	 0.226911455244504 
2201	 0.226848582198038 
2202	 0.22681090782577 
2203	 0.226779713434088 
2204	 0.226752684438404 
2205	 0.226720601509379 
2206	 0.226710671742898 
2207	 0.226721865650228 
2208	 0.226727940681978 
2209	 0.226727065262607 
2210	 0.22676588098557 
2211	 0.226824452571416 
2212	 0.226888241907642 
2213	 0.227005468140148 
2214	 0.22707514167432 
2215	 0.227125254572734 
2216	 0.227175983125244 
2217	 0.227209226814853 
2218	 0.227240038459626 
2219	 0.227252988078785 
2220	 0.227288119737572 
2221	 0.227332643370815 
2222	 0.227372821499392 
2223	 0.227412203148496 
2224	 0.227486646236727 
2225	 0.227536090672459 
2226	 0.2275875253016 
2227	 0.227596651812074 
2228	 0.227578441632227 
2229	 0.227578934577748 
2230	 0.227552482128436 
2231	 0.227539561239666 
2232	 0.227560565844618 
2233	 0.227544227403191 
2234	 0.227497385352547 
2235	 0.227462903995689 
2236	 0.227422275133523 
2237	 0.227386502479276 
2238	 0.22734696222934 
2239	 0.227309912082533 
2240	 0.227282541662712 
2241	 0.227245973411504 
2242	 0.227212281659424 
2243	 0.227169192889238 
2244	 0.227121930312231 
2245	 0.227058480062196 
2246	 0.226993975657264 
2247	 0.226919242652598 
2248	 0.226851158221439 
2249	 0.22677781129145 
2250	 0.226720531963043 
2251	 0.226668745082091 
2252	 0.226624898266866 
2253	 0.226614955459702 
2254	 0.226539980699672 
2255	 0.226430753479056 
2256	 0.226341848636122 
2257	 0.226199883533582 
2258	 0.226124790107439 
2259	 0.226101966013933 
2260	 0.22606989968562 
2261	 0.226070008601684 
2262	 0.226041575411781 
2263	 0.22601741357526 
2264	 0.225970895861232 
2265	 0.225866317916618 
2266	 0.225822562154596 
2267	 0.225806427513941 
2268	 0.225780882300082 
2269	 0.225796075522348 
2270	 0.225799080942709 
2271	 0.22575130220889 
2272	 0.225702148801123 
2273	 0.225679921858853 
2274	 0.225636291857259 
2275	 0.225555681958506 
2276	 0.225448707134482 
2277	 0.225372234012705 
2278	 0.225267972573453 
2279	 0.225172344450619 
2280	 0.225101764288664 
2281	 0.225034028914133 
2282	 0.22493379983226 
2283	 0.224880822396424 
2284	 0.224889964693285 
2285	 0.224863259483572 
2286	 0.224834112042892 
2287	 0.224797588235881 
2288	 0.224760229576956 
2289	 0.224704595272828 
2290	 0.224628373322939 
2291	 0.224561670428726 
2292	 0.224498133889272 
2293	 0.22441622922911 
2294	 0.224320931021325 
2295	 0.22423399198289 
2296	 0.224142950517813 
2297	 0.224042484942424 
2298	 0.223924034511031 
2299	 0.223801551042275 
2300	 0.223731718175406 
2301	 0.223658786843008 
2302	 0.223578959408015 
2303	 0.223550841692828 
2304	 0.223456973139499 
2305	 0.223324454259834 
2306	 0.223183614943723 
2307	 0.223013884743519 
2308	 0.222878681731927 
2309	 0.222736371059523 
2310	 0.222582093277922 
2311	 0.222467225616194 
2312	 0.222309693734535 
2313	 0.22207494009927 
2314	 0.221930459384394 
2315	 0.221833703692447 
2316	 0.221706762947914 
2317	 0.221631457916248 
2318	 0.22149653442628 
2319	 0.221295146522008 
2320	 0.221129490035929 
2321	 0.220976318807647 
2322	 0.220781599907409 
2323	 0.220570608110278 
2324	 0.220378337810309 
2325	 0.220126632853982 
2326	 0.219944334875874 
2327	 0.219828094323325 
2328	 0.219701235345637 
2329	 0.219554431477931 
2330	 0.219429180055555 
2331	 0.219279764996996 
2332	 0.219120483511544 
2333	 0.218965190476043 
2334	 0.218845155131229 
2335	 0.218785240241007 
2336	 0.218690042852903 
2337	 0.218586489848909 
2338	 0.218505446972868 
2339	 0.218310019950561 
2340	 0.218084578251096 
2341	 0.217934250615719 
2342	 0.217745541444281 
2343	 0.217550143193685 
2344	 0.217374951451783 
2345	 0.217183120227839 
2346	 0.216962009122532 
2347	 0.21673665680317 
2348	 0.216526237895995 
2349	 0.216282305729172 
2350	 0.215991847855516 
2351	 0.215717436789607 
2352	 0.215436960110023 
2353	 0.215163140594668 
2354	 0.214881468492648 
2355	 0.214614456217653 
2356	 0.214370121136852 
2357	 0.214113378254259 
2358	 0.213853525332241 
2359	 0.21359188398981 
2360	 0.213303148609401 
2361	 0.213061561966245 
2362	 0.212889169478235 
2363	 0.212637151430993 
2364	 0.212344607532416 
2365	 0.212082229394165 
2366	 0.211770136208207 
2367	 0.211503300482293 
2368	 0.211312216993862 
2369	 0.211092338469433 
2370	 0.210900285826207 
2371	 0.210605530824031 
2372	 0.210313125988044 
2373	 0.21004133644715 
2374	 0.209662424609038 
2375	 0.209343008973586 
2376	 0.209061650316196 
2377	 0.208701141259859 
2378	 0.208457046901515 
2379	 0.208213806790932 
2380	 0.207874814278634 
2381	 0.207610899846868 
2382	 0.207248829577105 
2383	 0.206849689212093 
2384	 0.206586610312044 
2385	 0.206261626853614 
2386	 0.205946630641198 
2387	 0.205717929616184 
2388	 0.205436720724324 
2389	 0.205139435080557 
2390	 0.204845292736744 
2391	 0.204456756340632 
2392	 0.204055388840343 
2393	 0.203685280690576 
2394	 0.203347321772565 
2395	 0.203058447755289 
2396	 0.202787390696792 
2397	 0.202537081025583 
2398	 0.202167940181849 
2399	 0.2018448091251 
2400	 0.201572279032739 
2401	 0.201201556510637 
2402	 0.200888219843071 
2403	 0.200546790594798 
2404	 0.200097198782288 
2405	 0.19958894852668 
2406	 0.199128922185347 
2407	 0.198720391213753 
2408	 0.198329324501765 
2409	 0.197976094624672 
2410	 0.197636362201947 
2411	 0.19721725314697 
2412	 0.196767962318343 
2413	 0.196437532042782 
2414	 0.19600899264722 
2415	 0.195565867576314 
2416	 0.195199344385413 
2417	 0.194850772921082 
2418	 0.194461522967572 
2419	 0.194161323910447 
2420	 0.19376284693742 
2421	 0.193281925409746 
2422	 0.192876065823381 
2423	 0.192457320524151 
2424	 0.192071227058361 
2425	 0.191729598128679 
2426	 0.19128098316549 
2427	 0.190833946770972 
2428	 0.190332355642384 
2429	 0.189737782144707 
2430	 0.189187291668711 
2431	 0.188545783041619 
2432	 0.188070742212577 
2433	 0.18765892000821 
2434	 0.187309606858533 
2435	 0.187243129493432 
2436	 0.186894009674892 
2437	 0.186408729670094 
2438	 0.186001216794296 
2439	 0.185410582064346 
2440	 0.184936926637733 
2441	 0.18461252347815 
2442	 0.184163168311539 
2443	 0.183682983162997 
2444	 0.183298205739121 
2445	 0.182967380389009 
2446	 0.1824799961354 
2447	 0.181906353559181 
2448	 0.181484653021261 
2449	 0.180963776090347 
2450	 0.180580240345123 
2451	 0.180520248713258 
2452	 0.180145773456921 
2453	 0.179580182945176 
2454	 0.179179864055437 
2455	 0.178722538895993 
2456	 0.178351305969754 
2457	 0.178096932494364 
2458	 0.177770052834714 
2459	 0.177510140795939 
2460	 0.177128995963788 
2461	 0.176613257585875 
2462	 0.176208176917318 
2463	 0.175779822988567 
2464	 0.175367713810775 
2465	 0.175090282587872 
2466	 0.174759999109821 
2467	 0.174314772163425 
2468	 0.173931259000157 
2469	 0.1735969904506 
2470	 0.173117951126973 
2471	 0.172816762350457 
2472	 0.172354234144908 
2473	 0.171775851168125 
2474	 0.171372135435087 
2475	 0.170909603903591 
2476	 0.17060950576373 
2477	 0.170459663997705 
2478	 0.170060659793723 
2479	 0.169713872900993 
2480	 0.169348988826702 
2481	 0.168896528864508 
2482	 0.168701333783442 
2483	 0.168378287024332 
2484	 0.16800485579908 
2485	 0.167861021084421 
2486	 0.16742996958782 
2487	 0.166980830739031 
2488	 0.166843939067224 
2489	 0.1665018388679 
2490	 0.166124007828747 
2491	 0.166040604887216 
2492	 0.165685265574953 
2493	 0.165139423282359 
2494	 0.164860390224878 
2495	 0.164478512415399 
2496	 0.163979866365523 
2497	 0.163756103953083 
2498	 0.163691289822322 
2499	 0.163551952470765 
2500	 0.163433297034771 
