Wavelength	mm2000000.asd
350	 5.49217018887171E-02 
351	 6.31120299923865E-02 
352	 5.86461016118042E-02 
353	 4.65272752231428E-02 
354	 0.047069263115249 
355	 4.70034706204681E-02 
356	 4.72517898808734E-02 
357	 5.09523245853708E-02 
358	 0.056686191476784 
359	 0.055197034711939 
360	 0.050578968094319 
361	 5.39263464493091E-02 
362	 5.32536610619539E-02 
363	 5.24269797475036E-02 
364	 5.26603652010452E-02 
365	 4.75376452351342E-02 
366	 0.048227960592168 
367	 5.16231146885771E-02 
368	 5.23103743662239E-02 
369	 0.053383272959527 
370	 4.98582416479173E-02 
371	 4.56460209192939E-02 
372	 4.94529423246709E-02 
373	 5.04874437022386E-02 
374	 5.14696700811374E-02 
375	 5.37284397339729E-02 
376	 5.31217533101917E-02 
377	 5.12606689951612E-02 
378	 5.06337613088168E-02 
379	 5.29129789546387E-02 
380	 5.57373923168063E-02 
381	 5.38683579943651E-02 
382	 0.050817014717627 
383	 5.53913536035942E-02 
384	 5.62625875339048E-02 
385	 0.056259021434636 
386	 5.81952043497423E-02 
387	 6.11732908366777E-02 
388	 6.15594763602976E-02 
389	 6.03213086988626E-02 
390	 5.99467265634834E-02 
391	 6.16639482139939E-02 
392	 6.52606571149613E-02 
393	 6.86639380458847E-02 
394	 6.87138721844304E-02 
395	 6.92105365777871E-02 
396	 7.09239168066773E-02 
397	 7.34160678437022E-02 
398	 0.074927966138682 
399	 7.66325560541198E-02 
400	 0.078218782198999 
401	 7.92570535924845E-02 
402	 8.18139653869542E-02 
403	 8.32953421450267E-02 
404	 8.36091885780961E-02 
405	 8.53557380300344E-02 
406	 8.76961845626134E-02 
407	 8.96788321095806E-02 
408	 9.07964248935691E-02 
409	 9.16214982469468E-02 
410	 9.25196538115022E-02 
411	 9.36903243556882E-02 
412	 9.51266471626524E-02 
413	 0.096376107923373 
414	 9.65296778388632E-02 
415	 9.60189969009973E-02 
416	 9.69528343479788E-02 
417	 9.76488370428668E-02 
418	 9.81608072365789E-02 
419	 0.09872229103244 
420	 0.098731762089679 
421	 9.83318066263818E-02 
422	 9.77737203711569E-02 
423	 9.73157588054225E-02 
424	 0.096527784779723 
425	 9.56966804559322E-02 
426	 9.49037445876066E-02 
427	 9.36698717421293E-02 
428	 9.25379971068525E-02 
429	 9.15360720628337E-02 
430	 9.05518980518458E-02 
431	 8.96900487148067E-02 
432	 0.088765549921672 
433	 8.79187830308613E-02 
434	 8.75825302984485E-02 
435	 8.73541252457775E-02 
436	 8.74266315418595E-02 
437	 8.78889732623062E-02 
438	 8.82140571246128E-02 
439	 8.90981124803833E-02 
440	 9.04380630005813E-02 
441	 0.091706940785502 
442	 9.24654540510537E-02 
443	 9.38357820590233E-02 
444	 9.59249620760499E-02 
445	 9.71081525833808E-02 
446	 9.85604721103147E-02 
447	 0.100275895075739 
448	 0.101937746275646 
449	 0.103396186350809 
450	 0.104861458931584 
451	 0.10650057796108 
452	 0.108388203206905 
453	 0.109708216724763 
454	 0.11083173520019 
455	 0.1121630269509 
456	 0.113669666397313 
457	 0.115031543517764 
458	 0.11617060663539 
459	 0.117153127661473 
460	 0.11814538245527 
461	 0.119029554538318 
462	 0.119861025577387 
463	 0.120977484811694 
464	 0.12182887535067 
465	 0.122656005725681 
466	 0.123711985190252 
467	 0.124363442329231 
468	 0.12506220236854 
469	 0.125780874538113 
470	 0.126133348508814 
471	 0.12675562504793 
472	 0.127376538371527 
473	 0.12778210769407 
474	 0.128227581343057 
475	 0.128930581533978 
476	 0.129574382562446 
477	 0.129761984885714 
478	 0.130435819915415 
479	 0.131077063232695 
480	 0.131487041482604 
481	 0.132086405383287 
482	 0.132642794183303 
483	 0.133174053612392 
484	 0.133739362898371 
485	 0.134295586252769 
486	 0.134877731789267 
487	 0.135433079050046 
488	 0.135845692885855 
489	 0.136169516713109 
490	 0.136612407931355 
491	 0.137217672674107 
492	 0.137563636150918 
493	 0.137948530008397 
494	 0.138422263969249 
495	 0.138914809312556 
496	 0.139374653487182 
497	 0.139800847556774 
498	 0.140251001583596 
499	 0.140871302395777 
500	 0.141298425586145 
501	 0.141636231482735 
502	 0.142054702123786 
503	 0.142326500790926 
504	 0.142700778920612 
505	 0.143194746764307 
506	 0.143610672287076 
507	 0.14408471367117 
508	 0.144554094703791 
509	 0.14495190824802 
510	 0.145275865305277 
511	 0.145724561529288 
512	 0.146211283221086 
513	 0.146532387605828 
514	 0.146954667020239 
515	 0.147347688248704 
516	 0.147692833484034 
517	 0.148257285168268 
518	 0.148631896233036 
519	 0.148878061487237 
520	 0.149210553724213 
521	 0.149770680806765 
522	 0.150153732549342 
523	 0.150351658081114 
524	 0.150791370765845 
525	 0.151326958957295 
526	 0.151706072636324 
527	 0.151846664323355 
528	 0.152280401472657 
529	 0.152670401469502 
530	 0.152994598958849 
531	 0.153427549212284 
532	 0.153842906900102 
533	 0.154268655728118 
534	 0.154702235500771 
535	 0.155019847781809 
536	 0.155378157615854 
537	 0.155826988055734 
538	 0.15633566614081 
539	 0.156666688379607 
540	 0.15694291144719 
541	 0.157276614542998 
542	 0.157725131972131 
543	 0.158157978516869 
544	 0.15857817511397 
545	 0.159014910354026 
546	 0.159448333181301 
547	 0.159836031365431 
548	 0.160208222407427 
549	 0.160651859474477 
550	 0.161105793953537 
551	 0.161612427663889 
552	 0.162172391418044 
553	 0.162633290234581 
554	 0.163063192242975 
555	 0.163530940294677 
556	 0.164095057346403 
557	 0.164693208989937 
558	 0.165292813418362 
559	 0.165903532637001 
560	 0.166612927827677 
561	 0.1672098609675 
562	 0.167760074591389 
563	 0.168408534235774 
564	 0.169157719859362 
565	 0.169803404357698 
566	 0.170332888075744 
567	 0.17095624322978 
568	 0.171504574131143 
569	 0.172162051614212 
570	 0.173082470059125 
571	 0.174082027514844 
572	 0.174955310004493 
573	 0.175720724909709 
574	 0.176548522343636 
575	 0.177282123897985 
576	 0.178133639280107 
577	 0.179195833028189 
578	 0.180197256699594 
579	 0.18115539396073 
580	 0.182011446980338 
581	 0.182719930670883 
582	 0.18346258835541 
583	 0.184200531703391 
584	 0.184974787022996 
585	 0.185972257186498 
586	 0.187118968085481 
587	 0.188295291751753 
588	 0.189409507233547 
589	 0.19057601405562 
590	 0.19174985666256 
591	 0.192871554436037 
592	 0.193881910738966 
593	 0.194816689854933 
594	 0.195693341258049 
595	 0.196511427260578 
596	 0.197221172861924 
597	 0.19793855710947 
598	 0.198729966755732 
599	 0.199618055166238 
600	 0.200486674449076 
601	 0.201383122709804 
602	 0.20230410518006 
603	 0.203120925750229 
604	 0.203938503742701 
605	 0.204778527496455 
606	 0.205631533562591 
607	 0.20649068340311 
608	 0.207284920902329 
609	 0.208012345036967 
610	 0.208752143489693 
611	 0.209347607164306 
612	 0.20983514252829 
613	 0.210292428795719 
614	 0.210773331063697 
615	 0.211162008210006 
616	 0.211503342759235 
617	 0.211943351241248 
618	 0.212429428305924 
619	 0.212806832435668 
620	 0.213042924442365 
621	 0.213395702575528 
622	 0.21373320961875 
623	 0.214029466883108 
624	 0.214299782850126 
625	 0.214567561898858 
626	 0.214822545647108 
627	 0.215077417946578 
628	 0.215379495569127 
629	 0.215588942711762 
630	 0.215777092823755 
631	 0.216026849081949 
632	 0.216210879388163 
633	 0.216453877049884 
634	 0.216730136278829 
635	 0.216898377218944 
636	 0.217078713322346 
637	 0.217285664222634 
638	 0.217507537380498 
639	 0.217714171057052 
640	 0.21794103009319 
641	 0.218167897093932 
642	 0.218363611195793 
643	 0.218628241783432 
644	 0.218876325879957 
645	 0.219068927938053 
646	 0.219258178006624 
647	 0.219455451939811 
648	 0.219677334574528 
649	 0.219938253776651 
650	 0.220259772221168 
651	 0.220522350466696 
652	 0.220732086977079 
653	 0.221004349691459 
654	 0.221311395474127 
655	 0.221613140337156 
656	 0.221902141844562 
657	 0.222264573549206 
658	 0.222617902201183 
659	 0.22292546084661 
660	 0.223191104671239 
661	 0.22353464773134 
662	 0.223931590646835 
663	 0.224330270098057 
664	 0.224661634784085 
665	 0.225021841564454 
666	 0.225370163415962 
667	 0.225678740183233 
668	 0.226139476438403 
669	 0.226616489916323 
670	 0.227071968787204 
671	 0.227550631639656 
672	 0.227937501786268 
673	 0.228369828887987 
674	 0.228921268098465 
675	 0.229418691273816 
676	 0.229890760965631 
677	 0.230369075945224 
678	 0.230886488534982 
679	 0.231429778388367 
680	 0.231971475301845 
681	 0.23251196117157 
682	 0.233089624482385 
683	 0.233610798532263 
684	 0.234162066265225 
685	 0.234805032547909 
686	 0.235329397968695 
687	 0.235931774269604 
688	 0.236591962631032 
689	 0.237147241236295 
690	 0.23774029657872 
691	 0.238395591542564 
692	 0.239083820291054 
693	 0.239703480797232 
694	 0.24033816222024 
695	 0.241013808547506 
696	 0.241716804708483 
697	 0.242334118128261 
698	 0.242974702736976 
699	 0.243663718704713 
700	 0.24432549819791 
701	 0.245005270731994 
702	 0.245669024573568 
703	 0.246304675379585 
704	 0.247013397106152 
705	 0.247671057599998 
706	 0.248297212588506 
707	 0.248978129350685 
708	 0.249678535690534 
709	 0.250361797547372 
710	 0.251021107284527 
711	 0.251696156956796 
712	 0.252317012273851 
713	 0.25288283559652 
714	 0.253442115214928 
715	 0.254152351866857 
716	 0.25478235353368 
717	 0.255318639785944 
718	 0.25590359508125 
719	 0.25643422613294 
720	 0.256943985165498 
721	 0.257455024085845 
722	 0.257930782915444 
723	 0.258440774090936 
724	 0.258910016450405 
725	 0.259260956171589 
726	 0.259664696759568 
727	 0.260030252493238 
728	 0.260348171042034 
729	 0.260690178714307 
730	 0.260972974651026 
731	 0.261216957571914 
732	 0.26144000882619 
733	 0.261602889906478 
734	 0.261776137333172 
735	 0.261901194914187 
736	 0.261904306561323 
737	 0.261968812016227 
738	 0.262016715296604 
739	 0.261987035278413 
740	 0.261864651556072 
741	 0.261827589866388 
742	 0.261758713142456 
743	 0.261552516452557 
744	 0.261309128696178 
745	 0.261063195490393 
746	 0.260810495684527 
747	 0.260524123763007 
748	 0.260196548386387 
749	 0.259820918941882 
750	 0.259426997227687 
751	 0.25908361756537 
752	 0.258649695504996 
753	 0.258132511116208 
754	 0.257581851734401 
755	 0.257059371519207 
756	 0.256516662172723 
757	 0.255936769333055 
758	 0.255323618479612 
759	 0.254697474122884 
760	 0.254060262411907 
761	 0.253410143799205 
762	 0.252743304848352 
763	 0.252068173071629 
764	 0.251348202003098 
765	 0.25056548622402 
766	 0.249767075612828 
767	 0.249066027285793 
768	 0.248384651084651 
769	 0.24757858455762 
770	 0.24680825959139 
771	 0.246045556299007 
772	 0.24524414332809 
773	 0.244360940190396 
774	 0.24352959494883 
775	 0.242740099643898 
776	 0.241948511573024 
777	 0.241120730995843 
778	 0.240251033629213 
779	 0.239412895776047 
780	 0.238676183004842 
781	 0.237850791331832 
782	 0.236988226166232 
783	 0.236138611885492 
784	 0.235328928451285 
785	 0.234500244046122 
786	 0.233697650139671 
787	 0.232942245191743 
788	 0.232149912494065 
789	 0.23136731351463 
790	 0.230557288702665 
791	 0.229692972070997 
792	 0.228953825864619 
793	 0.228193350630166 
794	 0.227393273548353 
795	 0.226651435804297 
796	 0.225856656327053 
797	 0.225083137204586 
798	 0.224373070097296 
799	 0.223662206303211 
800	 0.222928620108868 
801	 0.22216740603722 
802	 0.221402361004338 
803	 0.22073295548469 
804	 0.220053878089519 
805	 0.219344324484495 
806	 0.218642234010522 
807	 0.217944794632531 
808	 0.217298049113536 
809	 0.216677376650359 
810	 0.215965501038805 
811	 0.215309287151407 
812	 0.214701137315454 
813	 0.214097545869871 
814	 0.213456746488766 
815	 0.212864194854094 
816	 0.212293539366974 
817	 0.211687251998686 
818	 0.211090737306511 
819	 0.210528059946564 
820	 0.20997485333106 
821	 0.209379890039512 
822	 0.208876137623024 
823	 0.20831790432901 
824	 0.207681851794393 
825	 0.207205929865669 
826	 0.206796172733436 
827	 0.206336417753248 
828	 0.205773763777019 
829	 0.205278445762539 
830	 0.204745852293145 
831	 0.204235364207921 
832	 0.203854976628113 
833	 0.203507689816001 
834	 0.203131966571574 
835	 0.202693891592325 
836	 0.202197620860234 
837	 0.201789470932417 
838	 0.201424473178897 
839	 0.201040213059715 
840	 0.200603572738183 
841	 0.200203594414852 
842	 0.199854483564412 
843	 0.199529035963977 
844	 0.199148628573242 
845	 0.198797889869843 
846	 0.198497891442612 
847	 0.198232241991603 
848	 0.197973372371564 
849	 0.197677376153165 
850	 0.197331242361556 
851	 0.196959337560625 
852	 0.196666725714551 
853	 0.196437121882526 
854	 0.196231198102998 
855	 0.196008835540353 
856	 0.195765356437114 
857	 0.195490834645697 
858	 0.195222604461116 
859	 0.195126701420038 
860	 0.19494853096878 
861	 0.19470143356703 
862	 0.194481609184079 
863	 0.194270275588114 
864	 0.194071297652692 
865	 0.1939095585459 
866	 0.193805616345991 
867	 0.19366448092732 
868	 0.193533227033021 
869	 0.193416232651676 
870	 0.193265600151496 
871	 0.193110656341421 
872	 0.192979361427218 
873	 0.192893768298897 
874	 0.192865768245695 
875	 0.192838600266487 
876	 0.192749206709293 
877	 0.192602381164601 
878	 0.192570625637642 
879	 0.192566882208043 
880	 0.192556250591191 
881	 0.192524646961671 
882	 0.192464091663299 
883	 0.19249689996287 
884	 0.192521406167665 
885	 0.192381232503438 
886	 0.19240397167689 
887	 0.192469404073273 
888	 0.192505004254735 
889	 0.192519937103161 
890	 0.192613337505065 
891	 0.192694537284713 
892	 0.192742271215673 
893	 0.192848969750417 
894	 0.192997200806898 
895	 0.193073730506045 
896	 0.193068374461254 
897	 0.193181095076814 
898	 0.19336046707866 
899	 0.19353736792843 
900	 0.193665009885657 
901	 0.193770912317266 
902	 0.193922532950445 
903	 0.194119526947068 
904	 0.194315784181287 
905	 0.194400990612078 
906	 0.194574897637202 
907	 0.194813919434828 
908	 0.195021921860338 
909	 0.195369690696176 
910	 0.195617221468841 
911	 0.195784752674935 
912	 0.196050381556278 
913	 0.196295824875647 
914	 0.196581144692777 
915	 0.196894600395274 
916	 0.197156650887018 
917	 0.197372851567552 
918	 0.197662637096414 
919	 0.198026871354077 
920	 0.198326410447756 
921	 0.198680957349533 
922	 0.19903759102332 
923	 0.199384212307534 
924	 0.199803899585991 
925	 0.200178428813634 
926	 0.200538109162436 
927	 0.200933663685976 
928	 0.201387903776221 
929	 0.201875816786612 
930	 0.202316981366174 
931	 0.202696592664007 
932	 0.203175856867758 
933	 0.203663117402168 
934	 0.204173814729164 
935	 0.204718157968556 
936	 0.205203335760889 
937	 0.205714119441769 
938	 0.206235014174396 
939	 0.206756336296445 
940	 0.207408856317972 
941	 0.208045562174678 
942	 0.208631088365764 
943	 0.209187042300015 
944	 0.2097397127124 
945	 0.210325959289774 
946	 0.210987084111594 
947	 0.21171443927782 
948	 0.212315416329867 
949	 0.212860259227454 
950	 0.213453381469293 
951	 0.214178045114098 
952	 0.214970734218612 
953	 0.21567035140935 
954	 0.216343843094067 
955	 0.217157551478957 
956	 0.218037592377197 
957	 0.218872187536175 
958	 0.219645276581756 
959	 0.220389529848838 
960	 0.220989447343113 
961	 0.221798968158645 
962	 0.222765216875327 
963	 0.223581714105651 
964	 0.224274397419362 
965	 0.22510013971663 
966	 0.22599428474694 
967	 0.226746614859766 
968	 0.227747635558758 
969	 0.22866811016675 
970	 0.229491908219439 
971	 0.230425653338659 
972	 0.231431629603659 
973	 0.232415341543304 
974	 0.233348219056488 
975	 0.234265579438321 
976	 0.235252379994283 
977	 0.2361828938024 
978	 0.23709173641626 
979	 0.238105716932439 
980	 0.239186755611047 
981	 0.240260696577701 
982	 0.24129664263354 
983	 0.242300267199722 
984	 0.243264486674416 
985	 0.244343904165318 
986	 0.245415791404841 
987	 0.246282702584357 
988	 0.247217267021252 
989	 0.248261404275473 
990	 0.249337736778552 
991	 0.250377254863019 
992	 0.251628224037139 
993	 0.252765043607344 
994	 0.253834948037461 
995	 0.254998006458708 
996	 0.25609129785886 
997	 0.257080847472558 
998	 0.25814373872874 
999	 0.259392195679849 
1000	 0.260428762304257 
1001	 0.254402952364582 
1002	 0.255388072028175 
1003	 0.256413915067792 
1004	 0.257439109333649 
1005	 0.258580637926822 
1006	 0.259596568669643 
1007	 0.260534970096873 
1008	 0.261477214399353 
1009	 0.262428045550355 
1010	 0.263366447274097 
1011	 0.264315876861626 
1012	 0.265237088812019 
1013	 0.266149115516271 
1014	 0.267056917209376 
1015	 0.267914391008594 
1016	 0.268818733652046 
1017	 0.269745526262747 
1018	 0.270689766559405 
1019	 0.271602691089141 
1020	 0.272554065892172 
1021	 0.273481095517521 
1022	 0.274389084529853 
1023	 0.275284558542691 
1024	 0.276183697575373 
1025	 0.277097639532761 
1026	 0.277939330878785 
1027	 0.278755392938877 
1028	 0.279571305645661 
1029	 0.280426964137422 
1030	 0.281294872947222 
1031	 0.282122950964545 
1032	 0.282953705633869 
1033	 0.283801482471838 
1034	 0.284603768532744 
1035	 0.28537418014442 
1036	 0.286186724689135 
1037	 0.287011161943323 
1038	 0.287818292893184 
1039	 0.288598548351807 
1040	 0.289461931125202 
1041	 0.290415666931624 
1042	 0.291291811450783 
1043	 0.292126383916027 
1044	 0.2929492348052 
1045	 0.293748497270685 
1046	 0.294468095305346 
1047	 0.295192558209529 
1048	 0.295995218623219 
1049	 0.296768536486332 
1050	 0.29748875997583 
1051	 0.298271770361451 
1052	 0.299032348959011 
1053	 0.299773517478598 
1054	 0.300556675500517 
1055	 0.30136164247251 
1056	 0.302142620069392 
1057	 0.302882969755516 
1058	 0.303611959516249 
1059	 0.304336232541032 
1060	 0.305003272969533 
1061	 0.305685576413471 
1062	 0.306429452393858 
1063	 0.307153349182457 
1064	 0.307881003758847 
1065	 0.308589034732866 
1066	 0.309309774274882 
1067	 0.310089763926425 
1068	 0.310847521969166 
1069	 0.311569022541139 
1070	 0.312265575006488 
1071	 0.312915916513217 
1072	 0.313578093278636 
1073	 0.31421515329545 
1074	 0.31487662094398 
1075	 0.315559794805105 
1076	 0.316220563008255 
1077	 0.316838948259031 
1078	 0.317398186969942 
1079	 0.318005876566063 
1080	 0.318616253224731 
1081	 0.319230601310164 
1082	 0.319926326714217 
1083	 0.320567699346852 
1084	 0.321156032390853 
1085	 0.321788854784326 
1086	 0.322475315770197 
1087	 0.323071490766027 
1088	 0.323628778141413 
1089	 0.324206689102991 
1090	 0.324741827458326 
1091	 0.32529817613113 
1092	 0.325934982566287 
1093	 0.3265612173106 
1094	 0.327162605599445 
1095	 0.327740915605896 
1096	 0.328337062906306 
1097	 0.32892725970193 
1098	 0.329490654208787 
1099	 0.330061409735325 
1100	 0.330612703008744 
1101	 0.331089086259691 
1102	 0.331640568461372 
1103	 0.332258267694135 
1104	 0.332808445124381 
1105	 0.333331412295707 
1106	 0.333879676781125 
1107	 0.334416400413585 
1108	 0.334951264933495 
1109	 0.335564126404836 
1110	 0.336213328733202 
1111	 0.336791258398044 
1112	 0.337357533751623 
1113	 0.337891744796409 
1114	 0.338344178537442 
1115	 0.33886348102558 
1116	 0.339378046569669 
1117	 0.339924813114461 
1118	 0.340525767571354 
1119	 0.341107290648453 
1120	 0.34165628531609 
1121	 0.34223638767047 
1122	 0.342764589800287 
1123	 0.343278199707455 
1124	 0.343811399430319 
1125	 0.344353367896539 
1126	 0.344876937965879 
1127	 0.345388751439714 
1128	 0.345916515064803 
1129	 0.346445492781418 
1130	 0.346967606722189 
1131	 0.347506202458653 
1132	 0.348030605273115 
1133	 0.348528008327095 
1134	 0.349037784715979 
1135	 0.349537977579261 
1136	 0.350068289203549 
1137	 0.350608419122765 
1138	 0.351127290468508 
1139	 0.351633971249851 
1140	 0.352141738980071 
1141	 0.352621275119829 
1142	 0.353061817687533 
1143	 0.35353657208541 
1144	 0.354019006785605 
1145	 0.354484078739116 
1146	 0.354965972617422 
1147	 0.355420239778892 
1148	 0.355836385883989 
1149	 0.356270427090973 
1150	 0.356694682323069 
1151	 0.357142844051967 
1152	 0.357573814368369 
1153	 0.358006667731567 
1154	 0.358448173644451 
1155	 0.358885228004539 
1156	 0.359327784668022 
1157	 0.359792970891333 
1158	 0.360234399945031 
1159	 0.360668609101788 
1160	 0.361099108324014 
1161	 0.361508946138538 
1162	 0.361935043115598 
1163	 0.362370108680591 
1164	 0.362801792584501 
1165	 0.363227387967232 
1166	 0.363674525601387 
1167	 0.364136872013252 
1168	 0.364583316930952 
1169	 0.365015029552737 
1170	 0.36544875647207 
1171	 0.365874793696371 
1172	 0.366278135714051 
1173	 0.366687077098312 
1174	 0.367102853984668 
1175	 0.367514578073762 
1176	 0.36792125047069 
1177	 0.368318244201003 
1178	 0.368716241640498 
1179	 0.369109252931912 
1180	 0.369482501061618 
1181	 0.369866285013396 
1182	 0.370251256449665 
1183	 0.370643240860386 
1184	 0.371042913887787 
1185	 0.371454097566008 
1186	 0.371847488569433 
1187	 0.372245675167841 
1188	 0.372633876611968 
1189	 0.373001381991993 
1190	 0.373383981480158 
1191	 0.373780415318867 
1192	 0.374159988978994 
1193	 0.374545815608663 
1194	 0.374910208372124 
1195	 0.375250090464705 
1196	 0.37559609189447 
1197	 0.375919657122915 
1198	 0.376262813234753 
1199	 0.37661470470551 
1200	 0.376980783654032 
1201	 0.377332594665366 
1202	 0.377687554756137 
1203	 0.378044555266331 
1204	 0.37839517873949 
1205	 0.378749174309902 
1206	 0.379116346135487 
1207	 0.379470999910025 
1208	 0.379823287222656 
1209	 0.380163298612335 
1210	 0.380506787732487 
1211	 0.380826976781328 
1212	 0.381103239538775 
1213	 0.381412511270243 
1214	 0.381729056260597 
1215	 0.382041973632587 
1216	 0.382361100879758 
1217	 0.382706824857535 
1218	 0.383023311630791 
1219	 0.383316534251783 
1220	 0.383632412131262 
1221	 0.38395386235099 
1222	 0.384273339437961 
1223	 0.384612242327038 
1224	 0.384923749562175 
1225	 0.385217196962328 
1226	 0.385516683444163 
1227	 0.385807227118291 
1228	 0.38609688174299 
1229	 0.386391976241957 
1230	 0.386679733949745 
1231	 0.386948585918172 
1232	 0.387232105699655 
1233	 0.387520924029881 
1234	 0.387818394137423 
1235	 0.388104069657037 
1236	 0.388393799135502 
1237	 0.388679520715595 
1238	 0.388955665801668 
1239	 0.389235791751951 
1240	 0.389510538328147 
1241	 0.389804358812512 
1242	 0.390122278770302 
1243	 0.390407133214887 
1244	 0.39068867369498 
1245	 0.390972225655831 
1246	 0.391221373739313 
1247	 0.391492277555162 
1248	 0.391800102117394 
1249	 0.392088585618069 
1250	 0.392345142315978 
1251	 0.392587769149857 
1252	 0.392814136976281 
1253	 0.39299487573096 
1254	 0.3932194369425 
1255	 0.393449045083842 
1256	 0.393688172946941 
1257	 0.393959040171811 
1258	 0.394193745343785 
1259	 0.394420716706732 
1260	 0.394641881716579 
1261	 0.394825798544797 
1262	 0.39504446431402 
1263	 0.395285563717321 
1264	 0.39551340459112 
1265	 0.395758014727945 
1266	 0.39599237126973 
1267	 0.396215338520294 
1268	 0.3964252104716 
1269	 0.396653656611522 
1270	 0.396882818536153 
1271	 0.397121956161997 
1272	 0.397381250862516 
1273	 0.397616184475998 
1274	 0.397838047077674 
1275	 0.39807614702995 
1276	 0.398295933812463 
1277	 0.398552600870511 
1278	 0.398857748259843 
1279	 0.39912441240808 
1280	 0.399381963567287 
1281	 0.399650081428206 
1282	 0.399901594704306 
1283	 0.400163329714643 
1284	 0.400463612235921 
1285	 0.400726769445542 
1286	 0.400959284712182 
1287	 0.401197069144878 
1288	 0.401426215535633 
1289	 0.401638068646132 
1290	 0.401854398598577 
1291	 0.40206626343303 
1292	 0.402286422692607 
1293	 0.402525698990934 
1294	 0.402715605634672 
1295	 0.402896585420426 
1296	 0.403059637730298 
1297	 0.403182829904528 
1298	 0.403301038913839 
1299	 0.403412821967761 
1300	 0.40351335418162 
1301	 0.403579673805442 
1302	 0.403657576478707 
1303	 0.403729793047562 
1304	 0.403822041582882 
1305	 0.403900450009255 
1306	 0.403974217005359 
1307	 0.40404682149585 
1308	 0.40410297865537 
1309	 0.404140864397742 
1310	 0.404155805116237 
1311	 0.404177446335145 
1312	 0.404186455318813 
1313	 0.404195933397771 
1314	 0.404212904055005 
1315	 0.404219569783012 
1316	 0.404213077422503 
1317	 0.404204558011782 
1318	 0.404187742831964 
1319	 0.40417324895936 
1320	 0.404157523291056 
1321	 0.404141221169622 
1322	 0.404131381590824 
1323	 0.404116919489582 
1324	 0.404071292912074 
1325	 0.404019355538367 
1326	 0.403969840806647 
1327	 0.403904764460434 
1328	 0.403842137262095 
1329	 0.403790062463206 
1330	 0.403726812012178 
1331	 0.403655444544234 
1332	 0.403578727594052 
1333	 0.403499898051501 
1334	 0.403415387193052 
1335	 0.403307668054154 
1336	 0.403230799573485 
1337	 0.403165472486647 
1338	 0.403100952364008 
1339	 0.403065989253106 
1340	 0.402999033353684 
1341	 0.402928833810555 
1342	 0.402838961066103 
1343	 0.402714963261363 
1344	 0.402606592170939 
1345	 0.402503021926544 
1346	 0.402399050394185 
1347	 0.402325763876514 
1348	 0.402232144724045 
1349	 0.402119758325402 
1350	 0.402012288761796 
1351	 0.401899920812591 
1352	 0.401783583962607 
1353	 0.401656841680176 
1354	 0.401530439252729 
1355	 0.401389594598723 
1356	 0.401217490968459 
1357	 0.401078292650066 
1358	 0.400944295716069 
1359	 0.400817611193694 
1360	 0.400711093968422 
1361	 0.400597018037431 
1362	 0.400498410284514 
1363	 0.400369798661332 
1364	 0.400229894235712 
1365	 0.400089012199316 
1366	 0.399929920317395 
1367	 0.399759610247181 
1368	 0.399626492864454 
1369	 0.399476045946689 
1370	 0.399289741272785 
1371	 0.399103360014834 
1372	 0.398877120247383 
1373	 0.398601657966711 
1374	 0.398308802839149 
1375	 0.398007215314089 
1376	 0.397635142121402 
1377	 0.397230013150679 
1378	 0.396763495865544 
1379	 0.396231838354566 
1380	 0.395669484304714 
1381	 0.395055691665396 
1382	 0.394408704546666 
1383	 0.393758983401092 
1384	 0.393007106673712 
1385	 0.392204939287379 
1386	 0.391333772209761 
1387	 0.390383600569153 
1388	 0.389375672793317 
1389	 0.388320813289288 
1390	 0.387185045242719 
1391	 0.38598292621873 
1392	 0.384684386722358 
1393	 0.383321480205014 
1394	 0.381914548637608 
1395	 0.380402416447707 
1396	 0.378861225088368 
1397	 0.377330686523252 
1398	 0.375754269506471 
1399	 0.374196855385305 
1400	 0.372655335320908 
1401	 0.371101082211961 
1402	 0.369514763373215 
1403	 0.367967382082859 
1404	 0.366421731426398 
1405	 0.364921001585995 
1406	 0.363448215504057 
1407	 0.361993918043535 
1408	 0.360540701075872 
1409	 0.359162056333783 
1410	 0.357772949131498 
1411	 0.35652165539068 
1412	 0.355344696912075 
1413	 0.354276207909544 
1414	 0.353369266581571 
1415	 0.352536633440367 
1416	 0.351818249893117 
1417	 0.351197698734683 
1418	 0.350580088734621 
1419	 0.350006671893487 
1420	 0.349477638677407 
1421	 0.348958229482586 
1422	 0.348457318383926 
1423	 0.347943903305119 
1424	 0.347389626594201 
1425	 0.346787549785197 
1426	 0.346224895370286 
1427	 0.345625819344431 
1428	 0.345097115917589 
1429	 0.344612448829381 
1430	 0.344139354681376 
1431	 0.343712162738787 
1432	 0.343265030173038 
1433	 0.34281528501552 
1434	 0.342390660661516 
1435	 0.341951271038288 
1436	 0.341561084085067 
1437	 0.341219638118215 
1438	 0.340879903511318 
1439	 0.340560017781912 
1440	 0.340258226112914 
1441	 0.33997451911416 
1442	 0.339677560702565 
1443	 0.339367711898557 
1444	 0.3390763035134 
1445	 0.338777562355208 
1446	 0.338463451092245 
1447	 0.338192633806449 
1448	 0.337912710612904 
1449	 0.337574745744343 
1450	 0.337239015664461 
1451	 0.336901898572068 
1452	 0.336538904797222 
1453	 0.336178819289444 
1454	 0.335843488935637 
1455	 0.335464036988638 
1456	 0.335045602490791 
1457	 0.334634940840752 
1458	 0.334205101153716 
1459	 0.333782894951196 
1460	 0.333336312161665 
1461	 0.33294445072457 
1462	 0.332568969928936 
1463	 0.332218505301714 
1464	 0.331908122242415 
1465	 0.331605549115082 
1466	 0.331288144183493 
1467	 0.331042769507575 
1468	 0.330805413238472 
1469	 0.330663792558385 
1470	 0.330593499707549 
1471	 0.330582933860224 
1472	 0.330663859684662 
1473	 0.330821250626494 
1474	 0.331021138322281 
1475	 0.331289957662438 
1476	 0.331601226361861 
1477	 0.331974474138567 
1478	 0.332427493396142 
1479	 0.332906679920821 
1480	 0.333422603880852 
1481	 0.333981869941767 
1482	 0.334541449472689 
1483	 0.335132243745295 
1484	 0.33569514415871 
1485	 0.336263146609379 
1486	 0.336822066855473 
1487	 0.337364365584987 
1488	 0.337908576955766 
1489	 0.338482962629215 
1490	 0.338997090689061 
1491	 0.339481069314751 
1492	 0.339948130266692 
1493	 0.340372337619316 
1494	 0.340793056611516 
1495	 0.34120248465219 
1496	 0.341595741252378 
1497	 0.3419743710465 
1498	 0.342342334730642 
1499	 0.342702395923425 
1500	 0.343036917984482 
1501	 0.343340982208109 
1502	 0.343649757044175 
1503	 0.34394142461313 
1504	 0.344227890838207 
1505	 0.344541084396927 
1506	 0.344836305950665 
1507	 0.345114418581056 
1508	 0.345395879307473 
1509	 0.345640543170738 
1510	 0.345879644370923 
1511	 0.346116704009227 
1512	 0.346346155856955 
1513	 0.34659177901326 
1514	 0.34682596756895 
1515	 0.34705852876989 
1516	 0.347304977856381 
1517	 0.347548286274266 
1518	 0.347798576252032 
1519	 0.348028582031905 
1520	 0.348255479653665 
1521	 0.348474828615864 
1522	 0.348662829074318 
1523	 0.34889036130632 
1524	 0.349137185386409 
1525	 0.34937319057907 
1526	 0.349630874721215 
1527	 0.349863834554614 
1528	 0.350086341237104 
1529	 0.350295980268933 
1530	 0.350488600627986 
1531	 0.350686258900571 
1532	 0.350870011189447 
1533	 0.351058964264308 
1534	 0.351256189821216 
1535	 0.351441834870035 
1536	 0.351626885491829 
1537	 0.351800776332396 
1538	 0.351946748172459 
1539	 0.352124992666972 
1540	 0.352312595396935 
1541	 0.35249941023833 
1542	 0.352712330867661 
1543	 0.352907770554309 
1544	 0.353101955432181 
1545	 0.353279616301496 
1546	 0.353443762956615 
1547	 0.353604520287219 
1548	 0.353767021958354 
1549	 0.353909245151119 
1550	 0.354061297174271 
1551	 0.35422608180744 
1552	 0.354385634573591 
1553	 0.354553928536584 
1554	 0.354733485611327 
1555	 0.3549111905537 
1556	 0.355070482497887 
1557	 0.355229079031467 
1558	 0.355383772695992 
1559	 0.355543104816686 
1560	 0.355702165118868 
1561	 0.35587246828515 
1562	 0.356016922241253 
1563	 0.35614392256178 
1564	 0.356290077411254 
1565	 0.356434636019018 
1566	 0.356573405319469 
1567	 0.356731679261979 
1568	 0.356855926801702 
1569	 0.356951897391917 
1570	 0.357056858913833 
1571	 0.357150967703617 
1572	 0.357249188424936 
1573	 0.357346703237773 
1574	 0.357448135788676 
1575	 0.357554491426562 
1576	 0.35764946888514 
1577	 0.357739089844395 
1578	 0.35783355533781 
1579	 0.357914368127167 
1580	 0.358014991457227 
1581	 0.358129622468209 
1582	 0.358242444932905 
1583	 0.358380178640171 
1584	 0.35848613437698 
1585	 0.358582518433716 
1586	 0.358665893528714 
1587	 0.358721921220654 
1588	 0.358783624968209 
1589	 0.358839592925582 
1590	 0.358896809320573 
1591	 0.358949334355502 
1592	 0.359000912609258 
1593	 0.359050513071781 
1594	 0.359104781208029 
1595	 0.359155050757881 
1596	 0.359216292984506 
1597	 0.359304323735518 
1598	 0.359358812165778 
1599	 0.359413437186964 
1600	 0.359442941831276 
1601	 0.359412667104664 
1602	 0.359424549795923 
1603	 0.359441213598311 
1604	 0.359466671789666 
1605	 0.359518365530414 
1606	 0.35957166085985 
1607	 0.359623571781365 
1608	 0.359693025540703 
1609	 0.359764155453801 
1610	 0.359810089080826 
1611	 0.359836439483499 
1612	 0.359848951520501 
1613	 0.359804638732654 
1614	 0.359765369368034 
1615	 0.359753024568422 
1616	 0.359713976250006 
1617	 0.359723478862567 
1618	 0.35976060657791 
1619	 0.359750595446513 
1620	 0.359755810913948 
1621	 0.359749228092391 
1622	 0.359733721811073 
1623	 0.359718714247645 
1624	 0.359703132393399 
1625	 0.359679869196955 
1626	 0.359653212929582 
1627	 0.359620564202809 
1628	 0.35956929302213 
1629	 0.35955621394016 
1630	 0.359556589324795 
1631	 0.359550597880283 
1632	 0.359572706754318 
1633	 0.359561248495384 
1634	 0.359524744641819 
1635	 0.359502925823543 
1636	 0.359486936268 
1637	 0.35944987958555 
1638	 0.359400956131391 
1639	 0.359360564378204 
1640	 0.359298138856389 
1641	 0.359271243586994 
1642	 0.359273138008204 
1643	 0.359256869047437 
1644	 0.35925588889873 
1645	 0.359227229799362 
1646	 0.359178353158132 
1647	 0.359136535282226 
1648	 0.359092102243888 
1649	 0.359031184564376 
1650	 0.358954392287138 
1651	 0.358898011013156 
1652	 0.358830388758894 
1653	 0.358781365778891 
1654	 0.358771885808969 
1655	 0.358719528255819 
1656	 0.358652244362359 
1657	 0.358578048131148 
1658	 0.358489086789913 
1659	 0.358388743322133 
1660	 0.358280582949921 
1661	 0.358160729310368 
1662	 0.358012172335915 
1663	 0.357885324678538 
1664	 0.357743054020218 
1665	 0.357645772956004 
1666	 0.357573710321516 
1667	 0.35751203329105 
1668	 0.357516462500425 
1669	 0.357437820335041 
1670	 0.357324816879844 
1671	 0.357217795607061 
1672	 0.357061745876674 
1673	 0.356937348236663 
1674	 0.356831181410773 
1675	 0.356727868826162 
1676	 0.356624384019441 
1677	 0.356527106238849 
1678	 0.356459376297029 
1679	 0.356354999163729 
1680	 0.356233086753119 
1681	 0.356109670076418 
1682	 0.35594640747567 
1683	 0.355836098835123 
1684	 0.355753226466066 
1685	 0.355662496624823 
1686	 0.355610059922134 
1687	 0.355520027133206 
1688	 0.355402013515893 
1689	 0.355294244574026 
1690	 0.355184077393498 
1691	 0.355066491048402 
1692	 0.354942882443705 
1693	 0.354824094374533 
1694	 0.354691062761924 
1695	 0.354578214894302 
1696	 0.354479035898534 
1697	 0.354384025087229 
1698	 0.354324969595504 
1699	 0.354208325138649 
1700	 0.354071993214642 
1701	 0.353919065423078 
1702	 0.353711845240786 
1703	 0.35354087980634 
1704	 0.353382233811288 
1705	 0.35321970563323 
1706	 0.353069872420421 
1707	 0.352897529094989 
1708	 0.352704772267718 
1709	 0.35253062256052 
1710	 0.352356182005107 
1711	 0.352180135707928 
1712	 0.352028138960177 
1713	 0.351838703591545 
1714	 0.351625112620411 
1715	 0.351410466468112 
1716	 0.351162768129902 
1717	 0.350954256055838 
1718	 0.350765872514356 
1719	 0.350561079208707 
1720	 0.350364855183451 
1721	 0.350173443370225 
1722	 0.349966964882146 
1723	 0.349781682926288 
1724	 0.349636109413676 
1725	 0.349443074293387 
1726	 0.349240317075345 
1727	 0.349009251404293 
1728	 0.348728495761903 
1729	 0.34849036542811 
1730	 0.348260938233583 
1731	 0.348018187586089 
1732	 0.347789029979735 
1733	 0.34755146119424 
1734	 0.347286825052377 
1735	 0.347045709434257 
1736	 0.346828512166478 
1737	 0.346591276535375 
1738	 0.346355146436071 
1739	 0.346098822641297 
1740	 0.345831191558138 
1741	 0.345556750281001 
1742	 0.345255655635251 
1743	 0.344984166486904 
1744	 0.344729422114114 
1745	 0.344448701310287 
1746	 0.344169474145351 
1747	 0.343857374901953 
1748	 0.343548778024963 
1749	 0.343287366431057 
1750	 0.343050411758724 
1751	 0.342823242819572 
1752	 0.34258883176872 
1753	 0.342331260400661 
1754	 0.34204280433756 
1755	 0.341728635481208 
1756	 0.341422536158161 
1757	 0.341097328488373 
1758	 0.340782439145973 
1759	 0.340494429347718 
1760	 0.340196715246609 
1761	 0.339920402082479 
1762	 0.339669424382976 
1763	 0.339437046677447 
1764	 0.339170569572801 
1765	 0.33886385983252 
1766	 0.338540727764452 
1767	 0.338159759967861 
1768	 0.337834583624986 
1769	 0.337582147848625 
1770	 0.337341368200062 
1771	 0.337151120057779 
1772	 0.336937829855123 
1773	 0.336705191028552 
1774	 0.336488827567522 
1775	 0.336255143901969 
1776	 0.336018711485221 
1777	 0.335771202902371 
1778	 0.33550530220137 
1779	 0.335259572536291 
1780	 0.335031019878279 
1781	 0.334819044230292 
1782	 0.33462652119873 
1783	 0.334408170724682 
1784	 0.334215996045062 
1785	 0.33403663431841 
1786	 0.333861964414318 
1787	 0.333734820501998 
1788	 0.333548321362385 
1789	 0.333325455620311 
1790	 0.33310406362821 
1791	 0.332829907791001 
1792	 0.332614307042824 
1793	 0.332427771707214 
1794	 0.332263828431682 
1795	 0.332138224918643 
1796	 0.33199273243641 
1797	 0.331855493779161 
1798	 0.331723569278979 
1799	 0.33160602622912 
1800	 0.331468950602885 
1801	 0.330210304196359 
1802	 0.330362825892074 
1803	 0.330498503302554 
1804	 0.330661482307706 
1805	 0.330825443587005 
1806	 0.330952296949415 
1807	 0.33108865319931 
1808	 0.331162272038498 
1809	 0.331243337070677 
1810	 0.331241861505058 
1811	 0.331172194122169 
1812	 0.331058140159323 
1813	 0.330925270500169 
1814	 0.330779428612133 
1815	 0.330623720380911 
1816	 0.330437615410591 
1817	 0.330226675822504 
1818	 0.329980444202717 
1819	 0.329737204462173 
1820	 0.329469231504715 
1821	 0.329210051603004 
1822	 0.328969947586538 
1823	 0.328690443603329 
1824	 0.328389208385259 
1825	 0.328047988668162 
1826	 0.327681525856247 
1827	 0.327303109739597 
1828	 0.326864526683055 
1829	 0.326408682548864 
1830	 0.325895877121196 
1831	 0.325313248040511 
1832	 0.324707074378292 
1833	 0.324086664922972 
1834	 0.323411181430385 
1835	 0.322742644486213 
1836	 0.322063951761128 
1837	 0.321393304817753 
1838	 0.320761596825078 
1839	 0.320135820519243 
1840	 0.319519357845516 
1841	 0.318927241243629 
1842	 0.318348157170334 
1843	 0.317765416095482 
1844	 0.317215583298586 
1845	 0.316695996594749 
1846	 0.316212496561701 
1847	 0.315823618524722 
1848	 0.315544443350314 
1849	 0.315305550441646 
1850	 0.31508670532442 
1851	 0.314941491720446 
1852	 0.314780079961494 
1853	 0.314598896415081 
1854	 0.314425292475122 
1855	 0.314243151196824 
1856	 0.31405792808719 
1857	 0.313829208065538 
1858	 0.313577087875421 
1859	 0.31332126564842 
1860	 0.313042983336581 
1861	 0.312750192012399 
1862	 0.312431137674532 
1863	 0.312096928759335 
1864	 0.311727196918373 
1865	 0.311295085342439 
1866	 0.310820847916098 
1867	 0.310281200451728 
1868	 0.309669255416231 
1869	 0.308996206310211 
1870	 0.308253564760864 
1871	 0.30740317615364 
1872	 0.306470223370905 
1873	 0.305446943862018 
1874	 0.304325405993222 
1875	 0.303082568811951 
1876	 0.301785398591114 
1877	 0.300373684968041 
1878	 0.298786540596425 
1879	 0.297091219605654 
1880	 0.295246727439226 
1881	 0.293204554387708 
1882	 0.29110199038511 
1883	 0.288906112309324 
1884	 0.286541233049971 
1885	 0.28410851308139 
1886	 0.281588711764533 
1887	 0.278870068507915 
1888	 0.276071377927852 
1889	 0.273176954007194 
1890	 0.270186064475112 
1891	 0.267198496546709 
1892	 0.264129783098257 
1893	 0.261097416029724 
1894	 0.258041857966181 
1895	 0.255020912855913 
1896	 0.25196464335575 
1897	 0.248998304248795 
1898	 0.246040605862237 
1899	 0.243095098302899 
1900	 0.240289157533641 
1901	 0.237535479639584 
1902	 0.234909481813464 
1903	 0.232417697750076 
1904	 0.230012386682744 
1905	 0.22767661899969 
1906	 0.225512635221853 
1907	 0.223449647538908 
1908	 0.221480171650075 
1909	 0.219686249445174 
1910	 0.217988009055847 
1911	 0.216410367489346 
1912	 0.21493167078304 
1913	 0.213499579156643 
1914	 0.212113003916056 
1915	 0.210845772579734 
1916	 0.209660285888193 
1917	 0.208556163806614 
1918	 0.207567922656862 
1919	 0.20662888390307 
1920	 0.20573557837627 
1921	 0.204892602584442 
1922	 0.204103414341036 
1923	 0.203395237850625 
1924	 0.202760643215926 
1925	 0.20221612230149 
1926	 0.20171032156184 
1927	 0.201274353925261 
1928	 0.200881494122715 
1929	 0.20053336016269 
1930	 0.200221195911032 
1931	 0.199953615156311 
1932	 0.199737442161476 
1933	 0.199568438705284 
1934	 0.199433775555875 
1935	 0.199348788531718 
1936	 0.1993134351948 
1937	 0.199322197709475 
1938	 0.199392987623583 
1939	 0.199480848632599 
1940	 0.199614053549024 
1941	 0.19976151253473 
1942	 0.199935427815045 
1943	 0.200113206585592 
1944	 0.200330361071169 
1945	 0.200585842653118 
1946	 0.200838887676571 
1947	 0.201099138441499 
1948	 0.201392957042674 
1949	 0.201701764277649 
1950	 0.202028146238566 
1951	 0.202388135661821 
1952	 0.202769938955546 
1953	 0.203118103655206 
1954	 0.20349040998194 
1955	 0.203869919758921 
1956	 0.204241784108771 
1957	 0.204652021600739 
1958	 0.20509886652224 
1959	 0.20553975521149 
1960	 0.206009982440139 
1961	 0.206460675594294 
1962	 0.20689811892498 
1963	 0.207349805037871 
1964	 0.207801093934233 
1965	 0.208254226169861 
1966	 0.208736739178869 
1967	 0.209232122435023 
1968	 0.209732424630188 
1969	 0.210254881380184 
1970	 0.210761618655995 
1971	 0.211257697849076 
1972	 0.211777460529955 
1973	 0.212306560965211 
1974	 0.212834463515775 
1975	 0.213373925534099 
1976	 0.213923106941283 
1977	 0.214472921893095 
1978	 0.214997011991769 
1979	 0.215541521476944 
1980	 0.216091036661215 
1981	 0.216619835233342 
1982	 0.217121976251302 
1983	 0.217658119270368 
1984	 0.218196959793661 
1985	 0.218737409419124 
1986	 0.219309284617602 
1987	 0.219854970703007 
1988	 0.220382256154925 
1989	 0.220913452976641 
1990	 0.221444518380761 
1991	 0.221975291746636 
1992	 0.22251584353253 
1993	 0.223072969330168 
1994	 0.223612280731156 
1995	 0.224139962743202 
1996	 0.224682195239301 
1997	 0.225227493070258 
1998	 0.225766028612004 
1999	 0.226307117432889 
2000	 0.226862358395443 
2001	 0.227425860369449 
2002	 0.227972576091767 
2003	 0.228540447136233 
2004	 0.229083440129411 
2005	 0.229623239303809 
2006	 0.230143563048666 
2007	 0.230667752570185 
2008	 0.231189337603241 
2009	 0.231709904776515 
2010	 0.23220284538846 
2011	 0.232735173200953 
2012	 0.233316747836535 
2013	 0.233853756201132 
2014	 0.234391132086242 
2015	 0.234922290368609 
2016	 0.235413675674056 
2017	 0.23587436128217 
2018	 0.236369406383447 
2019	 0.236882132842518 
2020	 0.237377191364807 
2021	 0.237880701483023 
2022	 0.238368056358029 
2023	 0.238829352396483 
2024	 0.239308322571304 
2025	 0.239798293180805 
2026	 0.240276346966926 
2027	 0.240756712801346 
2028	 0.241235259319204 
2029	 0.241692829343396 
2030	 0.242133238070521 
2031	 0.242567781132546 
2032	 0.24298130996013 
2033	 0.243410669753934 
2034	 0.243846854614679 
2035	 0.244263732104492 
2036	 0.24470022074068 
2037	 0.245092992970706 
2038	 0.245442223699149 
2039	 0.245796540223864 
2040	 0.246141266724014 
2041	 0.246455983713791 
2042	 0.246779139889908 
2043	 0.247111763536151 
2044	 0.247447459935657 
2045	 0.247774777883537 
2046	 0.248127416586912 
2047	 0.248502896134065 
2048	 0.248870623177518 
2049	 0.249277212122025 
2050	 0.24962716553883 
2051	 0.249946866321524 
2052	 0.250260851136118 
2053	 0.250531289936517 
2054	 0.250816450491745 
2055	 0.251097565932917 
2056	 0.251401027454775 
2057	 0.251679062149488 
2058	 0.251941854754747 
2059	 0.252224973324134 
2060	 0.252503740245109 
2061	 0.252790669266553 
2062	 0.253105813874643 
2063	 0.253393167392645 
2064	 0.253662450044616 
2065	 0.253940592567174 
2066	 0.254213895417209 
2067	 0.254485489309509 
2068	 0.25476666429244 
2069	 0.255043777088963 
2070	 0.25528627858959 
2071	 0.255508225632676 
2072	 0.255732063231062 
2073	 0.255922324064488 
2074	 0.25614280497217 
2075	 0.25637881821796 
2076	 0.256606209943383 
2077	 0.256839703938264 
2078	 0.257064507062124 
2079	 0.257291827721068 
2080	 0.257502965995253 
2081	 0.257688192104759 
2082	 0.25789732057192 
2083	 0.258110657133911 
2084	 0.258319666824916 
2085	 0.258536609185096 
2086	 0.258778407666833 
2087	 0.258991361048838 
2088	 0.259196642001348 
2089	 0.259386922234641 
2090	 0.259567032510547 
2091	 0.259735098296408 
2092	 0.259876889728025 
2093	 0.260032192361388 
2094	 0.260179755743901 
2095	 0.260336273562355 
2096	 0.260490404128066 
2097	 0.260661703319902 
2098	 0.260856356857261 
2099	 0.261035760932323 
2100	 0.261216968651153 
2101	 0.261412930901238 
2102	 0.26158466511416 
2103	 0.261730186828075 
2104	 0.261903495732931 
2105	 0.262082499932911 
2106	 0.262259471084484 
2107	 0.262449894855016 
2108	 0.262631903251915 
2109	 0.262793246482044 
2110	 0.262980954029894 
2111	 0.263181860795545 
2112	 0.263386070804798 
2113	 0.263605048222633 
2114	 0.263829471356124 
2115	 0.264048297681311 
2116	 0.264270111988187 
2117	 0.264482949916871 
2118	 0.264696317574505 
2119	 0.264897798142969 
2120	 0.265089868888594 
2121	 0.265278651995833 
2122	 0.265470722230231 
2123	 0.265638869165191 
2124	 0.265799161904854 
2125	 0.265940162576222 
2126	 0.26605559519365 
2127	 0.266164536389681 
2128	 0.266247551288368 
2129	 0.266341418138118 
2130	 0.266445332841521 
2131	 0.266530678464283 
2132	 0.266592861681708 
2133	 0.266646902411004 
2134	 0.266692303581702 
2135	 0.26670764209173 
2136	 0.266726903617651 
2137	 0.266777409578017 
2138	 0.266757293833656 
2139	 0.266680487980441 
2140	 0.266620966386072 
2141	 0.266527592835808 
2142	 0.266439402838035 
2143	 0.26637808863698 
2144	 0.266278468613298 
2145	 0.266158617317712 
2146	 0.26601697031158 
2147	 0.265846095085906 
2148	 0.265655647398687 
2149	 0.265476225601234 
2150	 0.265287794932763 
2151	 0.265085966555669 
2152	 0.264876524952221 
2153	 0.264676294242934 
2154	 0.264484879990643 
2155	 0.264247278434509 
2156	 0.264021032414704 
2157	 0.26374360309651 
2158	 0.263380956375762 
2159	 0.263057127663896 
2160	 0.262724928851897 
2161	 0.26239674846483 
2162	 0.262077959412321 
2163	 0.261755398639449 
2164	 0.261412547298791 
2165	 0.261113747714971 
2166	 0.260779173180851 
2167	 0.260432751901491 
2168	 0.260102144502727 
2169	 0.259770311271568 
2170	 0.259430476013241 
2171	 0.259118552809766 
2172	 0.258755713591134 
2173	 0.258339226362534 
2174	 0.25796016605166 
2175	 0.257580955546903 
2176	 0.25719218026082 
2177	 0.256838059342028 
2178	 0.256436889052216 
2179	 0.255997055842879 
2180	 0.255551844676815 
2181	 0.255072566433543 
2182	 0.254605336095031 
2183	 0.254127376813764 
2184	 0.253653478544499 
2185	 0.253199023688015 
2186	 0.25276313873573 
2187	 0.252311540238622 
2188	 0.251859324717387 
2189	 0.251417575404817 
2190	 0.250965489339797 
2191	 0.250535684718232 
2192	 0.25013000766028 
2193	 0.24972315934751 
2194	 0.249312594536701 
2195	 0.248921867958801 
2196	 0.248556699607804 
2197	 0.248178602326012 
2198	 0.24778175093469 
2199	 0.247429597375529 
2200	 0.247092976696105 
2201	 0.24676784938239 
2202	 0.246466160914502 
2203	 0.24619725022508 
2204	 0.245952238315221 
2205	 0.245694945528362 
2206	 0.245532543310764 
2207	 0.245460092760826 
2208	 0.245352468083575 
2209	 0.245281628453376 
2210	 0.24521085876612 
2211	 0.245118186751583 
2212	 0.245074041395837 
2213	 0.245076000434607 
2214	 0.245077000437794 
2215	 0.245127998712533 
2216	 0.245128083288014 
2217	 0.245137864930117 
2218	 0.245097628862047 
2219	 0.244986996313333 
2220	 0.244902561503285 
2221	 0.244814415945761 
2222	 0.244712222212334 
2223	 0.244596621706417 
2224	 0.244448403955679 
2225	 0.244287580344364 
2226	 0.244070420727864 
2227	 0.243898820916221 
2228	 0.243763895662091 
2229	 0.243557282186062 
2230	 0.243343326392919 
2231	 0.243083365950887 
2232	 0.242757281706922 
2233	 0.242441349778738 
2234	 0.24211338972155 
2235	 0.241765535427845 
2236	 0.241413807640594 
2237	 0.241011183177322 
2238	 0.240560196512999 
2239	 0.240110732315958 
2240	 0.239638298041974 
2241	 0.239146786590076 
2242	 0.238667872312283 
2243	 0.238134886573813 
2244	 0.237585404047256 
2245	 0.236938861985857 
2246	 0.236286842581288 
2247	 0.235617164104549 
2248	 0.234928224289569 
2249	 0.234206470643928 
2250	 0.233500300003666 
2251	 0.23278963345183 
2252	 0.232055688793014 
2253	 0.231275576424716 
2254	 0.230580334894495 
2255	 0.229870870986789 
2256	 0.229244491322116 
2257	 0.228706246031399 
2258	 0.228182960574158 
2259	 0.227658629264738 
2260	 0.227241502844306 
2261	 0.226890481769472 
2262	 0.226605448248155 
2263	 0.226424777430163 
2264	 0.226268505213824 
2265	 0.226142725776846 
2266	 0.226099038602227 
2267	 0.226134007965525 
2268	 0.22620409018025 
2269	 0.226339307575537 
2270	 0.226535389089337 
2271	 0.22674369242596 
2272	 0.226986261408862 
2273	 0.22727721667859 
2274	 0.227549207044075 
2275	 0.227861922132898 
2276	 0.228177242483478 
2277	 0.228582277517295 
2278	 0.229049737885246 
2279	 0.229525565928704 
2280	 0.230087559615962 
2281	 0.230584920910785 
2282	 0.231083434705149 
2283	 0.231553685899354 
2284	 0.231997924876571 
2285	 0.232443378522973 
2286	 0.232879727864571 
2287	 0.233293329073318 
2288	 0.233692451871994 
2289	 0.234086023681435 
2290	 0.234478047256007 
2291	 0.234815038066692 
2292	 0.235123469615299 
2293	 0.23542223953508 
2294	 0.235684609644315 
2295	 0.235921705232654 
2296	 0.236140098841023 
2297	 0.236344610055225 
2298	 0.236530414233679 
2299	 0.236712915830833 
2300	 0.236894111778597 
2301	 0.237061166368713 
2302	 0.237202251381387 
2303	 0.2373074356391 
2304	 0.237423372370223 
2305	 0.237563228008053 
2306	 0.237681888982152 
2307	 0.237787559341751 
2308	 0.237909927254742 
2309	 0.238043523780066 
2310	 0.238129330776462 
2311	 0.23820946916924 
2312	 0.238283152414648 
2313	 0.238294146485299 
2314	 0.238384948074565 
2315	 0.238533284975274 
2316	 0.238625035637201 
2317	 0.238753773686302 
2318	 0.238798772109133 
2319	 0.238771469261377 
2320	 0.238761050960171 
2321	 0.238711931169799 
2322	 0.238660895068238 
2323	 0.238604995028751 
2324	 0.238546056568708 
2325	 0.238486114756398 
2326	 0.238396379138881 
2327	 0.238300652279851 
2328	 0.238170424151421 
2329	 0.238042217370026 
2330	 0.237940127913172 
2331	 0.237799511020454 
2332	 0.237666003219977 
2333	 0.237535390169942 
2334	 0.237367354915821 
2335	 0.237240879687773 
2336	 0.237106926921631 
2337	 0.236873196136845 
2338	 0.236653963941171 
2339	 0.236461107905633 
2340	 0.236214784244037 
2341	 0.235971153686391 
2342	 0.235730622762568 
2343	 0.235444064934665 
2344	 0.235151673405915 
2345	 0.234888376546746 
2346	 0.234672255962905 
2347	 0.234372944798201 
2348	 0.2340552411888 
2349	 0.233727977606545 
2350	 0.233352518267533 
2351	 0.232955207792625 
2352	 0.232530230906616 
2353	 0.232138748037182 
2354	 0.231740080021897 
2355	 0.231333589548133 
2356	 0.230969240091867 
2357	 0.230553202742016 
2358	 0.230078390019166 
2359	 0.229599197942596 
2360	 0.229080156850581 
2361	 0.228629122739114 
2362	 0.228189265124323 
2363	 0.227757646426819 
2364	 0.227424227546452 
2365	 0.22698872624336 
2366	 0.226477279297632 
2367	 0.225997620429522 
2368	 0.225469912149831 
2369	 0.224969289089505 
2370	 0.224508080125698 
2371	 0.224035089305237 
2372	 0.223467309174903 
2373	 0.222927783870864 
2374	 0.222308774446417 
2375	 0.221690013959317 
2376	 0.221229037780795 
2377	 0.220710522418981 
2378	 0.2201823755773 
2379	 0.219619400690492 
2380	 0.218944624703586 
2381	 0.218263170930898 
2382	 0.217653935060533 
2383	 0.217107743394587 
2384	 0.216449383633357 
2385	 0.215797249094692 
2386	 0.21515128272435 
2387	 0.21440324676844 
2388	 0.213710941879298 
2389	 0.213122954415973 
2390	 0.212530666765007 
2391	 0.211886409251407 
2392	 0.211308869510179 
2393	 0.21068611870956 
2394	 0.210006709287788 
2395	 0.209430249205145 
2396	 0.208870813742564 
2397	 0.208287141013858 
2398	 0.207627180097212 
2399	 0.207005312881787 
2400	 0.206431291164688 
2401	 0.20577518975202 
2402	 0.205157879070454 
2403	 0.204600211044835 
2404	 0.203914751222783 
2405	 0.203147075976263 
2406	 0.202590739363186 
2407	 0.202011326542791 
2408	 0.201328914073136 
2409	 0.200803932784717 
2410	 0.200222468601249 
2411	 0.19958940157236 
2412	 0.199080801897503 
2413	 0.198559900535402 
2414	 0.198061966553702 
2415	 0.197530148231576 
2416	 0.19699256123675 
2417	 0.196474583518062 
2418	 0.195950733502765 
2419	 0.195403351705234 
2420	 0.194859854513342 
2421	 0.194274740242149 
2422	 0.193764842981498 
2423	 0.193289717069398 
2424	 0.19280030997857 
2425	 0.192412993765836 
2426	 0.191922306519006 
2427	 0.191337656018937 
2428	 0.190832306186243 
2429	 0.190304630263286 
2430	 0.189780203683462 
2431	 0.189326141829936 
2432	 0.188784802955531 
2433	 0.188125957279399 
2434	 0.187665985682244 
2435	 0.187291058352052 
2436	 0.18686679063693 
2437	 0.186602256494147 
2438	 0.186228683365494 
2439	 0.185727193262587 
2440	 0.185168773440244 
2441	 0.184550078150053 
2442	 0.183951073121829 
2443	 0.183278857896747 
2444	 0.182821136778547 
2445	 0.182570941802412 
2446	 0.182159997978037 
2447	 0.181686365123449 
2448	 0.181165607971028 
2449	 0.180500256233325 
2450	 0.179999886334369 
2451	 0.179681609099795 
2452	 0.179203901343403 
2453	 0.178690767665862 
2454	 0.178161735144263 
2455	 0.177504348186444 
2456	 0.176968220272345 
2457	 0.176479186230098 
2458	 0.176089158707575 
2459	 0.175810134963783 
2460	 0.175449781190204 
2461	 0.175177631848263 
2462	 0.174818457311176 
2463	 0.17435059731621 
2464	 0.173911569187193 
2465	 0.173436234078188 
2466	 0.172963170366342 
2467	 0.172447945702621 
2468	 0.172023686203809 
2469	 0.171673513959599 
2470	 0.171451006524333 
2471	 0.171189990783377 
2472	 0.170749188459585 
2473	 0.170294156496282 
2474	 0.169846410797979 
2475	 0.169346724548881 
2476	 0.169157574922331 
2477	 0.169035277268436 
2478	 0.168756974349367 
2479	 0.16855519028907 
2480	 0.168250376549514 
2481	 0.167840390829758 
2482	 0.167552213101827 
2483	 0.167221408905236 
2484	 0.166837592594653 
2485	 0.166595757185359 
2486	 0.166179062026595 
2487	 0.165740151465743 
2488	 0.165268205047986 
2489	 0.164673615850165 
2490	 0.16452102506344 
2491	 0.164331681526478 
2492	 0.163960685564478 
2493	 0.163590716378915 
2494	 0.162775223765343 
2495	 0.162126028875542 
2496	 0.161988456374112 
2497	 0.161689555523596 
2498	 0.161431508513848 
2499	 0.161201929756562 
2500	 0.160514977398893 
