Wavelength	mm2200003.asd
350	 0.028469155421069 
351	 3.29393849017731E-02 
352	 2.98782655064456E-02 
353	 2.33757339969994E-02 
354	 2.08475793309843E-02 
355	 2.65587980839215E-02 
356	 3.01139194470674E-02 
357	 2.49183624898343E-02 
358	 3.31555491480055E-02 
359	 3.39194075579251E-02 
360	 0.028572116492837 
361	 3.18309907791648E-02 
362	 3.15007674234911E-02 
363	 3.02688115829676E-02 
364	 2.98853708741204E-02 
365	 0.027636320056635 
366	 2.72564390590157E-02 
367	 2.76880723014617E-02 
368	 2.76588215836517E-02 
369	 3.13253897790889E-02 
370	 3.04947865775075E-02 
371	 2.77800017860746E-02 
372	 3.19663321251954E-02 
373	 0.030712347772126 
374	 2.88411086764364E-02 
375	 2.99723959643905E-02 
376	 3.21151325045927E-02 
377	 3.03238230370943E-02 
378	 2.98777637888576E-02 
379	 3.53703454846961E-02 
380	 3.50627894295159E-02 
381	 3.10659073983875E-02 
382	 2.92205420249945E-02 
383	 3.60981781439386E-02 
384	 3.70576791415889E-02 
385	 3.56313917404489E-02 
386	 3.58936045540097E-02 
387	 3.79156722398375E-02 
388	 3.71633226855705E-02 
389	 3.51345180225931E-02 
390	 3.45321299195156E-02 
391	 3.30915640046882E-02 
392	 3.38428373227004E-02 
393	 3.68840093195923E-02 
394	 3.95080731076642E-02 
395	 3.69768090021814E-02 
396	 3.48177725146491E-02 
397	 3.66213281195158E-02 
398	 3.85592295486749E-02 
399	 3.86288869490757E-02 
400	 3.84479270369179E-02 
401	 0.040163989433802 
402	 4.00970963634566E-02 
403	 3.95668486788698E-02 
404	 3.91312379632331E-02 
405	 3.82887330316773E-02 
406	 3.83902181903883E-02 
407	 3.91548024102376E-02 
408	 3.97846024442406E-02 
409	 3.89424911949221E-02 
410	 3.86547904532999E-02 
411	 3.92718141586359E-02 
412	 4.01775216520089E-02 
413	 4.03942221960494E-02 
414	 3.97230212424795E-02 
415	 3.88913831855068E-02 
416	 3.96599617381943E-02 
417	 3.95962673284764E-02 
418	 3.93904414707244E-02 
419	 3.98414324220992E-02 
420	 3.94220750788799E-02 
421	 3.86885533747522E-02 
422	 3.87146759134195E-02 
423	 4.04680140073645E-02 
424	 4.02663432178912E-02 
425	 3.98559948589349E-02 
426	 4.02683331007233E-02 
427	 3.99700363383943E-02 
428	 3.93404056309506E-02 
429	 3.90647881487461E-02 
430	 0.039614812194193 
431	 3.99226932466107E-02 
432	 0.039564359054211 
433	 3.90113740289925E-02 
434	 3.94612968945149E-02 
435	 3.98604672879625E-02 
436	 3.99788765746502E-02 
437	 3.97988138000169E-02 
438	 3.92917820866677E-02 
439	 3.93397345734094E-02 
440	 3.96860401213908E-02 
441	 3.95729421299648E-02 
442	 3.92966334882333E-02 
443	 0.039409229563746 
444	 3.98474150698116E-02 
445	 3.96116801026156E-02 
446	 3.93059941670965E-02 
447	 3.91671298667166E-02 
448	 3.92433711703527E-02 
449	 3.92082810197588E-02 
450	 3.94535725716676E-02 
451	 3.97657513493239E-02 
452	 3.94683654345487E-02 
453	 3.93486756149323E-02 
454	 3.91883182423334E-02 
455	 3.89164002139074E-02 
456	 3.93302263208956E-02 
457	 3.94142536118995E-02 
458	 0.03912217556896 
459	 3.88865228507988E-02 
460	 3.90574055153525E-02 
461	 3.90818306803705E-02 
462	 3.88363031666578E-02 
463	 0.038909308860688 
464	 3.89669736265255E-02 
465	 3.88492060289304E-02 
466	 3.85823954558381E-02 
467	 3.87494396118331E-02 
468	 3.88087665655641E-02 
469	 3.86458306819557E-02 
470	 3.85226771439574E-02 
471	 0.038609288089848 
472	 3.86970626615975E-02 
473	 3.86237541180539E-02 
474	 3.84722919376642E-02 
475	 3.84807306718191E-02 
476	 3.84785341094097E-02 
477	 3.82161698240257E-02 
478	 3.83222934813006E-02 
479	 0.038526498811238 
480	 3.85446944055348E-02 
481	 0.038172709488299 
482	 3.82757095739674E-02 
483	 3.85242693476089E-02 
484	 3.84500543293287E-02 
485	 3.85375969413438E-02 
486	 3.83692114694216E-02 
487	 3.80232556295499E-02 
488	 3.79815648331424E-02 
489	 3.80509845742936E-02 
490	 3.82197868532153E-02 
491	 3.84067440373521E-02 
492	 3.82933534671337E-02 
493	 3.80716739215337E-02 
494	 3.79843504802159E-02 
495	 3.82113117018625E-02 
496	 3.82809096959574E-02 
497	 3.80731467445663E-02 
498	 3.77750427501173E-02 
499	 3.79716881932181E-02 
500	 3.79692463517651E-02 
501	 3.79033424880842E-02 
502	 3.80230453900612E-02 
503	 3.79403790344134E-02 
504	 3.78573648336685E-02 
505	 3.78510326116744E-02 
506	 0.037866118067297 
507	 3.79331633863572E-02 
508	 3.79005374201378E-02 
509	 0.037732955124214 
510	 3.77919747245686E-02 
511	 3.78287342206485E-02 
512	 3.78308821999415E-02 
513	 3.78968726940701E-02 
514	 3.79373234590537E-02 
515	 3.78879614508423E-02 
516	 3.78032000792177E-02 
517	 3.79459487721561E-02 
518	 3.79477249535359E-02 
519	 3.78633317295227E-02 
520	 0.037870765631805 
521	 3.80075698523133E-02 
522	 3.80742726102551E-02 
523	 3.80164854172334E-02 
524	 3.79451021693363E-02 
525	 3.79340021827698E-02 
526	 3.79856325478523E-02 
527	 0.038061079602365 
528	 3.80651644680358E-02 
529	 3.80612838016944E-02 
530	 3.80855251426961E-02 
531	 3.81490346328008E-02 
532	 3.81957502218525E-02 
533	 3.82828241738563E-02 
534	 0.038411928710884 
535	 3.84361812445825E-02 
536	 3.84149703050917E-02 
537	 3.84397826644887E-02 
538	 3.85700990643434E-02 
539	 3.85414469817326E-02 
540	 0.038510423443507 
541	 0.038578385714083 
542	 3.87337524902347E-02 
543	 3.87399337034295E-02 
544	 3.87579110070368E-02 
545	 3.89574475142896E-02 
546	 3.90857942801026E-02 
547	 3.90942308579823E-02 
548	 3.90721287227829E-02 
549	 3.92078968565609E-02 
550	 3.93633680775243E-02 
551	 3.94865667837983E-02 
552	 3.95841801618924E-02 
553	 3.97815724633163E-02 
554	 3.99088612454283E-02 
555	 4.00332944265984E-02 
556	 4.03166142550823E-02 
557	 4.05538808125759E-02 
558	 0.040780924587815 
559	 4.10410156980384E-02 
560	 4.13445340680849E-02 
561	 4.16341621431041E-02 
562	 4.19221558755248E-02 
563	 4.22393748178921E-02 
564	 4.25636040831292E-02 
565	 0.042922903832802 
566	 4.33205241900162E-02 
567	 4.37301231049973E-02 
568	 4.42205147651046E-02 
569	 4.47542302157992E-02 
570	 4.52842627561761E-02 
571	 4.58148563525158E-02 
572	 4.64323498136629E-02 
573	 4.71126206562806E-02 
574	 4.77583484111101E-02 
575	 4.84416089811789E-02 
576	 4.90974398030896E-02 
577	 4.97206916928122E-02 
578	 5.04773456090008E-02 
579	 0.051326728470757 
580	 5.21999914346916E-02 
581	 5.30308341824043E-02 
582	 0.053898436733338 
583	 5.48098843912076E-02 
584	 5.57494815397491E-02 
585	 0.056683597249579 
586	 5.76538586346557E-02 
587	 5.86609373597808E-02 
588	 5.96922184278446E-02 
589	 6.07389330143446E-02 
590	 6.18149439574547E-02 
591	 6.28996639958912E-02 
592	 6.39469790778453E-02 
593	 6.49843247678684E-02 
594	 6.60084663907941E-02 
595	 6.70159504038105E-02 
596	 0.068023372653535 
597	 6.90068211905536E-02 
598	 6.99590203880982E-02 
599	 7.08901021400607E-02 
600	 7.18380075065039E-02 
601	 7.27967498773355E-02 
602	 7.37328955743584E-02 
603	 7.45772585571857E-02 
604	 7.54005158946567E-02 
605	 7.62072699186439E-02 
606	 7.69871971599371E-02 
607	 7.77796869953131E-02 
608	 7.85395631822309E-02 
609	 7.92634045833704E-02 
610	 8.00007090685118E-02 
611	 8.06774595968257E-02 
612	 8.12887475701694E-02 
613	 8.18409026516251E-02 
614	 8.23168184973745E-02 
615	 8.27718417886064E-02 
616	 8.32222396504201E-02 
617	 8.36538968691063E-02 
618	 8.40865074507086E-02 
619	 8.44843511586994E-02 
620	 8.48341809831894E-02 
621	 8.51865153873764E-02 
622	 8.55050107029661E-02 
623	 8.58071902323747E-02 
624	 8.61225691686988E-02 
625	 8.64057212128313E-02 
626	 8.66741285403558E-02 
627	 8.69481737746595E-02 
628	 8.72448334688672E-02 
629	 8.75258791585181E-02 
630	 8.77912888672413E-02 
631	 8.80440768659947E-02 
632	 8.82448900511139E-02 
633	 0.088470443244466 
634	 8.87184328476488E-02 
635	 0.088926934356065 
636	 8.92005775486899E-02 
637	 8.94621749909371E-02 
638	 8.96573080753368E-02 
639	 8.98625221521037E-02 
640	 9.00634773898839E-02 
641	 9.02835129876458E-02 
642	 9.05516355578068E-02 
643	 9.08235023394944E-02 
644	 9.10748645196643E-02 
645	 9.13102976581677E-02 
646	 0.091572890248343 
647	 9.17874989113339E-02 
648	 9.20201558434665E-02 
649	 9.23342875843201E-02 
650	 9.25939828284601E-02 
651	 9.29204229905289E-02 
652	 9.32934311490024E-02 
653	 9.35742024819512E-02 
654	 9.38616570472379E-02 
655	 9.41509193422122E-02 
656	 9.44501127289628E-02 
657	 0.094854854497281 
658	 0.095217924588628 
659	 9.55516608672795E-02 
660	 9.59321943368757E-02 
661	 0.0962794638211 
662	 9.66576906263606E-02 
663	 9.70718277125136E-02 
664	 9.74208078436282E-02 
665	 9.78169786909666E-02 
666	 9.82343885636532E-02 
667	 9.86369465446466E-02 
668	 9.91209144456476E-02 
669	 9.96225181579194E-02 
670	 0.100090744173577 
671	 0.100497134543878 
672	 0.100940858219699 
673	 0.101416928673803 
674	 0.101914298447934 
675	 0.102459884844837 
676	 0.103008329863959 
677	 0.103530313451438 
678	 0.104020037146848 
679	 0.104560116772618 
680	 0.105147072767788 
681	 0.105747421439 
682	 0.106300320248554 
683	 0.10690891967797 
684	 0.107537053380086 
685	 0.10813879562306 
686	 0.108774748646385 
687	 0.109428947392227 
688	 0.110078117361638 
689	 0.110697818225857 
690	 0.111311033087023 
691	 0.111965893280713 
692	 0.112675535757867 
693	 0.113384968987384 
694	 0.114062961685248 
695	 0.114746428585415 
696	 0.115478686736086 
697	 0.116171372042898 
698	 0.116861980463422 
699	 0.117577615298061 
700	 0.11832400348026 
701	 0.119077166311078 
702	 0.119819760992286 
703	 0.12054486190929 
704	 0.121263786109081 
705	 0.122012752905332 
706	 0.122768338616979 
707	 0.123482025385117 
708	 0.124192383392205 
709	 0.124925153383038 
710	 0.125688956411962 
711	 0.126474398773172 
712	 0.127204373532689 
713	 0.12788928909025 
714	 0.128576277449491 
715	 0.129339616066549 
716	 0.130074255538193 
717	 0.130745858673452 
718	 0.131383835228591 
719	 0.132071277984607 
720	 0.132748487881606 
721	 0.133374726023638 
722	 0.133990447396875 
723	 0.134607395649926 
724	 0.135192276022445 
725	 0.135715434044652 
726	 0.136248614216965 
727	 0.136774831286963 
728	 0.137285368991803 
729	 0.137781492241383 
730	 0.138224357868209 
731	 0.138656664523851 
732	 0.139099918545063 
733	 0.139490386463379 
734	 0.139857728434483 
735	 0.14017423159109 
736	 0.140413389900673 
737	 0.14069670315909 
738	 0.140957048595626 
739	 0.141166220923671 
740	 0.141353354661865 
741	 0.141489565792571 
742	 0.141591715812557 
743	 0.141676957474399 
744	 0.141734848572316 
745	 0.141781393185576 
746	 0.141808792414744 
747	 0.141796654557218 
748	 0.141725265518612 
749	 0.141632781790092 
750	 0.14154423386582 
751	 0.141460612743166 
752	 0.141296639134633 
753	 0.141085896457213 
754	 0.140870518486888 
755	 0.140620535271182 
756	 0.140411544078628 
757	 0.140196947443025 
758	 0.139887963696545 
759	 0.139594065258321 
760	 0.139282919061158 
761	 0.138939217435575 
762	 0.138585187542946 
763	 0.138217925420386 
764	 0.137839989866516 
765	 0.137451342375359 
766	 0.137037585100176 
767	 0.136631514369486 
768	 0.136228146344656 
769	 0.135804168121157 
770	 0.135360208935424 
771	 0.134919559026125 
772	 0.134477977874519 
773	 0.133997745048329 
774	 0.133519963079568 
775	 0.133043930876696 
776	 0.132561921553098 
777	 0.132071390450755 
778	 0.131599464715635 
779	 0.131142683632837 
780	 0.130676391707879 
781	 0.130145460714316 
782	 0.129645501279848 
783	 0.129185213159884 
784	 0.128674752383829 
785	 0.128165409552225 
786	 0.127701448853372 
787	 0.127281208522756 
788	 0.126794518148453 
789	 0.126350978386018 
790	 0.125888359962786 
791	 0.125333108127949 
792	 0.12490018859105 
793	 0.124452305305556 
794	 0.123966708445332 
795	 0.123528352190719 
796	 0.123061755616124 
797	 0.122598825974793 
798	 0.122166431781499 
799	 0.121754503859467 
800	 0.121325349937454 
801	 0.120892083847752 
802	 0.120479545894718 
803	 0.120088314777572 
804	 0.119710140754278 
805	 0.11931693604682 
806	 0.118882513116954 
807	 0.118490218181214 
808	 0.118109132240488 
809	 0.117733558154751 
810	 0.11740467688465 
811	 0.117079221772021 
812	 0.116728434866415 
813	 0.116353845316622 
814	 0.116023189807546 
815	 0.115722751904001 
816	 0.11541503579922 
817	 0.115071049700051 
818	 0.11476366886568 
819	 0.114495990826091 
820	 0.114228557580947 
821	 0.113904359715053 
822	 0.11366321577537 
823	 0.113408099481955 
824	 0.113100331803743 
825	 0.112853031613651 
826	 0.112640051362211 
827	 0.112420209020279 
828	 0.112168059820848 
829	 0.111926082496792 
830	 0.111672921338392 
831	 0.111446537795088 
832	 0.111296958290525 
833	 0.111180882307193 
834	 0.110996760913785 
835	 0.110751019235477 
836	 0.110555373644411 
837	 0.110464192069894 
838	 0.110349624265667 
839	 0.110157766114901 
840	 0.110012905970509 
841	 0.109875207845671 
842	 0.109752329199341 
843	 0.109648875553548 
844	 0.109523663946583 
845	 0.109447963888436 
846	 0.109370550036032 
847	 0.109224355661881 
848	 0.109198257066445 
849	 0.109178035559779 
850	 0.109103984719834 
851	 0.108992828176591 
852	 0.108965477496971 
853	 0.108932778203609 
854	 0.108862931509252 
855	 0.108850467713576 
856	 0.108875826445764 
857	 0.108914720074548 
858	 0.108943377671468 
859	 0.108945245414631 
860	 0.108961586351315 
861	 0.10895862320631 
862	 0.10891070862608 
863	 0.108942620160947 
864	 0.108997887617728 
865	 0.109063738975542 
866	 0.109150624805946 
867	 0.109215422625144 
868	 0.109252636840874 
869	 0.109291915662322 
870	 0.109388184724476 
871	 0.109508627069704 
872	 0.109639326832972 
873	 0.109773868522625 
874	 0.109913826695179 
875	 0.110039053783779 
876	 0.110141305119883 
877	 0.110235961289276 
878	 0.11038691325621 
879	 0.110566400292289 
880	 0.11072445949199 
881	 0.11084688475072 
882	 0.111100851996203 
883	 0.111306598141163 
884	 0.11144569243773 
885	 0.111602902563196 
886	 0.111841647248298 
887	 0.112103300062771 
888	 0.112323525946032 
889	 0.11246823012732 
890	 0.112728015525775 
891	 0.113001400832693 
892	 0.113245276357552 
893	 0.113535093567214 
894	 0.113826154704914 
895	 0.114106960635839 
896	 0.114387026001692 
897	 0.114701557247843 
898	 0.115003335390098 
899	 0.115297035847714 
900	 0.115607639807001 
901	 0.115979336442311 
902	 0.116314918589956 
903	 0.116642256948295 
904	 0.117008304004217 
905	 0.117356116763872 
906	 0.117700453113566 
907	 0.11807276852243 
908	 0.118500778261019 
909	 0.118963196161485 
910	 0.119384124458117 
911	 0.119772232698916 
912	 0.120190048768613 
913	 0.120630712633745 
914	 0.121092576911076 
915	 0.121559480047915 
916	 0.122008339754564 
917	 0.122450940961664 
918	 0.122961343595791 
919	 0.123491419928816 
920	 0.123875455852408 
921	 0.124438840246523 
922	 0.125034551202387 
923	 0.125560626859133 
924	 0.126102978214881 
925	 0.12656727998086 
926	 0.127104522763727 
927	 0.127748078868229 
928	 0.128230107830571 
929	 0.128877179469957 
930	 0.129577629016345 
931	 0.130182979376417 
932	 0.130732447784893 
933	 0.131301756443389 
934	 0.131960767520105 
935	 0.13271566412392 
936	 0.133424285421742 
937	 0.134101840160707 
938	 0.134707079539584 
939	 0.135274451827311 
940	 0.13613327696023 
941	 0.136915029226754 
942	 0.137634264330415 
943	 0.138421161484818 
944	 0.139193595279349 
945	 0.139868624900601 
946	 0.14054254750753 
947	 0.141339020857211 
948	 0.14211234518472 
949	 0.142911611304297 
950	 0.143713510201119 
951	 0.144497751284401 
952	 0.145463470764159 
953	 0.146257668979565 
954	 0.146954789032907 
955	 0.147837160391032 
956	 0.148797937895232 
957	 0.149743381794483 
958	 0.150621175701462 
959	 0.151441150361285 
960	 0.152347114250248 
961	 0.153291102278832 
962	 0.154242882325111 
963	 0.155180086958644 
964	 0.15601183668062 
965	 0.156959860336963 
966	 0.157965372284129 
967	 0.158827864026945 
968	 0.159791978209896 
969	 0.160749624373877 
970	 0.161700911166416 
971	 0.162694940780996 
972	 0.163508295413923 
973	 0.164573892313928 
974	 0.165792407516671 
975	 0.166766933708981 
976	 0.167818930738658 
977	 0.168855116931547 
978	 0.16980755237293 
979	 0.170697371104689 
980	 0.171829715864561 
981	 0.172871379222327 
982	 0.173781144755236 
983	 0.174728349974894 
984	 0.175767025843179 
985	 0.176822842858951 
986	 0.177878363737495 
987	 0.178944320171281 
988	 0.17998038027308 
989	 0.180939845698367 
990	 0.181926276803719 
991	 0.183049950666454 
992	 0.184089646758543 
993	 0.185136043392555 
994	 0.186169259040216 
995	 0.187130351221562 
996	 0.18802589246476 
997	 0.189094003593353 
998	 0.19011580594582 
999	 0.190890602728595 
1000	 0.191937567935941 
1001	 0.192238335088076 
1002	 0.193182553309361 
1003	 0.194072408813393 
1004	 0.194976425684148 
1005	 0.195896780616624 
1006	 0.196777794180852 
1007	 0.197641209060474 
1008	 0.19850330036031 
1009	 0.199298410075439 
1010	 0.200059869358708 
1011	 0.200896348870928 
1012	 0.201721813874155 
1013	 0.2025452184641 
1014	 0.203365106434259 
1015	 0.204142544277865 
1016	 0.205011469256283 
1017	 0.205855317896607 
1018	 0.206740501328218 
1019	 0.207502913805695 
1020	 0.208242203830655 
1021	 0.208926978533917 
1022	 0.209540640834722 
1023	 0.210257618468431 
1024	 0.211051797626616 
1025	 0.211760776685464 
1026	 0.212389991389379 
1027	 0.213056709086431 
1028	 0.213724319234728 
1029	 0.21437198101853 
1030	 0.215043012144983 
1031	 0.215678928191941 
1032	 0.216299934279979 
1033	 0.216865913647903 
1034	 0.217445297408103 
1035	 0.21803682381816 
1036	 0.218602192123398 
1037	 0.219187284709311 
1038	 0.219785976867479 
1039	 0.220350976015973 
1040	 0.220936175766113 
1041	 0.221536946275415 
1042	 0.222109854572416 
1043	 0.222660152591227 
1044	 0.223223106979057 
1045	 0.223804293887438 
1046	 0.224358326064762 
1047	 0.224894775871582 
1048	 0.225472238508474 
1049	 0.226009050647431 
1050	 0.226548978895545 
1051	 0.227075110770846 
1052	 0.227530795274272 
1053	 0.228028412098106 
1054	 0.228533468026548 
1055	 0.229057210325842 
1056	 0.229619457827589 
1057	 0.230148372674141 
1058	 0.230676135751145 
1059	 0.231190530279476 
1060	 0.231685397408382 
1061	 0.232163453089656 
1062	 0.232633505083038 
1063	 0.233104270100386 
1064	 0.233600550139505 
1065	 0.234089032303599 
1066	 0.234592511128579 
1067	 0.235098215432199 
1068	 0.235550142073856 
1069	 0.236026225715709 
1070	 0.236500710409844 
1071	 0.236966827030399 
1072	 0.237446294057755 
1073	 0.237948962911774 
1074	 0.238419879853688 
1075	 0.238879280524267 
1076	 0.23934439825708 
1077	 0.239799311416665 
1078	 0.240206942179169 
1079	 0.240634137500124 
1080	 0.2410815965322 
1081	 0.241511915244671 
1082	 0.241993563444194 
1083	 0.242449946286713 
1084	 0.242913624448904 
1085	 0.243343267800992 
1086	 0.243742881980263 
1087	 0.244157252364571 
1088	 0.244550472027924 
1089	 0.2449732701044 
1090	 0.245430782521206 
1091	 0.245846110481394 
1092	 0.246233373393678 
1093	 0.246630401892426 
1094	 0.247003637067166 
1095	 0.247378866768068 
1096	 0.247745274638024 
1097	 0.248101926531323 
1098	 0.248452165765691 
1099	 0.248762887782359 
1100	 0.249122543625677 
1101	 0.249519728526328 
1102	 0.249878811660483 
1103	 0.250243080346144 
1104	 0.250599700864553 
1105	 0.250927947975366 
1106	 0.251280982499036 
1107	 0.2516452776229 
1108	 0.252002126615215 
1109	 0.252364846509677 
1110	 0.252718475223389 
1111	 0.253051346225809 
1112	 0.253376144107325 
1113	 0.253692904056923 
1114	 0.253977837832748 
1115	 0.254284689746353 
1116	 0.25459935092076 
1117	 0.254918764636073 
1118	 0.255254716987306 
1119	 0.255571913427979 
1120	 0.255870876024932 
1121	 0.256155835709015 
1122	 0.256418387307353 
1123	 0.256683717819512 
1124	 0.256971748017578 
1125	 0.257282089103267 
1126	 0.257559943472832 
1127	 0.257842649582934 
1128	 0.258113166014764 
1129	 0.25834761281128 
1130	 0.258617228481785 
1131	 0.258902578079671 
1132	 0.259185666049793 
1133	 0.259481888228608 
1134	 0.259768667876023 
1135	 0.260075989067156 
1136	 0.260340496356166 
1137	 0.260573347730835 
1138	 0.260824333461107 
1139	 0.261059307608443 
1140	 0.261262452514213 
1141	 0.261495271230162 
1142	 0.26175029475365 
1143	 0.261977291792086 
1144	 0.262216162225 
1145	 0.262416405903158 
1146	 0.262559251458994 
1147	 0.262749352414287 
1148	 0.262953868384029 
1149	 0.26314016411816 
1150	 0.263333037658379 
1151	 0.263540194839496 
1152	 0.263717169847325 
1153	 0.263886862976899 
1154	 0.264087485695606 
1155	 0.264319380260617 
1156	 0.264529740540466 
1157	 0.264743700352764 
1158	 0.264952621374918 
1159	 0.26516047094863 
1160	 0.265356525330505 
1161	 0.265541975590874 
1162	 0.26573619260133 
1163	 0.265938060894297 
1164	 0.266120021163672 
1165	 0.2662889534886 
1166	 0.266474208987657 
1167	 0.266642771899475 
1168	 0.266785033377566 
1169	 0.266963093912498 
1170	 0.267167504275255 
1171	 0.267345363558947 
1172	 0.267532809717883 
1173	 0.267699377706813 
1174	 0.267839112711516 
1175	 0.267992147475775 
1176	 0.268134051911668 
1177	 0.268292862638197 
1178	 0.268470654763401 
1179	 0.26863666193896 
1180	 0.268832398392048 
1181	 0.268981772548253 
1182	 0.269094589374603 
1183	 0.269198507317562 
1184	 0.269326213648875 
1185	 0.269431805054702 
1186	 0.269572047860249 
1187	 0.26975718898357 
1188	 0.269906044857019 
1189	 0.270049301061435 
1190	 0.270185680072199 
1191	 0.270312492352322 
1192	 0.270437576878066 
1193	 0.270548693910394 
1194	 0.270672664542343 
1195	 0.270799148382906 
1196	 0.270926929939187 
1197	 0.271076842809577 
1198	 0.271203612913212 
1199	 0.27132021834323 
1200	 0.271426302405531 
1201	 0.271533560509636 
1202	 0.271619994765526 
1203	 0.271731329018724 
1204	 0.271865964146245 
1205	 0.271970266581632 
1206	 0.272062533582118 
1207	 0.27216687041283 
1208	 0.272265647318957 
1209	 0.272358114589064 
1210	 0.272468292114068 
1211	 0.272557421105255 
1212	 0.272604860939948 
1213	 0.272682575511894 
1214	 0.272781540733891 
1215	 0.272865617708727 
1216	 0.272949133743206 
1217	 0.273040025420482 
1218	 0.273129897388174 
1219	 0.273205604516268 
1220	 0.273297493140371 
1221	 0.273412157751308 
1222	 0.273504474727923 
1223	 0.273585944042555 
1224	 0.273673548833739 
1225	 0.27376390406352 
1226	 0.273841993258995 
1227	 0.273911387363045 
1228	 0.273988018343866 
1229	 0.274059437154248 
1230	 0.274129565864767 
1231	 0.27420749891387 
1232	 0.274282663498554 
1233	 0.274354628370101 
1234	 0.274419395446392 
1235	 0.274483186932626 
1236	 0.274547727717029 
1237	 0.274608643150122 
1238	 0.27466437361928 
1239	 0.274717669711197 
1240	 0.27476091394349 
1241	 0.274823277268129 
1242	 0.274895969061721 
1243	 0.274958645094243 
1244	 0.275029457975944 
1245	 0.275097230559494 
1246	 0.275159304707098 
1247	 0.275214836089946 
1248	 0.275263498708262 
1249	 0.275324265771622 
1250	 0.275391293598794 
1251	 0.275438377241164 
1252	 0.275486304668011 
1253	 0.275541620512966 
1254	 0.275588778408845 
1255	 0.275614828098359 
1256	 0.275660068077312 
1257	 0.275725369311228 
1258	 0.27576909582296 
1259	 0.275795252688188 
1260	 0.275841037938198 
1261	 0.27589076155739 
1262	 0.275936661360268 
1263	 0.275996191307532 
1264	 0.276050077434405 
1265	 0.276092492195727 
1266	 0.27613781695867 
1267	 0.276195036521845 
1268	 0.276239109506153 
1269	 0.276277600425593 
1270	 0.276305758609755 
1271	 0.276346819384039 
1272	 0.276384793791345 
1273	 0.276427822185951 
1274	 0.276477640996613 
1275	 0.276526460664616 
1276	 0.276571094284868 
1277	 0.276627115437324 
1278	 0.276692657858892 
1279	 0.27675926745281 
1280	 0.276829055185245 
1281	 0.27690297928634 
1282	 0.276991050806266 
1283	 0.277064352867499 
1284	 0.277131149872003 
1285	 0.277199661996729 
1286	 0.277265000342297 
1287	 0.277335602457227 
1288	 0.277402177198843 
1289	 0.277477776434572 
1290	 0.277540170126021 
1291	 0.27758463263567 
1292	 0.277648130597695 
1293	 0.27771527892641 
1294	 0.277790076121711 
1295	 0.277887277002482 
1296	 0.277957483240974 
1297	 0.278029673949016 
1298	 0.278078170078334 
1299	 0.278091683878582 
1300	 0.278125323712244 
1301	 0.278148253736499 
1302	 0.278183516419664 
1303	 0.278243944102486 
1304	 0.278284396994601 
1305	 0.278307928014109 
1306	 0.27833914866867 
1307	 0.278345694507371 
1308	 0.27834504512219 
1309	 0.278353416406499 
1310	 0.278363632462345 
1311	 0.278365363674715 
1312	 0.278378947939749 
1313	 0.278364595630171 
1314	 0.278327435164897 
1315	 0.278300971737542 
1316	 0.278263173777227 
1317	 0.27822512690419 
1318	 0.278204209871385 
1319	 0.278159502549864 
1320	 0.278088471263155 
1321	 0.278030378680017 
1322	 0.277974472125364 
1323	 0.277900133627352 
1324	 0.277838838524723 
1325	 0.27779668054101 
1326	 0.2777589401612 
1327	 0.277694825060599 
1328	 0.277613604891357 
1329	 0.277547245000636 
1330	 0.277463950024694 
1331	 0.277364850825978 
1332	 0.277263265966641 
1333	 0.27715555652924 
1334	 0.277046377832367 
1335	 0.276921689598593 
1336	 0.276813640655473 
1337	 0.276722711908852 
1338	 0.276616145891701 
1339	 0.276504013090755 
1340	 0.276391200296822 
1341	 0.276279062275584 
1342	 0.276153567423185 
1343	 0.276006916528699 
1344	 0.275887782065663 
1345	 0.275770413544202 
1346	 0.275658684385711 
1347	 0.275571871284045 
1348	 0.275476338954513 
1349	 0.275353812524803 
1350	 0.275222973290224 
1351	 0.275105505546978 
1352	 0.274986952860198 
1353	 0.274872838336329 
1354	 0.274770187302385 
1355	 0.274656963721941 
1356	 0.274531735812264 
1357	 0.274419775498227 
1358	 0.274309390002164 
1359	 0.274208743990656 
1360	 0.274124398715894 
1361	 0.274025842340348 
1362	 0.273928040803676 
1363	 0.273826220519946 
1364	 0.273709204634337 
1365	 0.273607936687415 
1366	 0.273514898426838 
1367	 0.273423207981644 
1368	 0.273332566869487 
1369	 0.273231493398638 
1370	 0.273126262128964 
1371	 0.272996715161675 
1372	 0.27283892019519 
1373	 0.272692910931561 
1374	 0.272538963805582 
1375	 0.272376877535619 
1376	 0.272189683639463 
1377	 0.272013498512927 
1378	 0.271783269679113 
1379	 0.271495190809295 
1380	 0.271233985429959 
1381	 0.270969819923089 
1382	 0.270674720232782 
1383	 0.270380390090887 
1384	 0.270055106918935 
1385	 0.269712598343244 
1386	 0.26933232344918 
1387	 0.268927833320309 
1388	 0.268496197680895 
1389	 0.26804231824474 
1390	 0.267527718361179 
1391	 0.266995820435583 
1392	 0.266443459010821 
1393	 0.265830267685703 
1394	 0.265182091312398 
1395	 0.264481562783613 
1396	 0.26376375899541 
1397	 0.263050708252332 
1398	 0.262318207373349 
1399	 0.261574002244268 
1400	 0.260835559609008 
1401	 0.260069668431158 
1402	 0.259263542866231 
1403	 0.258481272516391 
1404	 0.257687221450001 
1405	 0.25691761234212 
1406	 0.256160266060596 
1407	 0.25541124764825 
1408	 0.254667853161118 
1409	 0.253950284896054 
1410	 0.253232747442175 
1411	 0.252552743842552 
1412	 0.251894148060463 
1413	 0.251273765984611 
1414	 0.250701661637289 
1415	 0.250163890811638 
1416	 0.249661560885784 
1417	 0.249174117326005 
1418	 0.248682678077524 
1419	 0.248209889835491 
1420	 0.247767637426723 
1421	 0.247358726507652 
1422	 0.24699226912901 
1423	 0.246646302400296 
1424	 0.246300418913756 
1425	 0.245966425464294 
1426	 0.245650803637612 
1427	 0.245333764701906 
1428	 0.245056090188322 
1429	 0.244802743530015 
1430	 0.244580848111606 
1431	 0.24440478786263 
1432	 0.24421460827519 
1433	 0.244043657951752 
1434	 0.243874383100455 
1435	 0.243675840115059 
1436	 0.243533001630779 
1437	 0.243433832991221 
1438	 0.243335215661578 
1439	 0.243266650452693 
1440	 0.243205620833287 
1441	 0.243123170640829 
1442	 0.243036536098214 
1443	 0.242958392819968 
1444	 0.242893464918734 
1445	 0.242862180892934 
1446	 0.242838701676275 
1447	 0.242815155324403 
1448	 0.242804620422511 
1449	 0.242765195961528 
1450	 0.242721232957177 
1451	 0.24269282681878 
1452	 0.242657725479782 
1453	 0.242648403443755 
1454	 0.242659749820434 
1455	 0.242672939382386 
1456	 0.242706471005982 
1457	 0.242727484379956 
1458	 0.24274987665192 
1459	 0.242769911903727 
1460	 0.24277157689847 
1461	 0.242803169012007 
1462	 0.242849387177941 
1463	 0.242899440091429 
1464	 0.242973018022834 
1465	 0.243036602576315 
1466	 0.243095894290052 
1467	 0.243157474091097 
1468	 0.243193399313378 
1469	 0.243281026620045 
1470	 0.243393261326434 
1471	 0.243519932729614 
1472	 0.243686218900037 
1473	 0.243861256959374 
1474	 0.243997749096498 
1475	 0.244138695100837 
1476	 0.244277027475333 
1477	 0.244416117378146 
1478	 0.244587359026061 
1479	 0.244764677128552 
1480	 0.244963425243708 
1481	 0.245171001904754 
1482	 0.245364662144553 
1483	 0.245561784780304 
1484	 0.245754223805958 
1485	 0.245930078347453 
1486	 0.2461229159951 
1487	 0.246315791121676 
1488	 0.246525351464355 
1489	 0.24676162965809 
1490	 0.246973833625913 
1491	 0.24718941237731 
1492	 0.24739595930751 
1493	 0.24757784884708 
1494	 0.247772165070919 
1495	 0.247977159084624 
1496	 0.248172013053362 
1497	 0.248374136438036 
1498	 0.248554851943102 
1499	 0.248713686517057 
1500	 0.248881054653335 
1501	 0.249029531529348 
1502	 0.249193533681959 
1503	 0.249360896907515 
1504	 0.249553520094407 
1505	 0.249736970007903 
1506	 0.249916698818016 
1507	 0.250117095724181 
1508	 0.250294394524992 
1509	 0.25044558898852 
1510	 0.250601642675732 
1511	 0.250727758864537 
1512	 0.250857428463038 
1513	 0.251021180756058 
1514	 0.251188465012241 
1515	 0.25136387294064 
1516	 0.251535158068273 
1517	 0.251690998092709 
1518	 0.251833963148799 
1519	 0.251980349784608 
1520	 0.252114760685365 
1521	 0.252261527595593 
1522	 0.252417318516615 
1523	 0.252563049837358 
1524	 0.252708625632863 
1525	 0.252846799119527 
1526	 0.252979056503105 
1527	 0.253108173143889 
1528	 0.253236190607958 
1529	 0.253358551745023 
1530	 0.253470593805356 
1531	 0.253585301383966 
1532	 0.253699719810946 
1533	 0.253806768820793 
1534	 0.253906028038574 
1535	 0.254014667308411 
1536	 0.254121723313041 
1537	 0.254230627004962 
1538	 0.254357071281223 
1539	 0.254464548533997 
1540	 0.254549333289533 
1541	 0.254650493776118 
1542	 0.254758538663111 
1543	 0.254855309365995 
1544	 0.254958620620922 
1545	 0.255057630722836 
1546	 0.255149962314444 
1547	 0.25522879774422 
1548	 0.255311379374483 
1549	 0.255381474947734 
1550	 0.255439837763378 
1551	 0.255494581708113 
1552	 0.255537968375158 
1553	 0.255609842802966 
1554	 0.255705493822624 
1555	 0.255777538935171 
1556	 0.255857125264687 
1557	 0.255932580715942 
1558	 0.255997409433967 
1559	 0.256081294039041 
1560	 0.256148653726891 
1561	 0.256220964779331 
1562	 0.256285384689906 
1563	 0.256329596947927 
1564	 0.256392214234695 
1565	 0.256472663758929 
1566	 0.256532321063917 
1567	 0.256586342621206 
1568	 0.256637825164852 
1569	 0.256672166909175 
1570	 0.256725172600126 
1571	 0.25679241691903 
1572	 0.256841462769817 
1573	 0.256886045570126 
1574	 0.256938764288894 
1575	 0.256989173654593 
1576	 0.25703197460492 
1577	 0.257083719409511 
1578	 0.257121671592398 
1579	 0.257132729120675 
1580	 0.257164631939772 
1581	 0.257201466599261 
1582	 0.257245719276208 
1583	 0.257300960799135 
1584	 0.257354861132147 
1585	 0.257429611448779 
1586	 0.257472059005833 
1587	 0.257499450342863 
1588	 0.257523084102916 
1589	 0.257513689300951 
1590	 0.257528060347173 
1591	 0.257552885753653 
1592	 0.257579872501906 
1593	 0.257617646879387 
1594	 0.257650552560202 
1595	 0.257689036223529 
1596	 0.257715223058228 
1597	 0.257738753897812 
1598	 0.257757738196076 
1599	 0.257765639688377 
1600	 0.25777232939173 
1601	 0.257767772219491 
1602	 0.257772900577712 
1603	 0.257778712281826 
1604	 0.257789764252453 
1605	 0.257802215604236 
1606	 0.257827253127486 
1607	 0.257859366160293 
1608	 0.257904043051349 
1609	 0.257945819078419 
1610	 0.257977010291579 
1611	 0.257983185889575 
1612	 0.257982056377149 
1613	 0.257963294665186 
1614	 0.25794761891225 
1615	 0.25796394868269 
1616	 0.257976878064925 
1617	 0.258035338887708 
1618	 0.258108812033408 
1619	 0.258125550584485 
1620	 0.258137719756389 
1621	 0.258132791473097 
1622	 0.258088553224337 
1623	 0.258066152568219 
1624	 0.258047156633103 
1625	 0.258029910527691 
1626	 0.258004543590069 
1627	 0.257993443822542 
1628	 0.257990083846524 
1629	 0.258000623703672 
1630	 0.25802541523189 
1631	 0.258039329806774 
1632	 0.258064486230177 
1633	 0.258075796984197 
1634	 0.258075221530818 
1635	 0.25807550052719 
1636	 0.258083954721948 
1637	 0.258064985392097 
1638	 0.258019604596126 
1639	 0.257998672368387 
1640	 0.257966167404434 
1641	 0.257957592132834 
1642	 0.257978871621229 
1643	 0.257977734361254 
1644	 0.257969917903256 
1645	 0.257972895897529 
1646	 0.257980937625096 
1647	 0.257977171465473 
1648	 0.257981340511146 
1649	 0.257967508054341 
1650	 0.257930862286207 
1651	 0.25790531612288 
1652	 0.257875278341767 
1653	 0.257855663687132 
1654	 0.257839718536517 
1655	 0.257826358093953 
1656	 0.257830264389582 
1657	 0.257808451443479 
1658	 0.257783588941428 
1659	 0.257738530690618 
1660	 0.257659490875966 
1661	 0.257608465144958 
1662	 0.257551841747251 
1663	 0.257512212604252 
1664	 0.257490809858598 
1665	 0.257471825188582 
1666	 0.257469111574721 
1667	 0.257446596701634 
1668	 0.257425859419307 
1669	 0.257396256695942 
1670	 0.257348947511171 
1671	 0.257306376777854 
1672	 0.257262948714981 
1673	 0.257222953419843 
1674	 0.257182851786546 
1675	 0.257138058542432 
1676	 0.257088765942904 
1677	 0.257053141913608 
1678	 0.257018155833834 
1679	 0.256986067250883 
1680	 0.256975609913585 
1681	 0.256943503817772 
1682	 0.256895503948145 
1683	 0.256855157639478 
1684	 0.256803361061516 
1685	 0.256770843938411 
1686	 0.256762704856289 
1687	 0.256725060548539 
1688	 0.256678276375884 
1689	 0.25663874764968 
1690	 0.256585147238978 
1691	 0.256534925494189 
1692	 0.256500535754175 
1693	 0.256453186248929 
1694	 0.256382125375348 
1695	 0.256335168666836 
1696	 0.256297785340133 
1697	 0.256265087994365 
1698	 0.256251973054481 
1699	 0.25621946799599 
1700	 0.256186436293838 
1701	 0.256142689310965 
1702	 0.256096448400398 
1703	 0.25602074575317 
1704	 0.25591379740021 
1705	 0.255832122394107 
1706	 0.2557292378426 
1707	 0.255658496219196 
1708	 0.255631662850061 
1709	 0.255567585870423 
1710	 0.255491819791824 
1711	 0.255423382791618 
1712	 0.255340176096393 
1713	 0.255276430186638 
1714	 0.255228842056946 
1715	 0.255172942138721 
1716	 0.255129202945082 
1717	 0.255063231728425 
1718	 0.254979029317922 
1719	 0.254910079844754 
1720	 0.254839625120864 
1721	 0.254756574879688 
1722	 0.254684741528308 
1723	 0.254594263270978 
1724	 0.254476169346796 
1725	 0.254374995170184 
1726	 0.254275751259937 
1727	 0.254175459546551 
1728	 0.254068828568221 
1729	 0.25397962087338 
1730	 0.25390322008535 
1731	 0.25381849749435 
1732	 0.253740200612137 
1733	 0.253661812347634 
1734	 0.253589494066624 
1735	 0.253486283006123 
1736	 0.253372678557511 
1737	 0.253263859769575 
1738	 0.253129622713982 
1739	 0.253006506856806 
1740	 0.252901465467684 
1741	 0.252780553733074 
1742	 0.252645129329564 
1743	 0.252520331256145 
1744	 0.252397914917779 
1745	 0.252274523382268 
1746	 0.252143230360441 
1747	 0.252022952312376 
1748	 0.251923327816917 
1749	 0.251811375728389 
1750	 0.251716750719123 
1751	 0.251621226186786 
1752	 0.251509740326813 
1753	 0.251407240672669 
1754	 0.251282257307269 
1755	 0.251143042438857 
1756	 0.251028584711061 
1757	 0.250905252070004 
1758	 0.250781243722924 
1759	 0.250661972810432 
1760	 0.250540157867819 
1761	 0.250442149096834 
1762	 0.250326627653263 
1763	 0.250208778367362 
1764	 0.250093747948587 
1765	 0.249963010364695 
1766	 0.249847297227395 
1767	 0.249734572325134 
1768	 0.249625882266385 
1769	 0.24952901367461 
1770	 0.249437827127822 
1771	 0.24936213430063 
1772	 0.249296320595743 
1773	 0.249220472154055 
1774	 0.249159946860199 
1775	 0.249096875909456 
1776	 0.248979633623344 
1777	 0.248859359501262 
1778	 0.248744842561797 
1779	 0.248621411280601 
1780	 0.248540641895497 
1781	 0.248458813569763 
1782	 0.24835949419401 
1783	 0.248306206621833 
1784	 0.248259610897419 
1785	 0.248259278276869 
1786	 0.248224625880548 
1787	 0.248174447616729 
1788	 0.248117742362063 
1789	 0.248041994578813 
1790	 0.247965734246566 
1791	 0.247881515198586 
1792	 0.247808764983485 
1793	 0.24771892955576 
1794	 0.247675481400634 
1795	 0.247654669182695 
1796	 0.247645360553439 
1797	 0.247692374137837 
1798	 0.247687030149238 
1799	 0.247664525001867 
1800	 0.247653995305577 
1801	 0.245731946043498 
1802	 0.245885778395303 
1803	 0.246116095873372 
1804	 0.246362581141545 
1805	 0.24659621731252 
1806	 0.24680661123748 
1807	 0.247002499183237 
1808	 0.247177952618869 
1809	 0.247333953266572 
1810	 0.247469176437078 
1811	 0.247594735305527 
1812	 0.247694135786074 
1813	 0.247764623109357 
1814	 0.247801462757783 
1815	 0.247822328837995 
1816	 0.247843975646365 
1817	 0.247861858255502 
1818	 0.247854143651244 
1819	 0.24787545834527 
1820	 0.247911965033676 
1821	 0.247945007620911 
1822	 0.247966326782705 
1823	 0.247979973991352 
1824	 0.248004711661223 
1825	 0.248011092388924 
1826	 0.248016565867773 
1827	 0.248054683058864 
1828	 0.248052999347231 
1829	 0.248019362311002 
1830	 0.247990288442562 
1831	 0.24794957107935 
1832	 0.247892792551435 
1833	 0.24786535037531 
1834	 0.247855880880035 
1835	 0.247848155012309 
1836	 0.247824678541728 
1837	 0.247777075595126 
1838	 0.24773018120046 
1839	 0.247683219948945 
1840	 0.247626459192556 
1841	 0.247585425871166 
1842	 0.247552298018048 
1843	 0.247504812722148 
1844	 0.247443118013898 
1845	 0.2473730835079 
1846	 0.247282827513585 
1847	 0.247176533461126 
1848	 0.24706961419799 
1849	 0.246944060053166 
1850	 0.24681304308911 
1851	 0.246676246558439 
1852	 0.246522819764731 
1853	 0.246374513284009 
1854	 0.246221850754821 
1855	 0.246052757877567 
1856	 0.245869900020427 
1857	 0.245633726661932 
1858	 0.245367624275719 
1859	 0.245084596201236 
1860	 0.244789100011009 
1861	 0.244477427836014 
1862	 0.244153096386742 
1863	 0.243797897278577 
1864	 0.243401386356426 
1865	 0.242951531662848 
1866	 0.242461676909196 
1867	 0.241951687201006 
1868	 0.24138862964995 
1869	 0.240777427301849 
1870	 0.240130090914123 
1871	 0.239433076198612 
1872	 0.238677337267746 
1873	 0.237907145706121 
1874	 0.237106755989994 
1875	 0.236254078216411 
1876	 0.235356299216632 
1877	 0.2343976024073 
1878	 0.233349503112534 
1879	 0.232231593678381 
1880	 0.231026911388016 
1881	 0.229730326182008 
1882	 0.228358946484664 
1883	 0.226912625937424 
1884	 0.225361081589577 
1885	 0.223761238382715 
1886	 0.222104645393124 
1887	 0.220332972405419 
1888	 0.218506999666862 
1889	 0.216596083795928 
1890	 0.214587978408769 
1891	 0.212566743136911 
1892	 0.210472760567711 
1893	 0.208386040196079 
1894	 0.206265476477564 
1895	 0.204147559388602 
1896	 0.201991402413867 
1897	 0.199847484138433 
1898	 0.197669249575915 
1899	 0.195496821198385 
1900	 0.193409037776542 
1901	 0.191344108057827 
1902	 0.189366957332408 
1903	 0.187491112765046 
1904	 0.185648408312749 
1905	 0.183840940063124 
1906	 0.182128489065835 
1907	 0.180498859051488 
1908	 0.178941929995767 
1909	 0.177504438207419 
1910	 0.176160505950046 
1911	 0.174877691655754 
1912	 0.173683879508551 
1913	 0.172541685788055 
1914	 0.171454435446794 
1915	 0.170439029071579 
1916	 0.169486965929378 
1917	 0.168603060035617 
1918	 0.167810443747023 
1919	 0.167089382842285 
1920	 0.166422020931693 
1921	 0.165807393380667 
1922	 0.165223603630762 
1923	 0.164694006143731 
1924	 0.164237670455176 
1925	 0.163867151269447 
1926	 0.163516098437517 
1927	 0.16321311336038 
1928	 0.162965113457325 
1929	 0.162740362116193 
1930	 0.16255841207553 
1931	 0.162433590061643 
1932	 0.162343444949765 
1933	 0.162281387728725 
1934	 0.162228012105893 
1935	 0.162212967848508 
1936	 0.162223661367785 
1937	 0.162264323180997 
1938	 0.162346724632135 
1939	 0.162444103429659 
1940	 0.162566379202581 
1941	 0.162702421379435 
1942	 0.162855571209729 
1943	 0.163028314341509 
1944	 0.16323268707159 
1945	 0.163463023609188 
1946	 0.163703145191214 
1947	 0.163970522038993 
1948	 0.164244624694361 
1949	 0.164527449422239 
1950	 0.164820722788444 
1951	 0.165125344136037 
1952	 0.165450138701718 
1953	 0.165782551536494 
1954	 0.166143934841512 
1955	 0.166517072535452 
1956	 0.166898415306037 
1957	 0.167287592322418 
1958	 0.16767697277739 
1959	 0.168088892602968 
1960	 0.168533077498458 
1961	 0.168958643119396 
1962	 0.169389120600044 
1963	 0.169825225038428 
1964	 0.170256825707787 
1965	 0.17067879042066 
1966	 0.171135978291215 
1967	 0.171602104976337 
1968	 0.172073025153588 
1969	 0.172555307097656 
1970	 0.173041877831051 
1971	 0.17353915767133 
1972	 0.174030188720847 
1973	 0.174526340645475 
1974	 0.175021528854245 
1975	 0.175507938488896 
1976	 0.176002967739719 
1977	 0.176529530155556 
1978	 0.177054320538352 
1979	 0.177576561415027 
1980	 0.178115890872683 
1981	 0.178625824308142 
1982	 0.179102799718049 
1983	 0.179606173479189 
1984	 0.180102399014564 
1985	 0.180614035166764 
1986	 0.181159379305946 
1987	 0.181671474016203 
1988	 0.182169310191867 
1989	 0.182676822601724 
1990	 0.18315789001139 
1991	 0.183657048714482 
1992	 0.184155911221941 
1993	 0.18465602469102 
1994	 0.185165813696119 
1995	 0.185687984601826 
1996	 0.186200802842487 
1997	 0.186724871710445 
1998	 0.187240616697063 
1999	 0.18773538296188 
2000	 0.188244163119723 
2001	 0.188758654209849 
2002	 0.189288412353928 
2003	 0.189799973256949 
2004	 0.190281083794991 
2005	 0.190760343472381 
2006	 0.191209475885562 
2007	 0.191674416207463 
2008	 0.192143725978576 
2009	 0.192609656750365 
2010	 0.193064649055857 
2011	 0.193533123219354 
2012	 0.194020865029174 
2013	 0.194486234538094 
2014	 0.194947990059351 
2015	 0.195408480507768 
2016	 0.195856805904108 
2017	 0.196283216736075 
2018	 0.196720543248677 
2019	 0.197156497766366 
2020	 0.197603681658217 
2021	 0.198052028215859 
2022	 0.198501979859875 
2023	 0.198972171940545 
2024	 0.199423652545497 
2025	 0.199864608646922 
2026	 0.20030497886687 
2027	 0.200755939321652 
2028	 0.201174690754805 
2029	 0.201584281601078 
2030	 0.201979595362881 
2031	 0.202380422016996 
2032	 0.202764343561384 
2033	 0.203154306210383 
2034	 0.203552698173224 
2035	 0.203942160041617 
2036	 0.204327438832305 
2037	 0.204701926813632 
2038	 0.205080341038918 
2039	 0.205439462537338 
2040	 0.205775318145967 
2041	 0.20611049538763 
2042	 0.206441029164373 
2043	 0.206763627578256 
2044	 0.207103727678731 
2045	 0.207451524594232 
2046	 0.207799888343627 
2047	 0.208172549726161 
2048	 0.208510093369424 
2049	 0.208835679203908 
2050	 0.20915556455635 
2051	 0.209454873834388 
2052	 0.209753782958764 
2053	 0.210039474620545 
2054	 0.210334657372642 
2055	 0.210633750698464 
2056	 0.210921130923079 
2057	 0.211216728475693 
2058	 0.211522091605613 
2059	 0.211825299859709 
2060	 0.212126250342801 
2061	 0.21242693349945 
2062	 0.212743275211957 
2063	 0.213034351559956 
2064	 0.213301713413671 
2065	 0.213584187458385 
2066	 0.213869518871787 
2067	 0.21414211884506 
2068	 0.214415442432115 
2069	 0.2146875424011 
2070	 0.214946501070696 
2071	 0.215183913985796 
2072	 0.215436270761321 
2073	 0.215690123231291 
2074	 0.215944389031572 
2075	 0.216192189423104 
2076	 0.216453119737892 
2077	 0.216728811940562 
2078	 0.216993413094759 
2079	 0.217262735679435 
2080	 0.217527699527173 
2081	 0.217784720226805 
2082	 0.218038375110359 
2083	 0.218282862703074 
2084	 0.218541722529446 
2085	 0.218795824157717 
2086	 0.219047858642065 
2087	 0.219296098527289 
2088	 0.219548410924146 
2089	 0.219794903631871 
2090	 0.220027675164377 
2091	 0.220272435287841 
2092	 0.22052471557837 
2093	 0.22077218164494 
2094	 0.221021227541459 
2095	 0.221269570599356 
2096	 0.221524325009832 
2097	 0.221764956955217 
2098	 0.221998207054611 
2099	 0.222232526226745 
2100	 0.222451293473874 
2101	 0.222654212019611 
2102	 0.222858472025035 
2103	 0.223040590581999 
2104	 0.223261558729749 
2105	 0.22348958332693 
2106	 0.223730407518611 
2107	 0.224023068966894 
2108	 0.224265556292826 
2109	 0.224477831916945 
2110	 0.224712233120194 
2111	 0.224915268214496 
2112	 0.225156533365324 
2113	 0.225445348800629 
2114	 0.225728088673535 
2115	 0.225971956924111 
2116	 0.226207251350443 
2117	 0.226445382087248 
2118	 0.226651987833413 
2119	 0.226873598597674 
2120	 0.22712292263715 
2121	 0.227341969123447 
2122	 0.227536710988278 
2123	 0.227732827820225 
2124	 0.227931449806557 
2125	 0.228111645462683 
2126	 0.228270433347663 
2127	 0.228434596444653 
2128	 0.228602912655618 
2129	 0.228746986153254 
2130	 0.228866716587071 
2131	 0.229005449208696 
2132	 0.22912659777478 
2133	 0.229231515527423 
2134	 0.229329566685115 
2135	 0.229418866952759 
2136	 0.229517043905069 
2137	 0.229606938292351 
2138	 0.22969055614812 
2139	 0.229785456025376 
2140	 0.229869216526328 
2141	 0.229948232654473 
2142	 0.230002063143999 
2143	 0.230072682859629 
2144	 0.230088310207569 
2145	 0.230015624839492 
2146	 0.229989439539483 
2147	 0.229958747398013 
2148	 0.229913354191072 
2149	 0.229918146361913 
2150	 0.22999237810874 
2151	 0.22998844022086 
2152	 0.229980616357079 
2153	 0.229945541206878 
2154	 0.229859382548905 
2155	 0.229791315944912 
2156	 0.229734833602659 
2157	 0.229644573950836 
2158	 0.229529331177443 
2159	 0.229415716789043 
2160	 0.229284702310632 
2161	 0.229148096337341 
2162	 0.228991735469259 
2163	 0.228857989167566 
2164	 0.228729586680097 
2165	 0.228597133562779 
2166	 0.228469522868702 
2167	 0.228370566092999 
2168	 0.228231036917859 
2169	 0.228060602820463 
2170	 0.227916388325427 
2171	 0.227763731353137 
2172	 0.227628839700908 
2173	 0.227527226885828 
2174	 0.227390296176102 
2175	 0.227231726643281 
2176	 0.227094444335747 
2177	 0.226949402008822 
2178	 0.226808600308011 
2179	 0.22670666033676 
2180	 0.226567068370925 
2181	 0.226391361701318 
2182	 0.226231685465815 
2183	 0.226067456181257 
2184	 0.225891016274949 
2185	 0.225732528712991 
2186	 0.225570930300013 
2187	 0.225453884409831 
2188	 0.225372113986136 
2189	 0.225261502813943 
2190	 0.225180070247346 
2191	 0.225072900131673 
2192	 0.224915271242213 
2193	 0.224803608341715 
2194	 0.224723580714145 
2195	 0.224627528490617 
2196	 0.224523415524992 
2197	 0.224445771296737 
2198	 0.224380203061967 
2199	 0.224313410475112 
2200	 0.224275275793213 
2201	 0.224224545477223 
2202	 0.224139504665461 
2203	 0.224091950906059 
2204	 0.224057577518799 
2205	 0.224028850229914 
2206	 0.224028387558025 
2207	 0.224064731214685 
2208	 0.224083907599779 
2209	 0.224123780226939 
2210	 0.224142932358677 
2211	 0.224150177786531 
2212	 0.224158588284455 
2213	 0.22415708768237 
2214	 0.224162762050797 
2215	 0.224170413431046 
2216	 0.224181891313606 
2217	 0.224202440757827 
2218	 0.224209909836837 
2219	 0.224203350985187 
2220	 0.22421319107189 
2221	 0.224216654119695 
2222	 0.224241790933305 
2223	 0.224259322283215 
2224	 0.224284898797719 
2225	 0.224312723870294 
2226	 0.224339623084261 
2227	 0.224354887820863 
2228	 0.224370122243013 
2229	 0.224395110514121 
2230	 0.224416003775226 
2231	 0.224431687540981 
2232	 0.224474435571463 
2233	 0.224472098948336 
2234	 0.224423873976364 
2235	 0.224404868576966 
2236	 0.224386538373153 
2237	 0.224358918792332 
2238	 0.224338158226522 
2239	 0.224305078185004 
2240	 0.224245000720197 
2241	 0.224208752980867 
2242	 0.224178043269651 
2243	 0.224155746271128 
2244	 0.22416844198248 
2245	 0.224140792789556 
2246	 0.224095297142613 
2247	 0.224087159740967 
2248	 0.224072727515142 
2249	 0.224052858184754 
2250	 0.22403426860122 
2251	 0.224034736715684 
2252	 0.224012265342589 
2253	 0.223972515023919 
2254	 0.223931064773593 
2255	 0.223878071122891 
2256	 0.223841865299254 
2257	 0.223808323687363 
2258	 0.223772745379816 
2259	 0.223753283656457 
2260	 0.223711814578755 
2261	 0.223637981187289 
2262	 0.223599854582403 
2263	 0.223573509511557 
2264	 0.223548177769985 
2265	 0.223552684122598 
2266	 0.223532396491057 
2267	 0.223497752935397 
2268	 0.223470290487938 
2269	 0.223431035295836 
2270	 0.223402067326596 
2271	 0.223392357595773 
2272	 0.223361690249351 
2273	 0.223377524034963 
2274	 0.223346691351823 
2275	 0.223289503966873 
2276	 0.22320852035447 
2277	 0.223120379679988 
2278	 0.22298113335996 
2279	 0.222898773088436 
2280	 0.222850223844969 
2281	 0.222764271444576 
2282	 0.222676382702836 
2283	 0.222585849532036 
2284	 0.222448718020397 
2285	 0.222373937919871 
2286	 0.222346463202896 
2287	 0.222298516300861 
2288	 0.222282220732741 
2289	 0.222234188070257 
2290	 0.222165399954455 
2291	 0.222094172983655 
2292	 0.222002456258157 
2293	 0.221925348089965 
2294	 0.221864253263935 
2295	 0.221773609670255 
2296	 0.221660985808758 
2297	 0.221563217179902 
2298	 0.221480469196289 
2299	 0.221397158712463 
2300	 0.221351544390836 
2301	 0.221283933352245 
2302	 0.221155099756978 
2303	 0.221016953199667 
2304	 0.22090075508921 
2305	 0.220798669294253 
2306	 0.220681191588675 
2307	 0.220585727343594 
2308	 0.220456402368336 
2309	 0.220297052901508 
2310	 0.220125230902472 
2311	 0.219923406839244 
2312	 0.219762927219976 
2313	 0.219600824810105 
2314	 0.219453944571752 
2315	 0.219336732666763 
2316	 0.219206640126921 
2317	 0.219067800683959 
2318	 0.218953474253275 
2319	 0.218888580505166 
2320	 0.218762811090669 
2321	 0.218622009312405 
2322	 0.218452109009343 
2323	 0.218192969844852 
2324	 0.218012928988742 
2325	 0.217852708295027 
2326	 0.217716404091169 
2327	 0.217648163330068 
2328	 0.217543244355733 
2329	 0.217411001071125 
2330	 0.21727694151504 
2331	 0.217134102726528 
2332	 0.217013373858845 
2333	 0.216879167398642 
2334	 0.216725074917312 
2335	 0.21655139341607 
2336	 0.216327477684922 
2337	 0.216120204178237 
2338	 0.21595359160048 
2339	 0.215757642478188 
2340	 0.21557286859435 
2341	 0.215434101232534 
2342	 0.215290074576798 
2343	 0.215115844370842 
2344	 0.214949468940571 
2345	 0.21477202589596 
2346	 0.214557798362805 
2347	 0.214355711915476 
2348	 0.214182861101059 
2349	 0.2139679497191 
2350	 0.213733461089735 
2351	 0.213471379078561 
2352	 0.213154410528897 
2353	 0.212892819488061 
2354	 0.212634488324247 
2355	 0.21238407511991 
2356	 0.212190083784619 
2357	 0.21194031625017 
2358	 0.211643924663789 
2359	 0.211370845966634 
2360	 0.211085657564987 
2361	 0.210807510528934 
2362	 0.210520263979571 
2363	 0.210292739411876 
2364	 0.210096027567843 
2365	 0.209884231850333 
2366	 0.209737126201375 
2367	 0.209525719412511 
2368	 0.209284928890455 
2369	 0.209038591865138 
2370	 0.208762484698077 
2371	 0.208479979513796 
2372	 0.208221292003658 
2373	 0.207925750487089 
2374	 0.207655972738992 
2375	 0.207375416970103 
2376	 0.207019638843377 
2377	 0.206701459809635 
2378	 0.206458971025068 
2379	 0.206145186243619 
2380	 0.205868037086444 
2381	 0.205620140717675 
2382	 0.205242755427981 
2383	 0.204893845824879 
2384	 0.204565816957226 
2385	 0.204209593705112 
2386	 0.203900217773565 
2387	 0.203575204092439 
2388	 0.203233649653664 
2389	 0.202918362857211 
2390	 0.202612785057058 
2391	 0.202261518051965 
2392	 0.201903880837495 
2393	 0.201555524348977 
2394	 0.201206795246482 
2395	 0.200937047872346 
2396	 0.200665995310432 
2397	 0.20033471047344 
2398	 0.199994708409379 
2399	 0.199610259200882 
2400	 0.199243065443895 
2401	 0.198908509054084 
2402	 0.198494098607934 
2403	 0.198174115765636 
2404	 0.197953106491641 
2405	 0.197628006752109 
2406	 0.197313414911567 
2407	 0.196911746953924 
2408	 0.196331975912336 
2409	 0.195813904627467 
2410	 0.195406060647358 
2411	 0.195080488966883 
2412	 0.194771526828683 
2413	 0.194426085091211 
2414	 0.194037866581652 
2415	 0.19363977261017 
2416	 0.193297035305253 
2417	 0.19301913038272 
2418	 0.192711387455721 
2419	 0.192465916307283 
2420	 0.192082205869737 
2421	 0.191579857360397 
2422	 0.191198143243789 
2423	 0.190805068224622 
2424	 0.190430304509666 
2425	 0.190151947634625 
2426	 0.189782500742122 
2427	 0.189320004175299 
2428	 0.188922768747202 
2429	 0.188580711763337 
2430	 0.188208113795666 
2431	 0.187839034588825 
2432	 0.187453180098915 
2433	 0.187033070626474 
2434	 0.186563619471964 
2435	 0.186036771868987 
2436	 0.18561634688519 
2437	 0.185202004818375 
2438	 0.184841601002805 
2439	 0.184606809943249 
2440	 0.184272701908827 
2441	 0.183916512408464 
2442	 0.183519383370682 
2443	 0.183107493569159 
2444	 0.182706509663488 
2445	 0.182201795599567 
2446	 0.181782204247573 
2447	 0.181414527594138 
2448	 0.181001398735098 
2449	 0.180619581973575 
2450	 0.18028176438956 
2451	 0.1799245282192 
2452	 0.179595128124712 
2453	 0.179363397684368 
2454	 0.179018678710843 
2455	 0.178635738999857 
2456	 0.178252214572069 
2457	 0.177781234125545 
2458	 0.177385173344683 
2459	 0.177028727072561 
2460	 0.176684558845988 
2461	 0.176366223490791 
2462	 0.176033426596772 
2463	 0.175722720806757 
2464	 0.175343810260939 
2465	 0.174940184824868 
2466	 0.174536214082453 
2467	 0.174087570112971 
2468	 0.173633847035839 
2469	 0.173195647007805 
2470	 0.17280943082811 
2471	 0.1723354969301 
2472	 0.172260086324854 
2473	 0.1719970063641 
2474	 0.171483089652037 
2475	 0.17130521659278 
2476	 0.171036133396557 
2477	 0.170643626501964 
2478	 0.170494957193255 
2479	 0.17030097985029 
2480	 0.169797932136466 
2481	 0.169383746099072 
2482	 0.169054989209563 
2483	 0.168667384857421 
2484	 0.168435746612407 
2485	 0.168161994370391 
2486	 0.167867431861564 
2487	 0.167713402104848 
2488	 0.167549816375826 
2489	 0.167376181318075 
2490	 0.167229871722436 
2491	 0.166890364919026 
2492	 0.166420475485457 
2493	 0.166010449271996 
2494	 0.165616476934566 
2495	 0.165317534837751 
2496	 0.165227037176417 
2497	 0.165280231098253 
2498	 0.165227585045826 
2499	 0.165024395652901 
2500	 0.164717597788827 
