Wavelength	mm2200004.asd
350	 3.40796013057014E-02 
351	 3.86462850875342E-02 
352	 3.57728606227832E-02 
353	 2.55290453298203E-02 
354	 2.82869579035672E-02 
355	 2.92657259933298E-02 
356	 2.84026068865261E-02 
357	 0.029057931708531 
358	 3.28835505893844E-02 
359	 3.12684908579347E-02 
360	 2.72658637602162E-02 
361	 2.97980560091352E-02 
362	 2.24878463143017E-02 
363	 2.15689770178613E-02 
364	 3.16019159902353E-02 
365	 3.39751783986459E-02 
366	 3.24288407724218E-02 
367	 3.00282278556968E-02 
368	 2.95090429876601E-02 
369	 3.19381110733946E-02 
370	 3.15716496824443E-02 
371	 3.02349487201953E-02 
372	 3.41004645012218E-02 
373	 3.55052585592802E-02 
374	 3.44630303505979E-02 
375	 3.29732653457281E-02 
376	 3.48539495052803E-02 
377	 3.23657425574126E-02 
378	 3.04046975414029E-02 
379	 3.43592570707074E-02 
380	 3.50414837926118E-02 
381	 0.033447136422945 
382	 3.30662123351438E-02 
383	 3.78808427752869E-02 
384	 0.037469712791325 
385	 3.45834464955846E-02 
386	 3.31993506943767E-02 
387	 3.59826592630298E-02 
388	 0.037301191232527 
389	 3.69414204772441E-02 
390	 0.036143543720991 
391	 3.34376798310132E-02 
392	 0.032437242026844 
393	 3.45109274660872E-02 
394	 3.86231681653698E-02 
395	 3.96192385074172E-02 
396	 0.038819194790682 
397	 0.038277038246071 
398	 3.90561841783399E-02 
399	 4.00758391384117E-02 
400	 4.07542285181248E-02 
401	 4.07890012971403E-02 
402	 4.02528361091439E-02 
403	 3.96589677367804E-02 
404	 3.92769264425797E-02 
405	 3.91004656860815E-02 
406	 3.98635824669259E-02 
407	 4.09406529814262E-02 
408	 4.13823216804877E-02 
409	 3.98966880478464E-02 
410	 3.90968795558767E-02 
411	 3.94142661095004E-02 
412	 4.01754442587656E-02 
413	 0.041491319976364 
414	 4.12937066087055E-02 
415	 3.96166032105187E-02 
416	 3.92491851021601E-02 
417	 3.95656002289067E-02 
418	 3.99126247977247E-02 
419	 3.98999106916472E-02 
420	 4.02265183636499E-02 
421	 4.01897116671579E-02 
422	 4.01464006751106E-02 
423	 4.09389700119374E-02 
424	 4.07040875468069E-02 
425	 4.02269496644934E-02 
426	 0.040118852121538 
427	 0.040078632115361 
428	 3.98050416700277E-02 
429	 3.97762609039377E-02 
430	 4.03730135408602E-02 
431	 4.01695260959915E-02 
432	 3.99478498230883E-02 
433	 4.01368955359675E-02 
434	 0.040684167707867 
435	 4.05603811239699E-02 
436	 4.01899122476283E-02 
437	 4.00159497886774E-02 
438	 0.039659227328663 
439	 3.98041711649395E-02 
440	 4.01376226488019E-02 
441	 3.99706895958554E-02 
442	 4.00254662054861E-02 
443	 3.99836244535604E-02 
444	 3.97661204599366E-02 
445	 3.98008624665807E-02 
446	 0.03981724348983 
447	 3.97813135153184E-02 
448	 3.97308974562379E-02 
449	 3.96934923512386E-02 
450	 0.039837687601379 
451	 4.00363731710075E-02 
452	 3.99409492374731E-02 
453	 3.99043702977505E-02 
454	 3.98291573987845E-02 
455	 3.96729966447278E-02 
456	 3.97622008798765E-02 
457	 3.95397092955076E-02 
458	 3.92078645993777E-02 
459	 3.92319083838576E-02 
460	 3.92027662931407E-02 
461	 3.90596441169974E-02 
462	 3.89394760220573E-02 
463	 3.92153854837061E-02 
464	 3.92006528093741E-02 
465	 3.91362163930002E-02 
466	 3.93262462564313E-02 
467	 3.92063872600261E-02 
468	 3.92208091073926E-02 
469	 3.92980109006811E-02 
470	 3.89890487835859E-02 
471	 3.90358176597378E-02 
472	 3.90520599405622E-02 
473	 3.87932552811606E-02 
474	 3.88111574826391E-02 
475	 3.87551884621091E-02 
476	 3.86547380960405E-02 
477	 3.86934185825302E-02 
478	 3.89573673980963E-02 
479	 3.89737277680865E-02 
480	 3.86727231338561E-02 
481	 0.038587491177932 
482	 3.86797285005756E-02 
483	 3.88246857146174E-02 
484	 3.88734380237654E-02 
485	 3.87667973978802E-02 
486	 3.84898006780876E-02 
487	 0.038266617695689 
488	 3.84659954717871E-02 
489	 3.84908114059063E-02 
490	 3.84999682434892E-02 
491	 0.038619432870946 
492	 3.85656573530177E-02 
493	 3.83632813462745E-02 
494	 3.81937917923447E-02 
495	 3.82741222769699E-02 
496	 3.84438389057381E-02 
497	 3.84642827301615E-02 
498	 3.83267697952029E-02 
499	 0.03836857562832 
500	 3.82612953880857E-02 
501	 0.03817971521132 
502	 3.83119603493822E-02 
503	 3.82426347144388E-02 
504	 0.038189883513464 
505	 3.81938230992482E-02 
506	 3.81214778791365E-02 
507	 3.81135453769152E-02 
508	 3.81893719665209E-02 
509	 3.82972825283907E-02 
510	 3.82765022171188E-02 
511	 3.81329217358089E-02 
512	 3.80078528460732E-02 
513	 0.038084740856761 
514	 3.82121523994451E-02 
515	 3.82479198402572E-02 
516	 3.81861957496868E-02 
517	 3.82501532806036E-02 
518	 3.82110791170557E-02 
519	 0.038124238636288 
520	 3.81213557533553E-02 
521	 3.82296648027641E-02 
522	 3.82340143549134E-02 
523	 3.81653619377268E-02 
524	 3.83149035683265E-02 
525	 3.83034156109667E-02 
526	 3.82571612191054E-02 
527	 3.83178920484706E-02 
528	 3.83054673953107E-02 
529	 3.82763467493747E-02 
530	 3.82857868612916E-02 
531	 3.83740595489081E-02 
532	 3.84073682988847E-02 
533	 3.84938088323252E-02 
534	 3.86493171598108E-02 
535	 3.86128094347423E-02 
536	 3.86327185417013E-02 
537	 0.038691755398346 
538	 3.87009955898761E-02 
539	 3.88495195583497E-02 
540	 3.89018450304589E-02 
541	 3.88117166999092E-02 
542	 3.88173428101626E-02 
543	 3.89819234206206E-02 
544	 3.91395441844382E-02 
545	 3.91517597591372E-02 
546	 3.92905692546281E-02 
547	 3.93641472764271E-02 
548	 3.93759653076498E-02 
549	 3.94956328187121E-02 
550	 3.96022297138364E-02 
551	 0.039729906515272 
552	 3.99002514269149E-02 
553	 4.00299571996983E-02 
554	 4.01660050763827E-02 
555	 4.03376093939319E-02 
556	 4.05586405037032E-02 
557	 4.07859763089991E-02 
558	 0.041033909490997 
559	 4.13034266689569E-02 
560	 4.15589473521774E-02 
561	 4.18375899261115E-02 
562	 4.21296647911365E-02 
563	 4.24340116337537E-02 
564	 4.28952474543572E-02 
565	 4.33017017226785E-02 
566	 4.36153170388883E-02 
567	 4.40122426864901E-02 
568	 4.45055578540926E-02 
569	 4.50189837814962E-02 
570	 4.55014420917327E-02 
571	 4.60757863456645E-02 
572	 4.66753622816364E-02 
573	 4.73085121067293E-02 
574	 4.80214700290773E-02 
575	 0.048611012989533 
576	 4.92478448807509E-02 
577	 5.00314555350635E-02 
578	 5.07703578171108E-02 
579	 5.15928732783088E-02 
580	 5.24457444241263E-02 
581	 5.32336306440567E-02 
582	 5.41260212688029E-02 
583	 5.50332292322714E-02 
584	 5.59253435215554E-02 
585	 5.68935820816192E-02 
586	 5.79089558847512E-02 
587	 5.89160909753653E-02 
588	 5.98874178328818E-02 
589	 6.09569582152358E-02 
590	 6.20591435290751E-02 
591	 6.31465139486213E-02 
592	 6.41998174994485E-02 
593	 6.52102639096156E-02 
594	 0.066226226903573 
595	 0.067268870836186 
596	 6.82617513124214E-02 
597	 6.92424189806104E-02 
598	 7.02045300755532E-02 
599	 7.11301328831409E-02 
600	 7.20778364809093E-02 
601	 7.30442891882298E-02 
602	 0.073988267116959 
603	 7.48151676446824E-02 
604	 7.56432121839883E-02 
605	 7.64888726432707E-02 
606	 7.73237546900217E-02 
607	 7.80909716137284E-02 
608	 7.88153268988992E-02 
609	 7.95352411830955E-02 
610	 8.02967306528007E-02 
611	 8.09310046113204E-02 
612	 8.15154468978271E-02 
613	 8.21209391967337E-02 
614	 8.25794173505743E-02 
615	 8.30352854921864E-02 
616	 8.35151254023246E-02 
617	 8.39613821940031E-02 
618	 8.44257382419854E-02 
619	 8.47977899634249E-02 
620	 8.50584821515548E-02 
621	 8.54299982773893E-02 
622	 8.58200482332664E-02 
623	 8.61614465945168E-02 
624	 8.64155769553472E-02 
625	 8.67005272155865E-02 
626	 8.69742485424562E-02 
627	 8.72279395571207E-02 
628	 8.75132614965585E-02 
629	 8.77800703694689E-02 
630	 8.80347560965346E-02 
631	 8.82934812277276E-02 
632	 8.85468859948978E-02 
633	 8.87802250261737E-02 
634	 8.89872543538206E-02 
635	 8.91761272801093E-02 
636	 8.94609952940589E-02 
637	 8.97443500549037E-02 
638	 8.99545089616058E-02 
639	 9.01738067459968E-02 
640	 9.04043401806112E-02 
641	 9.06438907691417E-02 
642	 9.08806186930043E-02 
643	 9.10714221574993E-02 
644	 0.091289255271276 
645	 9.15670100811574E-02 
646	 9.18661908935935E-02 
647	 0.092112331120526 
648	 9.23528487689159E-02 
649	 0.092646939588213 
650	 0.092928966864628 
651	 9.32236992449059E-02 
652	 9.35236750715952E-02 
653	 9.37990459744444E-02 
654	 9.41658405557335E-02 
655	 9.45158698037099E-02 
656	 9.47894194587554E-02 
657	 9.51487678152251E-02 
658	 9.55239692389191E-02 
659	 9.58935758926302E-02 
660	 9.62535770232777E-02 
661	 9.65657821570277E-02 
662	 9.69394781385347E-02 
663	 9.73857411839405E-02 
664	 9.77539451761451E-02 
665	 9.81724203354147E-02 
666	 9.85995890201899E-02 
667	 9.89822133755867E-02 
668	 9.94199389466354E-02 
669	 9.98978771619923E-02 
670	 0.10038109625243 
671	 0.10082386562166 
672	 0.101253837669371 
673	 0.101723919754473 
674	 0.102258606935996 
675	 0.102816901284691 
676	 0.103327286912561 
677	 0.103821884208714 
678	 0.10436604644205 
679	 0.104872473361498 
680	 0.105426914662854 
681	 0.10605212043765 
682	 0.106672340633579 
683	 0.10724556828243 
684	 0.107796664079082 
685	 0.108377266046283 
686	 0.10906243504102 
687	 0.109725419128208 
688	 0.110342353594241 
689	 0.110967367267178 
690	 0.111621046294342 
691	 0.112297965619518 
692	 0.112990122668357 
693	 0.113701005511229 
694	 0.11437726106307 
695	 0.115054548278233 
696	 0.115782453190402 
697	 0.116483764255569 
698	 0.11718400974672 
699	 0.117897105235281 
700	 0.118618063429224 
701	 0.119384464491523 
702	 0.120146580936898 
703	 0.120866454327381 
704	 0.121587749221656 
705	 0.122343149912502 
706	 0.123096119020653 
707	 0.123788914335839 
708	 0.124529888180777 
709	 0.125286106257666 
710	 0.12603800327288 
711	 0.126810819391241 
712	 0.127547005142419 
713	 0.128231977183619 
714	 0.128893667354905 
715	 0.129664492823311 
716	 0.13039279529172 
717	 0.131057440467055 
718	 0.131735354211684 
719	 0.132398138304272 
720	 0.133057868256388 
721	 0.13371757102075 
722	 0.134360436240203 
723	 0.13495600575646 
724	 0.135520731079779 
725	 0.136082935208031 
726	 0.13663232877899 
727	 0.137157128972449 
728	 0.137659261766275 
729	 0.138152050500553 
730	 0.13861725784365 
731	 0.139021727756993 
732	 0.139374369541765 
733	 0.139792341048423 
734	 0.140177862192 
735	 0.140492801300416 
736	 0.140743283332445 
737	 0.141042289722689 
738	 0.141310346035066 
739	 0.141517646921863 
740	 0.141703630968772 
741	 0.141831055185956 
742	 0.141917694904479 
743	 0.141995499703692 
744	 0.14211054049058 
745	 0.142156126980746 
746	 0.142137110939839 
747	 0.142110375468155 
748	 0.142070947397725 
749	 0.141995993292006 
750	 0.141892302139633 
751	 0.141802952166526 
752	 0.141648189499039 
753	 0.14144245362841 
754	 0.141219335796319 
755	 0.140995366308136 
756	 0.140783947165954 
757	 0.140542368938492 
758	 0.140219088418945 
759	 0.139924681905778 
760	 0.139612997189584 
761	 0.139268436251237 
762	 0.138931573992937 
763	 0.138584878442785 
764	 0.138205733586727 
765	 0.137786891049769 
766	 0.137360909139742 
767	 0.1369688985041 
768	 0.136576425953602 
769	 0.136121847885029 
770	 0.135656668853872 
771	 0.135210669863279 
772	 0.134782854977058 
773	 0.134338729335753 
774	 0.133880031420526 
775	 0.133402143843722 
776	 0.132910626590023 
777	 0.132440035956993 
778	 0.131957931133963 
779	 0.131478598697756 
780	 0.131022767590278 
781	 0.130511079612192 
782	 0.129995724285725 
783	 0.129498257081903 
784	 0.128999322579378 
785	 0.128524579856384 
786	 0.128051613351074 
787	 0.127568498269779 
788	 0.127110251796996 
789	 0.126669726744716 
790	 0.126196346651497 
791	 0.1256569251244 
792	 0.125189630910025 
793	 0.124737236225301 
794	 0.124281421645189 
795	 0.123844479055125 
796	 0.123403524091275 
797	 0.122960424006051 
798	 0.122520616234633 
799	 0.122089465134449 
800	 0.121660377558615 
801	 0.121227587233865 
802	 0.120793092425501 
803	 0.120384503318079 
804	 0.120003720108852 
805	 0.119628390587657 
806	 0.119228012623378 
807	 0.118833198926028 
808	 0.118454635577684 
809	 0.118090451348683 
810	 0.117725027229364 
811	 0.117382434020773 
812	 0.117033125662737 
813	 0.116662457870191 
814	 0.116323444110016 
815	 0.116042728802476 
816	 0.115749100218192 
817	 0.115370677076297 
818	 0.115065114455887 
819	 0.114807271205137 
820	 0.114535648037343 
821	 0.114187278635359 
822	 0.113953296520523 
823	 0.113719062766367 
824	 0.113421138777635 
825	 0.113154708895352 
826	 0.112956837694169 
827	 0.112747129473104 
828	 0.112464323136051 
829	 0.11221863029931 
830	 0.111977960458109 
831	 0.111764194702277 
832	 0.111611138973244 
833	 0.111480412068139 
834	 0.111292752698907 
835	 0.111059578116394 
836	 0.110877484661494 
837	 0.110762478066861 
838	 0.110633641668038 
839	 0.110450396309316 
840	 0.110268304364572 
841	 0.110133931039105 
842	 0.110027843931603 
843	 0.109921640263765 
844	 0.109830361816883 
845	 0.109759204024632 
846	 0.10968548232876 
847	 0.109588971778341 
848	 0.109542609271511 
849	 0.109469386470667 
850	 0.109372040148078 
851	 0.109318774818965 
852	 0.109226615105896 
853	 0.109145632627935 
854	 0.109123446698824 
855	 0.109174022160802 
856	 0.109201832098921 
857	 0.109226654709744 
858	 0.10926392870297 
859	 0.109236594992797 
860	 0.109240441555165 
861	 0.109262278026013 
862	 0.109258854995569 
863	 0.109236627355749 
864	 0.109269690602856 
865	 0.109360976539637 
866	 0.109459544196647 
867	 0.10950512245059 
868	 0.109532187120221 
869	 0.109599153109675 
870	 0.109760664714978 
871	 0.109844432073864 
872	 0.109930931794642 
873	 0.110069012203593 
874	 0.11018737828087 
875	 0.110309071697131 
876	 0.110416386523369 
877	 0.11051168286454 
878	 0.110671467622856 
879	 0.110845294563156 
880	 0.111017783504787 
881	 0.111195254116826 
882	 0.111426147752236 
883	 0.111608199080489 
884	 0.111758457267602 
885	 0.111955601607538 
886	 0.112192878834636 
887	 0.112407859719369 
888	 0.112599765113009 
889	 0.112821037968619 
890	 0.1130563671421 
891	 0.113308954861502 
892	 0.113577452039794 
893	 0.113853716392823 
894	 0.11415536634693 
895	 0.114444992680889 
896	 0.114701947136439 
897	 0.114952664629154 
898	 0.115308254739508 
899	 0.115632791369788 
900	 0.115854758727955 
901	 0.116257644524227 
902	 0.116612604113248 
903	 0.116923889861814 
904	 0.117263624958644 
905	 0.117634541207027 
906	 0.118058240936304 
907	 0.118460219701511 
908	 0.118776175870985 
909	 0.119231170023506 
910	 0.119652455703278 
911	 0.120059560894529 
912	 0.120570222445095 
913	 0.120964048404321 
914	 0.121377152691158 
915	 0.121861389108647 
916	 0.122361227209232 
917	 0.122829112329625 
918	 0.123296117847325 
919	 0.123768999639256 
920	 0.124220524803744 
921	 0.124770414829259 
922	 0.125349262482931 
923	 0.12587679852188 
924	 0.126320347179323 
925	 0.126871076656258 
926	 0.127471797860933 
927	 0.128052872258691 
928	 0.128628558731625 
929	 0.129229177690594 
930	 0.129867172964282 
931	 0.130528000220843 
932	 0.131157081840644 
933	 0.131779100805158 
934	 0.132412497168077 
935	 0.133064305502387 
936	 0.133708491812534 
937	 0.134400831710929 
938	 0.135084662377765 
939	 0.135723460877574 
940	 0.136481338945508 
941	 0.137221657962361 
942	 0.13796765553307 
943	 0.138767582908772 
944	 0.139498973860342 
945	 0.140222633539161 
946	 0.14098838057732 
947	 0.141796511762268 
948	 0.14246965666072 
949	 0.143265736199276 
950	 0.144121799118219 
951	 0.144868565399034 
952	 0.14573472612546 
953	 0.146553127483167 
954	 0.147353508111996 
955	 0.148249796580184 
956	 0.149110745149644 
957	 0.150004970042892 
958	 0.15091764240254 
959	 0.15179411435842 
960	 0.152689107641546 
961	 0.153658414144244 
962	 0.154622208332482 
963	 0.155458663835697 
964	 0.156340609770974 
965	 0.157302847726592 
966	 0.158322084827683 
967	 0.1593326356617 
968	 0.160243520560108 
969	 0.161185940162096 
970	 0.162170683141163 
971	 0.163122694289755 
972	 0.164078340210532 
973	 0.16509624279371 
974	 0.166114817777744 
975	 0.167036206342385 
976	 0.168055330375174 
977	 0.169058133840142 
978	 0.170040408979753 
979	 0.171072409038485 
980	 0.172128022894171 
981	 0.173227888087952 
982	 0.174304949360246 
983	 0.175278171602238 
984	 0.176284845202986 
985	 0.177218252924997 
986	 0.178202456249836 
987	 0.179391194079153 
988	 0.180412151094697 
989	 0.181386328027048 
990	 0.182382747896763 
991	 0.183437689308134 
992	 0.184632957416129 
993	 0.185612569779714 
994	 0.186510525315065 
995	 0.187570588372826 
996	 0.188472036828418 
997	 0.189326696591337 
998	 0.190263947153083 
999	 0.1913602016578 
1000	 0.192521317301641 
1001	 0.192552495251641 
1002	 0.193483974093324 
1003	 0.194435458578319 
1004	 0.195353529423519 
1005	 0.196295543513444 
1006	 0.197181475829509 
1007	 0.198028534828591 
1008	 0.198846919456186 
1009	 0.199631036791938 
1010	 0.200445527142018 
1011	 0.201269072676807 
1012	 0.202048321182369 
1013	 0.202880394721557 
1014	 0.203708839992234 
1015	 0.20450460126951 
1016	 0.205312401153818 
1017	 0.206099938994642 
1018	 0.206850286741806 
1019	 0.207609762229285 
1020	 0.208387313758675 
1021	 0.209118896470297 
1022	 0.209846440141807 
1023	 0.21056368173219 
1024	 0.211250323266356 
1025	 0.211960809424869 
1026	 0.212659471453327 
1027	 0.213364144110739 
1028	 0.214064495025964 
1029	 0.21470833626651 
1030	 0.215401882168396 
1031	 0.216046918535571 
1032	 0.216649091097864 
1033	 0.217217227975509 
1034	 0.217865814330078 
1035	 0.218469644969997 
1036	 0.219039086873155 
1037	 0.219627764843085 
1038	 0.220237523491687 
1039	 0.220819686873559 
1040	 0.221370696464227 
1041	 0.221945462178159 
1042	 0.222514765580601 
1043	 0.223036934687309 
1044	 0.22355963301838 
1045	 0.224082066489806 
1046	 0.224654924964858 
1047	 0.22517589140797 
1048	 0.22572229745475 
1049	 0.226339910635097 
1050	 0.226858128918138 
1051	 0.227379121937418 
1052	 0.227875844654222 
1053	 0.228313861304771 
1054	 0.22883800468967 
1055	 0.229353409262856 
1056	 0.229883778076904 
1057	 0.230441609058315 
1058	 0.231066099959325 
1059	 0.231603751655468 
1060	 0.232126951629772 
1061	 0.23263037853284 
1062	 0.233094070919015 
1063	 0.233570639955286 
1064	 0.234047707891954 
1065	 0.234518835736528 
1066	 0.234987854976201 
1067	 0.235410460706726 
1068	 0.235883718802626 
1069	 0.23641320538658 
1070	 0.236912387237803 
1071	 0.237424711250775 
1072	 0.237933457963774 
1073	 0.23842660562715 
1074	 0.238908873824866 
1075	 0.239408145136486 
1076	 0.239852488406184 
1077	 0.240270302752 
1078	 0.24069236827232 
1079	 0.241059640889596 
1080	 0.241474582281426 
1081	 0.241955589650342 
1082	 0.242408071469676 
1083	 0.242863440882791 
1084	 0.243357952033417 
1085	 0.243805433869452 
1086	 0.244231654362694 
1087	 0.244640109468677 
1088	 0.245015545472891 
1089	 0.245408315085942 
1090	 0.245835211799147 
1091	 0.246229073295955 
1092	 0.246637312150432 
1093	 0.247056789761922 
1094	 0.247454876891292 
1095	 0.247835714122321 
1096	 0.248219522653804 
1097	 0.248595622277865 
1098	 0.248952119769551 
1099	 0.249259289182462 
1100	 0.249614615324103 
1101	 0.24999050552267 
1102	 0.250353957692619 
1103	 0.250745564159525 
1104	 0.251081924397469 
1105	 0.251425297587766 
1106	 0.251790590334699 
1107	 0.252144540128655 
1108	 0.252555643316872 
1109	 0.252956348408718 
1110	 0.253291670024119 
1111	 0.253628673619458 
1112	 0.253955627596052 
1113	 0.254258595099847 
1114	 0.2545243854059 
1115	 0.254825238558107 
1116	 0.255109204168443 
1117	 0.255408865696132 
1118	 0.255728526322654 
1119	 0.256060693496372 
1120	 0.256376136958644 
1121	 0.256697516631417 
1122	 0.256999939810208 
1123	 0.257280289133225 
1124	 0.257564395555796 
1125	 0.257847128962572 
1126	 0.258099540885986 
1127	 0.258313491669687 
1128	 0.258584232597419 
1129	 0.258850601912542 
1130	 0.259133774801829 
1131	 0.259486020053499 
1132	 0.259781420706265 
1133	 0.260035467642473 
1134	 0.260307770429398 
1135	 0.260579527196285 
1136	 0.260848483960948 
1137	 0.261099454799008 
1138	 0.26136679724529 
1139	 0.261607312278105 
1140	 0.261818868417932 
1141	 0.262042431557049 
1142	 0.262254696708539 
1143	 0.262486525182056 
1144	 0.262741754529166 
1145	 0.262964508995186 
1146	 0.26319278770157 
1147	 0.263397173260767 
1148	 0.263561343835394 
1149	 0.263739661865188 
1150	 0.263911934182007 
1151	 0.26409102225977 
1152	 0.264280880116113 
1153	 0.264486381686006 
1154	 0.264665984480148 
1155	 0.264819857068553 
1156	 0.265030981139779 
1157	 0.265261507815147 
1158	 0.265472880541311 
1159	 0.265738615239402 
1160	 0.265952269736786 
1161	 0.266109857963526 
1162	 0.266288440771993 
1163	 0.266459110248934 
1164	 0.266642086682193 
1165	 0.26683084743003 
1166	 0.267018367570445 
1167	 0.267214886127218 
1168	 0.267422967022755 
1169	 0.267605067396611 
1170	 0.267778140038927 
1171	 0.267946166021745 
1172	 0.268089108728618 
1173	 0.268258201510809 
1174	 0.268448064079198 
1175	 0.268611493975622 
1176	 0.26876950385383 
1177	 0.268930014664049 
1178	 0.269072531690778 
1179	 0.269222939892081 
1180	 0.269395769489763 
1181	 0.269548825813767 
1182	 0.269690295829375 
1183	 0.269824322545809 
1184	 0.26996114763335 
1185	 0.270086007181611 
1186	 0.270228080262201 
1187	 0.270385750838246 
1188	 0.270523234590585 
1189	 0.270662188941383 
1190	 0.270790802042928 
1191	 0.270905675163871 
1192	 0.271017753290842 
1193	 0.271107556347589 
1194	 0.271228571791635 
1195	 0.271366120142252 
1196	 0.271493090282013 
1197	 0.271648747691355 
1198	 0.271781083191896 
1199	 0.271899613625144 
1200	 0.27199221353626 
1201	 0.272099167250954 
1202	 0.272203654633604 
1203	 0.272305233351554 
1204	 0.272399898966812 
1205	 0.272507223983993 
1206	 0.272621215195522 
1207	 0.27272695762761 
1208	 0.272836903713411 
1209	 0.272945181132653 
1210	 0.27304842689895 
1211	 0.273148061354843 
1212	 0.273244148358536 
1213	 0.273347437270628 
1214	 0.273458677581357 
1215	 0.273554344279433 
1216	 0.273645554761316 
1217	 0.273742328678996 
1218	 0.273825910595012 
1219	 0.273884202843378 
1220	 0.273966247600752 
1221	 0.274060159630846 
1222	 0.274145427542036 
1223	 0.274234232801807 
1224	 0.27431854421188 
1225	 0.274399596090474 
1226	 0.274477087991544 
1227	 0.274548121338473 
1228	 0.274626174031638 
1229	 0.274705680509367 
1230	 0.27478243959491 
1231	 0.274876402628863 
1232	 0.274948095096829 
1233	 0.275008057867538 
1234	 0.275048493181738 
1235	 0.275108093977831 
1236	 0.275155930753962 
1237	 0.2752250183169 
1238	 0.275318687440059 
1239	 0.275395244811897 
1240	 0.275471875353799 
1241	 0.275545010819403 
1242	 0.275613992250129 
1243	 0.275681779376121 
1244	 0.275756030243025 
1245	 0.275814825981045 
1246	 0.275853638356528 
1247	 0.275906427730726 
1248	 0.27595688382063 
1249	 0.276008086808106 
1250	 0.276074541808189 
1251	 0.27613668566451 
1252	 0.27619029710727 
1253	 0.276234939611025 
1254	 0.276283862192756 
1255	 0.276332852085413 
1256	 0.276376583421201 
1257	 0.27642472582993 
1258	 0.276456911570413 
1259	 0.276457797383579 
1260	 0.276495473350491 
1261	 0.276545197763283 
1262	 0.276592203788608 
1263	 0.276673521861576 
1264	 0.276727824910243 
1265	 0.276756128630264 
1266	 0.276794549431239 
1267	 0.276823570358325 
1268	 0.276864929591892 
1269	 0.276906176605774 
1270	 0.276955641816102 
1271	 0.276992370420125 
1272	 0.277025784977466 
1273	 0.277057940765108 
1274	 0.277070642279776 
1275	 0.277114312489914 
1276	 0.277172069190633 
1277	 0.277234846628694 
1278	 0.277316263451771 
1279	 0.277394233543741 
1280	 0.27747436434608 
1281	 0.277556325359254 
1282	 0.277651814619748 
1283	 0.277735126219295 
1284	 0.27781879682667 
1285	 0.277887771358537 
1286	 0.277952184541474 
1287	 0.278022413294951 
1288	 0.278099337863142 
1289	 0.278191103313686 
1290	 0.27825870679051 
1291	 0.278323985656664 
1292	 0.278378012998222 
1293	 0.278403706715112 
1294	 0.278452130402764 
1295	 0.27850833432263 
1296	 0.278561394020544 
1297	 0.278620023287707 
1298	 0.278679467126906 
1299	 0.27874394035372 
1300	 0.278795880355467 
1301	 0.27884775011027 
1302	 0.278891504455367 
1303	 0.278926711029686 
1304	 0.278950651812851 
1305	 0.278970962543605 
1306	 0.278990848868735 
1307	 0.278998742686821 
1308	 0.278997793618101 
1309	 0.278995030287668 
1310	 0.278985064087427 
1311	 0.278979019612734 
1312	 0.278975627628422 
1313	 0.278961129718332 
1314	 0.278947394948236 
1315	 0.278921075884668 
1316	 0.278875596586464 
1317	 0.278840831111107 
1318	 0.278807895352259 
1319	 0.278767325967868 
1320	 0.278726237838659 
1321	 0.278681115909888 
1322	 0.278624479553156 
1323	 0.278579238124706 
1324	 0.278527697486223 
1325	 0.278473360760763 
1326	 0.278406096760283 
1327	 0.278334372231777 
1328	 0.278259655949534 
1329	 0.278172249358124 
1330	 0.278078088917121 
1331	 0.277977842056754 
1332	 0.277867389349193 
1333	 0.277734197165751 
1334	 0.277631180114023 
1335	 0.277530245179381 
1336	 0.27743544942904 
1337	 0.277372493847762 
1338	 0.277279100166611 
1339	 0.277175866362017 
1340	 0.277065125839297 
1341	 0.276937500759141 
1342	 0.276812696976227 
1343	 0.276671057540189 
1344	 0.276548696875067 
1345	 0.276450600736309 
1346	 0.276343712451951 
1347	 0.276250599895126 
1348	 0.276155042455565 
1349	 0.276032111991626 
1350	 0.275920109175672 
1351	 0.275800441826719 
1352	 0.275670372195002 
1353	 0.275552838001523 
1354	 0.275437129762584 
1355	 0.275318603530666 
1356	 0.275195105591841 
1357	 0.275089761872005 
1358	 0.274998773412692 
1359	 0.274900350890728 
1360	 0.274815856105223 
1361	 0.274720842872216 
1362	 0.27460899987983 
1363	 0.274502838914951 
1364	 0.274397108293613 
1365	 0.274296343265611 
1366	 0.274200339930031 
1367	 0.274102546747774 
1368	 0.274007392389567 
1369	 0.273913867119503 
1370	 0.273800981710595 
1371	 0.273680115373326 
1372	 0.273536048008013 
1373	 0.273367784301008 
1374	 0.273197751033815 
1375	 0.273015315600643 
1376	 0.272816756980221 
1377	 0.272616250237901 
1378	 0.272388035193505 
1379	 0.272128872360933 
1380	 0.271872800412329 
1381	 0.271609032627785 
1382	 0.271322555588493 
1383	 0.271038291485863 
1384	 0.270715335039051 
1385	 0.270373952103511 
1386	 0.269998133131469 
1387	 0.269595532237707 
1388	 0.269161916271779 
1389	 0.268707224761756 
1390	 0.268200725577364 
1391	 0.267658905598993 
1392	 0.267077683559223 
1393	 0.266454943400819 
1394	 0.265807230169301 
1395	 0.265122974215795 
1396	 0.264428763430535 
1397	 0.263720552555734 
1398	 0.262987608245738 
1399	 0.262245119982548 
1400	 0.261496162858109 
1401	 0.260724395542428 
1402	 0.259920386985166 
1403	 0.259135403731648 
1404	 0.258330814531627 
1405	 0.257558002913133 
1406	 0.256803683212725 
1407	 0.256047104473182 
1408	 0.255287729149661 
1409	 0.254563410990749 
1410	 0.253840112515369 
1411	 0.253161873105845 
1412	 0.252523131041901 
1413	 0.251903772090514 
1414	 0.251321788524707 
1415	 0.250751875417246 
1416	 0.25022998579095 
1417	 0.249747637966001 
1418	 0.249255023170466 
1419	 0.248799591258655 
1420	 0.248362994477288 
1421	 0.247938278662176 
1422	 0.247577717532929 
1423	 0.247229503732234 
1424	 0.246882723274544 
1425	 0.24654249289052 
1426	 0.246236997511163 
1427	 0.245941605455619 
1428	 0.245673665531944 
1429	 0.245439497106995 
1430	 0.245218493501687 
1431	 0.245017336875929 
1432	 0.244821802033749 
1433	 0.244651852975958 
1434	 0.244483443656678 
1435	 0.24429339130227 
1436	 0.244157076337144 
1437	 0.244063847577262 
1438	 0.243963698962832 
1439	 0.243890814325198 
1440	 0.243826633879172 
1441	 0.243730802670536 
1442	 0.243643156776917 
1443	 0.243558708260331 
1444	 0.243486383121924 
1445	 0.243442105909399 
1446	 0.243395446252133 
1447	 0.243368645016311 
1448	 0.243356833019997 
1449	 0.243321564490352 
1450	 0.243296673454514 
1451	 0.243284828626268 
1452	 0.243271715039191 
1453	 0.243268680978024 
1454	 0.24328700474714 
1455	 0.243300645800533 
1456	 0.243315681085104 
1457	 0.243328810835549 
1458	 0.243344815127307 
1459	 0.243366234596502 
1460	 0.243384250917552 
1461	 0.243410522916213 
1462	 0.243437702294833 
1463	 0.243482897830849 
1464	 0.243540790822567 
1465	 0.243594418612253 
1466	 0.243665233677774 
1467	 0.243734620951416 
1468	 0.243773804078164 
1469	 0.243861572579056 
1470	 0.243981816926379 
1471	 0.244102441798347 
1472	 0.244258148650821 
1473	 0.244422742922943 
1474	 0.244557554438863 
1475	 0.244723457982893 
1476	 0.244878845032178 
1477	 0.245037964501044 
1478	 0.245232178630969 
1479	 0.245401322409121 
1480	 0.24558566542742 
1481	 0.245775053404491 
1482	 0.245957588764643 
1483	 0.246136450640048 
1484	 0.246323353353958 
1485	 0.246506857101964 
1486	 0.246703867021606 
1487	 0.246909828999983 
1488	 0.247117992702774 
1489	 0.247334797637942 
1490	 0.247549256684768 
1491	 0.247777902830979 
1492	 0.247981307471852 
1493	 0.248173225072639 
1494	 0.248368611539346 
1495	 0.248541619260753 
1496	 0.248729068163108 
1497	 0.248932225164826 
1498	 0.249123353484041 
1499	 0.249319821489131 
1500	 0.249502956447068 
1501	 0.249672346020925 
1502	 0.249841586799495 
1503	 0.249990550396896 
1504	 0.250160405770442 
1505	 0.250347556427013 
1506	 0.250537966132694 
1507	 0.250746020091897 
1508	 0.250935274440954 
1509	 0.251093137308405 
1510	 0.251241478724712 
1511	 0.251376682643979 
1512	 0.251509949756322 
1513	 0.251659844680946 
1514	 0.251831515018623 
1515	 0.252013284523262 
1516	 0.252182835809785 
1517	 0.252329940052648 
1518	 0.252456773319956 
1519	 0.252596533764442 
1520	 0.25272128876153 
1521	 0.252857482394428 
1522	 0.253005004321592 
1523	 0.253152647042053 
1524	 0.253297905508893 
1525	 0.253442850892265 
1526	 0.253598669543064 
1527	 0.253743395293862 
1528	 0.253887111100661 
1529	 0.254014017518327 
1530	 0.254132912579957 
1531	 0.254245243461631 
1532	 0.254335145099233 
1533	 0.254435463913428 
1534	 0.254536522176257 
1535	 0.254640735735347 
1536	 0.254748187655506 
1537	 0.254850032946761 
1538	 0.254951685589234 
1539	 0.255051842756105 
1540	 0.255143666932475 
1541	 0.255244056284467 
1542	 0.255352768559604 
1543	 0.255456121677211 
1544	 0.255569122903861 
1545	 0.255666802882908 
1546	 0.25575992914126 
1547	 0.255834589769481 
1548	 0.255898290559339 
1549	 0.25596103490042 
1550	 0.256028763947045 
1551	 0.256094453970982 
1552	 0.256170708612135 
1553	 0.256262339341564 
1554	 0.256346183136662 
1555	 0.256431485388492 
1556	 0.256506545358747 
1557	 0.256564078681926 
1558	 0.256640355667624 
1559	 0.256722462284569 
1560	 0.256794804150922 
1561	 0.256875075903901 
1562	 0.256948713944436 
1563	 0.257005633776893 
1564	 0.257077957911586 
1565	 0.257172996355875 
1566	 0.257230357357382 
1567	 0.257267195545269 
1568	 0.257318031162711 
1569	 0.257351491942805 
1570	 0.257402058387746 
1571	 0.257477397175274 
1572	 0.257527847332906 
1573	 0.257563884648785 
1574	 0.257610030507994 
1575	 0.257648901165802 
1576	 0.257696168985262 
1577	 0.257763593560425 
1578	 0.257806302355613 
1579	 0.257834977127519 
1580	 0.257872170140448 
1581	 0.25789063589811 
1582	 0.257930458673906 
1583	 0.257993264326228 
1584	 0.258042540589655 
1585	 0.258102930184639 
1586	 0.258143055427466 
1587	 0.258165692599601 
1588	 0.258191767392854 
1589	 0.25819800715536 
1590	 0.258224848785274 
1591	 0.258271915260326 
1592	 0.258302420426689 
1593	 0.258332015384179 
1594	 0.258363746191957 
1595	 0.25838458657123 
1596	 0.258408899387588 
1597	 0.258446907081636 
1598	 0.258472593197322 
1599	 0.258496501395718 
1600	 0.258507162741287 
1601	 0.258494035391791 
1602	 0.25849866773699 
1603	 0.258497708404547 
1604	 0.258503786934767 
1605	 0.258529610102749 
1606	 0.258550609147967 
1607	 0.258564389225447 
1608	 0.25859211789306 
1609	 0.25861441309979 
1610	 0.258632946110132 
1611	 0.258644674454042 
1612	 0.258652792560449 
1613	 0.258668840405654 
1614	 0.258676678067301 
1615	 0.258683622514043 
1616	 0.258700094571318 
1617	 0.258723428159529 
1618	 0.258740164237074 
1619	 0.258767658531083 
1620	 0.258801447971638 
1621	 0.258808976865542 
1622	 0.258805787386111 
1623	 0.258794828984982 
1624	 0.258761759939105 
1625	 0.258743180075977 
1626	 0.258723281948249 
1627	 0.258706080705733 
1628	 0.25868647833659 
1629	 0.258686424422761 
1630	 0.258692916123169 
1631	 0.258711955486923 
1632	 0.258758494883757 
1633	 0.258773078181227 
1634	 0.258784099140722 
1635	 0.258781588689527 
1636	 0.258762847710555 
1637	 0.258742003173888 
1638	 0.258708696170288 
1639	 0.258688888920591 
1640	 0.258657157233255 
1641	 0.258653462650411 
1642	 0.258677805015163 
1643	 0.258679426508595 
1644	 0.258690974929185 
1645	 0.258681935037234 
1646	 0.258646229775527 
1647	 0.258634660576165 
1648	 0.258627196780704 
1649	 0.258617932846888 
1650	 0.258618142182462 
1651	 0.258612914952006 
1652	 0.2586037134275 
1653	 0.258591917537999 
1654	 0.258584284487126 
1655	 0.258565916872885 
1656	 0.258540381173989 
1657	 0.258508161913226 
1658	 0.258474237375815 
1659	 0.25842484279422 
1660	 0.258357201851565 
1661	 0.258297463256453 
1662	 0.258221666601789 
1663	 0.258169013701129 
1664	 0.258122269845278 
1665	 0.258093258246492 
1666	 0.258084456861596 
1667	 0.258073594435575 
1668	 0.258087973307758 
1669	 0.258071025119054 
1670	 0.258047297057071 
1671	 0.258008707479204 
1672	 0.257933137275719 
1673	 0.257893892903664 
1674	 0.257872665839908 
1675	 0.257829813621025 
1676	 0.257784709148199 
1677	 0.257754483956907 
1678	 0.257714496242622 
1679	 0.257681431462452 
1680	 0.257683454953844 
1681	 0.257649765462362 
1682	 0.257573769232416 
1683	 0.257541280496942 
1684	 0.25752505092784 
1685	 0.257500386311741 
1686	 0.257502723206184 
1687	 0.257475789909355 
1688	 0.257432821108278 
1689	 0.257375189687534 
1690	 0.257300952861855 
1691	 0.257228423053093 
1692	 0.257119802494282 
1693	 0.257062815237205 
1694	 0.257033683447528 
1695	 0.256999739055302 
1696	 0.256998470524242 
1697	 0.25697254100148 
1698	 0.25693318720802 
1699	 0.256893692044186 
1700	 0.256855157235697 
1701	 0.256802791805025 
1702	 0.256737120716084 
1703	 0.256678508463166 
1704	 0.256618346166471 
1705	 0.256548463938329 
1706	 0.256478698229278 
1707	 0.25640181463206 
1708	 0.25630911430582 
1709	 0.256225878572677 
1710	 0.256139386021679 
1711	 0.256064079877485 
1712	 0.255990266961529 
1713	 0.255926700870077 
1714	 0.255885666551122 
1715	 0.255824146040203 
1716	 0.255756428094806 
1717	 0.255694616546303 
1718	 0.255627540618897 
1719	 0.255557819799592 
1720	 0.255500013644895 
1721	 0.255417730883634 
1722	 0.25531790063417 
1723	 0.255219813220244 
1724	 0.255104612132932 
1725	 0.255013795125802 
1726	 0.254932182091495 
1727	 0.254839447465327 
1728	 0.254750124517058 
1729	 0.254664033078174 
1730	 0.254571416657016 
1731	 0.254491141250918 
1732	 0.254435282257694 
1733	 0.25435241881134 
1734	 0.254258164659082 
1735	 0.254156027760098 
1736	 0.254042224539838 
1737	 0.253924260767191 
1738	 0.253791079749999 
1739	 0.253677361473579 
1740	 0.253569796227566 
1741	 0.253452257987467 
1742	 0.253341144011173 
1743	 0.253231869672253 
1744	 0.253114512916873 
1745	 0.252993628200418 
1746	 0.25288232053758 
1747	 0.252732829033657 
1748	 0.252590763037357 
1749	 0.252463078938122 
1750	 0.252358291862752 
1751	 0.252242496719257 
1752	 0.252124170299236 
1753	 0.252018913777946 
1754	 0.251895151899673 
1755	 0.25178807974699 
1756	 0.25168827741903 
1757	 0.251571035397538 
1758	 0.251471622187969 
1759	 0.251369988545827 
1760	 0.251267377071869 
1761	 0.251148555803252 
1762	 0.251010736932144 
1763	 0.250897951814038 
1764	 0.250771230315874 
1765	 0.250622758144568 
1766	 0.250481835842009 
1767	 0.250330710572722 
1768	 0.250200532929837 
1769	 0.250126531011636 
1770	 0.250061600177458 
1771	 0.249986497608213 
1772	 0.24991729162739 
1773	 0.249844474669349 
1774	 0.24976460286158 
1775	 0.249666825559372 
1776	 0.249546021445984 
1777	 0.249417266144082 
1778	 0.249309918275092 
1779	 0.249229445418567 
1780	 0.249166508572845 
1781	 0.249109985040508 
1782	 0.249037115062298 
1783	 0.248981943519261 
1784	 0.24892716245752 
1785	 0.24887785393397 
1786	 0.24883186803418 
1787	 0.24878775725683 
1788	 0.248744129462724 
1789	 0.248716012507724 
1790	 0.248665602735532 
1791	 0.248593858273896 
1792	 0.248528226505632 
1793	 0.248440695689103 
1794	 0.248388171991093 
1795	 0.248359824677314 
1796	 0.248336954284052 
1797	 0.248332724874642 
1798	 0.248320255958112 
1799	 0.248319315151908 
1800	 0.248301278419077 
1801	 0.24622513820974 
1802	 0.246390546646561 
1803	 0.246569242176176 
1804	 0.246789731658314 
1805	 0.247044100710365 
1806	 0.24727558772162 
1807	 0.247511787268266 
1808	 0.247709806136467 
1809	 0.247897199083474 
1810	 0.24804334327725 
1811	 0.248158827062052 
1812	 0.248251813123759 
1813	 0.248331852416464 
1814	 0.248365205328561 
1815	 0.248412018167733 
1816	 0.248472886672915 
1817	 0.248493882351821 
1818	 0.248478575512834 
1819	 0.248494109296754 
1820	 0.248508733496916 
1821	 0.248494798822246 
1822	 0.248521437059945 
1823	 0.24857829887452 
1824	 0.248634493155396 
1825	 0.248673366196983 
1826	 0.248695946886562 
1827	 0.248687819334226 
1828	 0.248668837172037 
1829	 0.248607906981238 
1830	 0.248572088038617 
1831	 0.248530904184201 
1832	 0.248511959757662 
1833	 0.248482706218449 
1834	 0.248450372474388 
1835	 0.248418743938112 
1836	 0.248368506788896 
1837	 0.248337306051371 
1838	 0.248311646219901 
1839	 0.24827320071334 
1840	 0.248228535122696 
1841	 0.248193330850109 
1842	 0.248155911466096 
1843	 0.248117718703291 
1844	 0.248069677249723 
1845	 0.247988428379973 
1846	 0.247893676881064 
1847	 0.247776599400491 
1848	 0.247647737399059 
1849	 0.247530719185849 
1850	 0.247410201619091 
1851	 0.247287884711749 
1852	 0.247151703160141 
1853	 0.247009563321289 
1854	 0.246847607569553 
1855	 0.246644270370464 
1856	 0.246420264228811 
1857	 0.246185763617099 
1858	 0.245949606618586 
1859	 0.245695638451102 
1860	 0.245401959357965 
1861	 0.245085397721136 
1862	 0.244739827279149 
1863	 0.244337966553296 
1864	 0.24391412565573 
1865	 0.243475160755618 
1866	 0.242986600070277 
1867	 0.242479544402539 
1868	 0.241925978030534 
1869	 0.241317040999592 
1870	 0.240679526986326 
1871	 0.239994720643421 
1872	 0.239268769862139 
1873	 0.238501789550738 
1874	 0.237682311887674 
1875	 0.236821224893393 
1876	 0.235914941813356 
1877	 0.23493266754812 
1878	 0.233878144769986 
1879	 0.23273691904645 
1880	 0.231515982772626 
1881	 0.23019007428379 
1882	 0.228827586654724 
1883	 0.227413690339496 
1884	 0.225889377340945 
1885	 0.22432512264041 
1886	 0.222665583163483 
1887	 0.220872433673421 
1888	 0.219038072781953 
1889	 0.217099171987014 
1890	 0.215095473850231 
1891	 0.213079098767462 
1892	 0.210996903679599 
1893	 0.208901772267791 
1894	 0.206778649651364 
1895	 0.204648842550938 
1896	 0.202460477367306 
1897	 0.200306452103216 
1898	 0.198138359220228 
1899	 0.195963875081138 
1900	 0.193867627528683 
1901	 0.191794602591994 
1902	 0.189799811007487 
1903	 0.18788643659259 
1904	 0.186030199200501 
1905	 0.184213966139008 
1906	 0.182497289657432 
1907	 0.180861494876686 
1908	 0.179294739595013 
1909	 0.177844580521799 
1910	 0.176463268458888 
1911	 0.175179667501309 
1912	 0.174003238285825 
1913	 0.172868882442121 
1914	 0.171811255446878 
1915	 0.170806273959287 
1916	 0.169862796635746 
1917	 0.168949826787734 
1918	 0.168132929187545 
1919	 0.167374588581973 
1920	 0.16669380140038 
1921	 0.166091009017805 
1922	 0.16553631559242 
1923	 0.165031246872103 
1924	 0.164576560917586 
1925	 0.164180383194445 
1926	 0.163827239301017 
1927	 0.163517088018219 
1928	 0.163259862815423 
1929	 0.163064358066237 
1930	 0.162894563441893 
1931	 0.162762042611937 
1932	 0.162668030826154 
1933	 0.162600625639426 
1934	 0.162565533345684 
1935	 0.162548796642653 
1936	 0.162555616500237 
1937	 0.162594978700603 
1938	 0.162665831689438 
1939	 0.162746188880315 
1940	 0.162844699006216 
1941	 0.162989300352791 
1942	 0.163127814663909 
1943	 0.163287463917743 
1944	 0.163486389142197 
1945	 0.16369665529833 
1946	 0.163932234454818 
1947	 0.164192469853003 
1948	 0.164471770840449 
1949	 0.16478826645822 
1950	 0.165094914095037 
1951	 0.165417073834628 
1952	 0.165734841949431 
1953	 0.166049177797475 
1954	 0.166388964558525 
1955	 0.166750911578807 
1956	 0.16713305049208 
1957	 0.167538955990125 
1958	 0.167988036803589 
1959	 0.168417489000915 
1960	 0.168862688590048 
1961	 0.169299636725371 
1962	 0.169725797536416 
1963	 0.170159199918092 
1964	 0.170587489228343 
1965	 0.171036072528412 
1966	 0.171495089347265 
1967	 0.171963451421108 
1968	 0.172439947458707 
1969	 0.172936368662053 
1970	 0.173420911401326 
1971	 0.173906702601575 
1972	 0.174394377396231 
1973	 0.174878996014293 
1974	 0.175375947874916 
1975	 0.175876120125768 
1976	 0.176383634632265 
1977	 0.176921547050255 
1978	 0.177434249916131 
1979	 0.177948322259067 
1980	 0.178463971059609 
1981	 0.178978115714531 
1982	 0.179483888723406 
1983	 0.179991071186808 
1984	 0.180506450204626 
1985	 0.181015885662339 
1986	 0.181509516804501 
1987	 0.182011340027554 
1988	 0.18251613740922 
1989	 0.183022928864081 
1990	 0.183539637345046 
1991	 0.184068815211489 
1992	 0.184585672793805 
1993	 0.185114602102649 
1994	 0.18562320250988 
1995	 0.186105652534533 
1996	 0.186610056773518 
1997	 0.187124623197393 
1998	 0.187627334051321 
1999	 0.188132209158259 
2000	 0.188634620820057 
2001	 0.189129784357738 
2002	 0.189618678439194 
2003	 0.190122023230924 
2004	 0.190624886753207 
2005	 0.19111706472909 
2006	 0.191605191897973 
2007	 0.192089796257706 
2008	 0.192568454329976 
2009	 0.193044470989589 
2010	 0.193515022440335 
2011	 0.193988301761952 
2012	 0.194454813186419 
2013	 0.19492334297682 
2014	 0.195398780882586 
2015	 0.195872751945854 
2016	 0.196328109511247 
2017	 0.196790527334079 
2018	 0.197241392228004 
2019	 0.197680506061438 
2020	 0.198120465302872 
2021	 0.198546751620326 
2022	 0.198990444205855 
2023	 0.199449726490529 
2024	 0.199893086658877 
2025	 0.200337542676929 
2026	 0.20078182597493 
2027	 0.201226094334094 
2028	 0.201645764754088 
2029	 0.202073486367074 
2030	 0.202513539005175 
2031	 0.202932061347988 
2032	 0.203333043879928 
2033	 0.203738410166159 
2034	 0.204137244642515 
2035	 0.204534627104312 
2036	 0.204944407072105 
2037	 0.205322878571757 
2038	 0.205693059421252 
2039	 0.206042829253921 
2040	 0.206363846126586 
2041	 0.206671068572612 
2042	 0.206966048542401 
2043	 0.207280601176799 
2044	 0.207617225532662 
2045	 0.207973710221329 
2046	 0.208322330194816 
2047	 0.208706880228334 
2048	 0.209047930842428 
2049	 0.209378680760724 
2050	 0.209685085167974 
2051	 0.209950012293525 
2052	 0.210233194978445 
2053	 0.210495496511392 
2054	 0.210771588018028 
2055	 0.211051114772632 
2056	 0.211354201325602 
2057	 0.21165528399802 
2058	 0.211962984668611 
2059	 0.212272703945852 
2060	 0.21260449551864 
2061	 0.212902760183958 
2062	 0.213181755674359 
2063	 0.213469836700435 
2064	 0.213748523048052 
2065	 0.214025238183926 
2066	 0.214312342627939 
2067	 0.214587521345976 
2068	 0.214847576225496 
2069	 0.215098790690704 
2070	 0.21537048121516 
2071	 0.215651655857261 
2072	 0.215921640585671 
2073	 0.216205223145976 
2074	 0.216465005442116 
2075	 0.216696716099919 
2076	 0.216953807487873 
2077	 0.217204878088711 
2078	 0.217473026372538 
2079	 0.217776606366243 
2080	 0.218049115537261 
2081	 0.218324905540326 
2082	 0.218581423488484 
2083	 0.218796093401909 
2084	 0.219032529848524 
2085	 0.219280751504069 
2086	 0.21953266307349 
2087	 0.219782428074509 
2088	 0.220051421280409 
2089	 0.220302790614354 
2090	 0.220548046491488 
2091	 0.220779676871804 
2092	 0.220999247592348 
2093	 0.22122547127701 
2094	 0.221424500019169 
2095	 0.22165222488337 
2096	 0.221904723414662 
2097	 0.222153362160632 
2098	 0.222420280046797 
2099	 0.22267890147468 
2100	 0.22291800745816 
2101	 0.223142849777391 
2102	 0.223376295616244 
2103	 0.223597169860806 
2104	 0.223823578661742 
2105	 0.224062360054618 
2106	 0.224287790439552 
2107	 0.224490652054368 
2108	 0.224718007904514 
2109	 0.224940142583919 
2110	 0.225190418929264 
2111	 0.225481904482823 
2112	 0.225750002203792 
2113	 0.22602114545737 
2114	 0.226302191541499 
2115	 0.226558126478142 
2116	 0.226791433764931 
2117	 0.227033395260307 
2118	 0.227276233178408 
2119	 0.227504379278085 
2120	 0.227729115029037 
2121	 0.227938922824455 
2122	 0.228123994197802 
2123	 0.22832401917845 
2124	 0.228530626855943 
2125	 0.228717995053991 
2126	 0.228912547625431 
2127	 0.229084226519765 
2128	 0.229226309013175 
2129	 0.229367457728315 
2130	 0.229496649063381 
2131	 0.229620245458665 
2132	 0.229747515737116 
2133	 0.229876441505683 
2134	 0.229987269976601 
2135	 0.23009601956983 
2136	 0.230192537931743 
2137	 0.23026612322039 
2138	 0.230347952870728 
2139	 0.230435255815654 
2140	 0.230505193828078 
2141	 0.230577032253873 
2142	 0.230622363017967 
2143	 0.230646020441274 
2144	 0.230663303352736 
2145	 0.230655618256237 
2146	 0.230650263897543 
2147	 0.230650214544477 
2148	 0.230621171668069 
2149	 0.23060679467263 
2150	 0.230597417647973 
2151	 0.230567562753069 
2152	 0.230534940321286 
2153	 0.230488948549385 
2154	 0.230419591752744 
2155	 0.230356533891667 
2156	 0.230301442394073 
2157	 0.230220704930409 
2158	 0.230138098269972 
2159	 0.230027221816232 
2160	 0.229867929317362 
2161	 0.229733107115878 
2162	 0.229585778487282 
2163	 0.229449748507379 
2164	 0.229315633169612 
2165	 0.229214395066749 
2166	 0.2290986268527 
2167	 0.228985771251189 
2168	 0.228864679360276 
2169	 0.228749583387072 
2170	 0.228618252552123 
2171	 0.228466843222239 
2172	 0.228331876772823 
2173	 0.228212404728116 
2174	 0.22806003108403 
2175	 0.227878334161713 
2176	 0.227730214904829 
2177	 0.227591806128496 
2178	 0.227430365392818 
2179	 0.227281884384285 
2180	 0.227129746370824 
2181	 0.226940741476526 
2182	 0.226764607978136 
2183	 0.226607067930848 
2184	 0.226445068622595 
2185	 0.226296503553318 
2186	 0.226140735562041 
2187	 0.2260076522273 
2188	 0.225898959609267 
2189	 0.225787665098073 
2190	 0.225690717941574 
2191	 0.225578194286628 
2192	 0.22545236090816 
2193	 0.225352238121571 
2194	 0.225250680695141 
2195	 0.225163370722715 
2196	 0.22511158913529 
2197	 0.225043342192834 
2198	 0.224957908859186 
2199	 0.224896455527214 
2200	 0.224849319602227 
2201	 0.224801242167292 
2202	 0.224764753873744 
2203	 0.224738925768182 
2204	 0.224697605951864 
2205	 0.224635498848651 
2206	 0.22461579335124 
2207	 0.224607595122798 
2208	 0.224604244854063 
2209	 0.224627329839126 
2210	 0.224647280128453 
2211	 0.22467075058764 
2212	 0.224691775322332 
2213	 0.224716637705714 
2214	 0.224748926355561 
2215	 0.224780605704877 
2216	 0.224811371924756 
2217	 0.224868530638077 
2218	 0.224898298867831 
2219	 0.224903582529988 
2220	 0.22491608711553 
2221	 0.224929359802612 
2222	 0.224923325132417 
2223	 0.224911056082431 
2224	 0.224920608983126 
2225	 0.224924883464456 
2226	 0.224923885547185 
2227	 0.224926560452806 
2228	 0.224927202001458 
2229	 0.224954166852628 
2230	 0.225003490639949 
2231	 0.225025865278195 
2232	 0.225068483139938 
2233	 0.225076616255964 
2234	 0.225046454050436 
2235	 0.225023555212858 
2236	 0.225002613663633 
2237	 0.224964239228032 
2238	 0.224890885047925 
2239	 0.224847386142569 
2240	 0.224803520630177 
2241	 0.224771264457232 
2242	 0.224765383212023 
2243	 0.224749466947245 
2244	 0.224722407875839 
2245	 0.224720884130019 
2246	 0.224687279555951 
2247	 0.224690887082946 
2248	 0.224679452039367 
2249	 0.224665961089698 
2250	 0.224652862985457 
2251	 0.224649108223919 
2252	 0.224616538822128 
2253	 0.224564473669493 
2254	 0.224529420337704 
2255	 0.224483155681619 
2256	 0.224447795936545 
2257	 0.224438783543729 
2258	 0.224404069079454 
2259	 0.224352748140996 
2260	 0.224305424971502 
2261	 0.224237730903917 
2262	 0.224195151759655 
2263	 0.224160709253388 
2264	 0.22413628285273 
2265	 0.224140936466327 
2266	 0.224131247971645 
2267	 0.224124705421234 
2268	 0.22410986396892 
2269	 0.224081195025078 
2270	 0.22406801998008 
2271	 0.22405109475738 
2272	 0.223982754500059 
2273	 0.223921149499824 
2274	 0.223821903842242 
2275	 0.223729437878002 
2276	 0.223626007154144 
2277	 0.223525548115852 
2278	 0.223413794179873 
2279	 0.223319523844344 
2280	 0.22321067839144 
2281	 0.223135153071692 
2282	 0.223085845016305 
2283	 0.223040247646476 
2284	 0.223030142162683 
2285	 0.22299003246256 
2286	 0.222946071790486 
2287	 0.222891679045195 
2288	 0.222817419326415 
2289	 0.222753473354029 
2290	 0.222694376752939 
2291	 0.222624469598522 
2292	 0.22253690408444 
2293	 0.222465277703756 
2294	 0.222400337349399 
2295	 0.222329811543851 
2296	 0.22228034186784 
2297	 0.222212265111349 
2298	 0.222100740651032 
2299	 0.221993972134061 
2300	 0.221892083238952 
2301	 0.221775866333607 
2302	 0.221678009649674 
2303	 0.221597041068495 
2304	 0.221476553736427 
2305	 0.221375260845024 
2306	 0.221252599613576 
2307	 0.221113124749779 
2308	 0.22096602627148 
2309	 0.220799693315739 
2310	 0.220648617832312 
2311	 0.220487125051401 
2312	 0.220354073893058 
2313	 0.220265379130574 
2314	 0.220120675296765 
2315	 0.21996064602193 
2316	 0.219804932126196 
2317	 0.219598927104493 
2318	 0.219443882047971 
2319	 0.219333419268206 
2320	 0.219192055359954 
2321	 0.21907064789474 
2322	 0.218908334742784 
2323	 0.218677769215404 
2324	 0.218517321435915 
2325	 0.218393130634722 
2326	 0.218243874268948 
2327	 0.218116399281729 
2328	 0.217995090488878 
2329	 0.217832244126446 
2330	 0.217635151617068 
2331	 0.217496668263427 
2332	 0.217341042723219 
2333	 0.217164519106022 
2334	 0.217033228955333 
2335	 0.216915110970385 
2336	 0.216793972208369 
2337	 0.216673788823796 
2338	 0.216517866912254 
2339	 0.216257581256264 
2340	 0.216013009892915 
2341	 0.215831229745423 
2342	 0.215621692738042 
2343	 0.215503129897937 
2344	 0.215445880878679 
2345	 0.215309697475376 
2346	 0.215154327903541 
2347	 0.214975222537648 
2348	 0.214750067354972 
2349	 0.214515474994451 
2350	 0.214261499871672 
2351	 0.214003365386073 
2352	 0.213704992632808 
2353	 0.213453779519419 
2354	 0.213214588222669 
2355	 0.212996588092664 
2356	 0.212840710382229 
2357	 0.21259848859856 
2358	 0.212331426690175 
2359	 0.21205478427246 
2360	 0.211707692630123 
2361	 0.211412642819885 
2362	 0.211134239346413 
2363	 0.210875157987 
2364	 0.210628636593091 
2365	 0.210391193702154 
2366	 0.210186826135648 
2367	 0.209955737089377 
2368	 0.209746037447067 
2369	 0.209494641640028 
2370	 0.209203085811149 
2371	 0.20893323361386 
2372	 0.208652728624819 
2373	 0.208335370612643 
2374	 0.208070994789982 
2375	 0.207809654930319 
2376	 0.207502523651308 
2377	 0.207203628049574 
2378	 0.206897494472802 
2379	 0.20658716499869 
2380	 0.206289918583891 
2381	 0.20601740545725 
2382	 0.205735580556621 
2383	 0.205369769608031 
2384	 0.20498544663421 
2385	 0.204633240154804 
2386	 0.204278592039415 
2387	 0.203942775902894 
2388	 0.203634600460085 
2389	 0.203312720400109 
2390	 0.202985834850364 
2391	 0.202713743863929 
2392	 0.202409699744016 
2393	 0.202097027630798 
2394	 0.201846949332187 
2395	 0.201495169104295 
2396	 0.201082372313735 
2397	 0.200713516715663 
2398	 0.200324580768278 
2399	 0.19996080140264 
2400	 0.199759923757039 
2401	 0.199541073848999 
2402	 0.199122612048708 
2403	 0.198775131768496 
2404	 0.198490462686548 
2405	 0.198112865879494 
2406	 0.197759617269411 
2407	 0.19742268402701 
2408	 0.196913004150741 
2409	 0.196400908524891 
2410	 0.196110351406176 
2411	 0.195739247628442 
2412	 0.195355116338343 
2413	 0.195051160163788 
2414	 0.194646001305838 
2415	 0.19428711894491 
2416	 0.193893992936226 
2417	 0.193485888444734 
2418	 0.193097237816293 
2419	 0.192649443930375 
2420	 0.192279921469785 
2421	 0.192032678075492 
2422	 0.191710773055923 
2423	 0.191411240081136 
2424	 0.191019237044365 
2425	 0.190532206733411 
2426	 0.190071681791773 
2427	 0.189547948615982 
2428	 0.189104027766458 
2429	 0.188732996841581 
2430	 0.188307679926852 
2431	 0.187869113174319 
2432	 0.187443947758137 
2433	 0.186984082626981 
2434	 0.186580365118527 
2435	 0.186198188888097 
2436	 0.185841663914786 
2437	 0.185581573042214 
2438	 0.185239015274349 
2439	 0.184889652924 
2440	 0.184523706865769 
2441	 0.184059371200019 
2442	 0.183685129431671 
2443	 0.183381802395407 
2444	 0.18297908922747 
2445	 0.182549008042423 
2446	 0.182187013198205 
2447	 0.181813562323287 
2448	 0.181400901672787 
2449	 0.181033413476603 
2450	 0.180639462969799 
2451	 0.180200420204366 
2452	 0.179767401376978 
2453	 0.179288767067108 
2454	 0.178908284012383 
2455	 0.178559868240773 
2456	 0.178142838163948 
2457	 0.177814150795525 
2458	 0.177469666921691 
2459	 0.177006129578409 
2460	 0.17661837639916 
2461	 0.176300100038993 
2462	 0.176041305338904 
2463	 0.175830775650279 
2464	 0.175529877486687 
2465	 0.175272960827475 
2466	 0.174993534207015 
2467	 0.174605126291855 
2468	 0.174297982858844 
2469	 0.174139629520645 
2470	 0.173667189244946 
2471	 0.17309815789867 
2472	 0.172582067568189 
2473	 0.172267403529796 
2474	 0.172016515705166 
2475	 0.171745731862793 
2476	 0.171451327179639 
2477	 0.171029614421646 
2478	 0.170717171542916 
2479	 0.170431043171811 
2480	 0.170064892983428 
2481	 0.169834987530286 
2482	 0.169413154458389 
2483	 0.169002024359617 
2484	 0.168811439428966 
2485	 0.168440669036397 
2486	 0.168049698582005 
2487	 0.167737820908662 
2488	 0.167313164671497 
2489	 0.166873123518634 
2490	 0.166526766879413 
2491	 0.166266413167729 
2492	 0.16609970837768 
2493	 0.165880012857406 
2494	 0.165649763776448 
2495	 0.165698462988021 
2496	 0.165720432097181 
2497	 0.165560184284137 
2498	 0.165485580274678 
2499	 0.165184222350479 
2500	 0.164685795964954 
