Wavelength	mm23-200004.asd
350	 5.20563959827886E-02 
351	 5.14033998043832E-02 
352	 4.09316148878482E-02 
353	 3.31790726034896E-02 
354	 5.10592645724861E-02 
355	 5.74063741468449E-02 
356	 5.11569465617214E-02 
357	 4.32251152801131E-02 
358	 4.77321694623546E-02 
359	 4.90534672771155E-02 
360	 4.58533661391832E-02 
361	 4.59649352684296E-02 
362	 4.41591151597529E-02 
363	 4.44503003325632E-02 
364	 4.75241437926586E-02 
365	 4.75300043161849E-02 
366	 4.59784535584957E-02 
367	 4.55361450415993E-02 
368	 4.77729175900602E-02 
369	 0.049065754526424 
370	 4.83642137931295E-02 
371	 4.76421975596732E-02 
372	 5.01833854046578E-02 
373	 4.99349436100245E-02 
374	 4.98701655936067E-02 
375	 5.19088722542036E-02 
376	 5.44314723462302E-02 
377	 0.052757788199728 
378	 5.27363338664409E-02 
379	 5.91845842264488E-02 
380	 5.85713204370064E-02 
381	 5.73508053405635E-02 
382	 5.87583500177101E-02 
383	 6.24219197959857E-02 
384	 6.14099266720827E-02 
385	 6.01848867753356E-02 
386	 6.19967657159017E-02 
387	 6.46877390140327E-02 
388	 6.66953075786354E-02 
389	 6.83502491845836E-02 
390	 7.06344145487238E-02 
391	 7.42721212954614E-02 
392	 7.62486740030466E-02 
393	 7.69263153170729E-02 
394	 7.93961956236783E-02 
395	 8.18734524437663E-02 
396	 8.48640615364251E-02 
397	 8.80941126620495E-02 
398	 8.86199610402169E-02 
399	 9.10204437665358E-02 
400	 9.44714286276326E-02 
401	 9.66078924521346E-02 
402	 9.87113178253008E-02 
403	 0.100847361453161 
404	 0.103125496340784 
405	 0.105767739444624 
406	 0.10755932835373 
407	 0.108487202130564 
408	 0.108882827274637 
409	 0.109109607326862 
410	 0.109693721748126 
411	 0.110149150668873 
412	 0.109782700217005 
413	 0.110223772823009 
414	 0.110239178872861 
415	 0.109291913634932 
416	 0.108022771399313 
417	 0.10663825386041 
418	 0.105695456643459 
419	 0.105399638553547 
420	 0.104837941622469 
421	 0.103150796851702 
422	 0.101133177451745 
423	 0.100424677778955 
424	 9.95599341616757E-02 
425	 9.81098574855774E-02 
426	 9.61943449700643E-02 
427	 9.45690819649674E-02 
428	 9.33122548976787E-02 
429	 0.092305189385371 
430	 9.13859146913772E-02 
431	 9.06008957524069E-02 
432	 9.04253612721058E-02 
433	 9.10530087464893E-02 
434	 9.23757450571121E-02 
435	 9.38442688104751E-02 
436	 9.56991854073095E-02 
437	 9.79517745318405E-02 
438	 0.099419855191159 
439	 0.101826843072269 
440	 0.104920107162169 
441	 0.107583047156544 
442	 0.110572263442926 
443	 0.113814968773564 
444	 0.117072755546827 
445	 0.119958349406548 
446	 0.123188364293468 
447	 0.126618270488212 
448	 0.129905020958739 
449	 0.133036410098155 
450	 0.136174163758495 
451	 0.139468455584243 
452	 0.143024257432109 
453	 0.14620434430634 
454	 0.149195664194072 
455	 0.152265255929379 
456	 0.155500931014974 
457	 0.158601000808268 
458	 0.161668104767687 
459	 0.164911460455291 
460	 0.167869008140257 
461	 0.170755700199922 
462	 0.173790778424369 
463	 0.177114388273116 
464	 0.180121831213099 
465	 0.18300567661169 
466	 0.186061449157946 
467	 0.188983195500229 
468	 0.192060594125093 
469	 0.195176375652956 
470	 0.197921062840695 
471	 0.200873245984301 
472	 0.203665458553143 
473	 0.206102107950343 
474	 0.208727149751525 
475	 0.211452209486044 
476	 0.214142725746778 
477	 0.21668046862168 
478	 0.219350107780761 
479	 0.221900089275951 
480	 0.224217743466589 
481	 0.226448620125071 
482	 0.228664067490362 
483	 0.230875572738101 
484	 0.233056379578512 
485	 0.23517553651821 
486	 0.237057297298598 
487	 0.238757874987161 
488	 0.240518146526178 
489	 0.242216470371258 
490	 0.243755940809552 
491	 0.245157504038164 
492	 0.246744475294697 
493	 0.248053383994291 
494	 0.249192721413349 
495	 0.25048907235751 
496	 0.251696062885381 
497	 0.252597727653382 
498	 0.253340309851195 
499	 0.254618684016099 
500	 0.255379232625615 
501	 0.255907186260532 
502	 0.256716677958342 
503	 0.257476020545714 
504	 0.258040093336272 
505	 0.258504338030335 
506	 0.259158673949153 
507	 0.259772773317553 
508	 0.260328796998453 
509	 0.26081459480445 
510	 0.261110231849758 
511	 0.261344018965083 
512	 0.261667470948269 
513	 0.262178125979724 
514	 0.262377951085086 
515	 0.262665308270258 
516	 0.263144258596273 
517	 0.263233566503678 
518	 0.26345890919942 
519	 0.263743111462246 
520	 0.263888582179363 
521	 0.264138820338505 
522	 0.264465432187864 
523	 0.264757616088376 
524	 0.264843441832229 
525	 0.265026128542962 
526	 0.2652313362674 
527	 0.265362302820352 
528	 0.265523167497629 
529	 0.265786209884299 
530	 0.266100613504525 
531	 0.266333557827405 
532	 0.26639138890195 
533	 0.266599718852305 
534	 0.267057221079528 
535	 0.26727339170759 
536	 0.267514599980045 
537	 0.26777386158255 
538	 0.267971887703669 
539	 0.268231734584546 
540	 0.268578441246232 
541	 0.268923330614745 
542	 0.269034499650454 
543	 0.269315403013861 
544	 0.269746402239442 
545	 0.270184339812987 
546	 0.270518861134896 
547	 0.270844563655443 
548	 0.271207050587611 
549	 0.271603310069272 
550	 0.272030394684828 
551	 0.272477564650275 
552	 0.272925614770685 
553	 0.27333313953911 
554	 0.273741772550369 
555	 0.274213239890083 
556	 0.274800039343265 
557	 0.275380317038526 
558	 0.275934678188698 
559	 0.276483133938691 
560	 0.277093656683788 
561	 0.277672276394485 
562	 0.278267043273894 
563	 0.27895251766168 
564	 0.279668567396603 
565	 0.280325349720504 
566	 0.280995686236579 
567	 0.281926515908923 
568	 0.282800184333644 
569	 0.283570864444884 
570	 0.284295271409636 
571	 0.285127025682508 
572	 0.285985389214949 
573	 0.286877908752078 
574	 0.287858913063341 
575	 0.288737461601797 
576	 0.289586535026651 
577	 0.29046115367802 
578	 0.291265806455068 
579	 0.292146385518548 
580	 0.293122522856098 
581	 0.29417511555947 
582	 0.295436908672319 
583	 0.296717648743886 
584	 0.297891712297478 
585	 0.298970981960571 
586	 0.299937014456429 
587	 0.300875061007312 
588	 0.301881128055849 
589	 0.302967114705258 
590	 0.303995661238524 
591	 0.304991899632694 
592	 0.306126161272774 
593	 0.307237697952116 
594	 0.30830531613315 
595	 0.309341669479622 
596	 0.310360257092931 
597	 0.311473813805568 
598	 0.312665152667725 
599	 0.313848455059593 
600	 0.315019547383335 
601	 0.316125725121436 
602	 0.317138753736328 
603	 0.318078285097414 
604	 0.31901870487551 
605	 0.319960306663124 
606	 0.320893112252062 
607	 0.321928158913421 
608	 0.322911721750464 
609	 0.323804221201537 
610	 0.324714750719009 
611	 0.325725292716806 
612	 0.326747435123939 
613	 0.32765088901757 
614	 0.32832356824707 
615	 0.329029056099108 
616	 0.329797250757899 
617	 0.330492441797881 
618	 0.331188064805835 
619	 0.331874123286282 
620	 0.332530459535002 
621	 0.33313130464276 
622	 0.333725057477916 
623	 0.33432315809565 
624	 0.334922424789923 
625	 0.335539197152326 
626	 0.336057525316931 
627	 0.336499597998623 
628	 0.337078410366202 
629	 0.337616267945569 
630	 0.338113918574042 
631	 0.338617869359991 
632	 0.339153312708803 
633	 0.339674605366802 
634	 0.340163923814617 
635	 0.340630263227185 
636	 0.341088642789926 
637	 0.341571343809524 
638	 0.342068746727982 
639	 0.342453201038663 
640	 0.342924430970586 
641	 0.343422221811218 
642	 0.343797458000674 
643	 0.344236735385352 
644	 0.344683824914533 
645	 0.345119206497027 
646	 0.345613201794367 
647	 0.345980961953103 
648	 0.346320733792508 
649	 0.346769060481904 
650	 0.347258029058983 
651	 0.347619832796544 
652	 0.34793164756837 
653	 0.348463900162453 
654	 0.348951540611862 
655	 0.349360518789372 
656	 0.349742178733406 
657	 0.350265638836241 
658	 0.350654932082115 
659	 0.350982724502412 
660	 0.351449842439364 
661	 0.351832361795114 
662	 0.352252820434914 
663	 0.3527391258606 
664	 0.353135144786624 
665	 0.353569314630566 
666	 0.354016312445471 
667	 0.354422173503914 
668	 0.354792156633153 
669	 0.355237093901219 
670	 0.355728884905354 
671	 0.356128362199424 
672	 0.35650382934086 
673	 0.356884278627507 
674	 0.357290452363988 
675	 0.357741945277291 
676	 0.358195774235777 
677	 0.358619188671608 
678	 0.358995158941415 
679	 0.359361579803587 
680	 0.35977680533032 
681	 0.360235955737081 
682	 0.360651786411645 
683	 0.361127994573692 
684	 0.361539398189009 
685	 0.361813868308032 
686	 0.362284263584798 
687	 0.3627459606896 
688	 0.363151250567747 
689	 0.363567375057494 
690	 0.363965267541938 
691	 0.364362160815894 
692	 0.364774668207271 
693	 0.365212472749259 
694	 0.365604514767888 
695	 0.366012770655961 
696	 0.366493533154489 
697	 0.366778449742509 
698	 0.36708684632578 
699	 0.367493981015023 
700	 0.367892227577874 
701	 0.368234296505329 
702	 0.368563303750242 
703	 0.368923715688167 
704	 0.369302551995355 
705	 0.36966879152439 
706	 0.369995470142599 
707	 0.370274101035537 
708	 0.370611720942471 
709	 0.370948418117921 
710	 0.371242646123351 
711	 0.371506268774134 
712	 0.371774839264314 
713	 0.372005792764384 
714	 0.37218487237992 
715	 0.372492038130559 
716	 0.372793162116509 
717	 0.373015518645476 
718	 0.373152555458784 
719	 0.373349735482764 
720	 0.373524054365962 
721	 0.373617969625996 
722	 0.37368232728295 
723	 0.373812808019745 
724	 0.373952680965828 
725	 0.374009230726022 
726	 0.374018199948541 
727	 0.374009459891462 
728	 0.374006974438894 
729	 0.374022504119356 
730	 0.373956670070173 
731	 0.373867274027745 
732	 0.373788552511185 
733	 0.373617109631193 
734	 0.373490813524554 
735	 0.37337172154457 
736	 0.373163307935255 
737	 0.372899122810579 
738	 0.372631562865198 
739	 0.372363432536983 
740	 0.372043241792679 
741	 0.371717372302551 
742	 0.37134359137732 
743	 0.370908909442412 
744	 0.370535059981082 
745	 0.370092243635119 
746	 0.369605754385324 
747	 0.369159145012389 
748	 0.368682680826535 
749	 0.368151595429175 
750	 0.367604740263106 
751	 0.367146717365446 
752	 0.36654697880193 
753	 0.36585270746807 
754	 0.365169545222173 
755	 0.364571677274853 
756	 0.363949802214977 
757	 0.363285351051923 
758	 0.362605088771913 
759	 0.361877328391179 
760	 0.36114358407842 
761	 0.360418714075477 
762	 0.359676596145097 
763	 0.358994758464177 
764	 0.358272372963815 
765	 0.357441346728557 
766	 0.356638593176436 
767	 0.355920307197383 
768	 0.355176193274316 
769	 0.354262454482072 
770	 0.353466531707118 
771	 0.352691231318344 
772	 0.351867821311075 
773	 0.351007673729836 
774	 0.350228626581924 
775	 0.349447907057085 
776	 0.348600357367021 
777	 0.347799834014586 
778	 0.347004440196173 
779	 0.346201315222221 
780	 0.345389058733546 
781	 0.344558668406543 
782	 0.343749332112786 
783	 0.342945595611424 
784	 0.342081085841395 
785	 0.341298164057374 
786	 0.340550182639513 
787	 0.339779125160919 
788	 0.338985259622368 
789	 0.338268194474361 
790	 0.337538390835857 
791	 0.336690792223168 
792	 0.33594095357759 
793	 0.335204888516252 
794	 0.334465028479483 
795	 0.333762383088975 
796	 0.332928530855211 
797	 0.332170089923397 
798	 0.331580779455476 
799	 0.33094921449647 
800	 0.330269289004164 
801	 0.329532213150073 
802	 0.328773826797102 
803	 0.328160314796588 
804	 0.327602877249462 
805	 0.327003179740764 
806	 0.326291522170234 
807	 0.325627451070106 
808	 0.32502925659808 
809	 0.324463686629245 
810	 0.323854976543913 
811	 0.323276925802506 
812	 0.322680682389031 
813	 0.322058359551838 
814	 0.321593247025436 
815	 0.321099676854096 
816	 0.320557795451825 
817	 0.320015397511013 
818	 0.319456302011639 
819	 0.319012483029929 
820	 0.318595975675072 
821	 0.317972587953169 
822	 0.317585228817452 
823	 0.31709800709345 
824	 0.31643897649297 
825	 0.31615041549028 
826	 0.315855689831642 
827	 0.315457222180856 
828	 0.314973283341906 
829	 0.314530344049638 
830	 0.314097946622228 
831	 0.313712033429917 
832	 0.313417837115332 
833	 0.313145866660952 
834	 0.31282248588315 
835	 0.312452357534268 
836	 0.312112977297491 
837	 0.311817898750167 
838	 0.311560980245845 
839	 0.311311005300287 
840	 0.311005865968755 
841	 0.310660031671379 
842	 0.310375684233414 
843	 0.310210316286071 
844	 0.310018331556546 
845	 0.309790646113532 
846	 0.309515970222671 
847	 0.30922934471278 
848	 0.309186056420387 
849	 0.309135097625489 
850	 0.308962473754261 
851	 0.308717456106784 
852	 0.308514252933752 
853	 0.308426855165343 
854	 0.30840196266675 
855	 0.308227887550651 
856	 0.308146585858954 
857	 0.308066578496944 
858	 0.307925500496077 
859	 0.307939067268152 
860	 0.307994734805526 
861	 0.307944173908134 
862	 0.307732592364659 
863	 0.307738029237579 
864	 0.307815253394475 
865	 0.30784514242266 
866	 0.307772572897851 
867	 0.307784136605656 
868	 0.307828201727238 
869	 0.307887018851381 
870	 0.307992319255558 
871	 0.308042012805219 
872	 0.308167608537102 
873	 0.308386491965516 
874	 0.308478702031433 
875	 0.308566648190897 
876	 0.308685195993788 
877	 0.308838493976398 
878	 0.308999444036519 
879	 0.309247656078354 
880	 0.309497824535489 
881	 0.309660701883496 
882	 0.309891110066419 
883	 0.310071421865243 
884	 0.310249669125112 
885	 0.310542089092923 
886	 0.310868523028038 
887	 0.311150920200297 
888	 0.311349739391382 
889	 0.311490366294155 
890	 0.311840815242306 
891	 0.31224825672573 
892	 0.312628400786378 
893	 0.313051576898804 
894	 0.313401067575904 
895	 0.313754150088564 
896	 0.314147544495991 
897	 0.314475422302463 
898	 0.314947169583291 
899	 0.315445638021509 
900	 0.315854741391742 
901	 0.316299491150865 
902	 0.316760205732508 
903	 0.317249125643662 
904	 0.317767562002579 
905	 0.318252059399581 
906	 0.318762087912581 
907	 0.319300260717054 
908	 0.319854614933159 
909	 0.320502607255008 
910	 0.321114903302897 
911	 0.321682974184923 
912	 0.322272309152474 
913	 0.322795566559057 
914	 0.323425643373823 
915	 0.324147983246069 
916	 0.324783637696915 
917	 0.325428130505032 
918	 0.326088530474766 
919	 0.326738952794867 
920	 0.327341791879771 
921	 0.328121560438713 
922	 0.3289006663965 
923	 0.329598694674454 
924	 0.330378404993125 
925	 0.331207469049591 
926	 0.33199982781253 
927	 0.332714344250207 
928	 0.333411220935304 
929	 0.334325950996753 
930	 0.335299948413026 
931	 0.336175868209686 
932	 0.337065433638018 
933	 0.337873921437537 
934	 0.338645779240115 
935	 0.339479289521324 
936	 0.340518292282766 
937	 0.34135392963844 
938	 0.342143085379556 
939	 0.343143245507156 
940	 0.344240228215102 
941	 0.345270072511516 
942	 0.346227299177704 
943	 0.347191801301362 
944	 0.348264716194726 
945	 0.349221191414554 
946	 0.350154714001298 
947	 0.351242203664455 
948	 0.35232913830436 
949	 0.35334519933278 
950	 0.354337161431087 
951	 0.355408906129255 
952	 0.356618558082387 
953	 0.357639380237755 
954	 0.358616761498566 
955	 0.359869500451279 
956	 0.361054232243303 
957	 0.36217392350126 
958	 0.363270414431307 
959	 0.364397410381565 
960	 0.365563536613459 
961	 0.366792931385358 
962	 0.368025789111585 
963	 0.369173878515994 
964	 0.370325974843759 
965	 0.371519879241903 
966	 0.372761990248626 
967	 0.374028611942646 
968	 0.375262524858993 
969	 0.376445859013828 
970	 0.377640208474705 
971	 0.37889769914415 
972	 0.379909254811142 
973	 0.381140937235534 
974	 0.382589573142737 
975	 0.383930580800946 
976	 0.385232579892186 
977	 0.386542190618754 
978	 0.387874199520727 
979	 0.389227174593106 
980	 0.390662861270991 
981	 0.392062776294182 
982	 0.393351162054255 
983	 0.394553675846148 
984	 0.395970747029159 
985	 0.397419156166292 
986	 0.39880021500324 
987	 0.400119398383649 
988	 0.401530269440253 
989	 0.402895503543929 
990	 0.404169311663872 
991	 0.405407967198259 
992	 0.406793518229758 
993	 0.408315710791429 
994	 0.409763449350049 
995	 0.410998321687536 
996	 0.412522971429533 
997	 0.413965441683086 
998	 0.415287667743601 
999	 0.416616686892687 
1000	 0.418089808697002 
1001	 0.419932808138655 
1002	 0.421213732472308 
1003	 0.422467316967986 
1004	 0.42374718013007 
1005	 0.425064240261799 
1006	 0.426358266510401 
1007	 0.427652144367831 
1008	 0.428942677639312 
1009	 0.43017427389862 
1010	 0.431353834062946 
1011	 0.432555594393642 
1012	 0.433785621667628 
1013	 0.435044421746404 
1014	 0.43625896713675 
1015	 0.437430883457369 
1016	 0.438583840890542 
1017	 0.439791378960527 
1018	 0.440996117533497 
1019	 0.442239225922778 
1020	 0.443488985338008 
1021	 0.444698164787885 
1022	 0.445822897517613 
1023	 0.446926491838506 
1024	 0.448002943176235 
1025	 0.449103774634638 
1026	 0.450249901016425 
1027	 0.451335107589777 
1028	 0.452414725246271 
1029	 0.453481536596245 
1030	 0.454479661496304 
1031	 0.455475817454695 
1032	 0.456449587188068 
1033	 0.457425049335752 
1034	 0.458423320399803 
1035	 0.459402769588029 
1036	 0.460393394209257 
1037	 0.461441580069498 
1038	 0.462426378598126 
1039	 0.463395551191111 
1040	 0.464360427745272 
1041	 0.465244424472418 
1042	 0.466153195780957 
1043	 0.46707865791154 
1044	 0.467979724315317 
1045	 0.468854539588314 
1046	 0.469787204778632 
1047	 0.470728025144348 
1048	 0.471640808247385 
1049	 0.472625515745273 
1050	 0.473577347509679 
1051	 0.47442093075523 
1052	 0.475306423281278 
1053	 0.476175145826942 
1054	 0.477040519491073 
1055	 0.478000439030585 
1056	 0.478882049138348 
1057	 0.479768555309422 
1058	 0.48067103354599 
1059	 0.481535074720147 
1060	 0.482341608486362 
1061	 0.483211822116623 
1062	 0.48405440877685 
1063	 0.484850099474835 
1064	 0.485710758107846 
1065	 0.486555807555552 
1066	 0.48738445357256 
1067	 0.488206847159159 
1068	 0.489007794109483 
1069	 0.489863715222211 
1070	 0.490699628714275 
1071	 0.491544965848088 
1072	 0.492367393143932 
1073	 0.493183500734504 
1074	 0.493966224709506 
1075	 0.494705004865767 
1076	 0.495502368559181 
1077	 0.496263032640585 
1078	 0.496956512676577 
1079	 0.497677790492808 
1080	 0.498410788889521 
1081	 0.499119615192474 
1082	 0.499870457201174 
1083	 0.500596869511127 
1084	 0.50130684961537 
1085	 0.50201487937825 
1086	 0.502718674088677 
1087	 0.503398831494618 
1088	 0.504051231691196 
1089	 0.504752097176926 
1090	 0.505408702609458 
1091	 0.50606837032176 
1092	 0.506710749837204 
1093	 0.50729814692647 
1094	 0.507909852447536 
1095	 0.508511907185162 
1096	 0.50912395004339 
1097	 0.509753891354317 
1098	 0.51035475855951 
1099	 0.510948455087275 
1100	 0.511518120562724 
1101	 0.512054401892948 
1102	 0.512603827157311 
1103	 0.51314693385642 
1104	 0.513675818098635 
1105	 0.514220159524105 
1106	 0.51477682644686 
1107	 0.515295702543834 
1108	 0.515783065103463 
1109	 0.516283209236185 
1110	 0.516779844756856 
1111	 0.517297763774094 
1112	 0.517860569018986 
1113	 0.518375292293299 
1114	 0.518868867990962 
1115	 0.519371137836077 
1116	 0.51985812718316 
1117	 0.52034318124482 
1118	 0.520830437895629 
1119	 0.521325893179922 
1120	 0.52180972583613 
1121	 0.522269855295461 
1122	 0.52274758936048 
1123	 0.523262576370972 
1124	 0.523726048940048 
1125	 0.524167831757157 
1126	 0.524614314564079 
1127	 0.525040731951031 
1128	 0.525454068736084 
1129	 0.525878258434297 
1130	 0.526294454722969 
1131	 0.526679908284844 
1132	 0.527071285971153 
1133	 0.527473272176023 
1134	 0.527855651620089 
1135	 0.528209398200336 
1136	 0.528599777248584 
1137	 0.52897201777772 
1138	 0.529305488867184 
1139	 0.529632527711115 
1140	 0.529942820123734 
1141	 0.530243177548238 
1142	 0.530528688982272 
1143	 0.530807852030728 
1144	 0.531101887500557 
1145	 0.53133314475769 
1146	 0.531516138554272 
1147	 0.531715590532086 
1148	 0.531897879384095 
1149	 0.532057394578535 
1150	 0.532213827407275 
1151	 0.532368120718628 
1152	 0.532471056767095 
1153	 0.532550356041688 
1154	 0.53268386604492 
1155	 0.532828945107156 
1156	 0.532995457218919 
1157	 0.533206266458493 
1158	 0.533390205013795 
1159	 0.533590713707507 
1160	 0.53376310828152 
1161	 0.533901281012178 
1162	 0.534067078276995 
1163	 0.534227483750025 
1164	 0.534397526965085 
1165	 0.534571351022311 
1166	 0.534777328571208 
1167	 0.534977019461174 
1168	 0.535198815814954 
1169	 0.535418277365126 
1170	 0.535657236947781 
1171	 0.535885714077784 
1172	 0.536116266510961 
1173	 0.536335822805858 
1174	 0.536536154910483 
1175	 0.536769577014337 
1176	 0.537022423947483 
1177	 0.537254401294474 
1178	 0.537480113220586 
1179	 0.53773793724235 
1180	 0.5379856471399 
1181	 0.538252385202527 
1182	 0.538562882047106 
1183	 0.538885854070611 
1184	 0.539163599868705 
1185	 0.539412780042299 
1186	 0.539686886567683 
1187	 0.539961879040134 
1188	 0.540215427835005 
1189	 0.540469585037905 
1190	 0.540724114549318 
1191	 0.540958626715366 
1192	 0.541195458004492 
1193	 0.541446548199915 
1194	 0.541685912385692 
1195	 0.541905655156595 
1196	 0.54212889177782 
1197	 0.54234530890197 
1198	 0.542577525108178 
1199	 0.54281534716246 
1200	 0.543061584354242 
1201	 0.543285562678168 
1202	 0.54351247935423 
1203	 0.543735984303282 
1204	 0.543933454764998 
1205	 0.544152581712325 
1206	 0.544392553987416 
1207	 0.544620115568984 
1208	 0.544860575857597 
1209	 0.5450681298319 
1210	 0.545260891644754 
1211	 0.545446949284991 
1212	 0.545585256346258 
1213	 0.545759910735933 
1214	 0.545973667794331 
1215	 0.546154602539072 
1216	 0.546327854873009 
1217	 0.546508001219694 
1218	 0.54666993520619 
1219	 0.546784022849891 
1220	 0.54695962160969 
1221	 0.547178171330905 
1222	 0.54735346782713 
1223	 0.547547291304351 
1224	 0.547705553918314 
1225	 0.547805430627944 
1226	 0.547943419942978 
1227	 0.548094610133878 
1228	 0.548237290176375 
1229	 0.548390284582859 
1230	 0.54853468343978 
1231	 0.548645198209017 
1232	 0.548790331204136 
1233	 0.548950841253729 
1234	 0.549137849873488 
1235	 0.549289416445454 
1236	 0.549453940642613 
1237	 0.549595128666485 
1238	 0.549700259282455 
1239	 0.549822674160625 
1240	 0.54994374281227 
1241	 0.550076846938374 
1242	 0.550223175663915 
1243	 0.55034778811872 
1244	 0.550475467871635 
1245	 0.550597247215897 
1246	 0.550679334055354 
1247	 0.550793823802464 
1248	 0.550920826615693 
1249	 0.551069554979137 
1250	 0.55121564382543 
1251	 0.551363460175724 
1252	 0.551493322914502 
1253	 0.551615192005592 
1254	 0.55172529140544 
1255	 0.551821563069797 
1256	 0.551919183672766 
1257	 0.552011076218755 
1258	 0.552093544334938 
1259	 0.552154999603018 
1260	 0.552240738625708 
1261	 0.552350122304199 
1262	 0.552425212655163 
1263	 0.552497370175677 
1264	 0.55256809723575 
1265	 0.552597794046832 
1266	 0.552646682567212 
1267	 0.552719566012531 
1268	 0.552781752444143 
1269	 0.552846474784326 
1270	 0.552905684939575 
1271	 0.552980079843438 
1272	 0.553059697949972 
1273	 0.553145789453527 
1274	 0.553256681921618 
1275	 0.553334997848732 
1276	 0.55338322981005 
1277	 0.553472251002372 
1278	 0.553547229204817 
1279	 0.553659295174751 
1280	 0.553839484714502 
1281	 0.553980626971866 
1282	 0.554117745345602 
1283	 0.554252560264809 
1284	 0.554384164855141 
1285	 0.554491614643126 
1286	 0.554613592238849 
1287	 0.554739654981893 
1288	 0.554865410237963 
1289	 0.554996421059641 
1290	 0.555115153947226 
1291	 0.555229195086498 
1292	 0.555340261894898 
1293	 0.555445235239744 
1294	 0.555541513708557 
1295	 0.555640075088296 
1296	 0.555728106605017 
1297	 0.555796124742513 
1298	 0.555869183752385 
1299	 0.555946854826307 
1300	 0.556008472470454 
1301	 0.556055697314676 
1302	 0.556112173824815 
1303	 0.55616838753825 
1304	 0.556219089904868 
1305	 0.556262527216216 
1306	 0.5562864852847 
1307	 0.556281109251007 
1308	 0.556256135987933 
1309	 0.556231018547226 
1310	 0.556202325405891 
1311	 0.556144858397009 
1312	 0.556078260717083 
1313	 0.555991385639467 
1314	 0.555883235990339 
1315	 0.555759087876235 
1316	 0.555610602335473 
1317	 0.55546094280771 
1318	 0.555285305776415 
1319	 0.555122204273502 
1320	 0.554990721399942 
1321	 0.554807809000953 
1322	 0.554596523289278 
1323	 0.554391418166121 
1324	 0.554154038840319 
1325	 0.553865441783936 
1326	 0.553603957077204 
1327	 0.553360549143765 
1328	 0.55305431494897 
1329	 0.552746947740574 
1330	 0.55241976578621 
1331	 0.552051351547127 
1332	 0.551691989042153 
1333	 0.551351212769101 
1334	 0.550966230984826 
1335	 0.55052996912008 
1336	 0.550145246615624 
1337	 0.549760079742234 
1338	 0.549375158679371 
1339	 0.549051625891811 
1340	 0.548659481680154 
1341	 0.548207911859827 
1342	 0.547780782480612 
1343	 0.547323305053059 
1344	 0.546890209541519 
1345	 0.546501172653763 
1346	 0.546134672899951 
1347	 0.545801277593634 
1348	 0.545450075499726 
1349	 0.545051699742154 
1350	 0.544656641743078 
1351	 0.544283260326772 
1352	 0.54389148148665 
1353	 0.543536845001541 
1354	 0.543235950821379 
1355	 0.542888170098031 
1356	 0.542526409575395 
1357	 0.542171139576742 
1358	 0.541782755179565 
1359	 0.54144108988922 
1360	 0.541124520178032 
1361	 0.540810122533281 
1362	 0.540539432335867 
1363	 0.540238681321809 
1364	 0.539918346943399 
1365	 0.539609195562337 
1366	 0.539298340351784 
1367	 0.538979598733661 
1368	 0.538688561308601 
1369	 0.538390518944486 
1370	 0.53804624471607 
1371	 0.537674311867928 
1372	 0.5372506789777 
1373	 0.53680118075534 
1374	 0.536321935074162 
1375	 0.535833023424253 
1376	 0.535260579339543 
1377	 0.534659081346893 
1378	 0.533953338156656 
1379	 0.53314573566926 
1380	 0.532330668310668 
1381	 0.53144988983588 
1382	 0.530539875575241 
1383	 0.529633195778254 
1384	 0.528631100052255 
1385	 0.527601720805432 
1386	 0.526456032829325 
1387	 0.525242889473262 
1388	 0.523922015319526 
1389	 0.522508719974259 
1390	 0.520978681167768 
1391	 0.519362316358353 
1392	 0.517634928301201 
1393	 0.515767118978619 
1394	 0.513777725917705 
1395	 0.511662265813595 
1396	 0.509472570053022 
1397	 0.507212924512902 
1398	 0.504886994896636 
1399	 0.502446221850717 
1400	 0.499921417590537 
1401	 0.497286735340966 
1402	 0.494524223766356 
1403	 0.491726039101564 
1404	 0.488792911101574 
1405	 0.485938281230152 
1406	 0.483062246705878 
1407	 0.480170316161928 
1408	 0.477267250738267 
1409	 0.474400297127063 
1410	 0.47146092666656 
1411	 0.468662942419713 
1412	 0.465916389711955 
1413	 0.463289580611328 
1414	 0.460802009186438 
1415	 0.458360170123445 
1416	 0.456024218722928 
1417	 0.453749676939189 
1418	 0.4514954552433 
1419	 0.449331739284433 
1420	 0.447233788251712 
1421	 0.44522708439317 
1422	 0.443326308262715 
1423	 0.441445748832288 
1424	 0.439586867040423 
1425	 0.437766548555889 
1426	 0.436004162868762 
1427	 0.434245208307731 
1428	 0.432589276147322 
1429	 0.431039493644586 
1430	 0.429491027451082 
1431	 0.428021758951244 
1432	 0.426507951662084 
1433	 0.425000307657011 
1434	 0.423492693091118 
1435	 0.421959533504466 
1436	 0.420460160551689 
1437	 0.418993981327215 
1438	 0.417518143910479 
1439	 0.416064863277879 
1440	 0.414575865656969 
1441	 0.413054978859991 
1442	 0.411553159205689 
1443	 0.41007990245632 
1444	 0.40867287012414 
1445	 0.407344538451235 
1446	 0.406128080113253 
1447	 0.405040286985145 
1448	 0.404078540128973 
1449	 0.403283384328054 
1450	 0.402667748964319 
1451	 0.402275768772638 
1452	 0.402045597438986 
1453	 0.402079748242372 
1454	 0.402393137742677 
1455	 0.402806488431756 
1456	 0.403479754520744 
1457	 0.404146816964216 
1458	 0.404986437087602 
1459	 0.405756748985388 
1460	 0.406594531452263 
1461	 0.407356309705006 
1462	 0.408125977683626 
1463	 0.408796469618642 
1464	 0.409436342234309 
1465	 0.409976839524064 
1466	 0.410412865341297 
1467	 0.41080510383272 
1468	 0.411083374066997 
1469	 0.411382679089556 
1470	 0.411657019035735 
1471	 0.41189841319283 
1472	 0.412144527586586 
1473	 0.412376378822952 
1474	 0.412544336607672 
1475	 0.412704970867778 
1476	 0.412844912269937 
1477	 0.412965775275775 
1478	 0.413117132092909 
1479	 0.413277015849993 
1480	 0.413472386375222 
1481	 0.413680599139976 
1482	 0.41386828704721 
1483	 0.414060241548263 
1484	 0.414242851119747 
1485	 0.414395575915294 
1486	 0.414587827786824 
1487	 0.414792545006463 
1488	 0.415006302929857 
1489	 0.415249310147284 
1490	 0.415474868441789 
1491	 0.415714393104203 
1492	 0.415924027420662 
1493	 0.416102168256959 
1494	 0.416303818560823 
1495	 0.416508622835643 
1496	 0.416696404649773 
1497	 0.416905007128048 
1498	 0.417080327308704 
1499	 0.417225708070882 
1500	 0.417357028445648 
1501	 0.417465557823573 
1502	 0.41757243257119 
1503	 0.417653433109566 
1504	 0.417745082711253 
1505	 0.417861726894296 
1506	 0.417970245186279 
1507	 0.418072533045773 
1508	 0.418185273673663 
1509	 0.418270539521709 
1510	 0.418344921505198 
1511	 0.418414594471749 
1512	 0.418457169578574 
1513	 0.418503824469495 
1514	 0.418576516897395 
1515	 0.418663818688615 
1516	 0.418757355480743 
1517	 0.418855912721563 
1518	 0.418974686759123 
1519	 0.419058551646013 
1520	 0.419141589790414 
1521	 0.419203686286286 
1522	 0.41922043487277 
1523	 0.419278269526762 
1524	 0.419343865872838 
1525	 0.419415309798606 
1526	 0.419509721344862 
1527	 0.419588145777558 
1528	 0.419662465066634 
1529	 0.419731723904397 
1530	 0.419802436013619 
1531	 0.419867176699044 
1532	 0.419929721748193 
1533	 0.419975402631033 
1534	 0.420008138457059 
1535	 0.420037004137258 
1536	 0.420041028310472 
1537	 0.420068219470179 
1538	 0.420103501812996 
1539	 0.420142498684242 
1540	 0.42018907529309 
1541	 0.420241599993818 
1542	 0.420298623193125 
1543	 0.420356426951064 
1544	 0.420430526436502 
1545	 0.420494443478231 
1546	 0.420559353892314 
1547	 0.420613852425409 
1548	 0.420650663936558 
1549	 0.420673461749998 
1550	 0.420707770333965 
1551	 0.420751244400582 
1552	 0.420801442104258 
1553	 0.420876622601312 
1554	 0.420943149125471 
1555	 0.420974181173669 
1556	 0.420966938587137 
1557	 0.420952762483651 
1558	 0.420937839340577 
1559	 0.420904908252532 
1560	 0.420891339164238 
1561	 0.420905289957886 
1562	 0.420891040878698 
1563	 0.420858448202369 
1564	 0.420848915896314 
1565	 0.420848345622712 
1566	 0.420831238373604 
1567	 0.420817253614724 
1568	 0.420798933516626 
1569	 0.420752069441585 
1570	 0.420745041716917 
1571	 0.420770735047233 
1572	 0.420768521327835 
1573	 0.420770773236652 
1574	 0.420771025402036 
1575	 0.420754677211127 
1576	 0.420743473852679 
1577	 0.420755070788302 
1578	 0.420731332869203 
1579	 0.420666611751931 
1580	 0.420640810152143 
1581	 0.420621358603332 
1582	 0.420597176490205 
1583	 0.4206163141785 
1584	 0.420582776553437 
1585	 0.420505041857859 
1586	 0.420440428764718 
1587	 0.420353620776877 
1588	 0.420276795672276 
1589	 0.420215518062111 
1590	 0.420137167375632 
1591	 0.420065794362825 
1592	 0.419963329520827 
1593	 0.419825778146415 
1594	 0.419701276790528 
1595	 0.419570647045744 
1596	 0.419424525408618 
1597	 0.419275143233377 
1598	 0.419124329705294 
1599	 0.418964554623379 
1600	 0.418792726411206 
1601	 0.418616814980371 
1602	 0.418437950613574 
1603	 0.418226368272135 
1604	 0.418031966522594 
1605	 0.417874895372361 
1606	 0.417683803924089 
1607	 0.417471393256666 
1608	 0.417269455735623 
1609	 0.417057862167173 
1610	 0.416810634748515 
1611	 0.416571726309122 
1612	 0.416335332249012 
1613	 0.416078674759684 
1614	 0.415797991253024 
1615	 0.415514196779056 
1616	 0.415226988641075 
1617	 0.414905746210976 
1618	 0.414595940951134 
1619	 0.414304275047024 
1620	 0.413995421346821 
1621	 0.413700172841746 
1622	 0.413429295867078 
1623	 0.413116879924374 
1624	 0.412780065711592 
1625	 0.412469123208604 
1626	 0.412151501250063 
1627	 0.411833434271459 
1628	 0.411528997625098 
1629	 0.411220319998406 
1630	 0.410893915477958 
1631	 0.4105915359696 
1632	 0.410320744584564 
1633	 0.410003428068618 
1634	 0.409686594707777 
1635	 0.409323075963585 
1636	 0.408914417673006 
1637	 0.408520386473352 
1638	 0.408090379317976 
1639	 0.407702693311583 
1640	 0.40732269525274 
1641	 0.406970695559773 
1642	 0.406649062467861 
1643	 0.406320198672201 
1644	 0.406016085381584 
1645	 0.405688672849274 
1646	 0.40534621432221 
1647	 0.405018700325141 
1648	 0.404702725619958 
1649	 0.40435897899119 
1650	 0.404013152237717 
1651	 0.403656867347131 
1652	 0.403276925989558 
1653	 0.402894413276394 
1654	 0.402501542735446 
1655	 0.402126372726027 
1656	 0.401751637070315 
1657	 0.401365717735667 
1658	 0.400988964946988 
1659	 0.400608234748861 
1660	 0.400208966874114 
1661	 0.399815795593978 
1662	 0.399421937723778 
1663	 0.399052897607003 
1664	 0.398669967735739 
1665	 0.398334905855419 
1666	 0.398060440423469 
1667	 0.397752685372721 
1668	 0.397470418332724 
1669	 0.39714217374367 
1670	 0.39678741776695 
1671	 0.396426307720029 
1672	 0.396020439725297 
1673	 0.395661927502449 
1674	 0.395316610437194 
1675	 0.394976901077774 
1676	 0.394652639565052 
1677	 0.394346859725751 
1678	 0.394072240024699 
1679	 0.393753891781502 
1680	 0.393444001189593 
1681	 0.393109742486409 
1682	 0.392709742212911 
1683	 0.392367117642701 
1684	 0.39204061247617 
1685	 0.391733340016325 
1686	 0.391468774249093 
1687	 0.391169083421055 
1688	 0.390863238655807 
1689	 0.390568844311648 
1690	 0.390247372153676 
1691	 0.389968892708616 
1692	 0.389737515866255 
1693	 0.389477383555914 
1694	 0.389225141500901 
1695	 0.388959988866807 
1696	 0.388680162032872 
1697	 0.388400524949974 
1698	 0.388119302208989 
1699	 0.387834538390753 
1700	 0.387549133459663 
1701	 0.387246909253315 
1702	 0.386932139855712 
1703	 0.386624509593696 
1704	 0.386295002318774 
1705	 0.385993854705844 
1706	 0.385714497289357 
1707	 0.385426377392858 
1708	 0.385153794822165 
1709	 0.38486670876416 
1710	 0.384570782603382 
1711	 0.384275635838406 
1712	 0.383959746701269 
1713	 0.383676597270883 
1714	 0.383413252481507 
1715	 0.383141651703571 
1716	 0.382886774370977 
1717	 0.382627009533458 
1718	 0.38236653502141 
1719	 0.382086098613719 
1720	 0.381791850825136 
1721	 0.381522035262612 
1722	 0.381228268797583 
1723	 0.380983709035921 
1724	 0.380794123933188 
1725	 0.38057504022466 
1726	 0.380370083085107 
1727	 0.380139991282689 
1728	 0.379888635064883 
1729	 0.379648392381871 
1730	 0.379406819901786 
1731	 0.379155565452236 
1732	 0.378896431726566 
1733	 0.378658831183678 
1734	 0.378415921323238 
1735	 0.378184907347677 
1736	 0.377977277092221 
1737	 0.377765387719211 
1738	 0.377547200477036 
1739	 0.377342000490975 
1740	 0.377158565579739 
1741	 0.376954267678916 
1742	 0.376745515609548 
1743	 0.37653411180362 
1744	 0.376314948115029 
1745	 0.376089599359018 
1746	 0.375860871937866 
1747	 0.375621982403535 
1748	 0.375393886674739 
1749	 0.375170296408714 
1750	 0.374950484138244 
1751	 0.374740507564793 
1752	 0.374526294195797 
1753	 0.374329519441376 
1754	 0.374122512160827 
1755	 0.373928871660119 
1756	 0.373759871408818 
1757	 0.373561121720754 
1758	 0.373367664617208 
1759	 0.373177355504874 
1760	 0.373002936444804 
1761	 0.372877943057603 
1762	 0.372736871355645 
1763	 0.372596918756538 
1764	 0.372451724454289 
1765	 0.37226262956395 
1766	 0.3721101513275 
1767	 0.371952426050185 
1768	 0.371777909099541 
1769	 0.37166601291845 
1770	 0.371567810073792 
1771	 0.371494358494726 
1772	 0.371436248854495 
1773	 0.371335121339687 
1774	 0.371226615710605 
1775	 0.371134798226369 
1776	 0.37101632902025 
1777	 0.370895416378633 
1778	 0.370800376871766 
1779	 0.370662743837216 
1780	 0.370552415323516 
1781	 0.370487715701361 
1782	 0.370404375169642 
1783	 0.370391350280843 
1784	 0.37033795706712 
1785	 0.370268637551084 
1786	 0.370203784106644 
1787	 0.370117236021939 
1788	 0.370029695123012 
1789	 0.369959781791399 
1790	 0.369875822212003 
1791	 0.369756018257889 
1792	 0.369683202402048 
1793	 0.369607929076247 
1794	 0.3695834796858 
1795	 0.369624576767082 
1796	 0.36962251409417 
1797	 0.369634654718889 
1798	 0.369638332423798 
1799	 0.369617582162221 
1800	 0.369620036626943 
1801	 0.362304585962605 
1802	 0.36256695163309 
1803	 0.362859672082939 
1804	 0.363218165875945 
1805	 0.363624042318739 
1806	 0.364056983484955 
1807	 0.364465051391584 
1808	 0.364801068656077 
1809	 0.365091275591474 
1810	 0.365357756855093 
1811	 0.365568913519415 
1812	 0.36578014401247 
1813	 0.365963885804794 
1814	 0.366089737580455 
1815	 0.366190609626265 
1816	 0.366259920393067 
1817	 0.366342636168064 
1818	 0.366420358090023 
1819	 0.366506225656961 
1820	 0.366585648776908 
1821	 0.366688165616212 
1822	 0.366777078733992 
1823	 0.366823444580761 
1824	 0.366897460060751 
1825	 0.36692691659795 
1826	 0.366955633475025 
1827	 0.367018726681831 
1828	 0.367041576608188 
1829	 0.36703709444647 
1830	 0.367028416953476 
1831	 0.36700288312514 
1832	 0.366981681695717 
1833	 0.366935547202089 
1834	 0.36688065491215 
1835	 0.366812753723053 
1836	 0.366729685025508 
1837	 0.366645709502708 
1838	 0.36657197237438 
1839	 0.366534057809704 
1840	 0.366528381128313 
1841	 0.366522763101874 
1842	 0.366525330057719 
1843	 0.366540852523329 
1844	 0.366517981134483 
1845	 0.366446436267691 
1846	 0.366382374706472 
1847	 0.366313072977321 
1848	 0.366233673236738 
1849	 0.36614569113252 
1850	 0.366040553165593 
1851	 0.365916381073412 
1852	 0.365786186911836 
1853	 0.365638794442674 
1854	 0.365471380826095 
1855	 0.365274791455289 
1856	 0.36500108288224 
1857	 0.364686016794052 
1858	 0.364381273940168 
1859	 0.364031108937296 
1860	 0.363628000923418 
1861	 0.363196493682465 
1862	 0.362727505249129 
1863	 0.362179413711679 
1864	 0.361601634756114 
1865	 0.36101613557615 
1866	 0.360359322783767 
1867	 0.35963657999544 
1868	 0.358842501995415 
1869	 0.357961829438448 
1870	 0.357054652967001 
1871	 0.356095405925432 
1872	 0.355092542329084 
1873	 0.354046469101383 
1874	 0.352956700646074 
1875	 0.351777139501254 
1876	 0.350511928904651 
1877	 0.349147204958507 
1878	 0.34765997788972 
1879	 0.346059333529782 
1880	 0.344328446867364 
1881	 0.342479605068043 
1882	 0.340500289181652 
1883	 0.338401666350807 
1884	 0.336128232812085 
1885	 0.333770703513266 
1886	 0.331277275705146 
1887	 0.328590780722216 
1888	 0.325787039623173 
1889	 0.322829930884475 
1890	 0.319750505776638 
1891	 0.316604191872725 
1892	 0.313370203563579 
1893	 0.310024659234629 
1894	 0.306585349249282 
1895	 0.303040516740292 
1896	 0.299348298849814 
1897	 0.295613911249167 
1898	 0.291791321370456 
1899	 0.28792843767588 
1900	 0.28416079245667 
1901	 0.280402621423646 
1902	 0.276756435820636 
1903	 0.27322674448743 
1904	 0.269763298174197 
1905	 0.266340484919978 
1906	 0.26306400842975 
1907	 0.259895029827245 
1908	 0.256831002265083 
1909	 0.253929080382366 
1910	 0.251101191549891 
1911	 0.248400259449323 
1912	 0.24580867879111 
1913	 0.243295957838545 
1914	 0.240857107767121 
1915	 0.238549380843385 
1916	 0.236333853879556 
1917	 0.234224789699823 
1918	 0.232292635040603 
1919	 0.230443177195212 
1920	 0.228719236186674 
1921	 0.227128029038543 
1922	 0.225564783860896 
1923	 0.224112288212847 
1924	 0.222750259214386 
1925	 0.22149115980129 
1926	 0.220287392911321 
1927	 0.219187405747826 
1928	 0.218118894546803 
1929	 0.217089378038695 
1930	 0.216135721413654 
1931	 0.215245063200955 
1932	 0.214437013451608 
1933	 0.213710552595782 
1934	 0.213037629471959 
1935	 0.212432169793737 
1936	 0.211856235157918 
1937	 0.211406937064329 
1938	 0.211037305284192 
1939	 0.210768085955641 
1940	 0.210593789256943 
1941	 0.210530433234087 
1942	 0.210542819620243 
1943	 0.210659258271697 
1944	 0.21087891189183 
1945	 0.211198153478572 
1946	 0.211602326149373 
1947	 0.212121578782933 
1948	 0.212688543996706 
1949	 0.213378750817425 
1950	 0.214054781847351 
1951	 0.214788637939242 
1952	 0.215529751522581 
1953	 0.216275615014288 
1954	 0.217035946009224 
1955	 0.217789504449323 
1956	 0.218538052832133 
1957	 0.219244055589632 
1958	 0.219934254305716 
1959	 0.220572366072271 
1960	 0.221177763843844 
1961	 0.2217410461443 
1962	 0.222250756756255 
1963	 0.222745263191493 
1964	 0.223196661009604 
1965	 0.223643070155916 
1966	 0.224063356975635 
1967	 0.224479111239 
1968	 0.22489354911432 
1969	 0.225283091553587 
1970	 0.22569588837648 
1971	 0.226130740392321 
1972	 0.226543295560616 
1973	 0.226944199271372 
1974	 0.227366170097245 
1975	 0.22778969325619 
1976	 0.228198207623666 
1977	 0.228648671348166 
1978	 0.229105721556386 
1979	 0.229566127906164 
1980	 0.230036500500709 
1981	 0.230509470452729 
1982	 0.23098486307129 
1983	 0.231478287041259 
1984	 0.231979714199894 
1985	 0.232494367318798 
1986	 0.233035051893962 
1987	 0.233565939516517 
1988	 0.234116727179319 
1989	 0.234643840049083 
1990	 0.235140640938468 
1991	 0.235638009552851 
1992	 0.236128400056661 
1993	 0.236591652336341 
1994	 0.237070989125046 
1995	 0.237559378533184 
1996	 0.238041813716869 
1997	 0.238525708667912 
1998	 0.238998682284574 
1999	 0.23946409949803 
2000	 0.239933241537775 
2001	 0.240398213121214 
2002	 0.240854037615195 
2003	 0.241323523924217 
2004	 0.241802033982653 
2005	 0.242264462556483 
2006	 0.24272303208164 
2007	 0.243174105438628 
2008	 0.243601026033071 
2009	 0.244053427511322 
2010	 0.244513482691357 
2011	 0.244975605475637 
2012	 0.245455955341646 
2013	 0.245930674314596 
2014	 0.246401016882435 
2015	 0.24686742184686 
2016	 0.24734797100292 
2017	 0.247830959659328 
2018	 0.24833283510035 
2019	 0.24884584048821 
2020	 0.249370191218161 
2021	 0.249926909447602 
2022	 0.250457855778273 
2023	 0.250976415116762 
2024	 0.25151526081619 
2025	 0.252049038947487 
2026	 0.252591685818813 
2027	 0.253152530140748 
2028	 0.25372512383128 
2029	 0.254279156380747 
2030	 0.254825730664974 
2031	 0.25537599635814 
2032	 0.255923155672159 
2033	 0.256467470175721 
2034	 0.257014880075975 
2035	 0.257552701408235 
2036	 0.258085051842989 
2037	 0.258614587651499 
2038	 0.259150224104104 
2039	 0.259662973262239 
2040	 0.260168372603538 
2041	 0.260643850936889 
2042	 0.26113231915282 
2043	 0.261614615949528 
2044	 0.262121226258891 
2045	 0.262655155454833 
2046	 0.263174946421849 
2047	 0.263703748191018 
2048	 0.264220347992183 
2049	 0.264738285366493 
2050	 0.265240144215424 
2051	 0.265730177232628 
2052	 0.266215246139903 
2053	 0.266691262513367 
2054	 0.267156010463925 
2055	 0.267609068382858 
2056	 0.268062568458245 
2057	 0.268507732776568 
2058	 0.268935261114952 
2059	 0.269383785031226 
2060	 0.269831937729265 
2061	 0.270291854836193 
2062	 0.270778343201718 
2063	 0.271234918144173 
2064	 0.27169724494372 
2065	 0.27213456504231 
2066	 0.272551961398756 
2067	 0.27295460613773 
2068	 0.27332446939128 
2069	 0.273700100285459 
2070	 0.27409776921921 
2071	 0.274489746672705 
2072	 0.274901682848751 
2073	 0.27535476309342 
2074	 0.275766458070401 
2075	 0.276176475109062 
2076	 0.27656082162486 
2077	 0.276911045083206 
2078	 0.277278808731178 
2079	 0.277625855107729 
2080	 0.277992928610292 
2081	 0.278386290720811 
2082	 0.278765150832361 
2083	 0.279147536960659 
2084	 0.27952485101951 
2085	 0.27988728620227 
2086	 0.280231194322677 
2087	 0.280589962058479 
2088	 0.280950418293858 
2089	 0.281300071128055 
2090	 0.281655367626238 
2091	 0.28199469172234 
2092	 0.282323560602527 
2093	 0.282638453992838 
2094	 0.282922685394803 
2095	 0.283236053569103 
2096	 0.283531222053527 
2097	 0.283858928402517 
2098	 0.284223329367436 
2099	 0.284602499934111 
2100	 0.284955285550024 
2101	 0.285312295323539 
2102	 0.285661398889585 
2103	 0.285986848932361 
2104	 0.286336856957073 
2105	 0.286701269135023 
2106	 0.287057172754086 
2107	 0.287424760919596 
2108	 0.287774264390467 
2109	 0.288106040256665 
2110	 0.288450823218292 
2111	 0.288788097168473 
2112	 0.289133911282827 
2113	 0.289477408517702 
2114	 0.289845191792481 
2115	 0.290220808212905 
2116	 0.290609177149028 
2117	 0.290988650026527 
2118	 0.29138735058506 
2119	 0.291765318516286 
2120	 0.292122706723047 
2121	 0.292496613196229 
2122	 0.292873975393937 
2123	 0.293248547653349 
2124	 0.293651220685609 
2125	 0.294006030246807 
2126	 0.29434352482738 
2127	 0.294663328935338 
2128	 0.294930268270718 
2129	 0.295215017110506 
2130	 0.295498285591096 
2131	 0.295782122064109 
2132	 0.296054693610407 
2133	 0.296336663739405 
2134	 0.29658529944278 
2135	 0.296813440520285 
2136	 0.297031594066307 
2137	 0.29722653566494 
2138	 0.297421688645626 
2139	 0.297618657160006 
2140	 0.297787900064954 
2141	 0.297938906626751 
2142	 0.298081903102676 
2143	 0.298213667690368 
2144	 0.298319305253483 
2145	 0.298416893215996 
2146	 0.298487440692371 
2147	 0.298506670611487 
2148	 0.298537245826899 
2149	 0.298563953932796 
2150	 0.298587706332557 
2151	 0.298588957593196 
2152	 0.298580419976956 
2153	 0.298568069086633 
2154	 0.298525894904687 
2155	 0.298504175688708 
2156	 0.298502323988187 
2157	 0.298480366097594 
2158	 0.298453420873708 
2159	 0.298418296700312 
2160	 0.298363405679928 
2161	 0.298318217007806 
2162	 0.298264792498292 
2163	 0.298224570604057 
2164	 0.2981932965232 
2165	 0.298181096096518 
2166	 0.298128581921064 
2167	 0.298069519524176 
2168	 0.298002036795084 
2169	 0.2979144039838 
2170	 0.297811133237962 
2171	 0.297698047589998 
2172	 0.297586975775553 
2173	 0.297458543246702 
2174	 0.297321146411588 
2175	 0.297194962129633 
2176	 0.297046389280723 
2177	 0.296878688502963 
2178	 0.296690091644829 
2179	 0.296468730586072 
2180	 0.296265481900704 
2181	 0.296043522132569 
2182	 0.295829538446747 
2183	 0.295612909109278 
2184	 0.295444906358632 
2185	 0.295247650873993 
2186	 0.295035958747536 
2187	 0.294841619312643 
2188	 0.294647480893022 
2189	 0.294471646789134 
2190	 0.294319651224549 
2191	 0.294146546106796 
2192	 0.293981279273454 
2193	 0.293805055636231 
2194	 0.293597662672924 
2195	 0.293417369565457 
2196	 0.293272869008565 
2197	 0.293090126034359 
2198	 0.292891190648148 
2199	 0.292699635661048 
2200	 0.292469288377617 
2201	 0.29226867077017 
2202	 0.292083568479131 
2203	 0.291919139859271 
2204	 0.291769801129437 
2205	 0.291621674614932 
2206	 0.291531127964545 
2207	 0.29149143987375 
2208	 0.291428477809449 
2209	 0.291374481042133 
2210	 0.291368716227005 
2211	 0.291378427904878 
2212	 0.29139761242095 
2213	 0.291464084522218 
2214	 0.29153434358931 
2215	 0.291604033852852 
2216	 0.291681298484535 
2217	 0.291815626603302 
2218	 0.291899150643962 
2219	 0.291952170162784 
2220	 0.29200149751482 
2221	 0.292029958086506 
2222	 0.292064340025402 
2223	 0.292059267145232 
2224	 0.292041917575627 
2225	 0.292055510850845 
2226	 0.292061443406695 
2227	 0.292077238445138 
2228	 0.292135687628072 
2229	 0.292139587748549 
2230	 0.292120847656875 
2231	 0.292089308641481 
2232	 0.292021349048616 
2233	 0.291986178886464 
2234	 0.291943381605163 
2235	 0.291913330009222 
2236	 0.291938365113452 
2237	 0.291894852523356 
2238	 0.291807543020467 
2239	 0.291732772582131 
2240	 0.291640791281684 
2241	 0.291532528431344 
2242	 0.291435029905809 
2243	 0.291310794138478 
2244	 0.291152066254356 
2245	 0.290976103737946 
2246	 0.290807954438138 
2247	 0.290626587361961 
2248	 0.290437100796358 
2249	 0.290238038147228 
2250	 0.290032264093729 
2251	 0.289822958465066 
2252	 0.289591521064122 
2253	 0.289343488387306 
2254	 0.289091517936034 
2255	 0.288796680514375 
2256	 0.288557716514107 
2257	 0.288337544111435 
2258	 0.288128241314509 
2259	 0.287955610748179 
2260	 0.287771993904186 
2261	 0.287586757052394 
2262	 0.287409884050376 
2263	 0.287258301605889 
2264	 0.287080003752686 
2265	 0.286886122592133 
2266	 0.286701102346252 
2267	 0.286487859128888 
2268	 0.286300774562644 
2269	 0.286144574821979 
2270	 0.285989306927538 
2271	 0.285796584875429 
2272	 0.285601980247028 
2273	 0.285357582667279 
2274	 0.285074886316924 
2275	 0.284829047043548 
2276	 0.284583627065489 
2277	 0.284344784501067 
2278	 0.284124639308672 
2279	 0.283886778021514 
2280	 0.283628021071942 
2281	 0.283405772757851 
2282	 0.283204926046384 
2283	 0.282992222474245 
2284	 0.282801568377518 
2285	 0.282584758694458 
2286	 0.282362059338666 
2287	 0.282107601503998 
2288	 0.28184374487307 
2289	 0.281549975468568 
2290	 0.281202328998369 
2291	 0.280871546224401 
2292	 0.280521675044623 
2293	 0.280185997667809 
2294	 0.279883811626421 
2295	 0.279530760223482 
2296	 0.27914973979822 
2297	 0.278779223735382 
2298	 0.27834412004862 
2299	 0.277912379186221 
2300	 0.277538070348631 
2301	 0.277155122296645 
2302	 0.276778652286521 
2303	 0.276404175522987 
2304	 0.276001445991225 
2305	 0.275574879293409 
2306	 0.275111985547953 
2307	 0.274610825914073 
2308	 0.274125305725257 
2309	 0.273588596222989 
2310	 0.273115717931801 
2311	 0.272709341415715 
2312	 0.272233754261343 
2313	 0.27175659734254 
2314	 0.271249832561135 
2315	 0.270695204217223 
2316	 0.2701292650968 
2317	 0.269562254833364 
2318	 0.268959228662294 
2319	 0.268281610371275 
2320	 0.26767288576759 
2321	 0.267070958196787 
2322	 0.266487305238314 
2323	 0.265941882306772 
2324	 0.265403504036286 
2325	 0.264887760410998 
2326	 0.26434949199439 
2327	 0.263836520368724 
2328	 0.263282842927015 
2329	 0.262693940914594 
2330	 0.262107215196433 
2331	 0.261500921224957 
2332	 0.260920447204028 
2333	 0.260303289899906 
2334	 0.259726100460209 
2335	 0.259201438373824 
2336	 0.258606342769093 
2337	 0.258059464060059 
2338	 0.257458222982466 
2339	 0.256798821431479 
2340	 0.25617998824079 
2341	 0.25551048357525 
2342	 0.254861346337981 
2343	 0.254213696904021 
2344	 0.253537872380424 
2345	 0.252803078333234 
2346	 0.252014303894229 
2347	 0.251224511009608 
2348	 0.250387356185619 
2349	 0.249552382361436 
2350	 0.24872532564766 
2351	 0.247881260533585 
2352	 0.246980979925307 
2353	 0.246121758299622 
2354	 0.245292658020336 
2355	 0.244433174546621 
2356	 0.243586787982992 
2357	 0.242718415453089 
2358	 0.241823869168751 
2359	 0.240917529427274 
2360	 0.239959152689311 
2361	 0.239067969885145 
2362	 0.238176621819743 
2363	 0.237333508179595 
2364	 0.236619918217134 
2365	 0.23580406769231 
2366	 0.234933214472353 
2367	 0.234088051346521 
2368	 0.233215270146003 
2369	 0.232329378888707 
2370	 0.231438558579864 
2371	 0.230596688331246 
2372	 0.229710390350331 
2373	 0.228766305755963 
2374	 0.227856358629629 
2375	 0.226995428688721 
2376	 0.226077179310138 
2377	 0.22511753009048 
2378	 0.224230939874769 
2379	 0.223355880817818 
2380	 0.222463893513204 
2381	 0.221641709211285 
2382	 0.220828917592234 
2383	 0.219892589914163 
2384	 0.218993159212504 
2385	 0.218237561657584 
2386	 0.217398092251588 
2387	 0.216557545264605 
2388	 0.215796294719324 
2389	 0.214936820821192 
2390	 0.214078786615884 
2391	 0.213268381452649 
2392	 0.212420764693969 
2393	 0.211591023599659 
2394	 0.210831747346195 
2395	 0.210128841014606 
2396	 0.209461754329147 
2397	 0.208820496491547 
2398	 0.208196619596273 
2399	 0.207549366413834 
2400	 0.206855480557647 
2401	 0.206228539605936 
2402	 0.205628218869639 
2403	 0.205027279225191 
2404	 0.204476807461742 
2405	 0.20393271147263 
2406	 0.203438369643221 
2407	 0.202923831539207 
2408	 0.202399856308219 
2409	 0.201906234440831 
2410	 0.201320515326372 
2411	 0.200752683308904 
2412	 0.200282226696487 
2413	 0.199772126925364 
2414	 0.199280348973397 
2415	 0.198885132594612 
2416	 0.198455341760898 
2417	 0.197990040750884 
2418	 0.197583071387028 
2419	 0.197240727393592 
2420	 0.196808957237113 
2421	 0.196382227379986 
2422	 0.19595773827429 
2423	 0.195465317756689 
2424	 0.194988908639364 
2425	 0.19453711588089 
2426	 0.194028949274933 
2427	 0.193476414059872 
2428	 0.192998895967945 
2429	 0.192522137507178 
2430	 0.192074267078392 
2431	 0.19168282778666 
2432	 0.191236003140723 
2433	 0.190808688351807 
2434	 0.190328050250886 
2435	 0.18979205589344 
2436	 0.189330077110942 
2437	 0.188864035226008 
2438	 0.188392223508738 
2439	 0.187956909579633 
2440	 0.187447658525019 
2441	 0.1868567153558 
2442	 0.186352756418378 
2443	 0.185957703346816 
2444	 0.185438047917439 
2445	 0.184852633482023 
2446	 0.18427358898039 
2447	 0.18357785360684 
2448	 0.182966308511657 
2449	 0.182462586801231 
2450	 0.18194299439374 
2451	 0.181400596120775 
2452	 0.180884143877082 
2453	 0.180427464847761 
2454	 0.179873073947419 
2455	 0.179250396634625 
2456	 0.178708645751884 
2457	 0.178078761397952 
2458	 0.177624592021983 
2459	 0.177420424545793 
2460	 0.177044239723211 
2461	 0.176625907863951 
2462	 0.17626338362974 
2463	 0.175782436412159 
2464	 0.175452385464372 
2465	 0.175332796016646 
2466	 0.175062158452446 
2467	 0.17472014308189 
2468	 0.174444721174246 
2469	 0.174203358848255 
2470	 0.173952406885001 
2471	 0.173741059635273 
2472	 0.173564243573488 
2473	 0.173218356908656 
2474	 0.173025308553423 
2475	 0.172920159253695 
2476	 0.172784524198547 
2477	 0.172669830971999 
2478	 0.172330823790616 
2479	 0.171981483666911 
2480	 0.171659231111194 
2481	 0.171210585117911 
2482	 0.170841760096581 
2483	 0.17051420772379 
2484	 0.170109864616394 
2485	 0.169775250820759 
2486	 0.169565521210636 
2487	 0.169331620022657 
2488	 0.169053205548111 
2489	 0.168857021553205 
2490	 0.168674611501398 
2491	 0.168275689437103 
2492	 0.167842162752184 
2493	 0.167545928944726 
2494	 0.167295076716461 
2495	 0.166884799123091 
2496	 0.166313013054966 
2497	 0.165737572576838 
2498	 0.165052238045327 
2499	 0.164635476342385 
2500	 0.164548905822532 
