Wavelength	mm23-100000.asd
350	 5.32216360738279E-02 
351	 5.99730431223755E-02 
352	 0.058911928267098 
353	 4.99415932389658E-02 
354	 0.051722280297572 
355	 5.38568647289427E-02 
356	 5.40722278059435E-02 
357	 5.35747391546391E-02 
358	 5.85424718120622E-02 
359	 5.91561162013266E-02 
360	 5.67077427101104E-02 
361	 5.88775173858632E-02 
362	 5.81219793173563E-02 
363	 5.62637099704703E-02 
364	 5.59296194729629E-02 
365	 5.95927066241235E-02 
366	 5.87502501968807E-02 
367	 5.57037795169769E-02 
368	 5.49057627151366E-02 
369	 5.59727213680827E-02 
370	 5.86111500516083E-02 
371	 6.02950696765934E-02 
372	 0.057996613096732 
373	 6.08289876641205E-02 
374	 6.27363123236832E-02 
375	 6.09955220639658E-02 
376	 0.062083327163722 
377	 6.02837973650659E-02 
378	 6.01227410134419E-02 
379	 6.55026120615217E-02 
380	 0.064864560008476 
381	 6.37260986235684E-02 
382	 6.50180940015672E-02 
383	 6.86973578111982E-02 
384	 6.92285709544958E-02 
385	 0.068748473830594 
386	 6.90069009910569E-02 
387	 6.86637400819828E-02 
388	 6.88044118556895E-02 
389	 7.05266628973375E-02 
390	 7.37769705316543E-02 
391	 7.32767025682511E-02 
392	 7.39761935785925E-02 
393	 0.076833314761899 
394	 7.90089497045371E-02 
395	 7.88490448003087E-02 
396	 7.93657564635533E-02 
397	 8.18593347396423E-02 
398	 8.22503306029933E-02 
399	 8.30638114486733E-02 
400	 8.57835669340309E-02 
401	 9.03185616095984E-02 
402	 9.03973441210834E-02 
403	 9.10000814361845E-02 
404	 0.092979327655563 
405	 9.25591677250347E-02 
406	 9.41739550987478E-02 
407	 9.71153321107797E-02 
408	 9.93939124930999E-02 
409	 9.82947505022532E-02 
410	 9.70566991869369E-02 
411	 9.77378018178207E-02 
412	 0.100895226953501 
413	 0.101556474870981 
414	 0.101524667731622 
415	 0.102138799886192 
416	 0.103333069441611 
417	 0.103524445854354 
418	 0.103567865993584 
419	 0.104212870085458 
420	 0.103614553282786 
421	 0.103354540389978 
422	 0.103484694010496 
423	 0.103122744824677 
424	 0.102977849592243 
425	 0.103068117392522 
426	 0.103112511746234 
427	 0.102404787974181 
428	 0.101988954631745 
429	 0.101636710237228 
430	 0.100840099010681 
431	 9.98029151887729E-02 
432	 0.099309171627571 
433	 9.93742747439507E-02 
434	 9.92866263594472E-02 
435	 9.90791991865199E-02 
436	 9.91323597513261E-02 
437	 9.95626087100047E-02 
438	 9.95723228741315E-02 
439	 9.98410391844549E-02 
440	 0.100514969116445 
441	 0.101419788686324 
442	 0.10218559128009 
443	 0.102981143859433 
444	 0.103879033307113 
445	 0.104726228052805 
446	 0.105358105147472 
447	 0.106159911285625 
448	 0.107381281098968 
449	 0.107979523073995 
450	 0.108851995780124 
451	 0.109995788753764 
452	 0.110654974170977 
453	 0.111545299201181 
454	 0.11237808851269 
455	 0.112967872301328 
456	 0.113826806183001 
457	 0.114490606070029 
458	 0.114972382675992 
459	 0.115477991909949 
460	 0.115914084463753 
461	 0.116225918727208 
462	 0.116511481559495 
463	 0.117072772773806 
464	 0.117724806229024 
465	 0.118220071502498 
466	 0.118441002777179 
467	 0.118830716480139 
468	 0.119260593089177 
469	 0.119588521409955 
470	 0.119700262227723 
471	 0.119912172527856 
472	 0.120220048288011 
473	 0.120544042487014 
474	 0.120779236436368 
475	 0.120911266938468 
476	 0.121025158870005 
477	 0.121224775656504 
478	 0.121352999770982 
479	 0.121583981947508 
480	 0.121929441501594 
481	 0.122140526947046 
482	 0.122526949134175 
483	 0.122799148888144 
484	 0.122742729448421 
485	 0.123133303662264 
486	 0.123405817390264 
487	 0.123450875115074 
488	 0.123558702738789 
489	 0.123635643494861 
490	 0.123796617880766 
491	 0.124073594844098 
492	 0.124228311336289 
493	 0.124345387753079 
494	 0.124510256992313 
495	 0.124798486776398 
496	 0.125195687498531 
497	 0.125419507245815 
498	 0.125437161640087 
499	 0.125613533106702 
500	 0.125711060869365 
501	 0.125814680344431 
502	 0.126031283244803 
503	 0.126159727714808 
504	 0.126267773603946 
505	 0.126418682193146 
506	 0.126658878684268 
507	 0.126985859093758 
508	 0.127246551522306 
509	 0.127335175570519 
510	 0.127315936617565 
511	 0.127368426593998 
512	 0.127520610342968 
513	 0.127703412433099 
514	 0.12783682919948 
515	 0.127939014980944 
516	 0.128063477920334 
517	 0.128316869656283 
518	 0.128413997919221 
519	 0.12843478216897 
520	 0.128571382542646 
521	 0.128912026250621 
522	 0.129162366736256 
523	 0.129266098897972 
524	 0.129433467763388 
525	 0.129528239027701 
526	 0.129585867726571 
527	 0.129673869907592 
528	 0.12984931364094 
529	 0.129996328043611 
530	 0.130115652078476 
531	 0.130281924991338 
532	 0.130462377445966 
533	 0.130624298328035 
534	 0.130768163334705 
535	 0.130967102612364 
536	 0.13115022881473 
537	 0.131290985133637 
538	 0.131393943389242 
539	 0.131528545623829 
540	 0.131740038020677 
541	 0.131984405627546 
542	 0.132103534839538 
543	 0.132293144075362 
544	 0.132537852729355 
545	 0.132785929814018 
546	 0.133106596371137 
547	 0.133343461173827 
548	 0.133515870087848 
549	 0.133790407106678 
550	 0.134121600707919 
551	 0.134416771981902 
552	 0.134651516422409 
553	 0.135018423621833 
554	 0.135256340834971 
555	 0.13548573335392 
556	 0.135973078329455 
557	 0.1363395671159 
558	 0.136681480474118 
559	 0.137092263682966 
560	 0.137573649371976 
561	 0.1379581476242 
562	 0.138388301511171 
563	 0.13906452352998 
564	 0.139862867700487 
565	 0.140638186518273 
566	 0.141355647278313 
567	 0.142103508579579 
568	 0.14272595996717 
569	 0.143257777053933 
570	 0.143780398039302 
571	 0.144345278989653 
572	 0.145035957074398 
573	 0.14581990721807 
574	 0.146588588610312 
575	 0.14739343050108 
576	 0.14840920584979 
577	 0.149663563630501 
578	 0.150837261297525 
579	 0.152000205301461 
580	 0.153062512331609 
581	 0.153923140690373 
582	 0.15480242345815 
583	 0.155666301442715 
584	 0.156573285184672 
585	 0.157749108093972 
586	 0.159117675198056 
587	 0.160617172940059 
588	 0.162155395862782 
589	 0.163547165994703 
590	 0.164892832376633 
591	 0.166228790303852 
592	 0.167519697596142 
593	 0.168569184219105 
594	 0.169404441843793 
595	 0.170171466419617 
596	 0.171180859491334 
597	 0.172334658909828 
598	 0.173538335137451 
599	 0.174723408895324 
600	 0.176087140002486 
601	 0.177422846730543 
602	 0.178602503516985 
603	 0.179716798308923 
604	 0.180840760035115 
605	 0.182014754819965 
606	 0.183216359595923 
607	 0.184205061408885 
608	 0.185118214955011 
609	 0.186035237154251 
610	 0.186943181639723 
611	 0.187827917431634 
612	 0.188674303841934 
613	 0.189455236276722 
614	 0.190102828360395 
615	 0.190750850218981 
616	 0.191441491549506 
617	 0.192138560417527 
618	 0.19276674729066 
619	 0.193335248190166 
620	 0.193870810086931 
621	 0.194401333142383 
622	 0.194922750313784 
623	 0.195389401459385 
624	 0.195765371098891 
625	 0.196189631088464 
626	 0.196639201439761 
627	 0.197093304269073 
628	 0.19755196207606 
629	 0.198032594566411 
630	 0.198464666829573 
631	 0.198804026347966 
632	 0.199193501311204 
633	 0.199573841664368 
634	 0.199940302116469 
635	 0.200332720497476 
636	 0.200709094062074 
637	 0.201093003747557 
638	 0.201484294488637 
639	 0.201786851145167 
640	 0.20215833530907 
641	 0.202576870289608 
642	 0.202947775985715 
643	 0.203336203574687 
644	 0.203705376348569 
645	 0.204058479822953 
646	 0.204469794238911 
647	 0.204833389083782 
648	 0.205206169969762 
649	 0.205655968336513 
650	 0.206088314447061 
651	 0.206506157182191 
652	 0.206941140668323 
653	 0.207440624314219 
654	 0.207902687537389 
655	 0.208306562379498 
656	 0.208688763255859 
657	 0.209180650128069 
658	 0.209722801510842 
659	 0.21026379025679 
660	 0.210759686960451 
661	 0.21121338748861 
662	 0.21175265146349 
663	 0.212369974118083 
664	 0.212844961754735 
665	 0.213406086260529 
666	 0.213995960592669 
667	 0.214526158957554 
668	 0.215131803363262 
669	 0.215773418041215 
670	 0.216423935298746 
671	 0.217070786776886 
672	 0.217728942072841 
673	 0.218379842415646 
674	 0.219017659990025 
675	 0.219674659734329 
676	 0.220369437075668 
677	 0.221088663184861 
678	 0.221807648288059 
679	 0.222542531301831 
680	 0.223274052815876 
681	 0.224009156919221 
682	 0.224791607621348 
683	 0.225581767151352 
684	 0.226381803165649 
685	 0.227204025867567 
686	 0.228066261441263 
687	 0.228901578942961 
688	 0.229703204579166 
689	 0.230512695349645 
690	 0.231390517889683 
691	 0.232305113410705 
692	 0.233215104899066 
693	 0.234087669871354 
694	 0.234990759118908 
695	 0.235922993144531 
696	 0.23685368867406 
697	 0.237738812950818 
698	 0.238670665760684 
699	 0.239651335121846 
700	 0.240581896406619 
701	 0.241508496118536 
702	 0.242449258279647 
703	 0.243414662446926 
704	 0.24441452718978 
705	 0.245395652915244 
706	 0.246355851656441 
707	 0.247318273633403 
708	 0.248268493528806 
709	 0.249255013815016 
710	 0.250263685146686 
711	 0.251184330120098 
712	 0.25213252181748 
713	 0.253078605751547 
714	 0.253982261997804 
715	 0.254921556585419 
716	 0.255823499691711 
717	 0.256702023362371 
718	 0.257634535108622 
719	 0.258641155005344 
720	 0.259550360920646 
721	 0.260295429235289 
722	 0.261054094262298 
723	 0.261894983413229 
724	 0.262700979617432 
725	 0.263352406501927 
726	 0.264091161809814 
727	 0.264820039873275 
728	 0.265495226797698 
729	 0.266136714631398 
730	 0.266712305699528 
731	 0.267260409449042 
732	 0.267805332007463 
733	 0.268307352270777 
734	 0.268800457523183 
735	 0.269229172108725 
736	 0.269536852171215 
737	 0.269887595135498 
738	 0.270252351762503 
739	 0.27057613351276 
740	 0.270797146424604 
741	 0.271031863221056 
742	 0.271173474891588 
743	 0.271175964290668 
744	 0.271290280502871 
745	 0.271347170508486 
746	 0.271349287804792 
747	 0.271361329759403 
748	 0.271276314531395 
749	 0.271134773567505 
750	 0.270997688080081 
751	 0.270929670245578 
752	 0.270762918389804 
753	 0.270492655484251 
754	 0.270168760507369 
755	 0.269867403079116 
756	 0.26958513029031 
757	 0.269269987001982 
758	 0.26886259420754 
759	 0.268452334997478 
760	 0.268030013746888 
761	 0.267592543640606 
762	 0.26715573004502 
763	 0.266709370082298 
764	 0.266197988211944 
765	 0.26560759625997 
766	 0.265060521954274 
767	 0.264572066791579 
768	 0.264083280274529 
769	 0.263507048298968 
770	 0.262865438769111 
771	 0.262281944807778 
772	 0.261733658199521 
773	 0.261021687596812 
774	 0.260372599183565 
775	 0.259774383208483 
776	 0.259156459748399 
777	 0.258430313799063 
778	 0.257785523155759 
779	 0.257211129243971 
780	 0.256601703981145 
781	 0.25592340773939 
782	 0.255249030419079 
783	 0.254589965730653 
784	 0.253888208987514 
785	 0.253190042953312 
786	 0.252555532597027 
787	 0.251985011828768 
788	 0.251330122267003 
789	 0.250724551011522 
790	 0.250122510881191 
791	 0.249442194170393 
792	 0.248783195670032 
793	 0.248093775403093 
794	 0.247423784536422 
795	 0.246890589534338 
796	 0.246215170657382 
797	 0.245579302902209 
798	 0.245067844288012 
799	 0.244455530538029 
800	 0.243875492430994 
801	 0.2432960655542 
802	 0.242673373102161 
803	 0.242104301489934 
804	 0.24156571126783 
805	 0.241032596232421 
806	 0.240488108401175 
807	 0.239978172454759 
808	 0.239494124104879 
809	 0.239001477426103 
810	 0.238443579433766 
811	 0.237926991967528 
812	 0.23740460532327 
813	 0.236865747760814 
814	 0.236503726133996 
815	 0.236132986817463 
816	 0.235674008245029 
817	 0.235130506639361 
818	 0.234661486988426 
819	 0.234256463590602 
820	 0.233861991724237 
821	 0.233413001976363 
822	 0.233064332308852 
823	 0.232642249032397 
824	 0.232130753216793 
825	 0.231844956142384 
826	 0.231557855743894 
827	 0.23124598593762 
828	 0.230933733652603 
829	 0.230625045524251 
830	 0.23022899580404 
831	 0.229805249818062 
832	 0.229482800187952 
833	 0.229321489437486 
834	 0.229069824605561 
835	 0.228697661121398 
836	 0.228403536912629 
837	 0.228223559340798 
838	 0.228056431761539 
839	 0.227838341941509 
840	 0.227616864690741 
841	 0.22730056351415 
842	 0.227027083190349 
843	 0.226890022947953 
844	 0.22664044879994 
845	 0.226462654150305 
846	 0.226328985998257 
847	 0.226154353668314 
848	 0.226143570160698 
849	 0.226053481077707 
850	 0.225850286737477 
851	 0.225696954536952 
852	 0.225571261615886 
853	 0.225502439250393 
854	 0.225464514775833 
855	 0.225351700171016 
856	 0.22522954305969 
857	 0.225175353607613 
858	 0.22520615138629 
859	 0.225186424106351 
860	 0.225148631559589 
861	 0.225093932212653 
862	 0.225027429689484 
863	 0.224993204755837 
864	 0.225010688694056 
865	 0.225051701785655 
866	 0.225070538497437 
867	 0.225124581833209 
868	 0.225174876107084 
869	 0.225189085400132 
870	 0.225163957373683 
871	 0.225256264652915 
872	 0.225443313237659 
873	 0.225646409039624 
874	 0.225758620123725 
875	 0.225819227793375 
876	 0.225866534076564 
877	 0.225947695679351 
878	 0.226126920562905 
879	 0.226362552740731 
880	 0.226572075459833 
881	 0.226697404895628 
882	 0.226830428600044 
883	 0.227015742088717 
884	 0.2272273976908 
885	 0.227421242274069 
886	 0.227721408642696 
887	 0.227979177816541 
888	 0.228153949969918 
889	 0.228327930376933 
890	 0.228639248333946 
891	 0.228969301945086 
892	 0.229250208731782 
893	 0.229525856299213 
894	 0.229830607737777 
895	 0.23014939698477 
896	 0.230465456797351 
897	 0.230778924250366 
898	 0.231178908882284 
899	 0.231609073611827 
900	 0.232000375189745 
901	 0.232363511636093 
902	 0.232693246740176 
903	 0.233058762160519 
904	 0.23350715024145 
905	 0.233911931759984 
906	 0.234341576734671 
907	 0.234852754662901 
908	 0.235447249876897 
909	 0.235924629233245 
910	 0.236324233194776 
911	 0.236719291150312 
912	 0.237185634584394 
913	 0.237708185203369 
914	 0.238306164734277 
915	 0.238936704568416 
916	 0.239510970831028 
917	 0.240035121632619 
918	 0.240573375708957 
919	 0.241164958190642 
920	 0.241802226133725 
921	 0.242445359314923 
922	 0.243039302194774 
923	 0.243606083259196 
924	 0.244275342295017 
925	 0.245066846327293 
926	 0.245805929559175 
927	 0.246404245375061 
928	 0.247005092871899 
929	 0.247768383847753 
930	 0.248598339405342 
931	 0.249392296220207 
932	 0.250210937167584 
933	 0.251073490138559 
934	 0.251917392193328 
935	 0.252708455929996 
936	 0.253570938505679 
937	 0.254343105758049 
938	 0.255057234216348 
939	 0.255827036859136 
940	 0.256775620483781 
941	 0.257859563715008 
942	 0.258945971575621 
943	 0.259899909014362 
944	 0.260717428500366 
945	 0.26150260250492 
946	 0.262420350050163 
947	 0.263541088165835 
948	 0.264468822529316 
949	 0.265458899266742 
950	 0.266503978198102 
951	 0.26749501657662 
952	 0.268588340638788 
953	 0.269653252251654 
954	 0.27071544785705 
955	 0.27186773911185 
956	 0.273011750069271 
957	 0.274179430891895 
958	 0.275347579814712 
959	 0.276478255623485 
960	 0.277666220095866 
961	 0.278838940812107 
962	 0.280011254107905 
963	 0.28122267480512 
964	 0.282277443435291 
965	 0.283460855191254 
966	 0.284768786170175 
967	 0.286023806060445 
968	 0.287431388673453 
969	 0.288726336412047 
970	 0.289929407407134 
971	 0.291223481649667 
972	 0.292381739229512 
973	 0.293661000016358 
974	 0.29504271115756 
975	 0.296356966021653 
976	 0.297880117032129 
977	 0.299300786851134 
978	 0.300550782468553 
979	 0.301776529517075 
980	 0.303144013733531 
981	 0.304637874945497 
982	 0.306056537089944 
983	 0.307221657442986 
984	 0.308607826407203 
985	 0.309961025137498 
986	 0.311365721841035 
987	 0.312980530059907 
988	 0.314265234421369 
989	 0.315463969167692 
990	 0.316758616710007 
991	 0.318223899273796 
992	 0.319718401948211 
993	 0.321342885730559 
994	 0.322869337281513 
995	 0.324075063650164 
996	 0.325357509727118 
997	 0.326734817983895 
998	 0.328154353783328 
999	 0.329571670231851 
1000	 0.331103878008141 
1001	 0.331683121191019 
1002	 0.332937856073391 
1003	 0.334131563809697 
1004	 0.335390055734309 
1005	 0.336708567864695 
1006	 0.337979716556406 
1007	 0.339247959806237 
1008	 0.340576466297344 
1009	 0.34179482885141 
1010	 0.342920000889511 
1011	 0.344114389958875 
1012	 0.345286575899758 
1013	 0.346461479450991 
1014	 0.347650825157849 
1015	 0.348824370253856 
1016	 0.349962418671972 
1017	 0.35108428817227 
1018	 0.352173189035518 
1019	 0.353304996956399 
1020	 0.354400714247346 
1021	 0.35546734587513 
1022	 0.356533698028266 
1023	 0.357568711904976 
1024	 0.358638386854858 
1025	 0.359746612435753 
1026	 0.360859024233123 
1027	 0.361880732928951 
1028	 0.362815538195007 
1029	 0.36373561854172 
1030	 0.364605828039056 
1031	 0.365515059391062 
1032	 0.366443191879858 
1033	 0.367435565077795 
1034	 0.368412217244995 
1035	 0.369377280601613 
1036	 0.370361149849358 
1037	 0.371329152898189 
1038	 0.372240117876283 
1039	 0.373151513376584 
1040	 0.374093629967798 
1041	 0.375004578487569 
1042	 0.37586955606734 
1043	 0.376751569174427 
1044	 0.377636712402314 
1045	 0.378499074644757 
1046	 0.379376156444282 
1047	 0.380283900509892 
1048	 0.381191521054122 
1049	 0.382128764246874 
1050	 0.383048487051069 
1051	 0.383958294061015 
1052	 0.384832661587566 
1053	 0.385674004288575 
1054	 0.386549798157985 
1055	 0.387427621676987 
1056	 0.388299144664534 
1057	 0.389155808002367 
1058	 0.389978454049857 
1059	 0.390811413614969 
1060	 0.391631564954374 
1061	 0.392484184183581 
1062	 0.393299263400268 
1063	 0.394143097979466 
1064	 0.39495494270527 
1065	 0.395764203812417 
1066	 0.39663665736644 
1067	 0.397486130374794 
1068	 0.398305889537339 
1069	 0.399074797226261 
1070	 0.399877760217471 
1071	 0.400672735528785 
1072	 0.401468965579985 
1073	 0.402309678810632 
1074	 0.403108362791457 
1075	 0.403895186187302 
1076	 0.404590103647235 
1077	 0.40530280267206 
1078	 0.405964675786516 
1079	 0.406633574041652 
1080	 0.407315536290819 
1081	 0.407952943077647 
1082	 0.40866429893959 
1083	 0.409364032286771 
1084	 0.410052737954326 
1085	 0.410740783183746 
1086	 0.411477234431308 
1087	 0.412135488028761 
1088	 0.412732768247869 
1089	 0.413363738027296 
1090	 0.414007349423152 
1091	 0.414599300671454 
1092	 0.415231643468465 
1093	 0.415910893913464 
1094	 0.416540639681512 
1095	 0.417201870803389 
1096	 0.417872442551899 
1097	 0.418468979957798 
1098	 0.419068998059019 
1099	 0.419654166017453 
1100	 0.420232809012766 
1101	 0.420782400308613 
1102	 0.421353329528905 
1103	 0.421935311078722 
1104	 0.422508317696885 
1105	 0.423050737863405 
1106	 0.423602168620479 
1107	 0.424218397941109 
1108	 0.424837902416092 
1109	 0.425408264404638 
1110	 0.426016975774616 
1111	 0.426592369717853 
1112	 0.42709896434568 
1113	 0.427633592717783 
1114	 0.428197309325326 
1115	 0.428740434103124 
1116	 0.429258762535764 
1117	 0.42979861297568 
1118	 0.430337772806566 
1119	 0.430893878010138 
1120	 0.431492970202902 
1121	 0.432039032111958 
1122	 0.432578551187475 
1123	 0.433127766864662 
1124	 0.433655686787114 
1125	 0.434150764358778 
1126	 0.434660068987204 
1127	 0.435166827692739 
1128	 0.435677858443919 
1129	 0.436191196349219 
1130	 0.436692721087946 
1131	 0.437193766845208 
1132	 0.437696295964663 
1133	 0.438179170389048 
1134	 0.438678251994748 
1135	 0.439188998345717 
1136	 0.439710802228515 
1137	 0.440236076518771 
1138	 0.440705018409372 
1139	 0.441173567096415 
1140	 0.441613742962185 
1141	 0.442085337452617 
1142	 0.442566858755679 
1143	 0.443024416724858 
1144	 0.443486510732278 
1145	 0.443932039816889 
1146	 0.44436829516333 
1147	 0.44477568043568 
1148	 0.445157125191329 
1149	 0.445554895934291 
1150	 0.445924688410543 
1151	 0.446304491184365 
1152	 0.446724781235023 
1153	 0.447139107948327 
1154	 0.447526872728066 
1155	 0.447886561928608 
1156	 0.448277152923795 
1157	 0.448668924085482 
1158	 0.449057212161325 
1159	 0.44947307463402 
1160	 0.449859560078249 
1161	 0.450221254061289 
1162	 0.450586086954006 
1163	 0.450946820328442 
1164	 0.451307866629775 
1165	 0.451671819219446 
1166	 0.452020576822625 
1167	 0.452364070246101 
1168	 0.452707584584376 
1169	 0.453054401180371 
1170	 0.453396654207723 
1171	 0.453741750697889 
1172	 0.454097546945505 
1173	 0.454438584110569 
1174	 0.454761167999406 
1175	 0.455103544819551 
1176	 0.455469372840909 
1177	 0.455802607900334 
1178	 0.456133897200499 
1179	 0.456455075163457 
1180	 0.456749744617477 
1181	 0.457041437294196 
1182	 0.457324713110695 
1183	 0.457613347995016 
1184	 0.457906989219876 
1185	 0.458193791012918 
1186	 0.458491058373145 
1187	 0.458808566653662 
1188	 0.459104723558295 
1189	 0.459389522383407 
1190	 0.459678793952072 
1191	 0.459972459381276 
1192	 0.460251399212511 
1193	 0.460513587866712 
1194	 0.460792646117658 
1195	 0.461082492305419 
1196	 0.461351841401223 
1197	 0.461624255987064 
1198	 0.461890512061245 
1199	 0.462146486038689 
1200	 0.462374758279988 
1201	 0.462623610428416 
1202	 0.462876447721857 
1203	 0.463136603714088 
1204	 0.463415374564821 
1205	 0.463658718509162 
1206	 0.463887950614048 
1207	 0.464128144321617 
1208	 0.464350716582766 
1209	 0.46457728369559 
1210	 0.464832818573934 
1211	 0.465057673674848 
1212	 0.465237466062871 
1213	 0.465448940592724 
1214	 0.465668178878595 
1215	 0.465887495182741 
1216	 0.466113775146151 
1217	 0.466364236162981 
1218	 0.466587365607339 
1219	 0.466798284449334 
1220	 0.467013330091694 
1221	 0.467220757406249 
1222	 0.467434696801334 
1223	 0.467653512320033 
1224	 0.467866850313345 
1225	 0.468080133070775 
1226	 0.468291911518215 
1227	 0.468508968652566 
1228	 0.468710537757873 
1229	 0.468905255577533 
1230	 0.469095701910319 
1231	 0.469261016550058 
1232	 0.469443852868086 
1233	 0.469632970269017 
1234	 0.469830313992607 
1235	 0.470020954947989 
1236	 0.47023119108108 
1237	 0.470401516013514 
1238	 0.470551788247251 
1239	 0.470700532342768 
1240	 0.470813326095263 
1241	 0.470961529191877 
1242	 0.471121442261018 
1243	 0.471283920906988 
1244	 0.471467161318203 
1245	 0.471640426597613 
1246	 0.471807724827633 
1247	 0.471980684377092 
1248	 0.472157823079129 
1249	 0.472331328653184 
1250	 0.47251787435964 
1251	 0.472702789783191 
1252	 0.472864340906007 
1253	 0.473017558386047 
1254	 0.473162095077484 
1255	 0.473282749520329 
1256	 0.473413812217705 
1257	 0.473554047964202 
1258	 0.473673346690558 
1259	 0.473779620095043 
1260	 0.473885165725233 
1261	 0.47397105214088 
1262	 0.474068486290399 
1263	 0.47416536220822 
1264	 0.47427314450888 
1265	 0.474380228337241 
1266	 0.474504096472109 
1267	 0.474644522746508 
1268	 0.474786650270851 
1269	 0.474942216039509 
1270	 0.475114819335779 
1271	 0.475280566050551 
1272	 0.47545091851926 
1273	 0.475625209270024 
1274	 0.47579293279049 
1275	 0.475982485790422 
1276	 0.476194968996604 
1277	 0.476389601597867 
1278	 0.476561012725314 
1279	 0.476787072073309 
1280	 0.477042369612616 
1281	 0.477289173707577 
1282	 0.477594180913723 
1283	 0.477854146707812 
1284	 0.478089067815451 
1285	 0.478297100827772 
1286	 0.478512589356985 
1287	 0.478708964703043 
1288	 0.478920138847969 
1289	 0.479135362332291 
1290	 0.479338263023481 
1291	 0.479545622704138 
1292	 0.479740148072572 
1293	 0.479924591663368 
1294	 0.480090379944126 
1295	 0.480249740541492 
1296	 0.480392958907275 
1297	 0.48051363219899 
1298	 0.480629783651644 
1299	 0.480737311869065 
1300	 0.480834147783849 
1301	 0.480918585639692 
1302	 0.480994330734683 
1303	 0.481059864910322 
1304	 0.481120744206896 
1305	 0.481165104184516 
1306	 0.481179477730688 
1307	 0.481197956065001 
1308	 0.481221213901044 
1309	 0.48124913497297 
1310	 0.481297036520652 
1311	 0.481309352857885 
1312	 0.481310776140558 
1313	 0.48130259722005 
1314	 0.481271456226457 
1315	 0.481246628779507 
1316	 0.481217588483733 
1317	 0.481187297649001 
1318	 0.481158622015547 
1319	 0.481113458590763 
1320	 0.481063835818176 
1321	 0.481008545070128 
1322	 0.480930636563742 
1323	 0.480869879177972 
1324	 0.480806024262225 
1325	 0.480719450223909 
1326	 0.480671957247279 
1327	 0.480611439206273 
1328	 0.480538675222506 
1329	 0.480489907729419 
1330	 0.480402841509563 
1331	 0.480280919362979 
1332	 0.480177763366968 
1333	 0.48007332872238 
1334	 0.479961538562199 
1335	 0.479833989821124 
1336	 0.479735867933397 
1337	 0.479647655812534 
1338	 0.479553116795058 
1339	 0.479476871568171 
1340	 0.479395433726965 
1341	 0.479319628161905 
1342	 0.479218294833781 
1343	 0.479100975245523 
1344	 0.478993556455273 
1345	 0.478887493762256 
1346	 0.478762551648813 
1347	 0.478697068097011 
1348	 0.478646950388948 
1349	 0.478551648888364 
1350	 0.478465120677163 
1351	 0.478359376915975 
1352	 0.478217954635851 
1353	 0.478110220004464 
1354	 0.478008870063813 
1355	 0.477913467474092 
1356	 0.477825624550016 
1357	 0.477746900511079 
1358	 0.477678055408813 
1359	 0.477606406812375 
1360	 0.477548447849965 
1361	 0.477481244016902 
1362	 0.477420615453694 
1363	 0.477338291078059 
1364	 0.477227766244585 
1365	 0.477140527420169 
1366	 0.477052501133592 
1367	 0.476954886062536 
1368	 0.476905480110225 
1369	 0.476869441476411 
1370	 0.476792972630395 
1371	 0.476683112949732 
1372	 0.476537443071862 
1373	 0.476357074351007 
1374	 0.476175762071237 
1375	 0.475978458883904 
1376	 0.4757803723571 
1377	 0.475586336637029 
1378	 0.475340588898912 
1379	 0.475061638006929 
1380	 0.474789614166065 
1381	 0.474484694027074 
1382	 0.474184408141261 
1383	 0.473913989395808 
1384	 0.473588740815676 
1385	 0.473255731812998 
1386	 0.472866116711697 
1387	 0.472442470072872 
1388	 0.471973248450089 
1389	 0.47146118521953 
1390	 0.470890226250215 
1391	 0.470300555316364 
1392	 0.469661098961294 
1393	 0.468964262247198 
1394	 0.468223173633315 
1395	 0.467387878692528 
1396	 0.466535760090624 
1397	 0.465703127954076 
1398	 0.464837469438712 
1399	 0.463997180084185 
1400	 0.463198052968669 
1401	 0.462343534433662 
1402	 0.461458222621161 
1403	 0.460585594498737 
1404	 0.459664993432316 
1405	 0.458823415367046 
1406	 0.458012926794779 
1407	 0.457219404739498 
1408	 0.456459218742722 
1409	 0.455730057915618 
1410	 0.4549829882607 
1411	 0.454333231653992 
1412	 0.453739995359661 
1413	 0.453201620388382 
1414	 0.452776983557746 
1415	 0.452415127701138 
1416	 0.452102960143312 
1417	 0.451830613688154 
1418	 0.451525720733961 
1419	 0.451248557636445 
1420	 0.451014797996265 
1421	 0.450798249560761 
1422	 0.450614576546832 
1423	 0.4504083877875 
1424	 0.450155901054818 
1425	 0.449844540480085 
1426	 0.449577597416075 
1427	 0.449278118188057 
1428	 0.449039657290426 
1429	 0.44884275573691 
1430	 0.448651444142631 
1431	 0.448493092999244 
1432	 0.448319712071997 
1433	 0.448152203702366 
1434	 0.447993694184983 
1435	 0.447799764861814 
1436	 0.447681945381944 
1437	 0.447614005709072 
1438	 0.447547615211844 
1439	 0.447532153808572 
1440	 0.447517069563308 
1441	 0.44745239595375 
1442	 0.447382656189746 
1443	 0.447297946241801 
1444	 0.447206536426322 
1445	 0.447158637775708 
1446	 0.447117926268266 
1447	 0.447088801269841 
1448	 0.447049446613274 
1449	 0.446934329031415 
1450	 0.446822753486482 
1451	 0.446719141795186 
1452	 0.446580729040494 
1453	 0.446489377233849 
1454	 0.446439094733678 
1455	 0.446355454371349 
1456	 0.446282555029555 
1457	 0.446182233779402 
1458	 0.446064530018134 
1459	 0.445939297663609 
1460	 0.445767284972232 
1461	 0.445659418091144 
1462	 0.4455667072474 
1463	 0.445490420801129 
1464	 0.445473433347075 
1465	 0.445423133460518 
1466	 0.445350127695842 
1467	 0.44529912315497 
1468	 0.445205360392644 
1469	 0.445205600311437 
1470	 0.44525084932897 
1471	 0.445344390940895 
1472	 0.445501331494082 
1473	 0.445677883926995 
1474	 0.445836066068038 
1475	 0.446001322940293 
1476	 0.446163885710898 
1477	 0.446337382008422 
1478	 0.446520739254891 
1479	 0.446724389140285 
1480	 0.446970030165666 
1481	 0.447213492720548 
1482	 0.447453416713159 
1483	 0.447710837194934 
1484	 0.447948240646158 
1485	 0.448164404451845 
1486	 0.448405058130188 
1487	 0.44865003187792 
1488	 0.448899659265232 
1489	 0.449170777245068 
1490	 0.449417325031992 
1491	 0.44967515828633 
1492	 0.449891825004673 
1493	 0.450063132812241 
1494	 0.450260344100115 
1495	 0.450435327125069 
1496	 0.45062952817244 
1497	 0.450863750463836 
1498	 0.451064544472294 
1499	 0.451261560775337 
1500	 0.45143229015017 
1501	 0.451577739262225 
1502	 0.451716254127137 
1503	 0.45181908074787 
1504	 0.451944757352937 
1505	 0.452101771563274 
1506	 0.452237323665094 
1507	 0.452397037973494 
1508	 0.452548727481264 
1509	 0.452666329207673 
1510	 0.452788845131297 
1511	 0.452916088706039 
1512	 0.453048588485733 
1513	 0.453172287722742 
1514	 0.453308870820367 
1515	 0.453442309599493 
1516	 0.453567511479211 
1517	 0.453700981048592 
1518	 0.453845329781695 
1519	 0.453974007407811 
1520	 0.454099660053878 
1521	 0.454218221752471 
1522	 0.45431825554799 
1523	 0.45443965744498 
1524	 0.454569658346129 
1525	 0.454695155736331 
1526	 0.454841004694517 
1527	 0.454957672219488 
1528	 0.455057020443608 
1529	 0.455152140661632 
1530	 0.45523009181363 
1531	 0.455311938290671 
1532	 0.455385795311504 
1533	 0.455463661814206 
1534	 0.455543752290929 
1535	 0.455622591144528 
1536	 0.455704639006413 
1537	 0.455785465691595 
1538	 0.455862293708793 
1539	 0.455939388336995 
1540	 0.456004726898342 
1541	 0.456088353792546 
1542	 0.456186457805643 
1543	 0.456278668588836 
1544	 0.456392763655325 
1545	 0.456487342567967 
1546	 0.45657336603587 
1547	 0.45664271266381 
1548	 0.456698630042885 
1549	 0.456749892626827 
1550	 0.456823617059859 
1551	 0.45691022159673 
1552	 0.45699914112374 
1553	 0.457098946891544 
1554	 0.457157195654937 
1555	 0.457196341583312 
1556	 0.457246394439983 
1557	 0.457272210528535 
1558	 0.457318779280225 
1559	 0.457390855070412 
1560	 0.457452133870928 
1561	 0.457527335408758 
1562	 0.457574789759029 
1563	 0.457596511551174 
1564	 0.45765393682979 
1565	 0.457715103029269 
1566	 0.457781819966621 
1567	 0.457883555329891 
1568	 0.457945680324045 
1569	 0.457984050753524 
1570	 0.458024861919964 
1571	 0.458064962029527 
1572	 0.458087287782552 
1573	 0.458096674385965 
1574	 0.458104494654094 
1575	 0.458088310735911 
1576	 0.458092350252557 
1577	 0.458094049437499 
1578	 0.458115314743434 
1579	 0.458145768873909 
1580	 0.458196960922967 
1581	 0.45827842047926 
1582	 0.458345170735266 
1583	 0.458440131815311 
1584	 0.458493867794764 
1585	 0.45852622988019 
1586	 0.458549026401716 
1587	 0.458540754673945 
1588	 0.458538100272245 
1589	 0.458527813798313 
1590	 0.458517086361579 
1591	 0.458497909254583 
1592	 0.458491975854962 
1593	 0.458470975925976 
1594	 0.458488535009803 
1595	 0.458547078455481 
1596	 0.45858528509278 
1597	 0.458644384722474 
1598	 0.458686393091429 
1599	 0.458737400807858 
1600	 0.458739675372976 
1601	 0.458692202638824 
1602	 0.458670640104708 
1603	 0.458601403903263 
1604	 0.458571517568951 
1605	 0.458577116931593 
1606	 0.458600227564533 
1607	 0.458649904665901 
1608	 0.458709734668658 
1609	 0.458744582666534 
1610	 0.458764784695724 
1611	 0.45876182020465 
1612	 0.458717618229659 
1613	 0.458670773162494 
1614	 0.45864117580755 
1615	 0.458596719543916 
1616	 0.458553764931427 
1617	 0.458548171723774 
1618	 0.458548580232247 
1619	 0.45854132203351 
1620	 0.458528500248705 
1621	 0.458516953357664 
1622	 0.458496593355485 
1623	 0.458483340868176 
1624	 0.458478879534269 
1625	 0.458465508964627 
1626	 0.458450901868764 
1627	 0.458421562499738 
1628	 0.458373356122619 
1629	 0.458359429026615 
1630	 0.4583471539156 
1631	 0.45834629928284 
1632	 0.458382712708673 
1633	 0.458378285347224 
1634	 0.458365440660121 
1635	 0.458327348278778 
1636	 0.458276145517351 
1637	 0.458195473027013 
1638	 0.458055540720014 
1639	 0.457993150047148 
1640	 0.457939649365994 
1641	 0.457904561473941 
1642	 0.457926452840786 
1643	 0.457915197462844 
1644	 0.457893017305319 
1645	 0.457865850122164 
1646	 0.457837353239302 
1647	 0.457812653216657 
1648	 0.457780300741377 
1649	 0.457748841177342 
1650	 0.457728331914393 
1651	 0.457695842090075 
1652	 0.45764472732283 
1653	 0.457610170199262 
1654	 0.457586905984793 
1655	 0.457552352738065 
1656	 0.457526824101215 
1657	 0.457474965798051 
1658	 0.457404108275623 
1659	 0.457335456987154 
1660	 0.457249544641929 
1661	 0.457173764041259 
1662	 0.45709748632092 
1663	 0.45702890112573 
1664	 0.45694785415411 
1665	 0.456907795118103 
1666	 0.456891024032131 
1667	 0.456882829035442 
1668	 0.456933168202225 
1669	 0.456912787539821 
1670	 0.456867704542019 
1671	 0.456816151787759 
1672	 0.456720806905916 
1673	 0.456645241586962 
1674	 0.456578312228851 
1675	 0.45650392729785 
1676	 0.456419024198969 
1677	 0.456342856455916 
1678	 0.456271973961991 
1679	 0.456196256811667 
1680	 0.45611136720169 
1681	 0.456047512321888 
1682	 0.455989245875587 
1683	 0.455939174449045 
1684	 0.455916713264869 
1685	 0.455872458617038 
1686	 0.455833058992854 
1687	 0.455764105831784 
1688	 0.455661189529463 
1689	 0.455584952564254 
1690	 0.455499244330598 
1691	 0.455425141352715 
1692	 0.455375145893621 
1693	 0.455314766530894 
1694	 0.455241044124908 
1695	 0.455184841025869 
1696	 0.455126154795203 
1697	 0.455099235562403 
1698	 0.455117877724604 
1699	 0.455087324222386 
1700	 0.45506828553849 
1701	 0.455016133830565 
1702	 0.454911744715173 
1703	 0.454822780209449 
1704	 0.454740816969533 
1705	 0.454631274825719 
1706	 0.454502791512987 
1707	 0.454372000107969 
1708	 0.454198192855583 
1709	 0.454087831390714 
1710	 0.454003926549591 
1711	 0.453922664728281 
1712	 0.453890659114768 
1713	 0.453819376763753 
1714	 0.453736568650396 
1715	 0.453632826129453 
1716	 0.453512163221211 
1717	 0.453392890434795 
1718	 0.453238665649098 
1719	 0.453128889007422 
1720	 0.453042131013203 
1721	 0.452945066982436 
1722	 0.452869978413942 
1723	 0.452781287841657 
1724	 0.452677751168365 
1725	 0.452579763356744 
1726	 0.45250592018476 
1727	 0.45237018562685 
1728	 0.452197823966322 
1729	 0.452047412882278 
1730	 0.451860517735706 
1731	 0.451710298989014 
1732	 0.451591674955381 
1733	 0.451455832836018 
1734	 0.451317216392004 
1735	 0.451178547881922 
1736	 0.451048203305134 
1737	 0.45091445961558 
1738	 0.45076159142721 
1739	 0.45064108535115 
1740	 0.450546996106112 
1741	 0.450413562529484 
1742	 0.450281298584918 
1743	 0.450158224779612 
1744	 0.450011850021129 
1745	 0.449870690351146 
1746	 0.449760499514721 
1747	 0.449585818108027 
1748	 0.449394318335294 
1749	 0.449239473661213 
1750	 0.449107048596786 
1751	 0.448957544867367 
1752	 0.448814185759534 
1753	 0.448661076133081 
1754	 0.448463429357213 
1755	 0.448296739343003 
1756	 0.448171283345951 
1757	 0.4480194328478 
1758	 0.447850090559158 
1759	 0.447691401022315 
1760	 0.447537027446802 
1761	 0.447392401389222 
1762	 0.447282751076479 
1763	 0.447173817642235 
1764	 0.44701994290381 
1765	 0.446862649666033 
1766	 0.446702890910204 
1767	 0.446501910311819 
1768	 0.446314508047519 
1769	 0.446168289415821 
1770	 0.446050635090683 
1771	 0.445975896707907 
1772	 0.445921976719033 
1773	 0.445845072263012 
1774	 0.445737826010811 
1775	 0.445609918517614 
1776	 0.445463196159156 
1777	 0.445321945413561 
1778	 0.44519046450861 
1779	 0.44504439609333 
1780	 0.444936441188043 
1781	 0.444847604403738 
1782	 0.444759938761443 
1783	 0.444757560759173 
1784	 0.444718293042286 
1785	 0.44468589732068 
1786	 0.444641874779244 
1787	 0.444591572252517 
1788	 0.444505734665577 
1789	 0.444389328445095 
1790	 0.444300156528261 
1791	 0.44418899939771 
1792	 0.444090496149534 
1793	 0.444011302315688 
1794	 0.443937427451255 
1795	 0.443859644681936 
1796	 0.443782124538394 
1797	 0.443738310084603 
1798	 0.443675601232215 
1799	 0.443590389615323 
1800	 0.443521003866749 
1801	 0.447913126352863 
1802	 0.44817996085905 
1803	 0.448512505234651 
1804	 0.448898924806515 
1805	 0.449303812935088 
1806	 0.449707812154911 
1807	 0.450071755965454 
1808	 0.450392020745463 
1809	 0.45072175044651 
1810	 0.450956444338018 
1811	 0.451110828833763 
1812	 0.451265621393655 
1813	 0.451356179045854 
1814	 0.451396659366341 
1815	 0.451409558523607 
1816	 0.45138734416096 
1817	 0.451368824291617 
1818	 0.451320152993786 
1819	 0.451285931961331 
1820	 0.451256780969856 
1821	 0.451216795249642 
1822	 0.451166196566445 
1823	 0.45109313384799 
1824	 0.451024864377608 
1825	 0.450960211832741 
1826	 0.450904784492037 
1827	 0.450847402528053 
1828	 0.450733952658859 
1829	 0.450576911221017 
1830	 0.450409957243652 
1831	 0.450194521856415 
1832	 0.450005135629594 
1833	 0.449793546724625 
1834	 0.449593809340703 
1835	 0.449429082107515 
1836	 0.449201167396903 
1837	 0.449012151023261 
1838	 0.448859518524961 
1839	 0.448683631922038 
1840	 0.448492763132878 
1841	 0.448337969328991 
1842	 0.448167828107217 
1843	 0.447986186238616 
1844	 0.447817041064408 
1845	 0.447645288138393 
1846	 0.447481831499809 
1847	 0.447326141129539 
1848	 0.447233739936741 
1849	 0.447155655772853 
1850	 0.447088701982451 
1851	 0.447041395600364 
1852	 0.447044696792951 
1853	 0.447025017834053 
1854	 0.446971532192517 
1855	 0.446911569481143 
1856	 0.446794285286411 
1857	 0.446636308713895 
1858	 0.446501699831663 
1859	 0.446340739397402 
1860	 0.44615286492605 
1861	 0.445949981894289 
1862	 0.445734630814232 
1863	 0.445458993144048 
1864	 0.445165989144251 
1865	 0.444865339803811 
1866	 0.444515824138663 
1867	 0.444137780278682 
1868	 0.44370310188654 
1869	 0.443197547455516 
1870	 0.442668709445406 
1871	 0.442126168585161 
1872	 0.441566803837184 
1873	 0.440978975997208 
1874	 0.44034439210666 
1875	 0.43966203468712 
1876	 0.438861903152671 
1877	 0.437977576080311 
1878	 0.437024171948949 
1879	 0.435941024820935 
1880	 0.434764813953355 
1881	 0.433489819699469 
1882	 0.43212585551172 
1883	 0.43067842785316 
1884	 0.429092087670456 
1885	 0.427409021397231 
1886	 0.425592722776833 
1887	 0.423617508546591 
1888	 0.421555938252512 
1889	 0.419384523229675 
1890	 0.417120398535442 
1891	 0.414820954024899 
1892	 0.412424921704856 
1893	 0.410008105159842 
1894	 0.407547266619896 
1895	 0.405049273609591 
1896	 0.402478835654945 
1897	 0.399941368456726 
1898	 0.39738913620654 
1899	 0.394840977475913 
1900	 0.392377226103705 
1901	 0.389923665360567 
1902	 0.387550436842916 
1903	 0.385248988847332 
1904	 0.383016733860165 
1905	 0.380820167594848 
1906	 0.378742737742943 
1907	 0.376785236479184 
1908	 0.374916319711277 
1909	 0.373149831262266 
1910	 0.371444638573921 
1911	 0.369800278566599 
1912	 0.368205372227511 
1913	 0.366703403656935 
1914	 0.365279894565793 
1915	 0.363940428876468 
1916	 0.362670922666514 
1917	 0.361505071015558 
1918	 0.360425988827359 
1919	 0.359405449166523 
1920	 0.358485275438016 
1921	 0.357628081805247 
1922	 0.356831272264709 
1923	 0.356124863230945 
1924	 0.355491852004095 
1925	 0.354947580734839 
1926	 0.354451369913223 
1927	 0.354018661448787 
1928	 0.353658561658348 
1929	 0.353362092390249 
1930	 0.353136370557842 
1931	 0.352970252539587 
1932	 0.352844905241623 
1933	 0.352757367704096 
1934	 0.352688374772195 
1935	 0.352672082454409 
1936	 0.352701649517119 
1937	 0.352772487557532 
1938	 0.35289275643705 
1939	 0.353043597860636 
1940	 0.353244626146173 
1941	 0.353458709562606 
1942	 0.353707016475104 
1943	 0.353944955583571 
1944	 0.354184292457377 
1945	 0.354465484416021 
1946	 0.354768756959771 
1947	 0.355095037757557 
1948	 0.355447629576539 
1949	 0.355847752477627 
1950	 0.356228495034645 
1951	 0.356619050959769 
1952	 0.357011563883608 
1953	 0.357405975519657 
1954	 0.357796777512723 
1955	 0.358220622052177 
1956	 0.35867411890196 
1957	 0.359135681958076 
1958	 0.359620115120009 
1959	 0.360122906457896 
1960	 0.360638053301557 
1961	 0.361165052861657 
1962	 0.361730289211762 
1963	 0.362277689031356 
1964	 0.362820748363762 
1965	 0.363377146511342 
1966	 0.363939078057452 
1967	 0.364496670490683 
1968	 0.365054606745019 
1969	 0.365614668876154 
1970	 0.366187146509231 
1971	 0.366764630679351 
1972	 0.367337218030012 
1973	 0.367923906281076 
1974	 0.368502152939451 
1975	 0.36907255533857 
1976	 0.369631892091924 
1977	 0.370215693601421 
1978	 0.370812918517615 
1979	 0.371388040895026 
1980	 0.371964379689691 
1981	 0.372549877429553 
1982	 0.373112536430752 
1983	 0.373722182568691 
1984	 0.374387071129465 
1985	 0.375010684352535 
1986	 0.375659789704134 
1987	 0.376264853971546 
1988	 0.376830398604114 
1989	 0.37738571095944 
1990	 0.377936769747861 
1991	 0.378480380508605 
1992	 0.379032975032765 
1993	 0.379584722861747 
1994	 0.38013898996583 
1995	 0.380689408220909 
1996	 0.381255467147593 
1997	 0.381833324682171 
1998	 0.382413610652166 
1999	 0.383016757378051 
2000	 0.383600642314046 
2001	 0.384188763182385 
2002	 0.384744093452414 
2003	 0.385308980657523 
2004	 0.385874973002408 
2005	 0.386434280821209 
2006	 0.38699594296647 
2007	 0.38755133562359 
2008	 0.388086614912687 
2009	 0.388642181157592 
2010	 0.389224964729378 
2011	 0.389773370461423 
2012	 0.390313283305224 
2013	 0.390848128578524 
2014	 0.391353022971502 
2015	 0.391865539221218 
2016	 0.392390994275913 
2017	 0.392930173605777 
2018	 0.393454095997686 
2019	 0.393971763072069 
2020	 0.394496079766547 
2021	 0.395024509594296 
2022	 0.395539975214302 
2023	 0.396063743804826 
2024	 0.396570176456262 
2025	 0.397050731702668 
2026	 0.397539344771285 
2027	 0.398033447176874 
2028	 0.398514838472427 
2029	 0.398984329604662 
2030	 0.399451604686176 
2031	 0.399899612450077 
2032	 0.400325624078559 
2033	 0.400751464481474 
2034	 0.401167861873001 
2035	 0.401579758615248 
2036	 0.401987876094163 
2037	 0.402387649336153 
2038	 0.402787811970998 
2039	 0.40316540449492 
2040	 0.403521257258524 
2041	 0.403873387469674 
2042	 0.404217373999652 
2043	 0.404564976186823 
2044	 0.404920044507907 
2045	 0.40528411310046 
2046	 0.405646193754982 
2047	 0.406021764695718 
2048	 0.406373475434731 
2049	 0.406729222081567 
2050	 0.407060158131407 
2051	 0.407364463459747 
2052	 0.407665772429265 
2053	 0.407958017426632 
2054	 0.408236628100586 
2055	 0.408499310989301 
2056	 0.408759725336168 
2057	 0.409007723445542 
2058	 0.409227794623653 
2059	 0.409477459763118 
2060	 0.409733058192928 
2061	 0.409987128528707 
2062	 0.410257497372657 
2063	 0.41051868371061 
2064	 0.410777572135177 
2065	 0.411026129128694 
2066	 0.411281399333857 
2067	 0.411514926573436 
2068	 0.411723944130086 
2069	 0.411932745283644 
2070	 0.412146458194175 
2071	 0.412342961640392 
2072	 0.41257430004539 
2073	 0.412820823903854 
2074	 0.413074490467697 
2075	 0.413360399124091 
2076	 0.413617435023646 
2077	 0.413866273206453 
2078	 0.414118042301454 
2079	 0.414353040986472 
2080	 0.41460257208486 
2081	 0.414874981425074 
2082	 0.415128957906056 
2083	 0.41538016631666 
2084	 0.415618851902298 
2085	 0.415871300535796 
2086	 0.416123923493011 
2087	 0.416365691056748 
2088	 0.416622383725899 
2089	 0.416849054454218 
2090	 0.417051571784551 
2091	 0.417246858143676 
2092	 0.41741699754816 
2093	 0.417607309870226 
2094	 0.417801151986778 
2095	 0.417983135820249 
2096	 0.418173009852153 
2097	 0.418355702086248 
2098	 0.418521974685078 
2099	 0.418682779765406 
2100	 0.418851928012196 
2101	 0.41902238952511 
2102	 0.419202712987251 
2103	 0.419374903626724 
2104	 0.419580608743219 
2105	 0.419814320075774 
2106	 0.420041215004098 
2107	 0.420284136180149 
2108	 0.420525251633739 
2109	 0.420750543904347 
2110	 0.421007483379463 
2111	 0.421290766237853 
2112	 0.421571616361692 
2113	 0.421867073712906 
2114	 0.422177995356082 
2115	 0.422459750798849 
2116	 0.422729521142904 
2117	 0.422999864750652 
2118	 0.423258481672436 
2119	 0.423517707278981 
2120	 0.423781697273433 
2121	 0.424033567418046 
2122	 0.424267050385031 
2123	 0.424516357739549 
2124	 0.424783363167139 
2125	 0.425017349243897 
2126	 0.42527280920681 
2127	 0.425471989646595 
2128	 0.425618172809201 
2129	 0.425756959354955 
2130	 0.425872265516902 
2131	 0.425947474470291 
2132	 0.426038481557056 
2133	 0.426137482017539 
2134	 0.426186345211241 
2135	 0.426215216875739 
2136	 0.426225786667026 
2137	 0.426197589331531 
2138	 0.426160162193129 
2139	 0.426111408656762 
2140	 0.426049303706291 
2141	 0.425977926585169 
2142	 0.425868624135239 
2143	 0.42573418945566 
2144	 0.425586097300954 
2145	 0.42538243796268 
2146	 0.425197216800121 
2147	 0.425002073258105 
2148	 0.42482858248797 
2149	 0.42465588265024 
2150	 0.424498157338293 
2151	 0.424312788149385 
2152	 0.424141343308737 
2153	 0.423924358338413 
2154	 0.423663527745561 
2155	 0.423415645114454 
2156	 0.423177674851435 
2157	 0.422884599159125 
2158	 0.422585031194202 
2159	 0.422237023937406 
2160	 0.421799953117205 
2161	 0.421394492456812 
2162	 0.420978937062272 
2163	 0.42055846736672 
2164	 0.420132710638903 
2165	 0.419722851265097 
2166	 0.419290646043054 
2167	 0.418836612051889 
2168	 0.418401217753659 
2169	 0.417962736650317 
2170	 0.41753857802317 
2171	 0.417112148124768 
2172	 0.416714976379624 
2173	 0.416357984918304 
2174	 0.415961337996429 
2175	 0.415593270379343 
2176	 0.415173616049657 
2177	 0.414692829053246 
2178	 0.41422985506749 
2179	 0.413768504842856 
2180	 0.413273019301035 
2181	 0.412765526193312 
2182	 0.412244164734816 
2183	 0.411653623150311 
2184	 0.411108196311959 
2185	 0.410583292659907 
2186	 0.410059856034941 
2187	 0.409580319950643 
2188	 0.40916421272407 
2189	 0.408693286631574 
2190	 0.40820963797241 
2191	 0.407753981195691 
2192	 0.407269717570577 
2193	 0.406842162439022 
2194	 0.406460332365689 
2195	 0.406091929812218 
2196	 0.405750159994732 
2197	 0.405417932253968 
2198	 0.405086663792273 
2199	 0.404809617239112 
2200	 0.404562256621613 
2201	 0.404343588353994 
2202	 0.404177591554966 
2203	 0.404037907187279 
2204	 0.403901411168669 
2205	 0.403778594632812 
2206	 0.403677180717745 
2207	 0.403591492369071 
2208	 0.403528125210297 
2209	 0.403479912688577 
2210	 0.403465352826382 
2211	 0.403489739302143 
2212	 0.403508091096697 
2213	 0.403564948074827 
2214	 0.403596628322462 
2215	 0.403629041034367 
2216	 0.403640884751087 
2217	 0.403641287180937 
2218	 0.403630695578874 
2219	 0.403581785815288 
2220	 0.403564032484039 
2221	 0.40358498242128 
2222	 0.403561900808814 
2223	 0.403512585501974 
2224	 0.40344337583231 
2225	 0.403359100833934 
2226	 0.403212866222329 
2227	 0.403112602740132 
2228	 0.403032060075917 
2229	 0.402940633456517 
2230	 0.402858385018086 
2231	 0.402740501744082 
2232	 0.402611168943739 
2233	 0.402476768245922 
2234	 0.402325366259136 
2235	 0.402151423384418 
2236	 0.401992856683284 
2237	 0.401771010843519 
2238	 0.401471852118575 
2239	 0.401202053627176 
2240	 0.400913999417286 
2241	 0.400622782872991 
2242	 0.400350769289528 
2243	 0.400051133090855 
2244	 0.399729201065638 
2245	 0.399393231879179 
2246	 0.399049898057496 
2247	 0.398675846206572 
2248	 0.398313619347896 
2249	 0.397945633493655 
2250	 0.397569035982564 
2251	 0.397181279616535 
2252	 0.396808689520979 
2253	 0.396415622276411 
2254	 0.396066332655328 
2255	 0.395739084174846 
2256	 0.395433257896012 
2257	 0.395142556535579 
2258	 0.394892088329193 
2259	 0.394669646877116 
2260	 0.394478789553449 
2261	 0.394347439924632 
2262	 0.3941982432339 
2263	 0.394057071920205 
2264	 0.393930009532698 
2265	 0.393756448895941 
2266	 0.393686814261925 
2267	 0.393667316432064 
2268	 0.393706235031049 
2269	 0.393838510169662 
2270	 0.394010205077754 
2271	 0.394186347584648 
2272	 0.394369018245786 
2273	 0.394523746609308 
2274	 0.394660755237057 
2275	 0.394795054920525 
2276	 0.394890451966728 
2277	 0.395050798803274 
2278	 0.395237617423808 
2279	 0.395421276525722 
2280	 0.39564759899329 
2281	 0.395839135436656 
2282	 0.395999441534362 
2283	 0.396196493529695 
2284	 0.396398255476158 
2285	 0.396618586093463 
2286	 0.396909205343619 
2287	 0.397104180255715 
2288	 0.397268051660409 
2289	 0.397415197254508 
2290	 0.397495403491194 
2291	 0.397583924177578 
2292	 0.397657027865869 
2293	 0.397743609382452 
2294	 0.397833553083565 
2295	 0.397900722361959 
2296	 0.397957570052606 
2297	 0.398037712031885 
2298	 0.398087906773785 
2299	 0.398092793048145 
2300	 0.398163167628807 
2301	 0.398229216693286 
2302	 0.398242374949083 
2303	 0.398296010265308 
2304	 0.398365826162308 
2305	 0.398358453602964 
2306	 0.398328593151372 
2307	 0.398278505349864 
2308	 0.398246614235673 
2309	 0.398150281140338 
2310	 0.398119399564595 
2311	 0.398151664483729 
2312	 0.398142741348104 
2313	 0.398124323797115 
2314	 0.398114188743049 
2315	 0.398131255797714 
2316	 0.398088423916931 
2317	 0.398017343566576 
2318	 0.397938440016451 
2319	 0.397784244900189 
2320	 0.397694117308989 
2321	 0.397634266094614 
2322	 0.397579393823501 
2323	 0.397573177928357 
2324	 0.397531610163469 
2325	 0.397460325835977 
2326	 0.397412135282486 
2327	 0.397357141181586 
2328	 0.397320058137345 
2329	 0.397272291099403 
2330	 0.397269642428245 
2331	 0.397249903977495 
2332	 0.397148763791893 
2333	 0.397104862112978 
2334	 0.397022765400552 
2335	 0.396868752576696 
2336	 0.39679081798597 
2337	 0.396664805623539 
2338	 0.396481182809657 
2339	 0.39637212996465 
2340	 0.39617261696289 
2341	 0.395916282291429 
2342	 0.395706535492786 
2343	 0.395461489843813 
2344	 0.39524669619214 
2345	 0.395036502476351 
2346	 0.394896417852799 
2347	 0.394653104700736 
2348	 0.394353648449142 
2349	 0.394036111635496 
2350	 0.393681962032529 
2351	 0.393328962691377 
2352	 0.392938750918516 
2353	 0.392592443903633 
2354	 0.392241516032392 
2355	 0.391880326101331 
2356	 0.391545083770828 
2357	 0.39119945856749 
2358	 0.390797017428498 
2359	 0.390488697261562 
2360	 0.390270846625937 
2361	 0.389987864428269 
2362	 0.389745014065192 
2363	 0.389460588351812 
2364	 0.389097924928375 
2365	 0.388751597137977 
2366	 0.38846009551368 
2367	 0.388076005742117 
2368	 0.387578755309294 
2369	 0.387148864110694 
2370	 0.386719361386366 
2371	 0.386265005030603 
2372	 0.38582182407998 
2373	 0.385369951812072 
2374	 0.384841740346569 
2375	 0.38433389835534 
2376	 0.38383617411043 
2377	 0.383383794271559 
2378	 0.382945623021927 
2379	 0.382385645801466 
2380	 0.381844243874263 
2381	 0.3813445248125 
2382	 0.380755633583658 
2383	 0.380191126532099 
2384	 0.379674642290298 
2385	 0.379114628382818 
2386	 0.378563666423059 
2387	 0.378023316298556 
2388	 0.377390667418971 
2389	 0.376780372736836 
2390	 0.376192384965685 
2391	 0.375498876611036 
2392	 0.374885859055192 
2393	 0.374369433443135 
2394	 0.373749206724786 
2395	 0.373159814216372 
2396	 0.372668719959289 
2397	 0.372059878308715 
2398	 0.371484132879266 
2399	 0.371025213222817 
2400	 0.370517594860696 
2401	 0.369941626464923 
2402	 0.369341877406314 
2403	 0.368794916128313 
2404	 0.368226345673674 
2405	 0.367620112314771 
2406	 0.366957199657497 
2407	 0.366251015421906 
2408	 0.365651700504861 
2409	 0.364952721836781 
2410	 0.364325009897594 
2411	 0.363899324494428 
2412	 0.36324035359253 
2413	 0.362647163292188 
2414	 0.362108577512543 
2415	 0.361452061733094 
2416	 0.36083905785619 
2417	 0.36021184209584 
2418	 0.359627922742626 
2419	 0.359056493292605 
2420	 0.358491670911912 
2421	 0.357984426700074 
2422	 0.357480716470147 
2423	 0.357095841474015 
2424	 0.356529076429543 
2425	 0.355835359434543 
2426	 0.355195483677712 
2427	 0.354358477982713 
2428	 0.353701203561606 
2429	 0.353234954834639 
2430	 0.352696440699353 
2431	 0.3522410897906 
2432	 0.351692614723503 
2433	 0.351049840311449 
2434	 0.350462009254574 
2435	 0.349818370409698 
2436	 0.349248475355289 
2437	 0.348800323873875 
2438	 0.348210194632201 
2439	 0.347534149374775 
2440	 0.34693710545952 
2441	 0.346319435893752 
2442	 0.345721645358899 
2443	 0.345201071896312 
2444	 0.344643566237451 
2445	 0.344013985906468 
2446	 0.343500381424467 
2447	 0.343143888951151 
2448	 0.342666763211753 
2449	 0.3420761542328 
2450	 0.341589892049039 
2451	 0.341118955814797 
2452	 0.340607570903295 
2453	 0.340243199950422 
2454	 0.339704736023252 
2455	 0.338918009228239 
2456	 0.338331724606631 
2457	 0.337841128986555 
2458	 0.337293394089678 
2459	 0.336826962197439 
2460	 0.3363184219865 
2461	 0.335721369251572 
2462	 0.335149001394109 
2463	 0.334605144795151 
2464	 0.33396281737962 
2465	 0.333183451566398 
2466	 0.332574530218761 
2467	 0.332010407181685 
2468	 0.331494964777345 
2469	 0.331168277945734 
2470	 0.330666613204778 
2471	 0.330167115758327 
2472	 0.32964854872978 
2473	 0.329151239192246 
2474	 0.328750351148342 
2475	 0.328365889698702 
2476	 0.32804530271993 
2477	 0.3276275787677 
2478	 0.327095452996035 
2479	 0.326605634451205 
2480	 0.326183840255695 
2481	 0.325801801726281 
2482	 0.325503910389941 
2483	 0.325078965416438 
2484	 0.324423864610518 
2485	 0.323787518049205 
2486	 0.323036896997862 
2487	 0.322419948406954 
2488	 0.322251869174153 
2489	 0.322151967728511 
2490	 0.321986883120224 
2491	 0.321782039246869 
2492	 0.321272472868271 
2493	 0.320641510834425 
2494	 0.320303892959815 
2495	 0.319989333248916 
2496	 0.319553325428663 
2497	 0.319145187561676 
2498	 0.318638808387283 
2499	 0.318101726761102 
2500	 0.317613639804871 
