Wavelength	mm23-100003.asd
350	 0.062434726345498 
351	 6.37834851542956E-02 
352	 5.99439336791487E-02 
353	 5.30844354196199E-02 
354	 6.03862793576036E-02 
355	 5.86626025194902E-02 
356	 5.34376422340721E-02 
357	 5.46825498306489E-02 
358	 0.060229427256836 
359	 5.82559739458852E-02 
360	 5.46366307488896E-02 
361	 6.38238303926188E-02 
362	 0.062996846515182 
363	 0.05929380610898 
364	 5.85548964979825E-02 
365	 5.87578312071713E-02 
366	 5.85503806803188E-02 
367	 0.056921034614936 
368	 5.49940632460278E-02 
369	 6.19431090492117E-02 
370	 6.31911879194429E-02 
371	 5.98023098531933E-02 
372	 6.28383486563241E-02 
373	 6.29359752127666E-02 
374	 6.12394965060312E-02 
375	 6.03983935563285E-02 
376	 6.35207854908822E-02 
377	 6.40797650085531E-02 
378	 6.43606947090287E-02 
379	 6.73936292009995E-02 
380	 6.74488772477234E-02 
381	 6.74605017747924E-02 
382	 6.90112631651606E-02 
383	 7.19962620281474E-02 
384	 7.15337812300877E-02 
385	 7.00114950812239E-02 
386	 6.97951225896873E-02 
387	 7.11438560985014E-02 
388	 7.24156240910468E-02 
389	 7.29975603043173E-02 
390	 7.29229576728809E-02 
391	 7.30063204481068E-02 
392	 7.50919809739909E-02 
393	 7.90239728802369E-02 
394	 0.08277676645282 
395	 8.26031006154206E-02 
396	 8.13606271334158E-02 
397	 0.082039367016216 
398	 8.58806666406289E-02 
399	 8.79847700717837E-02 
400	 8.90481324146986E-02 
401	 9.10959224907838E-02 
402	 9.02143337221027E-02 
403	 9.12733001944027E-02 
404	 9.43292254152292E-02 
405	 0.094399364580757 
406	 9.56228785967504E-02 
407	 9.74367679157694E-02 
408	 9.86319149465338E-02 
409	 9.85574672373913E-02 
410	 9.93131628424399E-02 
411	 0.100791278878547 
412	 0.101827848923511 
413	 0.102001230940323 
414	 0.102467813869747 
415	 0.103513340894502 
416	 0.104183187036144 
417	 0.104080044089407 
418	 0.104403263281206 
419	 0.105812495532011 
420	 0.105948820130093 
421	 0.105074989047939 
422	 0.10438248773276 
423	 0.105273775450751 
424	 0.104906561857712 
425	 0.104126538694505 
426	 0.103707242419757 
427	 0.103415617388594 
428	 0.103105174018039 
429	 0.102491213514165 
430	 0.101486085956158 
431	 0.101071916439426 
432	 0.100682902657744 
433	 0.100300916605015 
434	 0.10046915438307 
435	 0.100537423513067 
436	 0.100461584749408 
437	 0.100378010297686 
438	 0.100506187292165 
439	 0.101073373597384 
440	 0.101861827780657 
441	 0.102503623114793 
442	 0.103511771446556 
443	 0.104378409747009 
444	 0.104918417891619 
445	 0.105545583217 
446	 0.106421975271493 
447	 0.10747636417692 
448	 0.108504619894912 
449	 0.109119536825476 
450	 0.109903567824708 
451	 0.110997690353135 
452	 0.112120205020005 
453	 0.11276616935053 
454	 0.113224869615102 
455	 0.11384461178356 
456	 0.114768174087874 
457	 0.115602985337744 
458	 0.116185200956372 
459	 0.11651589990035 
460	 0.116873605351375 
461	 0.117390849871378 
462	 0.117990463861078 
463	 0.118332562435246 
464	 0.118740891206602 
465	 0.119141659806476 
466	 0.119408656749823 
467	 0.119621100245059 
468	 0.120093379915192 
469	 0.120640437515666 
470	 0.120722150963551 
471	 0.12087714748969 
472	 0.121210471173826 
473	 0.121607378882604 
474	 0.121592653561367 
475	 0.121734586216897 
476	 0.121973351947034 
477	 0.122041604242509 
478	 0.122345223756432 
479	 0.122561923986378 
480	 0.122627055155783 
481	 0.122910915072162 
482	 0.123274602419718 
483	 0.123638829248745 
484	 0.123926640709341 
485	 0.124018465551719 
486	 0.124155521419167 
487	 0.124404164718111 
488	 0.124673410648357 
489	 0.124938820924875 
490	 0.12505025725495 
491	 0.125037294778729 
492	 0.125437177991987 
493	 0.125644958666847 
494	 0.125700540824695 
495	 0.125919720484889 
496	 0.126215195708756 
497	 0.126408546216214 
498	 0.12648135728097 
499	 0.126658789119252 
500	 0.12690340947254 
501	 0.127097277445523 
502	 0.127156778433346 
503	 0.127265291960504 
504	 0.127411996469585 
505	 0.127581736239601 
506	 0.127760123426516 
507	 0.127896227024265 
508	 0.127977543756901 
509	 0.128050464632777 
510	 0.128310237696327 
511	 0.128460057468988 
512	 0.128548291266122 
513	 0.12877708950226 
514	 0.128919194602428 
515	 0.129069658540801 
516	 0.129260598185874 
517	 0.129347604702712 
518	 0.129534729839457 
519	 0.129743524390011 
520	 0.129840433469346 
521	 0.129920826361632 
522	 0.130017682959656 
523	 0.13015973003954 
524	 0.130371724968529 
525	 0.130484027595595 
526	 0.130527093442419 
527	 0.130591661297271 
528	 0.130810900942786 
529	 0.130941544886193 
530	 0.131050627445662 
531	 0.131371897126799 
532	 0.131515281275822 
533	 0.131579062981275 
534	 0.13170147309691 
535	 0.131976364484004 
536	 0.132132580000887 
537	 0.13223666723253 
538	 0.132453730677926 
539	 0.132610381061697 
540	 0.132738441436169 
541	 0.132896553317638 
542	 0.133158030388885 
543	 0.133371306439342 
544	 0.133584728151676 
545	 0.133860802246925 
546	 0.134097493584368 
547	 0.134225645772924 
548	 0.134359317815148 
549	 0.134742352419975 
550	 0.135051676060762 
551	 0.135334131732714 
552	 0.135656598405764 
553	 0.13595094148623 
554	 0.136248002335229 
555	 0.136551441651459 
556	 0.136859573521058 
557	 0.13725883998266 
558	 0.137612697530416 
559	 0.137912296365789 
560	 0.138423699712719 
561	 0.138856643821314 
562	 0.139314252239851 
563	 0.139989100149617 
564	 0.140778369553032 
565	 0.14159561898673 
566	 0.142358009208236 
567	 0.142990947639829 
568	 0.143581867870835 
569	 0.144121437564103 
570	 0.144619802838142 
571	 0.1452190594611 
572	 0.145911480959602 
573	 0.146653519679591 
574	 0.147388081282205 
575	 0.148229134135427 
576	 0.149250253049201 
577	 0.150445100654752 
578	 0.151684089773805 
579	 0.152778027203531 
580	 0.153729305408138 
581	 0.154635167620989 
582	 0.155494386432916 
583	 0.156361352456434 
584	 0.157312285826533 
585	 0.158451282986421 
586	 0.159852032119992 
587	 0.161367710975795 
588	 0.16282180401202 
589	 0.164263027131716 
590	 0.165625939605494 
591	 0.166895862737703 
592	 0.168106840251318 
593	 0.169149107690375 
594	 0.170002549272005 
595	 0.170767280391505 
596	 0.171794503025393 
597	 0.172963890030505 
598	 0.174170222246917 
599	 0.175339592368657 
600	 0.176643183468569 
601	 0.177962175924525 
602	 0.17918957451408 
603	 0.180298627417565 
604	 0.18138876623973 
605	 0.182508598920664 
606	 0.183659189399627 
607	 0.184714683207052 
608	 0.185668673071944 
609	 0.186571928554814 
610	 0.187528846488088 
611	 0.188394402604147 
612	 0.189207837418206 
613	 0.190009617461763 
614	 0.190690571949399 
615	 0.191365750378131 
616	 0.192037456194991 
617	 0.192635993066054 
618	 0.193311587611536 
619	 0.193907036388404 
620	 0.194360446688118 
621	 0.194908524411826 
622	 0.195440048537967 
623	 0.195945433418054 
624	 0.19644449023526 
625	 0.196900781514082 
626	 0.197313454621241 
627	 0.197720769171781 
628	 0.198207314641997 
629	 0.198628623917473 
630	 0.19901741291233 
631	 0.199433759895581 
632	 0.199832955256105 
633	 0.200242104770121 
634	 0.20064390723798 
635	 0.200988618448347 
636	 0.201307032542867 
637	 0.201683771023866 
638	 0.20212783977337 
639	 0.202440957033315 
640	 0.202773575833357 
641	 0.203154470512682 
642	 0.203554969041772 
643	 0.203964494452923 
644	 0.204359734284834 
645	 0.204726274307026 
646	 0.205059791139219 
647	 0.205446662247926 
648	 0.205873329658012 
649	 0.206310411217792 
650	 0.2068188665792 
651	 0.207255918456745 
652	 0.207628961984113 
653	 0.208075732602505 
654	 0.20855092480776 
655	 0.208970094602799 
656	 0.209328261655282 
657	 0.209833611644436 
658	 0.21038589359167 
659	 0.21092558537343 
660	 0.21141687821551 
661	 0.211879206184526 
662	 0.212393746424642 
663	 0.212959705279792 
664	 0.213449052664107 
665	 0.21399694424342 
666	 0.214570459413068 
667	 0.215119092346425 
668	 0.215727497121375 
669	 0.216363107886441 
670	 0.217020943691537 
671	 0.217714063876238 
672	 0.218345526323519 
673	 0.21896159450108 
674	 0.219611071618498 
675	 0.220290592295138 
676	 0.220937695077028 
677	 0.221605131340872 
678	 0.222374913756894 
679	 0.223145577620144 
680	 0.223879564526391 
681	 0.224594412071306 
682	 0.225369555738746 
683	 0.226178459763506 
684	 0.226986337632486 
685	 0.227778226140705 
686	 0.228628497770485 
687	 0.229471053802946 
688	 0.230281823836777 
689	 0.231076632191046 
690	 0.231955759817767 
691	 0.232854434406707 
692	 0.233732725694015 
693	 0.234658870085844 
694	 0.235536193528495 
695	 0.236411063229091 
696	 0.237354401058984 
697	 0.238251480296173 
698	 0.239194979595331 
699	 0.24017878201668 
700	 0.241085372881286 
701	 0.242025862353786 
702	 0.242976308702032 
703	 0.243918799963402 
704	 0.244941845843918 
705	 0.245940980170738 
706	 0.246889925064424 
707	 0.247812086969092 
708	 0.248761757183592 
709	 0.249753069677117 
710	 0.250758372235471 
711	 0.251701697642208 
712	 0.252636336182605 
713	 0.253571881294903 
714	 0.25450627435207 
715	 0.255436406386589 
716	 0.256348142363967 
717	 0.257242518923913 
718	 0.25813584998114 
719	 0.259083725673385 
720	 0.259979506582501 
721	 0.260769309845651 
722	 0.261543484151127 
723	 0.262345390912396 
724	 0.263098385778244 
725	 0.263736217899756 
726	 0.264472969898273 
727	 0.265209893317028 
728	 0.265902235132408 
729	 0.26656687408838 
730	 0.267125036728835 
731	 0.267658980594446 
732	 0.268225786842037 
733	 0.268760992820178 
734	 0.269209399032393 
735	 0.269594691910859 
736	 0.269968259165784 
737	 0.270302627400692 
738	 0.270623133176746 
739	 0.270919554327816 
740	 0.271142740602035 
741	 0.271384585952965 
742	 0.271541777535084 
743	 0.27156836882291 
744	 0.271689191410485 
745	 0.271751638925229 
746	 0.271759021388178 
747	 0.271772691712105 
748	 0.271709221364379 
749	 0.271592227048236 
750	 0.271462138711388 
751	 0.271364852160528 
752	 0.271207087680177 
753	 0.27095346476602 
754	 0.270622253261865 
755	 0.270331921502082 
756	 0.270071423838054 
757	 0.269759086073534 
758	 0.26930820658785 
759	 0.268883412574682 
760	 0.268474459442667 
761	 0.268052123023754 
762	 0.267586712836337 
763	 0.26712389568944 
764	 0.266631767725709 
765	 0.266089065058962 
766	 0.265552267449012 
767	 0.265036119312721 
768	 0.264519427598214 
769	 0.263965650419961 
770	 0.263387885957055 
771	 0.262794806410252 
772	 0.262171505419748 
773	 0.261479215035503 
774	 0.260867014358654 
775	 0.260290111699455 
776	 0.259666485370342 
777	 0.258929497874023 
778	 0.258264875340966 
779	 0.257677467544121 
780	 0.257080020059192 
781	 0.256417721658968 
782	 0.255748508503035 
783	 0.255087976111207 
784	 0.254400128595427 
785	 0.25369884055432 
786	 0.253066603769757 
787	 0.252518331009612 
788	 0.251876230903159 
789	 0.251290702635319 
790	 0.250690245548224 
791	 0.249972426257203 
792	 0.24931764079225 
793	 0.248677622220613 
794	 0.248038903202502 
795	 0.247424291232923 
796	 0.24678721559522 
797	 0.246185295350164 
798	 0.245628261620359 
799	 0.245007420790038 
800	 0.244474929320122 
801	 0.243940758301898 
802	 0.2433043878575 
803	 0.242718987012207 
804	 0.242196154050094 
805	 0.241681742979347 
806	 0.241101972975683 
807	 0.240581015030619 
808	 0.240102288868698 
809	 0.239622459144397 
810	 0.239087018990732 
811	 0.238568758418187 
812	 0.23803291783555 
813	 0.237489359460003 
814	 0.237142732412922 
815	 0.236788125856726 
816	 0.236342671442996 
817	 0.23580671282919 
818	 0.235292272132755 
819	 0.234879096486678 
820	 0.234526096364658 
821	 0.234107093153765 
822	 0.233765135705227 
823	 0.233355062440391 
824	 0.232856960345437 
825	 0.232517060529745 
826	 0.232217594868379 
827	 0.231923071485607 
828	 0.23162236196086 
829	 0.231328070457367 
830	 0.230932306963781 
831	 0.230507258953914 
832	 0.230201282633822 
833	 0.230037198540531 
834	 0.229794060939511 
835	 0.229443391084722 
836	 0.229154056668788 
837	 0.228947489568342 
838	 0.228770274468453 
839	 0.228573909349639 
840	 0.228348143419344 
841	 0.228059952960949 
842	 0.227793309919082 
843	 0.227610007955837 
844	 0.227398560374135 
845	 0.227214744639101 
846	 0.227064579393358 
847	 0.226940518722943 
848	 0.226910063539726 
849	 0.226784174998592 
850	 0.226573612974764 
851	 0.226457631885366 
852	 0.226344992825976 
853	 0.226258460056009 
854	 0.226190073654452 
855	 0.226071219749526 
856	 0.226022638230615 
857	 0.225992063044834 
858	 0.225932075981091 
859	 0.225914631253175 
860	 0.225935333692017 
861	 0.225925689519769 
862	 0.225830428620741 
863	 0.225741858250064 
864	 0.225776850393363 
865	 0.225861881236753 
866	 0.225838911282113 
867	 0.225866984803777 
868	 0.225921541676039 
869	 0.225970541632306 
870	 0.225997554939182 
871	 0.226068407003216 
872	 0.226202768879533 
873	 0.226371481023298 
874	 0.226486618429383 
875	 0.226577331303739 
876	 0.226651516030793 
877	 0.226739402938634 
878	 0.2269378748869 
879	 0.227176842268318 
880	 0.227367406425991 
881	 0.227463650582494 
882	 0.227609378174509 
883	 0.227768977875645 
884	 0.227973335175571 
885	 0.228258556887431 
886	 0.228465578087598 
887	 0.228692577128681 
888	 0.22892628928513 
889	 0.229072585673651 
890	 0.22936289315767 
891	 0.2297068039057 
892	 0.230019470874583 
893	 0.230285589956011 
894	 0.230579908484939 
895	 0.230885563964865 
896	 0.231183479985766 
897	 0.23148363024269 
898	 0.231892324097851 
899	 0.232336991573403 
900	 0.23272804036599 
901	 0.233064754931393 
902	 0.233425623071877 
903	 0.233820104471294 
904	 0.234233840029986 
905	 0.234673523557403 
906	 0.235130019733911 
907	 0.235625448121101 
908	 0.236168919821568 
909	 0.236642300558561 
910	 0.237060856034671 
911	 0.237452067007392 
912	 0.23786449704567 
913	 0.238447511369142 
914	 0.239082447773168 
915	 0.239678735845249 
916	 0.240213220869001 
917	 0.240785173299311 
918	 0.241340574585277 
919	 0.241893303269512 
920	 0.242541916855402 
921	 0.243184142946529 
922	 0.243759283896073 
923	 0.244308555134069 
924	 0.244997331442319 
925	 0.24568125245937 
926	 0.246408177092493 
927	 0.247170141814876 
928	 0.247789863443536 
929	 0.248521627203139 
930	 0.249323327825206 
931	 0.250099251523738 
932	 0.250818434537454 
933	 0.251672364931592 
934	 0.252569529675144 
935	 0.253390306293141 
936	 0.254202937137961 
937	 0.25491974109884 
938	 0.255659898898003 
939	 0.256549486768783 
940	 0.257482088846644 
941	 0.258539599852908 
942	 0.259604916735647 
943	 0.26052110515756 
944	 0.261285448665597 
945	 0.262108271866505 
946	 0.263089521939365 
947	 0.26418825558743 
948	 0.265074163596315 
949	 0.266059696961322 
950	 0.267132843695952 
951	 0.268147495558704 
952	 0.269266095454213 
953	 0.270231042815435 
954	 0.27120412674972 
955	 0.272466885131058 
956	 0.273550251552393 
957	 0.2746707897786 
958	 0.275853983254372 
959	 0.277003298455998 
960	 0.278173318482137 
961	 0.279388030512548 
962	 0.280574565376251 
963	 0.281639617415865 
964	 0.282734333248359 
965	 0.284008244252075 
966	 0.285351576041217 
967	 0.286551808382034 
968	 0.287889233902597 
969	 0.289209291687443 
970	 0.290474005509185 
971	 0.291730181673695 
972	 0.29291383185307 
973	 0.294088028070164 
974	 0.295334794554117 
975	 0.296726292096022 
976	 0.298300088566522 
977	 0.299705353065491 
978	 0.300943177963484 
979	 0.302259244579601 
980	 0.303725948497531 
981	 0.30516102818279 
982	 0.306479036611 
983	 0.307726276748806 
984	 0.309182581842479 
985	 0.310468645783261 
986	 0.311745173083104 
987	 0.31334014049915 
988	 0.3147262955896 
989	 0.315890084572413 
990	 0.317096297075776 
991	 0.318625110009841 
992	 0.320213620017646 
993	 0.321617665827809 
994	 0.322956770745467 
995	 0.324413021625612 
996	 0.325663413933411 
997	 0.327088321828599 
998	 0.328500190778315 
999	 0.32967245276143 
1000	 0.331060802192533 
1001	 0.331734529638909 
1002	 0.333020648164459 
1003	 0.33430400825438 
1004	 0.335552476279441 
1005	 0.336808576440258 
1006	 0.338089558008834 
1007	 0.339383198312484 
1008	 0.340569427287953 
1009	 0.341805069097643 
1010	 0.342994208574986 
1011	 0.344137214749438 
1012	 0.345306694683397 
1013	 0.346477425189513 
1014	 0.347700062747546 
1015	 0.348890495343673 
1016	 0.350045636537653 
1017	 0.351201240752013 
1018	 0.352360170312517 
1019	 0.353443331235206 
1020	 0.354464632613158 
1021	 0.35547912164113 
1022	 0.356468937623435 
1023	 0.357452803694148 
1024	 0.358494004590523 
1025	 0.359586287665328 
1026	 0.360662277830526 
1027	 0.361709240381814 
1028	 0.362774564311686 
1029	 0.363763108396493 
1030	 0.364706579317999 
1031	 0.365650715851826 
1032	 0.366577710478817 
1033	 0.36743792820336 
1034	 0.368366330395507 
1035	 0.36930453011299 
1036	 0.37020227291279 
1037	 0.371165925712413 
1038	 0.372097902618151 
1039	 0.373002759726634 
1040	 0.373933862316101 
1041	 0.374832281701846 
1042	 0.375735972103083 
1043	 0.376667477775955 
1044	 0.377582831556055 
1045	 0.378496195402257 
1046	 0.379418715401836 
1047	 0.380328795912118 
1048	 0.381184875982074 
1049	 0.382064465458004 
1050	 0.382965439845782 
1051	 0.383831776581506 
1052	 0.384743003724787 
1053	 0.385684838604 
1054	 0.386586052497546 
1055	 0.38749988887754 
1056	 0.388385663858307 
1057	 0.389243471334005 
1058	 0.390063290835296 
1059	 0.390900965768264 
1060	 0.391733707647026 
1061	 0.392506841459934 
1062	 0.393319792775338 
1063	 0.39414908310641 
1064	 0.395004978187855 
1065	 0.395870511180191 
1066	 0.396700296060339 
1067	 0.397488902400412 
1068	 0.398241269391579 
1069	 0.399003849385408 
1070	 0.399797308624675 
1071	 0.400644032654712 
1072	 0.401455281750493 
1073	 0.402289583344694 
1074	 0.40306476387658 
1075	 0.403822360722802 
1076	 0.404509537517523 
1077	 0.405178238312737 
1078	 0.405839480928339 
1079	 0.406534621687272 
1080	 0.407252552464341 
1081	 0.407979198568816 
1082	 0.408672092287153 
1083	 0.409356397436853 
1084	 0.410013472783025 
1085	 0.410709288331303 
1086	 0.411417054222296 
1087	 0.412096736667302 
1088	 0.412793869513236 
1089	 0.413469023360004 
1090	 0.414050002394856 
1091	 0.41465579052603 
1092	 0.415279308529577 
1093	 0.415856566066513 
1094	 0.416515679962137 
1095	 0.417188729544361 
1096	 0.417821151082976 
1097	 0.418470917628734 
1098	 0.419091958242336 
1099	 0.419671310680984 
1100	 0.420276642681287 
1101	 0.420882607772511 
1102	 0.42148280232319 
1103	 0.422108511298598 
1104	 0.422681782133679 
1105	 0.423222558358697 
1106	 0.423794628190676 
1107	 0.424340758868429 
1108	 0.424884698439749 
1109	 0.425441125214056 
1110	 0.425996553168783 
1111	 0.42655513769187 
1112	 0.427117145068449 
1113	 0.427674956353289 
1114	 0.428247428778019 
1115	 0.428786088985715 
1116	 0.429299273423549 
1117	 0.42982277073585 
1118	 0.430313952769834 
1119	 0.430842808241206 
1120	 0.431436965587823 
1121	 0.431990532328267 
1122	 0.432518301838511 
1123	 0.433078308612866 
1124	 0.433611643634809 
1125	 0.434107374613038 
1126	 0.434617880418547 
1127	 0.435124357832483 
1128	 0.435650784114962 
1129	 0.436196336184939 
1130	 0.436708978900595 
1131	 0.437223394183273 
1132	 0.437736728517839 
1133	 0.438214634085085 
1134	 0.438706030941141 
1135	 0.439211845117873 
1136	 0.439733618685396 
1137	 0.440221804553579 
1138	 0.440688570662265 
1139	 0.441166924157248 
1140	 0.441646108826906 
1141	 0.442115538397349 
1142	 0.442586899484174 
1143	 0.443047182125765 
1144	 0.443510433312711 
1145	 0.443932972550981 
1146	 0.444321483040102 
1147	 0.444726159413652 
1148	 0.445103720345785 
1149	 0.445500040845126 
1150	 0.445912832381174 
1151	 0.446335062483079 
1152	 0.446737246674072 
1153	 0.447132685807427 
1154	 0.447532494749585 
1155	 0.447918768224495 
1156	 0.448329532514793 
1157	 0.448767367792033 
1158	 0.449174934245445 
1159	 0.449599291911388 
1160	 0.449986993852362 
1161	 0.450318975519588 
1162	 0.450685265123979 
1163	 0.451065096011516 
1164	 0.451427745914203 
1165	 0.451778191826628 
1166	 0.452168276220861 
1167	 0.452519524729326 
1168	 0.452848928227979 
1169	 0.453192078837248 
1170	 0.453540239969594 
1171	 0.453881016433668 
1172	 0.454220288244937 
1173	 0.454553361164446 
1174	 0.454868745829814 
1175	 0.455210665069943 
1176	 0.455579275004447 
1177	 0.45591371390036 
1178	 0.456265525585473 
1179	 0.456582216675128 
1180	 0.456835417716333 
1181	 0.457122353575665 
1182	 0.45740999236037 
1183	 0.457705407356538 
1184	 0.458005914473889 
1185	 0.458327902212922 
1186	 0.458628121086745 
1187	 0.45892124115489 
1188	 0.459214243442849 
1189	 0.459499130815166 
1190	 0.459790660208208 
1191	 0.460097413836063 
1192	 0.460377467237876 
1193	 0.460654876372697 
1194	 0.46091519639164 
1195	 0.46113858865587 
1196	 0.461380355592937 
1197	 0.461614492093542 
1198	 0.461861491601462 
1199	 0.462116905620853 
1200	 0.462389864325728 
1201	 0.462642522496185 
1202	 0.46289778422318 
1203	 0.463143175383438 
1204	 0.463370895510215 
1205	 0.463612879063881 
1206	 0.463853984813149 
1207	 0.464104673639767 
1208	 0.464373728471512 
1209	 0.464622927137186 
1210	 0.464870471550318 
1211	 0.465113409613542 
1212	 0.465340915218826 
1213	 0.465571684912824 
1214	 0.465812479226296 
1215	 0.466039612214397 
1216	 0.466259300713884 
1217	 0.466473668224365 
1218	 0.46667787219147 
1219	 0.4668651203935 
1220	 0.467066117862188 
1221	 0.467256736323306 
1222	 0.467468865200477 
1223	 0.467705579559565 
1224	 0.467921204984214 
1225	 0.468140046068821 
1226	 0.468352206523671 
1227	 0.468553098943103 
1228	 0.46875209616202 
1229	 0.468940409537186 
1230	 0.469143099465614 
1231	 0.469362287024497 
1232	 0.469559804254271 
1233	 0.469752015860647 
1234	 0.469951437015964 
1235	 0.470136737629315 
1236	 0.470304834960138 
1237	 0.47046595767033 
1238	 0.470623577246395 
1239	 0.470777976984791 
1240	 0.470907736289447 
1241	 0.471057322505567 
1242	 0.471212137908113 
1243	 0.471378093493087 
1244	 0.471566737445109 
1245	 0.471733016649306 
1246	 0.471886769610523 
1247	 0.472059676742582 
1248	 0.472241620805625 
1249	 0.472400134870088 
1250	 0.472588132983005 
1251	 0.472775170217541 
1252	 0.472945114416131 
1253	 0.473096508437799 
1254	 0.473253792431509 
1255	 0.473415128302044 
1256	 0.473557670093221 
1257	 0.473690710248909 
1258	 0.473817853168416 
1259	 0.473928150406154 
1260	 0.474042845267032 
1261	 0.474156630667904 
1262	 0.474263670521074 
1263	 0.474354662403455 
1264	 0.474462695584001 
1265	 0.474574654174159 
1266	 0.474692034914325 
1267	 0.474815645950976 
1268	 0.474954106008659 
1269	 0.475091642387563 
1270	 0.475221331833722 
1271	 0.475376324649447 
1272	 0.475549919909852 
1273	 0.475724470064024 
1274	 0.475912787113773 
1275	 0.476100313119645 
1276	 0.476270071638859 
1277	 0.476487151736993 
1278	 0.476744986501154 
1279	 0.476983494752683 
1280	 0.477245473921891 
1281	 0.477498143143929 
1282	 0.477740899982626 
1283	 0.477976980043833 
1284	 0.478226792478286 
1285	 0.478449647250223 
1286	 0.478671675536933 
1287	 0.478883951083459 
1288	 0.47909576390905 
1289	 0.479313773902848 
1290	 0.479519121601426 
1291	 0.479709770982251 
1292	 0.479902297513625 
1293	 0.480111035803363 
1294	 0.480271595262352 
1295	 0.480404938868093 
1296	 0.480538412388865 
1297	 0.480633886749396 
1298	 0.480743882968765 
1299	 0.480879779763091 
1300	 0.480977730186066 
1301	 0.481042292917612 
1302	 0.481118400537569 
1303	 0.481181214388614 
1304	 0.481242034323569 
1305	 0.48130942102491 
1306	 0.481390822076447 
1307	 0.481443463733681 
1308	 0.481464119473576 
1309	 0.481469523312807 
1310	 0.481439823626994 
1311	 0.481420265530635 
1312	 0.48138443827538 
1313	 0.481363132341905 
1314	 0.481361969625161 
1315	 0.481330298751145 
1316	 0.481275710858595 
1317	 0.481235326573982 
1318	 0.481183121284078 
1319	 0.481136168022936 
1320	 0.481109348529019 
1321	 0.481068632238812 
1322	 0.481026075212176 
1323	 0.48096393903188 
1324	 0.480884909287748 
1325	 0.480828730898375 
1326	 0.48076428268894 
1327	 0.48068568935795 
1328	 0.480621882393778 
1329	 0.480560546050545 
1330	 0.480475559126167 
1331	 0.480375785797247 
1332	 0.480271824720322 
1333	 0.480154613253739 
1334	 0.480032912409604 
1335	 0.479888874271541 
1336	 0.479781833466681 
1337	 0.479682667137501 
1338	 0.479590985097751 
1339	 0.47954000925753 
1340	 0.479452883090371 
1341	 0.479351201725279 
1342	 0.479243432344206 
1343	 0.479103562751008 
1344	 0.478995294603157 
1345	 0.478905213898831 
1346	 0.478808774327206 
1347	 0.478728843318366 
1348	 0.478656476315303 
1349	 0.478548815975835 
1350	 0.478432012205008 
1351	 0.478334658017292 
1352	 0.478236559651679 
1353	 0.478142267308969 
1354	 0.47806630775389 
1355	 0.477976557228059 
1356	 0.477880831551738 
1357	 0.47778259759058 
1358	 0.47766821259293 
1359	 0.477580711962041 
1360	 0.477504170903914 
1361	 0.477424266354875 
1362	 0.477368920923552 
1363	 0.477294983426717 
1364	 0.477199941074396 
1365	 0.477117588973385 
1366	 0.477034122620481 
1367	 0.476957575383331 
1368	 0.476903824273705 
1369	 0.476842010941358 
1370	 0.476728548395445 
1371	 0.476617369575679 
1372	 0.476485699488604 
1373	 0.476320838330664 
1374	 0.476158901357266 
1375	 0.476010509455348 
1376	 0.475816659277329 
1377	 0.475602035496557 
1378	 0.475351216490702 
1379	 0.475062704340096 
1380	 0.474775202489416 
1381	 0.474444355006871 
1382	 0.474135966016302 
1383	 0.473865531049562 
1384	 0.473530317295151 
1385	 0.473200339678735 
1386	 0.472802806769504 
1387	 0.472339347749538 
1388	 0.471853736196819 
1389	 0.47133239004163 
1390	 0.470779940892017 
1391	 0.470186680019455 
1392	 0.469532309019465 
1393	 0.468809140689941 
1394	 0.468037341994906 
1395	 0.467183312204619 
1396	 0.466322290939659 
1397	 0.465474531392669 
1398	 0.46460244686391 
1399	 0.463729654375796 
1400	 0.462878937408143 
1401	 0.461989391078527 
1402	 0.461045644307674 
1403	 0.460160070506619 
1404	 0.459265971661161 
1405	 0.458426901245175 
1406	 0.457636074855214 
1407	 0.456844838460952 
1408	 0.4560752448981 
1409	 0.455325508517035 
1410	 0.454537479911803 
1411	 0.453867993607958 
1412	 0.453245030851396 
1413	 0.45269822104132 
1414	 0.452282615998089 
1415	 0.451918472446601 
1416	 0.451586765669994 
1417	 0.451303123236107 
1418	 0.451020385285529 
1419	 0.450742057938616 
1420	 0.450487442929431 
1421	 0.450255303423321 
1422	 0.450035520201326 
1423	 0.449807980864755 
1424	 0.449550143193664 
1425	 0.449272205908653 
1426	 0.449003777544582 
1427	 0.448684231022366 
1428	 0.448444922932963 
1429	 0.44824716421888 
1430	 0.448055504490467 
1431	 0.447916403316844 
1432	 0.447747012663138 
1433	 0.447564205850316 
1434	 0.447405076145647 
1435	 0.447224514196136 
1436	 0.447099558358855 
1437	 0.447015271761515 
1438	 0.446939218789491 
1439	 0.446900453773523 
1440	 0.446871337762761 
1441	 0.446812345440674 
1442	 0.446748465037556 
1443	 0.446657345987552 
1444	 0.446558715710195 
1445	 0.446496991052237 
1446	 0.446451185352115 
1447	 0.446426699376155 
1448	 0.446409686231165 
1449	 0.446335432569444 
1450	 0.446243313129576 
1451	 0.446163539164021 
1452	 0.446055372460151 
1453	 0.445974468075451 
1454	 0.445923788661136 
1455	 0.445849674099043 
1456	 0.445779140384313 
1457	 0.445685331300949 
1458	 0.445576361441599 
1459	 0.445464170354694 
1460	 0.445311191655548 
1461	 0.445210154389842 
1462	 0.445125802597087 
1463	 0.445050405286484 
1464	 0.44501800127876 
1465	 0.444960924165098 
1466	 0.444882763317192 
1467	 0.444832585686341 
1468	 0.444745048295892 
1469	 0.444746748659283 
1470	 0.444805094670259 
1471	 0.444889296885563 
1472	 0.445033826175503 
1473	 0.445202930321231 
1474	 0.44534861878608 
1475	 0.445525005832289 
1476	 0.445693564343655 
1477	 0.445870731813199 
1478	 0.446067264479632 
1479	 0.446272519636667 
1480	 0.446528644195993 
1481	 0.446783153785158 
1482	 0.447032752379094 
1483	 0.447305138233162 
1484	 0.447545696689168 
1485	 0.447753278981349 
1486	 0.448000991296002 
1487	 0.448253666980184 
1488	 0.448508856579456 
1489	 0.448801942462268 
1490	 0.44905147724292 
1491	 0.449286506836555 
1492	 0.449506474224458 
1493	 0.44968978893474 
1494	 0.449894257180201 
1495	 0.450096207820156 
1496	 0.450297151286982 
1497	 0.45052043162215 
1498	 0.450715629380374 
1499	 0.45090286283253 
1500	 0.451063625170795 
1501	 0.451188150382649 
1502	 0.451324948212039 
1503	 0.45143422893883 
1504	 0.451572675646944 
1505	 0.451739572198523 
1506	 0.451889597756372 
1507	 0.452060319346773 
1508	 0.452213265171979 
1509	 0.452364272240398 
1510	 0.452545045686877 
1511	 0.452691537585033 
1512	 0.452835811968031 
1513	 0.45298011986207 
1514	 0.453113752674117 
1515	 0.453263308718839 
1516	 0.453423948259052 
1517	 0.453578296302403 
1518	 0.453732921913437 
1519	 0.453874562865879 
1520	 0.454017966018722 
1521	 0.454150958856432 
1522	 0.454264795591478 
1523	 0.454387883475865 
1524	 0.454511369822067 
1525	 0.454627759916393 
1526	 0.454742580820355 
1527	 0.454860536076781 
1528	 0.454976825615279 
1529	 0.45508972464486 
1530	 0.455203207147637 
1531	 0.455309606757881 
1532	 0.455418754272467 
1533	 0.45550941224791 
1534	 0.455583959325231 
1535	 0.455665322449982 
1536	 0.45573302895796 
1537	 0.455804928178595 
1538	 0.455883175161118 
1539	 0.455963491770486 
1540	 0.456034375809897 
1541	 0.456117284522058 
1542	 0.456212449939518 
1543	 0.456305474484391 
1544	 0.456409103430225 
1545	 0.456505657570399 
1546	 0.456604664457389 
1547	 0.456696074345071 
1548	 0.456761888803313 
1549	 0.456814821674526 
1550	 0.456885195560516 
1551	 0.456939613386168 
1552	 0.456998360908447 
1553	 0.45710042119139 
1554	 0.45718464140369 
1555	 0.457247362444206 
1556	 0.457298157357965 
1557	 0.457319573673009 
1558	 0.457335256392444 
1559	 0.45736579577766 
1560	 0.457407162834634 
1561	 0.457475575084635 
1562	 0.457513703503411 
1563	 0.457534523076108 
1564	 0.457586499367391 
1565	 0.45763897091782 
1566	 0.457702101926465 
1567	 0.457793301463459 
1568	 0.457873380725483 
1569	 0.457955047785116 
1570	 0.458020657724585 
1571	 0.458098540380406 
1572	 0.458135934565753 
1573	 0.458129827538746 
1574	 0.458152362601595 
1575	 0.458171265311647 
1576	 0.458181799419535 
1577	 0.458200024478545 
1578	 0.458206620338129 
1579	 0.458171674718999 
1580	 0.458196666186011 
1581	 0.458255039469331 
1582	 0.458306153651605 
1583	 0.458403114950519 
1584	 0.458458190655477 
1585	 0.458480651797222 
1586	 0.458518648572104 
1587	 0.458563029202256 
1588	 0.458582423909331 
1589	 0.45859025520806 
1590	 0.458602750611717 
1591	 0.458592923635994 
1592	 0.458593713352739 
1593	 0.458602075536196 
1594	 0.458617520856692 
1595	 0.458621291335131 
1596	 0.458649031211951 
1597	 0.458729847285333 
1598	 0.4587599686918 
1599	 0.458782241711219 
1600	 0.458789038325373 
1601	 0.458740407715057 
1602	 0.45871887319948 
1603	 0.458698116261298 
1604	 0.458690773816416 
1605	 0.458691125831557 
1606	 0.458707508368674 
1607	 0.458743887161043 
1608	 0.458787783979603 
1609	 0.45883723366532 
1610	 0.458860682205533 
1611	 0.458847181736167 
1612	 0.458830110130832 
1613	 0.458799780506247 
1614	 0.458781907133004 
1615	 0.458775867431178 
1616	 0.458776458207085 
1617	 0.458802118701855 
1618	 0.458805068572779 
1619	 0.458796288481083 
1620	 0.458795880918847 
1621	 0.458775536280522 
1622	 0.458735662894084 
1623	 0.458691560136723 
1624	 0.458637762426005 
1625	 0.458587997826426 
1626	 0.458520606017909 
1627	 0.458481208444077 
1628	 0.45845589071468 
1629	 0.458437789642461 
1630	 0.458434124366767 
1631	 0.45842180331536 
1632	 0.458417199897972 
1633	 0.458403392524522 
1634	 0.458390075904408 
1635	 0.458357939294137 
1636	 0.458321742139517 
1637	 0.45826578506956 
1638	 0.458172430636359 
1639	 0.458123328696268 
1640	 0.458074417430489 
1641	 0.458049116444095 
1642	 0.45806460910274 
1643	 0.458047903414124 
1644	 0.458030831933638 
1645	 0.458004888480174 
1646	 0.457957565669227 
1647	 0.457935981680083 
1648	 0.457932240299688 
1649	 0.457902315038464 
1650	 0.457869772545449 
1651	 0.457838511050013 
1652	 0.457791591571417 
1653	 0.457745761533441 
1654	 0.457706615423781 
1655	 0.457666647137536 
1656	 0.457626658686051 
1657	 0.457563404542012 
1658	 0.457497631966516 
1659	 0.457423741384233 
1660	 0.457313588778608 
1661	 0.457231594431043 
1662	 0.45716251471476 
1663	 0.457096956777569 
1664	 0.457028139841876 
1665	 0.456982760498586 
1666	 0.456949204374318 
1667	 0.45693429682003 
1668	 0.456964981655685 
1669	 0.456943602882212 
1670	 0.456919507427493 
1671	 0.456874732676313 
1672	 0.456785252111998 
1673	 0.456716389214445 
1674	 0.456651199100971 
1675	 0.456582109533368 
1676	 0.456503047306763 
1677	 0.456439215275469 
1678	 0.456390661551672 
1679	 0.456323232433419 
1680	 0.456258333056707 
1681	 0.456181961834438 
1682	 0.456070023895091 
1683	 0.456002251102403 
1684	 0.455954192829213 
1685	 0.455904518809761 
1686	 0.455900251080259 
1687	 0.455836167177569 
1688	 0.455723950537289 
1689	 0.455652114952133 
1690	 0.455572526597674 
1691	 0.455494728752075 
1692	 0.455447660541212 
1693	 0.455378697359875 
1694	 0.455271983653878 
1695	 0.455206939279969 
1696	 0.455160001679427 
1697	 0.455122339157143 
1698	 0.455115441814251 
1699	 0.455082995079213 
1700	 0.455067342433289 
1701	 0.455003591296454 
1702	 0.454899296681203 
1703	 0.454807726526949 
1704	 0.454691569840269 
1705	 0.454588257251703 
1706	 0.454492335229335 
1707	 0.454398653247425 
1708	 0.454295679106851 
1709	 0.454211463810954 
1710	 0.454159282881898 
1711	 0.454065637134088 
1712	 0.453960375386475 
1713	 0.453851868890688 
1714	 0.453714302115956 
1715	 0.453597508464309 
1716	 0.453481224321258 
1717	 0.453385791479915 
1718	 0.453299657098692 
1719	 0.453215369133873 
1720	 0.453160995329548 
1721	 0.453085720373654 
1722	 0.453000142915741 
1723	 0.452918666310102 
1724	 0.452840752009742 
1725	 0.452738473767004 
1726	 0.45263135286643 
1727	 0.452503907355372 
1728	 0.452341708196349 
1729	 0.452206328453051 
1730	 0.452077697900674 
1731	 0.451934073394015 
1732	 0.451801574766357 
1733	 0.45164909321454 
1734	 0.451456790151598 
1735	 0.451308392023512 
1736	 0.451183847178078 
1737	 0.451030960575519 
1738	 0.450886985712619 
1739	 0.450725011588003 
1740	 0.450516112651123 
1741	 0.450379518352388 
1742	 0.450285975447387 
1743	 0.450171410872957 
1744	 0.450081998222845 
1745	 0.449956533624173 
1746	 0.449802046301237 
1747	 0.449647344281557 
1748	 0.449535305432793 
1749	 0.449413016937946 
1750	 0.449259932452305 
1751	 0.449136227605928 
1752	 0.448958565391944 
1753	 0.448776517617827 
1754	 0.448642743840175 
1755	 0.448473964649992 
1756	 0.448338799419566 
1757	 0.448198999974552 
1758	 0.448014418347476 
1759	 0.447848338905713 
1760	 0.44768511677566 
1761	 0.447514223738961 
1762	 0.447356418799221 
1763	 0.447228348128586 
1764	 0.447080597085883 
1765	 0.446941327802843 
1766	 0.446812087618382 
1767	 0.446630645206999 
1768	 0.446475674071492 
1769	 0.446367769005794 
1770	 0.44625382361346 
1771	 0.446170947060079 
1772	 0.446088100965659 
1773	 0.445953843239808 
1774	 0.445837740904196 
1775	 0.445738555107858 
1776	 0.445576113459879 
1777	 0.445404770814487 
1778	 0.445261078939721 
1779	 0.445104988994404 
1780	 0.444995072668665 
1781	 0.444907288157461 
1782	 0.444815266301727 
1783	 0.444751641371465 
1784	 0.444709040586424 
1785	 0.444745827931797 
1786	 0.444726815498427 
1787	 0.444697436807053 
1788	 0.444642535757906 
1789	 0.444536037554303 
1790	 0.444451799625952 
1791	 0.44436063903686 
1792	 0.444277393844671 
1793	 0.444186942360033 
1794	 0.444145717102957 
1795	 0.444144105264127 
1796	 0.444095833037386 
1797	 0.444075299849999 
1798	 0.44402280501735 
1799	 0.443922307056806 
1800	 0.443846644827228 
1801	 0.448420071505763 
1802	 0.448714953986682 
1803	 0.449009682982168 
1804	 0.44938589684324 
1805	 0.449789381083192 
1806	 0.450174807865376 
1807	 0.450538144505989 
1808	 0.450847931799564 
1809	 0.45114980214007 
1810	 0.45138182650716 
1811	 0.451551593958948 
1812	 0.451705557300749 
1813	 0.451804854646389 
1814	 0.451833443889607 
1815	 0.451827177469934 
1816	 0.451810221366345 
1817	 0.451771895456559 
1818	 0.451693767896212 
1819	 0.451642951763127 
1820	 0.451596097300768 
1821	 0.451501714996226 
1822	 0.451471504844498 
1823	 0.451456360441019 
1824	 0.451386386801241 
1825	 0.451329238827186 
1826	 0.451273129547131 
1827	 0.451184081179647 
1828	 0.45105749289793 
1829	 0.450929781152422 
1830	 0.450753972927121 
1831	 0.450509111363554 
1832	 0.450262321893176 
1833	 0.450055508867764 
1834	 0.449854385579496 
1835	 0.449703506081811 
1836	 0.449564124189928 
1837	 0.449393273200453 
1838	 0.449226782694758 
1839	 0.449068570013345 
1840	 0.448913506951341 
1841	 0.448752853358157 
1842	 0.448598550205831 
1843	 0.448432678603635 
1844	 0.44824201691095 
1845	 0.448054933968036 
1846	 0.447881748008599 
1847	 0.447755993870712 
1848	 0.44769561986445 
1849	 0.447643258395289 
1850	 0.447591212283095 
1851	 0.447559731449031 
1852	 0.447534717574608 
1853	 0.447496707569897 
1854	 0.447420251504199 
1855	 0.447325639561269 
1856	 0.447213953887978 
1857	 0.447024462354739 
1858	 0.446835079291149 
1859	 0.446638109734089 
1860	 0.44638917619875 
1861	 0.44608506084772 
1862	 0.44579091840091 
1863	 0.445480396747721 
1864	 0.445147589953348 
1865	 0.444830946727685 
1866	 0.44449017042959 
1867	 0.444110482996961 
1868	 0.443653369360578 
1869	 0.44316271541341 
1870	 0.442673525911232 
1871	 0.442123357142608 
1872	 0.44152887558926 
1873	 0.440933164055222 
1874	 0.440265997309318 
1875	 0.439483706888082 
1876	 0.438665734844009 
1877	 0.437768068794885 
1878	 0.436764348372538 
1879	 0.435676373436698 
1880	 0.434456795320444 
1881	 0.433101088358488 
1882	 0.431664596351647 
1883	 0.430137068711588 
1884	 0.42845526105695 
1885	 0.426704037542584 
1886	 0.424844425888403 
1887	 0.422828825618159 
1888	 0.420741937915308 
1889	 0.418539765615571 
1890	 0.416240032703879 
1891	 0.413884327095465 
1892	 0.41140182077341 
1893	 0.408921343238469 
1894	 0.406390949571859 
1895	 0.40382682074144 
1896	 0.40121233411778 
1897	 0.398640248626102 
1898	 0.396021900229551 
1899	 0.393396274640113 
1900	 0.390863020296405 
1901	 0.388334379563735 
1902	 0.385913560191526 
1903	 0.383601577492136 
1904	 0.381342548145867 
1905	 0.379132775498904 
1906	 0.377031933500406 
1907	 0.375017611696713 
1908	 0.37307901703228 
1909	 0.371248091195021 
1910	 0.369491507226043 
1911	 0.367825862118342 
1912	 0.366227390496206 
1913	 0.364717425791699 
1914	 0.363293764420076 
1915	 0.361957492206814 
1916	 0.360703165961 
1917	 0.359526649610725 
1918	 0.358464282483726 
1919	 0.357439521714723 
1920	 0.356488907574009 
1921	 0.355667621893058 
1922	 0.35491932878541 
1923	 0.354254161723999 
1924	 0.353644158753478 
1925	 0.353127404615316 
1926	 0.352644872417531 
1927	 0.352205664781075 
1928	 0.35181988895473 
1929	 0.351529245915676 
1930	 0.35129291577241 
1931	 0.351091446509241 
1932	 0.350955599171716 
1933	 0.350849115534549 
1934	 0.350785044504228 
1935	 0.350773408143172 
1936	 0.350824683897823 
1937	 0.350901821791796 
1938	 0.351029192628838 
1939	 0.351175451238005 
1940	 0.351365115718466 
1941	 0.351547543654879 
1942	 0.351770374464118 
1943	 0.352024992823995 
1944	 0.352283163207306 
1945	 0.352607011816115 
1946	 0.352934341732929 
1947	 0.353279917728588 
1948	 0.353650555632417 
1949	 0.354068350656735 
1950	 0.354454786509886 
1951	 0.35483636192635 
1952	 0.355245468445889 
1953	 0.355639746678864 
1954	 0.356067924331301 
1955	 0.356535117980287 
1956	 0.357003835414357 
1957	 0.357498352094907 
1958	 0.358013902284356 
1959	 0.358545155761202 
1960	 0.359111781393597 
1961	 0.359665006743882 
1962	 0.360223638121496 
1963	 0.360785387983727 
1964	 0.361342448991174 
1965	 0.361910211081762 
1966	 0.362494656562148 
1967	 0.36310219885809 
1968	 0.363709952122965 
1969	 0.364334787115828 
1970	 0.364955731781948 
1971	 0.365590639780186 
1972	 0.366201838635555 
1973	 0.366803945961549 
1974	 0.367404462967377 
1975	 0.367987361100617 
1976	 0.368582303716453 
1977	 0.369193773664959 
1978	 0.369782421798435 
1979	 0.370365211396104 
1980	 0.370983443410383 
1981	 0.371593528657422 
1982	 0.372208515523989 
1983	 0.372820834221693 
1984	 0.373429412365767 
1985	 0.374049924409987 
1986	 0.374696735254838 
1987	 0.37530322235822 
1988	 0.375898781312745 
1989	 0.376500930986747 
1990	 0.377066151239725 
1991	 0.377613269138895 
1992	 0.378172391054514 
1993	 0.378731289361547 
1994	 0.379302523313998 
1995	 0.379880640536244 
1996	 0.38044914153739 
1997	 0.381019490189012 
1998	 0.38160298024467 
1999	 0.382174713971645 
2000	 0.382760259958611 
2001	 0.383369340783222 
2002	 0.383983504464765 
2003	 0.384592431999548 
2004	 0.38519116986901 
2005	 0.385775153066492 
2006	 0.38636218773565 
2007	 0.386914911700555 
2008	 0.38742688465526 
2009	 0.38796332411919 
2010	 0.388477310673104 
2011	 0.389019904405634 
2012	 0.389594216110151 
2013	 0.390148390496104 
2014	 0.390710139370074 
2015	 0.39125975463722 
2016	 0.391798923905162 
2017	 0.392336012801526 
2018	 0.392872034218754 
2019	 0.393410568466361 
2020	 0.393939172227335 
2021	 0.394465068455616 
2022	 0.394981462882603 
2023	 0.395474915666117 
2024	 0.395992762446514 
2025	 0.396526110680788 
2026	 0.397039823501303 
2027	 0.397562891345605 
2028	 0.398081389255696 
2029	 0.398565066557389 
2030	 0.399015721765611 
2031	 0.399478189804753 
2032	 0.399930538977683 
2033	 0.400366416357336 
2034	 0.400802233028092 
2035	 0.401214518989679 
2036	 0.401597465752321 
2037	 0.401989124230809 
2038	 0.402376310418429 
2039	 0.402746421178396 
2040	 0.403101695922129 
2041	 0.403450788175204 
2042	 0.40381392639879 
2043	 0.404194598504844 
2044	 0.404574725291539 
2045	 0.404990387295785 
2046	 0.405368034877999 
2047	 0.405731920866663 
2048	 0.406085098378498 
2049	 0.406436556916992 
2050	 0.406761463196004 
2051	 0.407051032502764 
2052	 0.407355210968289 
2053	 0.407650011555105 
2054	 0.407938390591293 
2055	 0.408230059537386 
2056	 0.408514410094194 
2057	 0.408800045558798 
2058	 0.409071776446893 
2059	 0.409357726958628 
2060	 0.409657881701229 
2061	 0.409945109181416 
2062	 0.410244529237103 
2063	 0.410512105946513 
2064	 0.410751477405565 
2065	 0.411001826493881 
2066	 0.411244862719285 
2067	 0.411474988063704 
2068	 0.411684334188155 
2069	 0.411929865222063 
2070	 0.412159223383103 
2071	 0.412364036856541 
2072	 0.412604784164063 
2073	 0.412873873793056 
2074	 0.413125490384149 
2075	 0.413394048819504 
2076	 0.413632680215361 
2077	 0.413836374837184 
2078	 0.414071390529944 
2079	 0.414300748928269 
2080	 0.414544089714305 
2081	 0.414822119859275 
2082	 0.415087323391644 
2083	 0.41534864911647 
2084	 0.415608472396891 
2085	 0.415867176619255 
2086	 0.416133840357444 
2087	 0.416369350309019 
2088	 0.416591744800382 
2089	 0.416809574429889 
2090	 0.41700990785169 
2091	 0.417201483228874 
2092	 0.41738295444579 
2093	 0.417566846004061 
2094	 0.417732992964357 
2095	 0.417908006382595 
2096	 0.418076019573525 
2097	 0.4182681222851 
2098	 0.418477813821363 
2099	 0.41868136945956 
2100	 0.418888549915168 
2101	 0.419111008575904 
2102	 0.419336528514231 
2103	 0.419559981361368 
2104	 0.41978403309622 
2105	 0.420024400676532 
2106	 0.420257090498592 
2107	 0.420480624130042 
2108	 0.42070251286745 
2109	 0.420918812211362 
2110	 0.421150955829854 
2111	 0.421362367196664 
2112	 0.421610499319844 
2113	 0.421887313450119 
2114	 0.422196544569413 
2115	 0.422466622382764 
2116	 0.422740974018502 
2117	 0.423016560192988 
2118	 0.42326364032049 
2119	 0.423543075630945 
2120	 0.423852774971185 
2121	 0.424148943106706 
2122	 0.424464146197642 
2123	 0.424742180696476 
2124	 0.425025954183382 
2125	 0.425261467353032 
2126	 0.425449898810287 
2127	 0.42563373746893 
2128	 0.42578461771495 
2129	 0.425931427413225 
2130	 0.426074023058255 
2131	 0.426199615978037 
2132	 0.426300023572849 
2133	 0.426389807334109 
2134	 0.426444898473592 
2135	 0.426466652621143 
2136	 0.426475943924783 
2137	 0.42645194963649 
2138	 0.426431048680487 
2139	 0.426408402204883 
2140	 0.426355349891561 
2141	 0.426281612775555 
2142	 0.426198665116733 
2143	 0.426101570016417 
2144	 0.425976969557126 
2145	 0.425825047510391 
2146	 0.425677512917318 
2147	 0.425490634342659 
2148	 0.42532270250177 
2149	 0.425164210333121 
2150	 0.425039906596858 
2151	 0.424856895257633 
2152	 0.424664015502451 
2153	 0.424443516513205 
2154	 0.424174644072692 
2155	 0.423920093362713 
2156	 0.42368559096725 
2157	 0.423395281191717 
2158	 0.423080581224007 
2159	 0.422740614696861 
2160	 0.422351496658679 
2161	 0.4219531842251 
2162	 0.421532467120258 
2163	 0.421108732716628 
2164	 0.420649993905513 
2165	 0.420213719791085 
2166	 0.419771395540817 
2167	 0.419333525064474 
2168	 0.418878533849519 
2169	 0.418405234338762 
2170	 0.417961859383423 
2171	 0.417514768683814 
2172	 0.417085396397842 
2173	 0.416690781850672 
2174	 0.416277893644897 
2175	 0.415870200608612 
2176	 0.415447268484632 
2177	 0.415040747884614 
2178	 0.41458424734593 
2179	 0.414086013710142 
2180	 0.413588540930479 
2181	 0.413065138179418 
2182	 0.412530756276982 
2183	 0.411963753740441 
2184	 0.411428185671898 
2185	 0.410902906594806 
2186	 0.410350310313096 
2187	 0.409870429158009 
2188	 0.409455467968592 
2189	 0.409010272732154 
2190	 0.408577547300682 
2191	 0.408159250990053 
2192	 0.407723787591598 
2193	 0.407339138655619 
2194	 0.407013140712012 
2195	 0.406657903230784 
2196	 0.406317485555324 
2197	 0.405976171105961 
2198	 0.405590412750249 
2199	 0.405269202139868 
2200	 0.404975760235598 
2201	 0.404713347013677 
2202	 0.404482949538308 
2203	 0.404302040846228 
2204	 0.404143020784078 
2205	 0.404018478759759 
2206	 0.403908050944848 
2207	 0.40382394236097 
2208	 0.403772129191739 
2209	 0.403749272226535 
2210	 0.403739892907964 
2211	 0.403791371745126 
2212	 0.403793460812938 
2213	 0.403770309912262 
2214	 0.403775991298219 
2215	 0.403795394566178 
2216	 0.403792682219198 
2217	 0.403797146947887 
2218	 0.403796800614435 
2219	 0.403764529331981 
2220	 0.403747145360056 
2221	 0.40377460899175 
2222	 0.403751597021308 
2223	 0.403695203582299 
2224	 0.403645295163365 
2225	 0.403572518847761 
2226	 0.403465201294887 
2227	 0.40337171328281 
2228	 0.403276469908513 
2229	 0.403175575149805 
2230	 0.403081104840587 
2231	 0.402951885538436 
2232	 0.40280579299247 
2233	 0.402653359443064 
2234	 0.402491498708483 
2235	 0.402286739167804 
2236	 0.402057272053143 
2237	 0.401824555658063 
2238	 0.401541272106509 
2239	 0.401273881503342 
2240	 0.401027235767351 
2241	 0.400756887660739 
2242	 0.400460666565621 
2243	 0.400172473007404 
2244	 0.399899232199308 
2245	 0.399591891828504 
2246	 0.399274764258981 
2247	 0.398938677361113 
2248	 0.398580420964201 
2249	 0.398179060042166 
2250	 0.397816713693872 
2251	 0.397450766163362 
2252	 0.397090171120274 
2253	 0.396754313893122 
2254	 0.396388780517272 
2255	 0.395984341776649 
2256	 0.395637730806615 
2257	 0.395256894689218 
2258	 0.394990232976017 
2259	 0.394814776191033 
2260	 0.394645506971615 
2261	 0.394558845615744 
2262	 0.394452353688184 
2263	 0.394362026467522 
2264	 0.394257085710681 
2265	 0.394094246574568 
2266	 0.394049360995511 
2267	 0.394048668767971 
2268	 0.394081392958923 
2269	 0.394209393861148 
2270	 0.394379063175187 
2271	 0.394484471053947 
2272	 0.394595481150812 
2273	 0.394754611204761 
2274	 0.394869948457063 
2275	 0.394988953648101 
2276	 0.395117227075106 
2277	 0.395238652754727 
2278	 0.395314722968177 
2279	 0.395462835220763 
2280	 0.395634846284904 
2281	 0.395837960547085 
2282	 0.396091033754515 
2283	 0.396345825231164 
2284	 0.396666254737722 
2285	 0.396906487318841 
2286	 0.397123761221889 
2287	 0.397322593668688 
2288	 0.397469337537426 
2289	 0.397613281125461 
2290	 0.397773151905996 
2291	 0.397891986695327 
2292	 0.397946536137188 
2293	 0.398032290574554 
2294	 0.398108872900423 
2295	 0.398178516190497 
2296	 0.398248360407295 
2297	 0.398346665576263 
2298	 0.398391880425371 
2299	 0.398424822465571 
2300	 0.398485383280289 
2301	 0.398503109460361 
2302	 0.398510414466728 
2303	 0.398540818881096 
2304	 0.398570323905354 
2305	 0.398573649793826 
2306	 0.398566674340945 
2307	 0.3985531315034 
2308	 0.398544493292154 
2309	 0.398510782473419 
2310	 0.398503829635485 
2311	 0.398527065760809 
2312	 0.398517162905551 
2313	 0.398496990298694 
2314	 0.398476738037777 
2315	 0.398455216015849 
2316	 0.398407132955767 
2317	 0.398362908927781 
2318	 0.398269974782283 
2319	 0.398100282790061 
2320	 0.397989670354816 
2321	 0.39786380973389 
2322	 0.397782432588278 
2323	 0.397745907860122 
2324	 0.397724717032403 
2325	 0.397737881029317 
2326	 0.397736653814798 
2327	 0.397776564397432 
2328	 0.397780101180895 
2329	 0.397676193108893 
2330	 0.397571407174539 
2331	 0.397492406944661 
2332	 0.39736391317678 
2333	 0.397229541093645 
2334	 0.39714400426611 
2335	 0.396991100722072 
2336	 0.396809604563307 
2337	 0.396701936503899 
2338	 0.396592467079528 
2339	 0.396409869566951 
2340	 0.396220676525571 
2341	 0.396079987813876 
2342	 0.395896296685368 
2343	 0.395689678025764 
2344	 0.395507426964542 
2345	 0.395278552160326 
2346	 0.394991464142848 
2347	 0.394687821175281 
2348	 0.394365923049772 
2349	 0.394048126140981 
2350	 0.393693238105886 
2351	 0.393338843588832 
2352	 0.392983662216777 
2353	 0.392637047862276 
2354	 0.392286331977856 
2355	 0.391911009991812 
2356	 0.391552948561908 
2357	 0.391171398918602 
2358	 0.390718248571717 
2359	 0.390321421191029 
2360	 0.389954024435742 
2361	 0.389604189406465 
2362	 0.389274835151399 
2363	 0.388951607268683 
2364	 0.388673552142536 
2365	 0.388331385022517 
2366	 0.387989916556215 
2367	 0.387593404522887 
2368	 0.387128345322739 
2369	 0.386667808709762 
2370	 0.386155318812431 
2371	 0.385688947019901 
2372	 0.385235057969974 
2373	 0.384757459022881 
2374	 0.384250734818446 
2375	 0.383712710157405 
2376	 0.383220116255503 
2377	 0.382791523984141 
2378	 0.382411787545733 
2379	 0.382039314759103 
2380	 0.38165712525363 
2381	 0.381165331222745 
2382	 0.380573335369786 
2383	 0.380027290014174 
2384	 0.37947031631932 
2385	 0.37886626736268 
2386	 0.378245382622644 
2387	 0.377705072288799 
2388	 0.377184002326477 
2389	 0.3766192708052 
2390	 0.376136090352202 
2391	 0.375532972926301 
2392	 0.374777482338902 
2393	 0.374064889162435 
2394	 0.37333795797871 
2395	 0.372655522478145 
2396	 0.372149159684741 
2397	 0.371698885052118 
2398	 0.371202548138812 
2399	 0.370737413262307 
2400	 0.370268445304745 
2401	 0.369616347060555 
2402	 0.368954742569033 
2403	 0.368516595248272 
2404	 0.367945685387541 
2405	 0.367317626013629 
2406	 0.366808773366746 
2407	 0.366109132259122 
2408	 0.365396904810435 
2409	 0.364739636764846 
2410	 0.364034280731009 
2411	 0.363420612872389 
2412	 0.362853467062654 
2413	 0.36223916617539 
2414	 0.361607264451047 
2415	 0.361032618744782 
2416	 0.360473032412578 
2417	 0.359912265821097 
2418	 0.359350779603408 
2419	 0.358866818537268 
2420	 0.358268948885599 
2421	 0.357538704451089 
2422	 0.356967050120985 
2423	 0.356483942482822 
2424	 0.355902466132802 
2425	 0.355360121543668 
2426	 0.354757617089609 
2427	 0.354013885451206 
2428	 0.353416593655183 
2429	 0.352907901904655 
2430	 0.352285724749437 
2431	 0.351669958416845 
2432	 0.351074255637018 
2433	 0.350394098942204 
2434	 0.349794569858299 
2435	 0.349275362581906 
2436	 0.348754661045397 
2437	 0.348275754541966 
2438	 0.347734808585826 
2439	 0.347177414037091 
2440	 0.346648730411478 
2441	 0.346065391728528 
2442	 0.345502087297476 
2443	 0.345045564374655 
2444	 0.344508993581103 
2445	 0.343852717064763 
2446	 0.343272646382866 
2447	 0.342768613823921 
2448	 0.342213228974201 
2449	 0.341635962731376 
2450	 0.341087114722601 
2451	 0.340506334795812 
2452	 0.339893578746138 
2453	 0.339307822882172 
2454	 0.338722371674963 
2455	 0.338135306673816 
2456	 0.337533600238212 
2457	 0.336897487533825 
2458	 0.33630057202378 
2459	 0.335659427878501 
2460	 0.335116258775714 
2461	 0.334708792704316 
2462	 0.334215124079344 
2463	 0.333688963087918 
2464	 0.333215679743457 
2465	 0.332774624333412 
2466	 0.332244686095153 
2467	 0.331733028027003 
2468	 0.33123849078582 
2469	 0.33061731318646 
2470	 0.330171392255801 
2471	 0.329729981850952 
2472	 0.329081740586784 
2473	 0.328564670888536 
2474	 0.328220807460092 
2475	 0.327692433828637 
2476	 0.327306521831188 
2477	 0.326965590722559 
2478	 0.326390080308303 
2479	 0.325953166848005 
2480	 0.325369479090313 
2481	 0.324695331983051 
2482	 0.324076882522471 
2483	 0.323365201167599 
2484	 0.322843229485294 
2485	 0.322460987531398 
2486	 0.322122302367433 
2487	 0.321636026844056 
2488	 0.321164560728572 
2489	 0.320866879970659 
2490	 0.320435272553961 
2491	 0.320128848197697 
2492	 0.319717089848668 
2493	 0.319029028856972 
2494	 0.318480627155363 
2495	 0.317946379491632 
2496	 0.31763813450604 
2497	 0.317388612796477 
2498	 0.316950024728706 
2499	 0.316515256643961 
2500	 0.315924421895923 
