Wavelength	mm2400015.asd
350	 5.24568536751489E-02 
351	 5.00897698099144E-02 
352	 4.00750243087593E-02 
353	 3.27879869549655E-02 
354	 3.98671719392475E-02 
355	 0.044232855761331 
356	 4.13158152507403E-02 
357	 3.46422307114705E-02 
358	 4.30362066840241E-02 
359	 4.38573332854609E-02 
360	 3.97981873568592E-02 
361	 4.76003153655737E-02 
362	 4.23091934971368E-02 
363	 3.66530712819247E-02 
364	 3.86811505612793E-02 
365	 0.042550391452414 
366	 4.31867004242591E-02 
367	 4.20276965449106E-02 
368	 4.22581134807994E-02 
369	 4.51305035413128E-02 
370	 4.70639838848461E-02 
371	 4.82661866578144E-02 
372	 5.08697519754768E-02 
373	 4.61906453182147E-02 
374	 4.22221238326525E-02 
375	 4.38147798241827E-02 
376	 4.73854989155669E-02 
377	 4.48255612593679E-02 
378	 4.35388999932856E-02 
379	 5.05374231396903E-02 
380	 0.049881496923647 
381	 4.81387713478864E-02 
382	 4.83639775010125E-02 
383	 5.00588965543269E-02 
384	 5.07362220969773E-02 
385	 5.00243310408241E-02 
386	 4.92977112103389E-02 
387	 5.27959773299793E-02 
388	 5.41988376874894E-02 
389	 5.37302158326531E-02 
390	 5.35219892511419E-02 
391	 0.053803140292889 
392	 5.32695858905419E-02 
393	 5.35049417106238E-02 
394	 0.057972145798214 
395	 5.92987826119868E-02 
396	 5.98590327928179E-02 
397	 6.14527754687635E-02 
398	 6.10165306734603E-02 
399	 6.02869219313252E-02 
400	 0.060480483804505 
401	 6.21382116804813E-02 
402	 6.33759897402299E-02 
403	 6.46084172507175E-02 
404	 6.52711810990253E-02 
405	 6.38512187166936E-02 
406	 6.45027872348472E-02 
407	 6.67739930272288E-02 
408	 6.89165993033607E-02 
409	 6.83490507244386E-02 
410	 6.81119131984584E-02 
411	 6.86570627688444E-02 
412	 6.91730701526122E-02 
413	 6.95624066425814E-02 
414	 6.93196279553822E-02 
415	 6.89390919518343E-02 
416	 7.02099857238253E-02 
417	 7.01094081733794E-02 
418	 6.99592158327979E-02 
419	 7.10326782328001E-02 
420	 7.07631783154645E-02 
421	 6.98863374501194E-02 
422	 6.95373263571397E-02 
423	 7.06748308951336E-02 
424	 6.96892031267142E-02 
425	 6.87830569429593E-02 
426	 6.91479287824575E-02 
427	 0.068847621078448 
428	 6.84028787756139E-02 
429	 6.78731699748617E-02 
430	 6.73084527453384E-02 
431	 6.72925009060281E-02 
432	 6.69476235615415E-02 
433	 6.62388137932034E-02 
434	 6.59735612071021E-02 
435	 6.62167253823548E-02 
436	 0.066641890953583 
437	 6.68931463067513E-02 
438	 0.066687355943927 
439	 6.69158188240441E-02 
440	 6.75469357320563E-02 
441	 6.80760085371854E-02 
442	 6.83638100327105E-02 
443	 6.87855300052717E-02 
444	 6.93833105979203E-02 
445	 6.96214286999384E-02 
446	 6.99111202687839E-02 
447	 7.02955960203113E-02 
448	 7.07109870986926E-02 
449	 7.10922205299338E-02 
450	 7.16392180357125E-02 
451	 7.22649335418385E-02 
452	 0.072657222235103 
453	 7.30321415032332E-02 
454	 7.33861264724886E-02 
455	 7.37486018749822E-02 
456	 7.43770952000192E-02 
457	 7.46090131893662E-02 
458	 7.46749972532304E-02 
459	 7.51053202379692E-02 
460	 7.53147057563174E-02 
461	 0.075313867120334 
462	 7.52497526512148E-02 
463	 7.53708418003969E-02 
464	 7.56848330970422E-02 
465	 7.60888342008404E-02 
466	 7.64111507278487E-02 
467	 7.63580970500744E-02 
468	 7.64322047449482E-02 
469	 0.076636990844569 
470	 7.65886800223249E-02 
471	 7.67167516431849E-02 
472	 7.68067373894666E-02 
473	 7.67345916671028E-02 
474	 7.68318041419894E-02 
475	 7.70364357850333E-02 
476	 7.72078490830275E-02 
477	 7.72148800071447E-02 
478	 7.73360021094045E-02 
479	 7.74111244671006E-02 
480	 7.73851719084184E-02 
481	 7.73941967965263E-02 
482	 7.75643545614211E-02 
483	 7.78016421638378E-02 
484	 7.79599012947365E-02 
485	 7.79898805728299E-02 
486	 7.79276114330758E-02 
487	 7.78666091983349E-02 
488	 7.79295649438692E-02 
489	 7.79321242131144E-02 
490	 7.80472422446816E-02 
491	 0.078324242429024 
492	 0.078387510085301 
493	 7.82086558746796E-02 
494	 7.80112422584689E-02 
495	 0.078096515607078 
496	 7.82690929677234E-02 
497	 7.83980779937532E-02 
498	 7.84659068897076E-02 
499	 7.86148553387131E-02 
500	 7.86537437685014E-02 
501	 7.86610294648147E-02 
502	 0.078728968868421 
503	 7.86145075573246E-02 
504	 7.86752921033089E-02 
505	 7.88506994289144E-02 
506	 0.07871431166243 
507	 7.87466818122333E-02 
508	 7.88660470712998E-02 
509	 7.89097756200976E-02 
510	 7.87702480167279E-02 
511	 7.88138038832465E-02 
512	 7.89535273801168E-02 
513	 7.89070799463401E-02 
514	 7.90462980117885E-02 
515	 7.91659766385995E-02 
516	 7.91809489195918E-02 
517	 7.93315164404003E-02 
518	 7.93055763592642E-02 
519	 7.91947358608937E-02 
520	 7.91992371731023E-02 
521	 7.93351956344467E-02 
522	 0.079447629768606 
523	 7.94941396151294E-02 
524	 7.95589074188408E-02 
525	 7.95213695814265E-02 
526	 7.94787423759005E-02 
527	 0.079529602398448 
528	 0.07963706900629 
529	 7.96520166078076E-02 
530	 7.96505361788464E-02 
531	 7.98257932226414E-02 
532	 7.98598980629622E-02 
533	 7.98734463321653E-02 
534	 7.99469140243079E-02 
535	 7.99312933143362E-02 
536	 8.00105392515707E-02 
537	 8.01394988874253E-02 
538	 8.01976771002812E-02 
539	 8.02237896408373E-02 
540	 8.02663613825735E-02 
541	 8.03308330074239E-02 
542	 0.08036275096677 
543	 8.04708882074354E-02 
544	 8.06375570816257E-02 
545	 8.07914021086238E-02 
546	 8.07978448174375E-02 
547	 8.08392705366279E-02 
548	 0.080952360924797 
549	 8.10428797268138E-02 
550	 8.11001705091301E-02 
551	 8.11762104082544E-02 
552	 8.13082946389204E-02 
553	 8.14728932665163E-02 
554	 8.15842203581533E-02 
555	 0.081692259187819 
556	 0.081899354624747 
557	 8.20584468698963E-02 
558	 8.22093574397655E-02 
559	 8.23977862699912E-02 
560	 0.082652353420851 
561	 8.27938258456872E-02 
562	 8.29565155095783E-02 
563	 8.33112299856843E-02 
564	 8.35946812319112E-02 
565	 8.37602414182836E-02 
566	 8.39012918547078E-02 
567	 8.42447982325951E-02 
568	 8.46275306660838E-02 
569	 8.49838052644369E-02 
570	 8.53032701168847E-02 
571	 8.56741514473655E-02 
572	 8.61047291247392E-02 
573	 8.65843865415817E-02 
574	 8.70817311893742E-02 
575	 8.75006511216623E-02 
576	 8.79119552156605E-02 
577	 8.83603796482702E-02 
578	 8.87585548590014E-02 
579	 8.92555006296545E-02 
580	 8.98201052251037E-02 
581	 9.03588698427676E-02 
582	 9.09488853733425E-02 
583	 9.15297716738011E-02 
584	 9.20879347132114E-02 
585	 9.26928051809021E-02 
586	 9.33622397719816E-02 
587	 0.094026125738761 
588	 9.46267350211859E-02 
589	 9.52866365837679E-02 
590	 9.59643856743599E-02 
591	 9.66509714695962E-02 
592	 9.73722557552679E-02 
593	 9.81091081124419E-02 
594	 9.88130176648615E-02 
595	 9.94649416638891E-02 
596	 0.100138080567844 
597	 0.100801369734078 
598	 0.101428387345142 
599	 0.102010639944369 
600	 0.102659014170768 
601	 0.103326966117235 
602	 0.103961952710868 
603	 0.104534402099382 
604	 0.105130827660084 
605	 0.105723293926331 
606	 0.106268333029227 
607	 0.106886964299686 
608	 0.107451371153369 
609	 0.107936377141129 
610	 0.108449224424339 
611	 0.108964032042924 
612	 0.109431011765807 
613	 0.109821245037502 
614	 0.110206589120763 
615	 0.110541491610661 
616	 0.110872020082797 
617	 0.111289879489973 
618	 0.111649154691231 
619	 0.111932412395266 
620	 0.112173023398645 
621	 0.112468093108611 
622	 0.112748667410112 
623	 0.112988231966975 
624	 0.113190718775701 
625	 0.113446700982101 
626	 0.113685726090341 
627	 0.113891824458411 
628	 0.114137485361775 
629	 0.114354757717225 
630	 0.114544763778979 
631	 0.114727068925735 
632	 0.11490811911421 
633	 0.115112462665126 
634	 0.115320225333656 
635	 0.115483615673241 
636	 0.115725553387584 
637	 0.115947686918178 
638	 0.116083078123827 
639	 0.116229704496439 
640	 0.1164086877144 
641	 0.116613053485248 
642	 0.116814003034557 
643	 0.116963256191062 
644	 0.117149490033808 
645	 0.117396554733472 
646	 0.11761722528406 
647	 0.117806638845113 
648	 0.11798425310558 
649	 0.118182072706954 
650	 0.11844640245109 
651	 0.118647556528015 
652	 0.118807049051976 
653	 0.119072861132696 
654	 0.119338958567001 
655	 0.119599007830189 
656	 0.119850036284691 
657	 0.120040693579576 
658	 0.120286459228913 
659	 0.120585735651486 
660	 0.120878520240623 
661	 0.121145104384867 
662	 0.121431615432904 
663	 0.121748471519438 
664	 0.122044416390004 
665	 0.122350392227745 
666	 0.122650838376013 
667	 0.122934894951655 
668	 0.123262884998455 
669	 0.123595891869444 
670	 0.123943634788349 
671	 0.124349671183623 
672	 0.124700080515353 
673	 0.125066642833061 
674	 0.125489550831697 
675	 0.125854463179215 
676	 0.126223715558863 
677	 0.126626967043169 
678	 0.127066490964354 
679	 0.127449162512815 
680	 0.127842310542359 
681	 0.128282757674393 
682	 0.128749144757934 
683	 0.129228737170756 
684	 0.12968903462161 
685	 0.130120496263302 
686	 0.130604157399791 
687	 0.131130828394118 
688	 0.131669348427487 
689	 0.132174912082903 
690	 0.132638781091826 
691	 0.133122033083176 
692	 0.133649620586567 
693	 0.134156127347919 
694	 0.134660880887324 
695	 0.13518953566183 
696	 0.135758588701757 
697	 0.136317414704797 
698	 0.136836672783269 
699	 0.137350095146765 
700	 0.137948806689205 
701	 0.138509496952104 
702	 0.139087193039697 
703	 0.139711776022329 
704	 0.140230792880118 
705	 0.140760195218851 
706	 0.141321056247329 
707	 0.141885459111949 
708	 0.142471768915242 
709	 0.143047367529886 
710	 0.143611893633701 
711	 0.144220819227678 
712	 0.144795397465488 
713	 0.145333649372341 
714	 0.145864886251749 
715	 0.146442191593928 
716	 0.147020220945944 
717	 0.147563152149559 
718	 0.148053213218664 
719	 0.148567966974816 
720	 0.149077018898393 
721	 0.149555602179214 
722	 0.150022214137883 
723	 0.150507089465947 
724	 0.150966882247941 
725	 0.151365415254393 
726	 0.151846930569968 
727	 0.152251509327832 
728	 0.152568455370291 
729	 0.15293380134508 
730	 0.153309218591046 
731	 0.153648906680317 
732	 0.153935627620417 
733	 0.154224524006036 
734	 0.154509915944572 
735	 0.15474563007438 
736	 0.15489565450979 
737	 0.15509720193238 
738	 0.155304145859737 
739	 0.155473949511819 
740	 0.155585799742412 
741	 0.155681039649592 
742	 0.155750551764418 
743	 0.155787540080534 
744	 0.155825824928022 
745	 0.155808157982333 
746	 0.155785878426203 
747	 0.155828975117779 
748	 0.155755636089708 
749	 0.155610625389092 
750	 0.1554636844272 
751	 0.15538476215003 
752	 0.15528204383419 
753	 0.155124317210056 
754	 0.154917848119594 
755	 0.154728017252932 
756	 0.154544011308878 
757	 0.154320935054185 
758	 0.154019063788095 
759	 0.153773515604156 
760	 0.153519630115677 
761	 0.153218544214393 
762	 0.152888978068195 
763	 0.152602332492678 
764	 0.152305053307566 
765	 0.151950069657771 
766	 0.151597314332774 
767	 0.151265728484486 
768	 0.150939004058803 
769	 0.150580193582265 
770	 0.150158447259226 
771	 0.149759770065321 
772	 0.149389109153291 
773	 0.148946289865083 
774	 0.148554451615103 
775	 0.148193457899691 
776	 0.147818121066324 
777	 0.147404359040252 
778	 0.147013381303059 
779	 0.14662425500922 
780	 0.146190305451361 
781	 0.145765468205254 
782	 0.145347691821375 
783	 0.144924098715504 
784	 0.144479984634977 
785	 0.144101426233287 
786	 0.143704265513435 
787	 0.143242981848725 
788	 0.142838677433658 
789	 0.142499823138365 
790	 0.142132216259491 
791	 0.141650342792182 
792	 0.141238152068938 
793	 0.14087698761219 
794	 0.14051931053383 
795	 0.140106930639597 
796	 0.139650379086951 
797	 0.139273422717134 
798	 0.13899896186062 
799	 0.138640351076817 
800	 0.138258900424162 
801	 0.137879270605829 
802	 0.137515312106104 
803	 0.137166941180871 
804	 0.13683825947859 
805	 0.136512254292339 
806	 0.136165500625862 
807	 0.13583426691978 
808	 0.135504951887847 
809	 0.135185645526945 
810	 0.134915885665268 
811	 0.134594831883394 
812	 0.134239369639954 
813	 0.133907103534605 
814	 0.133693719935321 
815	 0.133440394526425 
816	 0.133124772759759 
817	 0.132798971422766 
818	 0.132554273041316 
819	 0.132322584328041 
820	 0.132073020581814 
821	 0.131817160122756 
822	 0.131562866291562 
823	 0.131298085001871 
824	 0.131043491534103 
825	 0.130876251758088 
826	 0.130702720194596 
827	 0.130487557045166 
828	 0.130237450714974 
829	 0.130027342372202 
830	 0.129838673559253 
831	 0.129653447156949 
832	 0.129465941373578 
833	 0.129359208392402 
834	 0.129187569874691 
835	 0.128952818895763 
836	 0.128800807713141 
837	 0.128664224528081 
838	 0.128524517693191 
839	 0.128374502773812 
840	 0.128214809684198 
841	 0.12806577316492 
842	 0.127937357521109 
843	 0.127836549835173 
844	 0.127783894079664 
845	 0.127680579349448 
846	 0.127525859057663 
847	 0.127382170513198 
848	 0.127354014442405 
849	 0.127322055489746 
850	 0.127234862341804 
851	 0.127120874917945 
852	 0.127048304038526 
853	 0.127005656735118 
854	 0.126967281843789 
855	 0.126908435075008 
856	 0.126899467350194 
857	 0.126866750367814 
858	 0.12677252719031 
859	 0.126755937186636 
860	 0.126758971581393 
861	 0.126742262191274 
862	 0.12669610152073 
863	 0.126711454483842 
864	 0.126740767750599 
865	 0.12676580304994 
866	 0.126786784564019 
867	 0.126775913328881 
868	 0.12678613237745 
869	 0.126820106482517 
870	 0.126830157843963 
871	 0.126917435025102 
872	 0.126987659811065 
873	 0.12700180057388 
874	 0.127059205754252 
875	 0.127131233204343 
876	 0.127201045417228 
877	 0.127265705985087 
878	 0.127348097063444 
879	 0.127512686645094 
880	 0.127652207290071 
881	 0.127676963275595 
882	 0.127835952177998 
883	 0.127958260616164 
884	 0.128023012316731 
885	 0.128109791109796 
886	 0.128309146616679 
887	 0.128520144184275 
888	 0.12867311614296 
889	 0.128756532149875 
890	 0.128880756384668 
891	 0.129032161273144 
892	 0.129216231790677 
893	 0.129474553315389 
894	 0.129655426835488 
895	 0.129813659546384 
896	 0.130012737827519 
897	 0.130252776585719 
898	 0.130464790597214 
899	 0.13064190628449 
900	 0.130816560151776 
901	 0.131071242288695 
902	 0.131345011220148 
903	 0.131597121843653 
904	 0.131811077599583 
905	 0.132022383816052 
906	 0.132316322663061 
907	 0.13264565492322 
908	 0.132925146456534 
909	 0.133246552253431 
910	 0.133548331214622 
911	 0.13382695112452 
912	 0.13411522487527 
913	 0.134374954915304 
914	 0.13466685021342 
915	 0.13500898641396 
916	 0.135373271372773 
917	 0.135761175590536 
918	 0.136089038277676 
919	 0.136372855755541 
920	 0.136743346901027 
921	 0.137185996218904 
922	 0.137573793841832 
923	 0.137892967458159 
924	 0.138315706830385 
925	 0.138752315058633 
926	 0.139182313858785 
927	 0.13959439315941 
928	 0.139968938386888 
929	 0.140476796386287 
930	 0.141000067813432 
931	 0.141412825082186 
932	 0.141747219669044 
933	 0.142255896386945 
934	 0.142827597702986 
935	 0.143317303929443 
936	 0.14383778487466 
937	 0.14425387453391 
938	 0.144708634747522 
939	 0.145330897669612 
940	 0.145875392163173 
941	 0.146425204783292 
942	 0.147030809125245 
943	 0.147666957843293 
944	 0.148059209148798 
945	 0.148592759236008 
946	 0.149256123704514 
947	 0.149866427216365 
948	 0.150424503244606 
949	 0.151023669019308 
950	 0.151633560848056 
951	 0.152200259634497 
952	 0.152900089594471 
953	 0.153572025054739 
954	 0.154186011067078 
955	 0.154814336227822 
956	 0.155566688817975 
957	 0.156339328790136 
958	 0.157039553151282 
959	 0.157631350371969 
960	 0.158255818349027 
961	 0.158959025308223 
962	 0.159694045377287 
963	 0.160373514017896 
964	 0.161031418089197 
965	 0.161856163226663 
966	 0.162682845493987 
967	 0.163223019438073 
968	 0.163963126092379 
969	 0.164707936967286 
970	 0.16540702676253 
971	 0.166141789243343 
972	 0.166950763673603 
973	 0.167843880785223 
974	 0.168731519252846 
975	 0.169504050911756 
976	 0.17032223853827 
977	 0.171092563171966 
978	 0.171827957569336 
979	 0.172609757555248 
980	 0.173427404940907 
981	 0.174217028164801 
982	 0.174976070505691 
983	 0.17575623664073 
984	 0.176655938391921 
985	 0.177449822209302 
986	 0.178212251096316 
987	 0.179128808773169 
988	 0.179991668417567 
989	 0.180701161054397 
990	 0.181416176211494 
991	 0.182318896264922 
992	 0.183053640087755 
993	 0.183945906376202 
994	 0.184878409391778 
995	 0.18562573794008 
996	 0.186452898471541 
997	 0.187228619647752 
998	 0.18799511783241 
999	 0.188843034635057 
1000	 0.189784589242381 
1001	 0.1901691770684 
1002	 0.190890312502419 
1003	 0.191661635278027 
1004	 0.19241400165041 
1005	 0.193140856639198 
1006	 0.193894483962231 
1007	 0.194685886762198 
1008	 0.195423171908803 
1009	 0.196162082869316 
1010	 0.196800789854586 
1011	 0.197395282787019 
1012	 0.198058952173634 
1013	 0.198662781157483 
1014	 0.199291820451685 
1015	 0.20000923481751 
1016	 0.200676424576066 
1017	 0.201346445287621 
1018	 0.202035880240297 
1019	 0.202717886609687 
1020	 0.203360718611353 
1021	 0.203999356706432 
1022	 0.204591347267221 
1023	 0.205180411679901 
1024	 0.205753372346398 
1025	 0.206320584825453 
1026	 0.20689038423497 
1027	 0.207423073552359 
1028	 0.207977785825873 
1029	 0.208561315822023 
1030	 0.20910562565812 
1031	 0.209633623662753 
1032	 0.210158620245884 
1033	 0.210697882173264 
1034	 0.211211054456188 
1035	 0.211702775564851 
1036	 0.212274862205486 
1037	 0.212806789720374 
1038	 0.213265564958489 
1039	 0.213798816110973 
1040	 0.214277344976133 
1041	 0.214734003683251 
1042	 0.215235508746848 
1043	 0.215697448974683 
1044	 0.216162336643835 
1045	 0.216648537808607 
1046	 0.217098670319838 
1047	 0.217521081514086 
1048	 0.217998109487324 
1049	 0.218473154734142 
1050	 0.218942522541907 
1051	 0.219463487319779 
1052	 0.219980214217152 
1053	 0.220423542804437 
1054	 0.220886705914301 
1055	 0.221340212428513 
1056	 0.22172469286697 
1057	 0.222156615476268 
1058	 0.222634223841184 
1059	 0.223094582592202 
1060	 0.223549822827995 
1061	 0.224016527194838 
1062	 0.224480316709714 
1063	 0.224952892690704 
1064	 0.225403866383249 
1065	 0.22583861066441 
1066	 0.226297063533689 
1067	 0.226714303681357 
1068	 0.227123473660894 
1069	 0.22754991771872 
1070	 0.227970583678136 
1071	 0.228369270593395 
1072	 0.228804601686238 
1073	 0.229275079117982 
1074	 0.229704093122642 
1075	 0.230139557259162 
1076	 0.230527377457838 
1077	 0.230891403724502 
1078	 0.231261013601393 
1079	 0.231684881688895 
1080	 0.232103935511632 
1081	 0.232499045183739 
1082	 0.232933471798758 
1083	 0.233329822710721 
1084	 0.233686913032521 
1085	 0.234055309492952 
1086	 0.234419201212878 
1087	 0.234775041306699 
1088	 0.235103818276901 
1089	 0.23547902692157 
1090	 0.235865006669864 
1091	 0.236211826138899 
1092	 0.236550347148755 
1093	 0.236891398875932 
1094	 0.237222337103811 
1095	 0.237555326340019 
1096	 0.237940152734815 
1097	 0.23830679138176 
1098	 0.238622523778723 
1099	 0.238894957541184 
1100	 0.239199197901485 
1101	 0.239470877395197 
1102	 0.239752451934487 
1103	 0.240047986662851 
1104	 0.240362219265954 
1105	 0.240647757858445 
1106	 0.24094950498991 
1107	 0.241274612438818 
1108	 0.24156491756182 
1109	 0.241846739665882 
1110	 0.242155915361897 
1111	 0.242441529765832 
1112	 0.242721462133693 
1113	 0.242991741325204 
1114	 0.24323431019061 
1115	 0.243502257880062 
1116	 0.243778115420013 
1117	 0.244065893448105 
1118	 0.24438133975133 
1119	 0.244666693148972 
1120	 0.244979945828317 
1121	 0.245248709574417 
1122	 0.245483105141822 
1123	 0.245776143659104 
1124	 0.246030968839293 
1125	 0.246252121304785 
1126	 0.246501525617701 
1127	 0.246756157737092 
1128	 0.247008524797737 
1129	 0.247269702672402 
1130	 0.24753205212568 
1131	 0.247800071421539 
1132	 0.248050577730095 
1133	 0.24830074456054 
1134	 0.24854617636534 
1135	 0.248772532835732 
1136	 0.249012177858265 
1137	 0.249258006257757 
1138	 0.249470835190798 
1139	 0.249690201454734 
1140	 0.249898977418958 
1141	 0.250116444336688 
1142	 0.250336983945861 
1143	 0.250556361119265 
1144	 0.250780431356317 
1145	 0.250993309606384 
1146	 0.251205596678716 
1147	 0.251403530742945 
1148	 0.251587263262745 
1149	 0.251775625831628 
1150	 0.251958953461277 
1151	 0.252137214705001 
1152	 0.252310992588004 
1153	 0.252503015125902 
1154	 0.252707121120979 
1155	 0.252925557838645 
1156	 0.253133074901066 
1157	 0.253366717753542 
1158	 0.253556810884769 
1159	 0.25371558076785 
1160	 0.253887141989561 
1161	 0.254037755944664 
1162	 0.254208363626212 
1163	 0.254400259775623 
1164	 0.254577957528136 
1165	 0.254756394418991 
1166	 0.254928024878644 
1167	 0.255103814606193 
1168	 0.255260269226972 
1169	 0.255427198544674 
1170	 0.255599667326256 
1171	 0.255765495212463 
1172	 0.255929705547069 
1173	 0.256090622889757 
1174	 0.25625446123204 
1175	 0.256402769947159 
1176	 0.256528233879276 
1177	 0.25667793152353 
1178	 0.256834095014708 
1179	 0.25698436016385 
1180	 0.257153573295809 
1181	 0.257309252033212 
1182	 0.25744466620461 
1183	 0.257585857746218 
1184	 0.257733898376643 
1185	 0.257887428048303 
1186	 0.258033978028819 
1187	 0.258188735331361 
1188	 0.258326917352618 
1189	 0.25845364523879 
1190	 0.258582570513644 
1191	 0.258704132199322 
1192	 0.258826681578629 
1193	 0.258948288855286 
1194	 0.2590701883572 
1195	 0.25918877955043 
1196	 0.259310452434199 
1197	 0.259433428082632 
1198	 0.259557471628049 
1199	 0.259682717169878 
1200	 0.259812561658555 
1201	 0.259932466684149 
1202	 0.260049990152955 
1203	 0.260166967371784 
1204	 0.260279809335247 
1205	 0.260388999833145 
1206	 0.260493476785341 
1207	 0.260605062580455 
1208	 0.260718539132612 
1209	 0.260825953507257 
1210	 0.260939837280438 
1211	 0.261045462523151 
1212	 0.26113411830962 
1213	 0.261232652649547 
1214	 0.261335275398213 
1215	 0.261437708312521 
1216	 0.261541652715111 
1217	 0.261650329821264 
1218	 0.261753376359078 
1219	 0.261860016808327 
1220	 0.261952527484214 
1221	 0.262036061191082 
1222	 0.262121519053171 
1223	 0.26218534188926 
1224	 0.262279780012112 
1225	 0.262397431097579 
1226	 0.262500614922767 
1227	 0.262627603630791 
1228	 0.262724761459102 
1229	 0.262787914129267 
1230	 0.262866901972956 
1231	 0.262940945871294 
1232	 0.263016091700409 
1233	 0.263094121994136 
1234	 0.263180813125232 
1235	 0.263263923195686 
1236	 0.263345767776385 
1237	 0.263424604741656 
1238	 0.263508647310013 
1239	 0.263583311333504 
1240	 0.263643223425251 
1241	 0.26371626653051 
1242	 0.263796353844715 
1243	 0.263869362663188 
1244	 0.263940786199823 
1245	 0.264017613516203 
1246	 0.264101369283596 
1247	 0.264170128244335 
1248	 0.264229359195689 
1249	 0.264304018204976 
1250	 0.264345635016357 
1251	 0.26439048393408 
1252	 0.264453980831743 
1253	 0.264536616886919 
1254	 0.264592573067802 
1255	 0.264647539876716 
1256	 0.26470474247218 
1257	 0.264740790301911 
1258	 0.264795841049696 
1259	 0.264881290781844 
1260	 0.264936498918768 
1261	 0.264979185543895 
1262	 0.265020992145059 
1263	 0.265045859943385 
1264	 0.265075879705134 
1265	 0.265100285597253 
1266	 0.265135859740872 
1267	 0.265169660995795 
1268	 0.265218797870165 
1269	 0.26527266553321 
1270	 0.265338543956621 
1271	 0.265403438084767 
1272	 0.265480711476492 
1273	 0.265539875885908 
1274	 0.265592098613652 
1275	 0.265650499520542 
1276	 0.265692558913852 
1277	 0.265757429955601 
1278	 0.265832724261144 
1279	 0.265918561784443 
1280	 0.266021556577048 
1281	 0.26612124265493 
1282	 0.266241023002443 
1283	 0.266344118404396 
1284	 0.266430043358428 
1285	 0.266524919536371 
1286	 0.266636260543477 
1287	 0.266744659995117 
1288	 0.266856546829345 
1289	 0.266987601996041 
1290	 0.267096309001769 
1291	 0.267189776090528 
1292	 0.26728984699048 
1293	 0.267400901180789 
1294	 0.267488561591956 
1295	 0.267554498249008 
1296	 0.267636123463738 
1297	 0.267721173940817 
1298	 0.267785320205467 
1299	 0.267841227866798 
1300	 0.267910039957524 
1301	 0.267957884259939 
1302	 0.268019676527083 
1303	 0.268104665947936 
1304	 0.268191475747518 
1305	 0.268261872629966 
1306	 0.268322344969098 
1307	 0.268369419431669 
1308	 0.268394295534706 
1309	 0.268411637288381 
1310	 0.26840201866952 
1311	 0.268412992474744 
1312	 0.268427402939908 
1313	 0.268432779276082 
1314	 0.268441373669257 
1315	 0.268436580297555 
1316	 0.268423314942349 
1317	 0.268405625409086 
1318	 0.268368030025351 
1319	 0.268354033561945 
1320	 0.268339912274311 
1321	 0.268332945651981 
1322	 0.268346765649295 
1323	 0.268363555914179 
1324	 0.26834741450226 
1325	 0.268314837574057 
1326	 0.268276368073131 
1327	 0.268239347339474 
1328	 0.268213385842263 
1329	 0.268193658240871 
1330	 0.268163961168262 
1331	 0.268135077689415 
1332	 0.268088392954589 
1333	 0.268030567470373 
1334	 0.267974318384724 
1335	 0.267898897406307 
1336	 0.267840885771151 
1337	 0.267784668464258 
1338	 0.267741739657796 
1339	 0.26771815386992 
1340	 0.267682082606388 
1341	 0.267666168644689 
1342	 0.26762043813107 
1343	 0.26754882317554 
1344	 0.26747272503281 
1345	 0.267422106053399 
1346	 0.267367259037546 
1347	 0.267342590991335 
1348	 0.267326952711137 
1349	 0.26726094625734 
1350	 0.267194435996802 
1351	 0.267149147186943 
1352	 0.267107895020506 
1353	 0.267053308631537 
1354	 0.267015312176235 
1355	 0.266959106437444 
1356	 0.266873778929452 
1357	 0.266803722536312 
1358	 0.266740534449066 
1359	 0.266681269488816 
1360	 0.266609887293551 
1361	 0.266558961063417 
1362	 0.2665313082992 
1363	 0.266492553109268 
1364	 0.266465334465302 
1365	 0.266428353064484 
1366	 0.266370122268214 
1367	 0.266330194652174 
1368	 0.266327741657054 
1369	 0.266303599121712 
1370	 0.26628287038793 
1371	 0.266266180450922 
1372	 0.266200197507619 
1373	 0.266117524454949 
1374	 0.266037814264261 
1375	 0.265958605991643 
1376	 0.265847852864856 
1377	 0.2657266238353 
1378	 0.265586484657669 
1379	 0.2654092395172 
1380	 0.265250353238018 
1381	 0.265090543615207 
1382	 0.264920789799446 
1383	 0.26475155307412 
1384	 0.264571422077115 
1385	 0.26440383672147 
1386	 0.264191091508862 
1387	 0.263947091316409 
1388	 0.263702620300821 
1389	 0.263436956856781 
1390	 0.263147325033254 
1391	 0.262874038019076 
1392	 0.262576856949624 
1393	 0.262204976146128 
1394	 0.261813130919087 
1395	 0.261382032547068 
1396	 0.260944260504432 
1397	 0.26053750336553 
1398	 0.260154486768952 
1399	 0.259732074006102 
1400	 0.259317383722914 
1401	 0.258880598258503 
1402	 0.258396420434128 
1403	 0.257955312434744 
1404	 0.257519750013328 
1405	 0.257097668937324 
1406	 0.256693762153376 
1407	 0.256291795721418 
1408	 0.255896329302322 
1409	 0.255514680785226 
1410	 0.25512579211753 
1411	 0.254775572419201 
1412	 0.254442568958127 
1413	 0.254138489536153 
1414	 0.253888780964193 
1415	 0.253643472022252 
1416	 0.253400023911605 
1417	 0.253171077136381 
1418	 0.25292564454719 
1419	 0.252695341493189 
1420	 0.25249830736834 
1421	 0.252311595715454 
1422	 0.252152413405945 
1423	 0.252011173592329 
1424	 0.251854131972593 
1425	 0.251698900929218 
1426	 0.251547528411936 
1427	 0.251373397344429 
1428	 0.251247233316671 
1429	 0.251147715766384 
1430	 0.25105784717177 
1431	 0.251010952608974 
1432	 0.250928643889979 
1433	 0.25083384380708 
1434	 0.25075091537128 
1435	 0.25064111340939 
1436	 0.250574623431316 
1437	 0.250547618273982 
1438	 0.25050593723487 
1439	 0.250479134896935 
1440	 0.250452201852833 
1441	 0.250407469151751 
1442	 0.250364894545212 
1443	 0.250305051316423 
1444	 0.250245358914285 
1445	 0.250210899490254 
1446	 0.250175059822701 
1447	 0.250162737854622 
1448	 0.250148317338136 
1449	 0.250079780929083 
1450	 0.250013989624356 
1451	 0.249966532501572 
1452	 0.249911344706698 
1453	 0.249876394636047 
1454	 0.249873293917014 
1455	 0.249844004860114 
1456	 0.249815905242032 
1457	 0.249772047935725 
1458	 0.249708605121203 
1459	 0.249660043651999 
1460	 0.249597308871605 
1461	 0.24955841043301 
1462	 0.249538944972632 
1463	 0.249520246014387 
1464	 0.249505037696589 
1465	 0.249500947119288 
1466	 0.249501124428416 
1467	 0.249516090059922 
1468	 0.249529948872039 
1469	 0.249585862848909 
1470	 0.249673487906385 
1471	 0.249760391896751 
1472	 0.249901303423414 
1473	 0.250055909331599 
1474	 0.250191500764665 
1475	 0.250357461113178 
1476	 0.250507369195656 
1477	 0.250637579586366 
1478	 0.250774362536887 
1479	 0.250911547122336 
1480	 0.251055335532698 
1481	 0.251205927019036 
1482	 0.251347966769684 
1483	 0.251495185397423 
1484	 0.251624177020808 
1485	 0.251734360754802 
1486	 0.251862133311951 
1487	 0.251987126763363 
1488	 0.25212014535351 
1489	 0.25226442593311 
1490	 0.252406408620634 
1491	 0.252558827454632 
1492	 0.252692560759153 
1493	 0.25281919134392 
1494	 0.25294446934904 
1495	 0.253048217121447 
1496	 0.253169408209387 
1497	 0.25331288533217 
1498	 0.25343335358321 
1499	 0.253559328258145 
1500	 0.25366036144684 
1501	 0.253726582467407 
1502	 0.253805641628077 
1503	 0.253875654985064 
1504	 0.253946556759367 
1505	 0.254023925391096 
1506	 0.25412531945392 
1507	 0.25423992274445 
1508	 0.254336057061316 
1509	 0.254441299574787 
1510	 0.254532272012636 
1511	 0.25459248466205 
1512	 0.254667526144571 
1513	 0.254746441173635 
1514	 0.254825438147068 
1515	 0.254912919094522 
1516	 0.255007711110013 
1517	 0.255108528180988 
1518	 0.255222102487638 
1519	 0.255309088738135 
1520	 0.255391642369412 
1521	 0.255475146808069 
1522	 0.255533714434138 
1523	 0.255616272284971 
1524	 0.255716459761244 
1525	 0.255810378355893 
1526	 0.255909412189178 
1527	 0.256000103185404 
1528	 0.256093722719993 
1529	 0.256183471342742 
1530	 0.256263734219836 
1531	 0.256344777713671 
1532	 0.256432476047272 
1533	 0.256499454591991 
1534	 0.256546277971731 
1535	 0.256609968214998 
1536	 0.256670506956585 
1537	 0.256733779786956 
1538	 0.25680671718026 
1539	 0.256877492612948 
1540	 0.256937250237198 
1541	 0.257010323675302 
1542	 0.257100106513516 
1543	 0.257182520893263 
1544	 0.257279441021734 
1545	 0.257355733252166 
1546	 0.257423419040393 
1547	 0.257475060998664 
1548	 0.257524026268122 
1549	 0.257543526271631 
1550	 0.257562401349399 
1551	 0.257614468182104 
1552	 0.257678124712132 
1553	 0.257757307207073 
1554	 0.257847503015914 
1555	 0.257917075621727 
1556	 0.257966638340781 
1557	 0.258006552827908 
1558	 0.258053903833941 
1559	 0.258091874835752 
1560	 0.258123580899596 
1561	 0.25815431500968 
1562	 0.258177915848835 
1563	 0.258180175904571 
1564	 0.258214935005676 
1565	 0.258270354788598 
1566	 0.258299089178539 
1567	 0.258329571288651 
1568	 0.258357075656463 
1569	 0.258356663045339 
1570	 0.258388177677354 
1571	 0.258448459085693 
1572	 0.258489487393883 
1573	 0.258533307633191 
1574	 0.2585661615506 
1575	 0.25858224810964 
1576	 0.258612770547702 
1577	 0.258647018462962 
1578	 0.258679974484949 
1579	 0.258716867030839 
1580	 0.258755342474904 
1581	 0.258788890829667 
1582	 0.258831036610802 
1583	 0.258890414101542 
1584	 0.258931828658579 
1585	 0.258968709106718 
1586	 0.259000993412918 
1587	 0.25902551962948 
1588	 0.259045232094461 
1589	 0.259055330156524 
1590	 0.259072931549078 
1591	 0.259089200322052 
1592	 0.259101426061738 
1593	 0.25911836458102 
1594	 0.259130549743192 
1595	 0.259133813171425 
1596	 0.25913899365167 
1597	 0.259141739709097 
1598	 0.259152804737879 
1599	 0.25916923058216 
1600	 0.25918043735661 
1601	 0.259203685175882 
1602	 0.259211384660228 
1603	 0.259193415257324 
1604	 0.259195776947584 
1605	 0.25919870547792 
1606	 0.259208035909321 
1607	 0.259237126982822 
1608	 0.259259951867842 
1609	 0.259280212743669 
1610	 0.259292741434232 
1611	 0.259298602517024 
1612	 0.259313218396592 
1613	 0.25931908401667 
1614	 0.259335320777794 
1615	 0.259345866430061 
1616	 0.259355911514334 
1617	 0.259371482746912 
1618	 0.259373681863823 
1619	 0.259373065068281 
1620	 0.259361865183341 
1621	 0.259369028231156 
1622	 0.259378852410372 
1623	 0.259390107455953 
1624	 0.259418068552659 
1625	 0.259424631258299 
1626	 0.259420271349307 
1627	 0.259410142340624 
1628	 0.259385112741189 
1629	 0.25938357168567 
1630	 0.259389953167386 
1631	 0.259383660303788 
1632	 0.259382883396979 
1633	 0.259383403285224 
1634	 0.259377519078365 
1635	 0.259361325862162 
1636	 0.259351923814178 
1637	 0.259334460075352 
1638	 0.259286306243786 
1639	 0.259272751643095 
1640	 0.259277393445988 
1641	 0.259284500131338 
1642	 0.259309213217803 
1643	 0.259315029405145 
1644	 0.25931571319302 
1645	 0.25932617681834 
1646	 0.259334859615647 
1647	 0.259337934557472 
1648	 0.259350593576655 
1649	 0.259353075897081 
1650	 0.259344067166728 
1651	 0.259330520518154 
1652	 0.259319793583739 
1653	 0.25929552158691 
1654	 0.259245486402737 
1655	 0.259220030022994 
1656	 0.25921385713081 
1657	 0.259176253716269 
1658	 0.259121427949737 
1659	 0.259091922542135 
1660	 0.259050756481589 
1661	 0.259023234017624 
1662	 0.259036324786864 
1663	 0.25901313371316 
1664	 0.258955498173205 
1665	 0.258932083614041 
1666	 0.258914781386375 
1667	 0.258904396935107 
1668	 0.258922716201763 
1669	 0.258914160459951 
1670	 0.258900903984501 
1671	 0.258873510639886 
1672	 0.258829805682934 
1673	 0.258786198541455 
1674	 0.258723259205256 
1675	 0.258682386210241 
1676	 0.258641866526199 
1677	 0.258618157384759 
1678	 0.258620686914386 
1679	 0.258605951260454 
1680	 0.25859861118425 
1681	 0.258575966973689 
1682	 0.258521236563216 
1683	 0.258509493948972 
1684	 0.258521068258583 
1685	 0.258516061559555 
1686	 0.258540821906304 
1687	 0.258528414556789 
1688	 0.258470200598689 
1689	 0.258446098595033 
1690	 0.258437584065952 
1691	 0.258407667702847 
1692	 0.258384551401712 
1693	 0.258344410981632 
1694	 0.258263878008562 
1695	 0.258222264814171 
1696	 0.258189131818953 
1697	 0.258173298432808 
1698	 0.258190498497033 
1699	 0.258184896590144 
1700	 0.258192180611373 
1701	 0.258170613111346 
1702	 0.258120018140667 
1703	 0.258086258295282 
1704	 0.258054238959092 
1705	 0.258001481986123 
1706	 0.257937822201707 
1707	 0.257887775730193 
1708	 0.257819305747027 
1709	 0.257771902201998 
1710	 0.257757932146696 
1711	 0.25771967635722 
1712	 0.257665000836912 
1713	 0.25762547606264 
1714	 0.257590456452386 
1715	 0.257549344035565 
1716	 0.257522811297537 
1717	 0.257470741682881 
1718	 0.257399051519293 
1719	 0.257331906016118 
1720	 0.257255348522293 
1721	 0.257181446687522 
1722	 0.257097716941783 
1723	 0.257041126175878 
1724	 0.257002313006868 
1725	 0.256939137257299 
1726	 0.256892843175122 
1727	 0.256815896488623 
1728	 0.256687504863373 
1729	 0.25661573055315 
1730	 0.256573043253153 
1731	 0.256501004249749 
1732	 0.256445219563379 
1733	 0.256369960859996 
1734	 0.256250498652144 
1735	 0.256172512384968 
1736	 0.256118738922613 
1737	 0.256056038089435 
1738	 0.256010324461038 
1739	 0.255940564816524 
1740	 0.255847140519789 
1741	 0.255781492887378 
1742	 0.255723011697135 
1743	 0.255655230925564 
1744	 0.255609217566771 
1745	 0.255523946019065 
1746	 0.255408965333536 
1747	 0.25529526791925 
1748	 0.255177707238049 
1749	 0.255099867801637 
1750	 0.255018032202035 
1751	 0.254941266361846 
1752	 0.254900205052567 
1753	 0.254842771953303 
1754	 0.2547501700845 
1755	 0.254662275788926 
1756	 0.254574476436167 
1757	 0.254474784943388 
1758	 0.25438302948331 
1759	 0.254289133306014 
1760	 0.254218215813024 
1761	 0.254157902829023 
1762	 0.254084805245547 
1763	 0.254032139985005 
1764	 0.253949952511941 
1765	 0.253827006552429 
1766	 0.253700745014608 
1767	 0.253549317376053 
1768	 0.253413754789268 
1769	 0.253316237970163 
1770	 0.253244947029827 
1771	 0.253207999215701 
1772	 0.253179741918148 
1773	 0.253140743084872 
1774	 0.253106502966773 
1775	 0.253073206483264 
1776	 0.252976408715267 
1777	 0.252893284668439 
1778	 0.252854649057507 
1779	 0.25277236480913 
1780	 0.252701582038197 
1781	 0.252638311549455 
1782	 0.252549219868897 
1783	 0.252506888832825 
1784	 0.252468961159469 
1785	 0.252445274594231 
1786	 0.252410643071775 
1787	 0.252376807974609 
1788	 0.252349217573228 
1789	 0.252327753142768 
1790	 0.252291837704615 
1791	 0.252240341816931 
1792	 0.252201190635564 
1793	 0.252169570326978 
1794	 0.252132520579943 
1795	 0.25209691988281 
1796	 0.252058021997243 
1797	 0.252013200080493 
1798	 0.251965309169629 
1799	 0.251919441355461 
1800	 0.251879175261314 
1801	 0.247451940824395 
1802	 0.247607137446067 
1803	 0.247806610390136 
1804	 0.248017851091921 
1805	 0.248250297848939 
1806	 0.248491246163514 
1807	 0.248723598113705 
1808	 0.248924457783942 
1809	 0.249143644744675 
1810	 0.249289947252473 
1811	 0.24938227840821 
1812	 0.249451769161755 
1813	 0.2495409882911 
1814	 0.249600250395421 
1815	 0.249676312224417 
1816	 0.249730819875626 
1817	 0.249747459532441 
1818	 0.24968859226798 
1819	 0.249699507811273 
1820	 0.24970514926354 
1821	 0.249749791806278 
1822	 0.249819727249109 
1823	 0.24984851054111 
1824	 0.249868315814124 
1825	 0.249857918308944 
1826	 0.249817388336237 
1827	 0.249813587846716 
1828	 0.249776166243415 
1829	 0.249703363379781 
1830	 0.249630924856771 
1831	 0.249552096731377 
1832	 0.249468809991721 
1833	 0.249368830275212 
1834	 0.249289073419059 
1835	 0.249210250374045 
1836	 0.249111769262007 
1837	 0.249044327317979 
1838	 0.248967913898616 
1839	 0.24888888380484 
1840	 0.24881960801085 
1841	 0.248758156215851 
1842	 0.248639742393421 
1843	 0.248541278598183 
1844	 0.248476666232822 
1845	 0.248379043088671 
1846	 0.24831341172562 
1847	 0.248288904810897 
1848	 0.248245711195162 
1849	 0.248205638754941 
1850	 0.248156974592773 
1851	 0.248102522119869 
1852	 0.24802869539304 
1853	 0.247981401671777 
1854	 0.247955150001079 
1855	 0.247949446859413 
1856	 0.247904518880114 
1857	 0.247816343945914 
1858	 0.247717829856533 
1859	 0.247586380237187 
1860	 0.247455030794119 
1861	 0.247322063813509 
1862	 0.247199017529939 
1863	 0.247047848026648 
1864	 0.246876502854234 
1865	 0.246708200368343 
1866	 0.246499470660234 
1867	 0.246247377393181 
1868	 0.245986737251519 
1869	 0.245681764085072 
1870	 0.245341899107048 
1871	 0.244985791943216 
1872	 0.244613191429828 
1873	 0.244206811630357 
1874	 0.243776175494873 
1875	 0.243355727621823 
1876	 0.242910595310162 
1877	 0.242401103107724 
1878	 0.241838255266839 
1879	 0.241212864528656 
1880	 0.240510956048659 
1881	 0.239732105984688 
1882	 0.238902022474664 
1883	 0.238020517927044 
1884	 0.23702153114069 
1885	 0.236007989013441 
1886	 0.234932188734237 
1887	 0.233754922258623 
1888	 0.232563084907802 
1889	 0.231286193018903 
1890	 0.229951535817444 
1891	 0.228606805516813 
1892	 0.227230646307138 
1893	 0.225815924175829 
1894	 0.224367833786328 
1895	 0.22289376490344 
1896	 0.221375889435176 
1897	 0.219853527709678 
1898	 0.218323351496892 
1899	 0.216798199213671 
1900	 0.215312099938883 
1901	 0.213856108547807 
1902	 0.212458589258169 
1903	 0.211128412246049 
1904	 0.209827079840141 
1905	 0.208563753598803 
1906	 0.207349438337999 
1907	 0.206177152133376 
1908	 0.205042685997935 
1909	 0.203971121424463 
1910	 0.202968526822832 
1911	 0.202023450938557 
1912	 0.201123245198872 
1913	 0.20027575733365 
1914	 0.199482556724687 
1915	 0.198732538565343 
1916	 0.198026870179376 
1917	 0.197377626617625 
1918	 0.196782311354039 
1919	 0.196210920086734 
1920	 0.195687864583298 
1921	 0.1952024423532 
1922	 0.194751209367497 
1923	 0.194352878612328 
1924	 0.19398627860728 
1925	 0.193649903046204 
1926	 0.193373176543284 
1927	 0.193143178640847 
1928	 0.192949414587849 
1929	 0.192811212844876 
1930	 0.192725244100863 
1931	 0.192657038861736 
1932	 0.192593032157711 
1933	 0.19254212504412 
1934	 0.192517824009407 
1935	 0.192514433123532 
1936	 0.192514885785592 
1937	 0.192561839022379 
1938	 0.19265305505682 
1939	 0.192754590485395 
1940	 0.192879683066042 
1941	 0.193039278582171 
1942	 0.193208836312869 
1943	 0.193381810212809 
1944	 0.193565807383753 
1945	 0.193770846850248 
1946	 0.193976776831228 
1947	 0.194180857272573 
1948	 0.194404434667717 
1949	 0.194636446590438 
1950	 0.194887079605736 
1951	 0.195149722932467 
1952	 0.195449199735298 
1953	 0.195734851371365 
1954	 0.196020449417368 
1955	 0.196310871166328 
1956	 0.196588677043084 
1957	 0.196896492190444 
1958	 0.197226086763165 
1959	 0.197551788983329 
1960	 0.197894755711116 
1961	 0.1982346220148 
1962	 0.198568791209466 
1963	 0.198917011857311 
1964	 0.199267372284124 
1965	 0.199631540333325 
1966	 0.200024697186223 
1967	 0.200420935831319 
1968	 0.200809115580609 
1969	 0.201210381625203 
1970	 0.201602049244406 
1971	 0.201982068615667 
1972	 0.2023614640398 
1973	 0.202750813653202 
1974	 0.203126944549623 
1975	 0.203485406748715 
1976	 0.203850417944658 
1977	 0.204217871173375 
1978	 0.204579982456952 
1979	 0.204950154681442 
1980	 0.205337458215148 
1981	 0.205721131624949 
1982	 0.206117515351622 
1983	 0.206496309679999 
1984	 0.206858328428056 
1985	 0.207241838864305 
1986	 0.207626451053547 
1987	 0.208018775522828 
1988	 0.208434329534326 
1989	 0.208845394358721 
1990	 0.209228363845694 
1991	 0.209607028001509 
1992	 0.209989691758973 
1993	 0.21036112393939 
1994	 0.210734418993315 
1995	 0.211114438247767 
1996	 0.211490744579853 
1997	 0.211860147680871 
1998	 0.212237944932903 
1999	 0.212623834707865 
2000	 0.213000763950637 
2001	 0.213384249471845 
2002	 0.213741541455926 
2003	 0.214113684640118 
2004	 0.214505697966257 
2005	 0.214852784889001 
2006	 0.215178992578105 
2007	 0.215512538361552 
2008	 0.215804115236714 
2009	 0.216134208257921 
2010	 0.216506530951164 
2011	 0.216850227755072 
2012	 0.217178987342036 
2013	 0.217520591559006 
2014	 0.21785607308003 
2015	 0.218199883289712 
2016	 0.218544623077067 
2017	 0.218894923078904 
2018	 0.219241010379275 
2019	 0.219588065971852 
2020	 0.219913887761309 
2021	 0.220231393461162 
2022	 0.220550891195432 
2023	 0.220842458639103 
2024	 0.221156570575319 
2025	 0.221496322918295 
2026	 0.221819355696464 
2027	 0.2221420437129 
2028	 0.222461166864575 
2029	 0.222764660669254 
2030	 0.223053567022728 
2031	 0.223347104933625 
2032	 0.223626373712436 
2033	 0.223914889610666 
2034	 0.224206166083826 
2035	 0.224498897452083 
2036	 0.224813580982438 
2037	 0.225096607542085 
2038	 0.225383969034026 
2039	 0.225633957044173 
2040	 0.225847105344442 
2041	 0.226036508056115 
2042	 0.226239683804119 
2043	 0.226445168551799 
2044	 0.226677709379905 
2045	 0.226938091427314 
2046	 0.227193597073309 
2047	 0.227475769838899 
2048	 0.227726050673473 
2049	 0.227984040541156 
2050	 0.228210602720703 
2051	 0.228392049030015 
2052	 0.228593964232037 
2053	 0.228794868875668 
2054	 0.228984091545061 
2055	 0.229160251837722 
2056	 0.229356384913951 
2057	 0.229550611874258 
2058	 0.229732765739689 
2059	 0.229930098195362 
2060	 0.230149949449583 
2061	 0.23035352161769 
2062	 0.230557896186734 
2063	 0.230749870546934 
2064	 0.230938146652853 
2065	 0.231117517737433 
2066	 0.231286723693942 
2067	 0.23144651320006 
2068	 0.231580223600172 
2069	 0.231735027595624 
2070	 0.231902020670544 
2071	 0.232064339262459 
2072	 0.232246081696335 
2073	 0.232458024695921 
2074	 0.232654748709562 
2075	 0.232862733710943 
2076	 0.233047894176471 
2077	 0.233224614595807 
2078	 0.23339871197411 
2079	 0.233545786429858 
2080	 0.233710656254268 
2081	 0.23390351195847 
2082	 0.234067019752537 
2083	 0.234209658037864 
2084	 0.234359718641668 
2085	 0.234521041094868 
2086	 0.234666435645971 
2087	 0.234836965896418 
2088	 0.235053613961218 
2089	 0.235219867978773 
2090	 0.235361158481067 
2091	 0.235515334910784 
2092	 0.235662111796566 
2093	 0.235799346526143 
2094	 0.235927490497497 
2095	 0.236072268751649 
2096	 0.236217909314106 
2097	 0.236355911952244 
2098	 0.236503314240607 
2099	 0.236650861814111 
2100	 0.236801221430642 
2101	 0.236929914492923 
2102	 0.237093055652731 
2103	 0.237294409047262 
2104	 0.237461598307931 
2105	 0.237614809709302 
2106	 0.237786303763677 
2107	 0.237958837078085 
2108	 0.23812537850214 
2109	 0.238303545512636 
2110	 0.238478910096588 
2111	 0.238637844312781 
2112	 0.238804697153602 
2113	 0.238973803085063 
2114	 0.239163074690194 
2115	 0.239336102170281 
2116	 0.239510709340406 
2117	 0.239666951403177 
2118	 0.239805627196386 
2119	 0.239963603565043 
2120	 0.240118552877099 
2121	 0.24027319341213 
2122	 0.240446982064971 
2123	 0.240601262119866 
2124	 0.240745964797586 
2125	 0.240877799589217 
2126	 0.241011363818884 
2127	 0.24112215238807 
2128	 0.241192293193715 
2129	 0.241280816379499 
2130	 0.241363875923566 
2131	 0.241451933195249 
2132	 0.241532941797169 
2133	 0.241637031477182 
2134	 0.241687767750314 
2135	 0.241708077131144 
2136	 0.241727235410757 
2137	 0.241719044347325 
2138	 0.241712598606929 
2139	 0.24170600734116 
2140	 0.241685741578586 
2141	 0.241650393699469 
2142	 0.241609863822241 
2143	 0.241563805085516 
2144	 0.241507453768153 
2145	 0.241445511971835 
2146	 0.241368622792295 
2147	 0.241277694677601 
2148	 0.241172125005308 
2149	 0.241078608653293 
2150	 0.240974622277739 
2151	 0.240881684097907 
2152	 0.240807401052653 
2153	 0.240709390526721 
2154	 0.240608062257821 
2155	 0.240489908505174 
2156	 0.240364427643687 
2157	 0.240220017840411 
2158	 0.240069024400697 
2159	 0.239887420424304 
2160	 0.239665890701026 
2161	 0.23945362086384 
2162	 0.239199827008164 
2163	 0.238982734246349 
2164	 0.238809299517201 
2165	 0.238604744113275 
2166	 0.238397932602906 
2167	 0.238202143826876 
2168	 0.237987799046747 
2169	 0.237738206028463 
2170	 0.237527902509117 
2171	 0.237339495300963 
2172	 0.237133424285678 
2173	 0.236939563885546 
2174	 0.236725892188332 
2175	 0.236485452493944 
2176	 0.236263404130618 
2177	 0.236045412092855 
2178	 0.23582398085083 
2179	 0.235613464914041 
2180	 0.235391349717683 
2181	 0.235173062898371 
2182	 0.234931389165782 
2183	 0.234647274996686 
2184	 0.234391359241583 
2185	 0.234157085440984 
2186	 0.233911688670382 
2187	 0.233707664054556 
2188	 0.233570264706459 
2189	 0.23337399940818 
2190	 0.233163760265512 
2191	 0.232960923795243 
2192	 0.232720347382469 
2193	 0.232534143821125 
2194	 0.23238412720535 
2195	 0.232226238025351 
2196	 0.232096903228625 
2197	 0.231955312993955 
2198	 0.231798662840094 
2199	 0.231659438417793 
2200	 0.231528324575602 
2201	 0.231402800977675 
2202	 0.231290758993043 
2203	 0.231171631837991 
2204	 0.231078995480114 
2205	 0.230994153005377 
2206	 0.230934443178981 
2207	 0.230910281892439 
2208	 0.230862523157296 
2209	 0.230817055678853 
2210	 0.230779075437942 
2211	 0.230732817791223 
2212	 0.230702470938734 
2213	 0.230683306765136 
2214	 0.230678824606923 
2215	 0.230692040092421 
2216	 0.230696555509497 
2217	 0.230704559256861 
2218	 0.230724785600194 
2219	 0.230746071775766 
2220	 0.230773305003978 
2221	 0.230829584617787 
2222	 0.230868152835467 
2223	 0.230902413853287 
2224	 0.23091250879115 
2225	 0.230923323639436 
2226	 0.23092831920274 
2227	 0.230917745233305 
2228	 0.230889229826672 
2229	 0.230873623780425 
2230	 0.230854096201389 
2231	 0.230831107977996 
2232	 0.230818204670687 
2233	 0.230787113239876 
2234	 0.230766159316367 
2235	 0.230686253488055 
2236	 0.230560435898162 
2237	 0.230451108128997 
2238	 0.230295337064596 
2239	 0.230161765656927 
2240	 0.230074255455859 
2241	 0.229941801604286 
2242	 0.229787663260537 
2243	 0.22961825132993 
2244	 0.229406384920309 
2245	 0.229218591268046 
2246	 0.229036318171621 
2247	 0.22881120173268 
2248	 0.228572380824747 
2249	 0.228324029385589 
2250	 0.228052267870475 
2251	 0.227732610312464 
2252	 0.227449500731976 
2253	 0.227152851141699 
2254	 0.226901155531805 
2255	 0.226674001854607 
2256	 0.22646570406236 
2257	 0.226276392843675 
2258	 0.226120695739015 
2259	 0.225974820557717 
2260	 0.225874169096091 
2261	 0.225833880339691 
2262	 0.225795745984716 
2263	 0.225811190218299 
2264	 0.225790106339018 
2265	 0.225740046278426 
2266	 0.225730850679912 
2267	 0.2257262241145 
2268	 0.225734008370796 
2269	 0.225761308018872 
2270	 0.225820405819285 
2271	 0.225898505407297 
2272	 0.225996320226912 
2273	 0.226140385056349 
2274	 0.226293004636615 
2275	 0.226451891777444 
2276	 0.226617513672484 
2277	 0.226794354300931 
2278	 0.226993764013397 
2279	 0.227179341017634 
2280	 0.227363445300318 
2281	 0.227542550186531 
2282	 0.227694236286258 
2283	 0.227909801410336 
2284	 0.228175083164285 
2285	 0.228394298349047 
2286	 0.228662550107687 
2287	 0.228855470812154 
2288	 0.228976982170856 
2289	 0.229102146177244 
2290	 0.229204614705552 
2291	 0.229290915441659 
2292	 0.229364237716804 
2293	 0.229419576835881 
2294	 0.229436742396187 
2295	 0.229470445788708 
2296	 0.229500981839911 
2297	 0.229498513954657 
2298	 0.229582204044508 
2299	 0.22965604214785 
2300	 0.229695487968895 
2301	 0.22974505229204 
2302	 0.229756111811335 
2303	 0.229780976881086 
2304	 0.229853213494898 
2305	 0.229915599030517 
2306	 0.22995733181861 
2307	 0.22998186146773 
2308	 0.230013393197516 
2309	 0.230045340100841 
2310	 0.230054860514372 
2311	 0.23005799602184 
2312	 0.230050133555982 
2313	 0.229999916100329 
2314	 0.229991469660657 
2315	 0.230020046294017 
2316	 0.23000348520583 
2317	 0.229973652661704 
2318	 0.229948470958275 
2319	 0.229893547285329 
2320	 0.229851806572369 
2321	 0.229855700830957 
2322	 0.229800763610942 
2323	 0.229698430984885 
2324	 0.22962354100928 
2325	 0.229488877700324 
2326	 0.229428216076033 
2327	 0.229438122709167 
2328	 0.229421213999621 
2329	 0.229404356063231 
2330	 0.229399574781509 
2331	 0.229356244485037 
2332	 0.229305341779959 
2333	 0.229278898290829 
2334	 0.229279658058087 
2335	 0.229290998947265 
2336	 0.22924786562862 
2337	 0.229127440671704 
2338	 0.229016783178811 
2339	 0.228877454918562 
2340	 0.228706030203525 
2341	 0.228592923565484 
2342	 0.228487699158572 
2343	 0.22837363798839 
2344	 0.228296575815859 
2345	 0.22819728007548 
2346	 0.228110760032049 
2347	 0.227995851466295 
2348	 0.227855335537478 
2349	 0.227719601115387 
2350	 0.227599766768367 
2351	 0.227422569718365 
2352	 0.227197070579273 
2353	 0.226999239368719 
2354	 0.22675844639567 
2355	 0.226562949357789 
2356	 0.226449833103286 
2357	 0.226255278415464 
2358	 0.225985585502294 
2359	 0.225790614364879 
2360	 0.225586905506926 
2361	 0.225410004376699 
2362	 0.225344972317225 
2363	 0.225191890993481 
2364	 0.224995741340699 
2365	 0.22478384703167 
2366	 0.224541567758612 
2367	 0.224260045250813 
2368	 0.223909757699426 
2369	 0.223613972287812 
2370	 0.223287594724977 
2371	 0.223019872436306 
2372	 0.22284596540037 
2373	 0.222647214106804 
2374	 0.222386644068284 
2375	 0.222165875232584 
2376	 0.221935926019831 
2377	 0.221640022797257 
2378	 0.221371127937427 
2379	 0.221100355115303 
2380	 0.220760258376948 
2381	 0.220426082071318 
2382	 0.220135892432351 
2383	 0.219875166538857 
2384	 0.219631952357472 
2385	 0.219421558302064 
2386	 0.219117928972356 
2387	 0.218715370125413 
2388	 0.218331982034011 
2389	 0.217924519515563 
2390	 0.217586609255488 
2391	 0.217299668030986 
2392	 0.216942467074032 
2393	 0.216610554700801 
2394	 0.216326496945358 
2395	 0.215963039735642 
2396	 0.215659515060566 
2397	 0.215460589711471 
2398	 0.215115287739791 
2399	 0.214852848894822 
2400	 0.214698736326364 
2401	 0.214407458398664 
2402	 0.214194609559111 
2403	 0.21394369469126 
2404	 0.21351463101796 
2405	 0.213079389720587 
2406	 0.212688708681362 
2407	 0.212371285550542 
2408	 0.212081278928548 
2409	 0.211802573913722 
2410	 0.211497678234165 
2411	 0.211152676594583 
2412	 0.210875453050523 
2413	 0.210612475633696 
2414	 0.21032334819924 
2415	 0.210075629457898 
2416	 0.209832386278806 
2417	 0.209626146737877 
2418	 0.209346339104963 
2419	 0.209026024825591 
2420	 0.208712137912385 
2421	 0.208327547433724 
2422	 0.207981047985114 
2423	 0.20770623758057 
2424	 0.207438175166074 
2425	 0.207190231140403 
2426	 0.206867424754537 
2427	 0.206482323770003 
2428	 0.206110679169241 
2429	 0.205682435761341 
2430	 0.205328783322017 
2431	 0.205089097485919 
2432	 0.204780458511265 
2433	 0.204439885641738 
2434	 0.204078930450923 
2435	 0.203662156914166 
2436	 0.203257642561025 
2437	 0.202865882045574 
2438	 0.202488380027895 
2439	 0.202148833015357 
2440	 0.20177793688643 
2441	 0.201329985744556 
2442	 0.200948649017036 
2443	 0.200559842250505 
2444	 0.200188860636004 
2445	 0.199942091349131 
2446	 0.19966242006077 
2447	 0.19936372788446 
2448	 0.199035853897892 
2449	 0.198689138297044 
2450	 0.198307871831079 
2451	 0.197886310555033 
2452	 0.197424606288166 
2453	 0.196966331662145 
2454	 0.196514319962598 
2455	 0.195915633729114 
2456	 0.195574797782161 
2457	 0.195455168617281 
2458	 0.195076284532157 
2459	 0.194674065601371 
2460	 0.194347921764868 
2461	 0.19387649261582 
2462	 0.193531878188392 
2463	 0.193424422921236 
2464	 0.193144633423185 
2465	 0.192802206224673 
2466	 0.192328366829776 
2467	 0.191697385352509 
2468	 0.191267663086255 
2469	 0.190712608041851 
2470	 0.190431954342425 
2471	 0.190300473599806 
2472	 0.190055702306038 
2473	 0.189943587173758 
2474	 0.189615571354254 
2475	 0.189391088525406 
2476	 0.18937232431228 
2477	 0.189095181682953 
2478	 0.188983256950774 
2479	 0.18887217923178 
2480	 0.188484430297466 
2481	 0.188264059438418 
2482	 0.188179762439 
2483	 0.18786647351248 
2484	 0.187386858324887 
2485	 0.186986339687691 
2486	 0.186529204593687 
2487	 0.186197845426306 
2488	 0.18621391046866 
2489	 0.186114679314161 
2490	 0.1860226425925 
2491	 0.185863243688439 
2492	 0.1852416706501 
2493	 0.184676752636899 
2494	 0.184401116239807 
2495	 0.18431640132885 
2496	 0.184384834664462 
2497	 0.184442337047313 
2498	 0.184200320037797 
2499	 0.183765684833677 
2500	 0.183408662597085 
