Wavelength	mm2500008.asd
350	 5.96386869525526E-02 
351	 6.34371770312875E-02 
352	 5.43017547899132E-02 
353	 4.04627676532983E-02 
354	 5.04117883388622E-02 
355	 5.18432433332376E-02 
356	 4.72272798057053E-02 
357	 4.67956514313988E-02 
358	 5.31213113986701E-02 
359	 5.57168392513355E-02 
360	 5.42990086391234E-02 
361	 5.45544110113048E-02 
362	 4.79775821539434E-02 
363	 4.42655365340909E-02 
364	 4.68718437718897E-02 
365	 4.67176786867234E-02 
366	 4.38457101007517E-02 
367	 4.21536760526465E-02 
368	 4.48754374604709E-02 
369	 4.87218721655156E-02 
370	 4.85889657448153E-02 
371	 4.61699861393113E-02 
372	 4.74963911736425E-02 
373	 5.17828914738806E-02 
374	 5.32052075857068E-02 
375	 5.05037163716586E-02 
376	 5.13131916475897E-02 
377	 4.89055270680972E-02 
378	 4.76146713365167E-02 
379	 5.17551456001875E-02 
380	 5.17143002494186E-02 
381	 4.95889248130502E-02 
382	 4.84997595999813E-02 
383	 5.12667645242116E-02 
384	 5.13456067959994E-02 
385	 5.05854966495838E-02 
386	 5.07887245510881E-02 
387	 5.13005546003084E-02 
388	 5.11404497515401E-02 
389	 5.07056537431859E-02 
390	 5.08430245369647E-02 
391	 5.21413765434743E-02 
392	 5.29227116566856E-02 
393	 5.31342992319969E-02 
394	 5.40884236283607E-02 
395	 5.52184181249832E-02 
396	 5.56924961822039E-02 
397	 5.55130648749928E-02 
398	 0.056668641798998 
399	 5.67405962405984E-02 
400	 5.66993319108838E-02 
401	 5.80153670528724E-02 
402	 5.76442331417331E-02 
403	 5.65783832136957E-02 
404	 5.62230321505747E-02 
405	 5.79451200446414E-02 
406	 5.80612745408435E-02 
407	 5.79225973019208E-02 
408	 0.058606090969088 
409	 5.77194255606975E-02 
410	 5.71263855728582E-02 
411	 5.72238091414884E-02 
412	 5.76824969510447E-02 
413	 5.85546356884911E-02 
414	 5.88794033294789E-02 
415	 5.86463927771229E-02 
416	 5.91255309993304E-02 
417	 5.89562417527377E-02 
418	 5.85423155366801E-02 
419	 5.86029310611632E-02 
420	 5.96027809237552E-02 
421	 5.93761772680988E-02 
422	 5.84719276491581E-02 
423	 0.058970164673493 
424	 5.90549351479779E-02 
425	 0.05896600210915 
426	 5.89661600630461E-02 
427	 5.88525517976809E-02 
428	 5.89579751350722E-02 
429	 5.88911711898956E-02 
430	 5.83259672855306E-02 
431	 0.058457594823423 
432	 5.84636548054349E-02 
433	 5.82634357009959E-02 
434	 5.85419137061354E-02 
435	 5.88010996748842E-02 
436	 5.87018795509061E-02 
437	 5.82321582994487E-02 
438	 5.80629016048221E-02 
439	 5.82427115782718E-02 
440	 0.058649036772082 
441	 0.059031972936796 
442	 5.90450057317065E-02 
443	 5.89922171421201E-02 
444	 5.89807260660224E-02 
445	 5.87017623517607E-02 
446	 5.87046959424496E-02 
447	 5.90166504908468E-02 
448	 5.94026614229473E-02 
449	 5.92471405398932E-02 
450	 5.93109273954301E-02 
451	 5.96020867415115E-02 
452	 5.94985244327339E-02 
453	 5.95684960044139E-02 
454	 5.96511597311306E-02 
455	 5.95965635890706E-02 
456	 5.95812713386388E-02 
457	 5.96133172886556E-02 
458	 5.97515277014091E-02 
459	 6.00013086840407E-02 
460	 5.98672254760378E-02 
461	 5.97406452005489E-02 
462	 5.98257627392017E-02 
463	 5.99599062949158E-02 
464	 5.98707014060409E-02 
465	 5.97662974596487E-02 
466	 5.98543760567596E-02 
467	 5.97151522287446E-02 
468	 5.97789245035943E-02 
469	 5.99513357561933E-02 
470	 5.97566328600386E-02 
471	 5.99387774191577E-02 
472	 6.00726355957393E-02 
473	 5.98754941826484E-02 
474	 5.98488079390477E-02 
475	 5.98977486961301E-02 
476	 5.99473976788953E-02 
477	 5.99544444789837E-02 
478	 6.01639890029315E-02 
479	 6.02430184485223E-02 
480	 6.00927041359383E-02 
481	 5.99924743751967E-02 
482	 6.00924014593073E-02 
483	 6.02292378128459E-02 
484	 6.02413264384474E-02 
485	 0.060436067159828 
486	 6.02952466665219E-02 
487	 6.00080309968244E-02 
488	 6.02906752591769E-02 
489	 6.01706442102386E-02 
490	 6.00798104658437E-02 
491	 6.03311716531724E-02 
492	 6.03607370632799E-02 
493	 6.02436110040368E-02 
494	 6.01165797524843E-02 
495	 6.01244802775575E-02 
496	 6.00938034902961E-02 
497	 6.00892449510595E-02 
498	 6.01763735264588E-02 
499	 6.04009885853929E-02 
500	 6.04602912219623E-02 
501	 6.03714871836175E-02 
502	 6.02798081943562E-02 
503	 6.04123895942838E-02 
504	 6.04100971125306E-02 
505	 6.03233377276204E-02 
506	 0.060555825154215 
507	 6.04282462343522E-02 
508	 6.03217302343879E-02 
509	 6.05039194486702E-02 
510	 6.03649586941083E-02 
511	 6.03352395683151E-02 
512	 6.04260856274836E-02 
513	 6.04411747046932E-02 
514	 6.04566019207042E-02 
515	 6.05076651922941E-02 
516	 6.05954131554842E-02 
517	 6.06801849913468E-02 
518	 6.06574593326368E-02 
519	 6.05338202537656E-02 
520	 6.03965568568614E-02 
521	 6.05035547547466E-02 
522	 6.05958304255519E-02 
523	 6.05866277838095E-02 
524	 6.05997604309138E-02 
525	 6.07009779931032E-02 
526	 6.07757149392341E-02 
527	 6.07376396184177E-02 
528	 6.07256618584401E-02 
529	 6.06906267466105E-02 
530	 6.06441998230794E-02 
531	 6.06378987103211E-02 
532	 6.06913488149989E-02 
533	 6.08076691371438E-02 
534	 6.09330424040876E-02 
535	 6.08857202643242E-02 
536	 0.060904849645433 
537	 6.09960662979392E-02 
538	 6.10773386638133E-02 
539	 6.11718565470091E-02 
540	 6.11733271814802E-02 
541	 6.11215027986522E-02 
542	 6.12601657533965E-02 
543	 6.12997150907485E-02 
544	 6.13239914354719E-02 
545	 6.14547084706163E-02 
546	 6.15375508098144E-02 
547	 6.16279009816402E-02 
548	 6.17034061848151E-02 
549	 6.16834202245026E-02 
550	 6.17585134420666E-02 
551	 6.18690579410635E-02 
552	 0.061959429886192 
553	 6.21199956819902E-02 
554	 6.22557003033856E-02 
555	 0.062341175079361 
556	 6.23995917207425E-02 
557	 6.25181621079417E-02 
558	 0.062684953265413 
559	 6.28798295571053E-02 
560	 0.063098863275857 
561	 6.32480682482552E-02 
562	 6.33869080795286E-02 
563	 6.36021290600969E-02 
564	 6.37992988400686E-02 
565	 6.39866168767728E-02 
566	 6.41922804558619E-02 
567	 6.44587436192221E-02 
568	 6.47598667341821E-02 
569	 0.065102585872257 
570	 6.54738054472019E-02 
571	 6.57626489598351E-02 
572	 0.066110268516665 
573	 6.65241292661321E-02 
574	 6.69166845367253E-02 
575	 6.73124824048821E-02 
576	 0.067708506423422 
577	 6.80928424392689E-02 
578	 6.84211759997109E-02 
579	 6.88783050172759E-02 
580	 6.94242432563954E-02 
581	 6.99322199346452E-02 
582	 7.04427267557247E-02 
583	 7.09688098063975E-02 
584	 7.15124496644457E-02 
585	 7.20647299118391E-02 
586	 7.26419371951092E-02 
587	 7.32358220725865E-02 
588	 7.38262702056398E-02 
589	 7.43789018513141E-02 
590	 7.49343013538449E-02 
591	 7.55191374646659E-02 
592	 7.61417952096632E-02 
593	 7.67056759041899E-02 
594	 7.72863855650253E-02 
595	 7.79297888386597E-02 
596	 7.85037624271897E-02 
597	 7.91396289082858E-02 
598	 7.98140594691469E-02 
599	 8.04318766962513E-02 
600	 8.10514128601498E-02 
601	 8.16440157698736E-02 
602	 8.21901640617151E-02 
603	 8.27028026434407E-02 
604	 8.32168555721021E-02 
605	 8.37510418093865E-02 
606	 8.42994221756152E-02 
607	 8.47706938701839E-02 
608	 8.52249202625424E-02 
609	 8.56898811069906E-02 
610	 8.61466949763254E-02 
611	 8.66000900196357E-02 
612	 8.70476826013627E-02 
613	 8.74679487182258E-02 
614	 8.77824977547175E-02 
615	 8.80807978984708E-02 
616	 0.088407314096617 
617	 8.87652402073731E-02 
618	 8.91163087105111E-02 
619	 8.93849868696227E-02 
620	 8.95707753529024E-02 
621	 8.98413621843538E-02 
622	 9.00958000288046E-02 
623	 9.03337803027562E-02 
624	 9.05807736622608E-02 
625	 9.07630653675653E-02 
626	 9.09745486338624E-02 
627	 9.12308641594692E-02 
628	 0.091428774635434 
629	 9.15881361585057E-02 
630	 9.17460149578689E-02 
631	 0.09193177333506 
632	 9.21186995339573E-02 
633	 9.22740960108052E-02 
634	 0.092414500504095 
635	 9.25950743691421E-02 
636	 9.28080236657203E-02 
637	 9.30090977261267E-02 
638	 9.31746787261942E-02 
639	 9.33454022477514E-02 
640	 9.35282444309854E-02 
641	 0.093711949296417 
642	 9.38784613179382E-02 
643	 9.40420665869553E-02 
644	 9.42191856706901E-02 
645	 9.44082337029882E-02 
646	 9.45810189354794E-02 
647	 9.47677576991701E-02 
648	 9.49571470379839E-02 
649	 9.51386068913166E-02 
650	 9.53581693242172E-02 
651	 9.55765163720292E-02 
652	 0.095780261067941 
653	 9.59819568208575E-02 
654	 9.61907507885211E-02 
655	 9.64118370552252E-02 
656	 9.66466271432179E-02 
657	 9.68905445119415E-02 
658	 9.71385360077345E-02 
659	 9.73853751467142E-02 
660	 0.097625129022248 
661	 9.78404192812644E-02 
662	 9.80945002338781E-02 
663	 9.83987421952364E-02 
664	 9.86807080392103E-02 
665	 9.89314698276001E-02 
666	 9.91946784611448E-02 
667	 9.95045744063299E-02 
668	 9.97852162349569E-02 
669	 0.10004823183961 
670	 0.100344863445198 
671	 0.100739800969607 
672	 0.100996224936379 
673	 0.101273399233711 
674	 0.101677782337641 
675	 0.102028009608117 
676	 0.102364691551172 
677	 0.102721172722245 
678	 0.103116138449325 
679	 0.103452142102124 
680	 0.103798717876946 
681	 0.104194110178348 
682	 0.10461732554308 
683	 0.105015705771039 
684	 0.105388284098307 
685	 0.105758929782362 
686	 0.106177691618134 
687	 0.106621313840376 
688	 0.107067652297638 
689	 0.107496955639416 
690	 0.107902415875893 
691	 0.108332509984941 
692	 0.108799469465464 
693	 0.109225206946352 
694	 0.109692461770208 
695	 0.110180446508176 
696	 0.110643570326696 
697	 0.111125496746844 
698	 0.111565831909775 
699	 0.111997147458147 
700	 0.112546257694766 
701	 0.11305102765537 
702	 0.113515245923569 
703	 0.113979068450426 
704	 0.114480242772055 
705	 0.114963126474349 
706	 0.115446456561139 
707	 0.115975619371717 
708	 0.116477958930948 
709	 0.116959474501536 
710	 0.117437290452392 
711	 0.117933681397308 
712	 0.118399499166601 
713	 0.118851582876972 
714	 0.119330655005845 
715	 0.119902552810239 
716	 0.120384216645942 
717	 0.120779963520147 
718	 0.121230703591165 
719	 0.121711993088868 
720	 0.122154012581186 
721	 0.122536458461546 
722	 0.122948609968747 
723	 0.123369363001463 
724	 0.123790409283758 
725	 0.124204004941234 
726	 0.12460455289099 
727	 0.124938786508804 
728	 0.125233785791251 
729	 0.125585247814063 
730	 0.125908330992643 
731	 0.126194400620039 
732	 0.126460584609004 
733	 0.126753166653999 
734	 0.127032396832087 
735	 0.127253458244535 
736	 0.127395262925115 
737	 0.127586847891377 
738	 0.127772813704262 
739	 0.127927382241452 
740	 0.12807265566653 
741	 0.128223219016228 
742	 0.128335217400703 
743	 0.128385917151469 
744	 0.12844481122425 
745	 0.128462914218575 
746	 0.128471608411817 
747	 0.128517361827822 
748	 0.128471812402023 
749	 0.12839760194036 
750	 0.128351885442396 
751	 0.128360674262036 
752	 0.128283769075691 
753	 0.128152453290941 
754	 0.128026360129171 
755	 0.127918429451376 
756	 0.127797691221669 
757	 0.12763824614273 
758	 0.127430478239317 
759	 0.127249093742521 
760	 0.127065201108329 
761	 0.126857666995524 
762	 0.126628800271641 
763	 0.126424740215462 
764	 0.126219503476971 
765	 0.125979564128392 
766	 0.125693957026299 
767	 0.125466600775516 
768	 0.125246986946197 
769	 0.124930073409774 
770	 0.124642407671471 
771	 0.124364035171874 
772	 0.12407826236597 
773	 0.123788384811444 
774	 0.123502614561694 
775	 0.123190327106225 
776	 0.122849222291819 
777	 0.12258172991973 
778	 0.122279806905835 
779	 0.121955429295932 
780	 0.12166604477625 
781	 0.121375605544274 
782	 0.12108480791692 
783	 0.120776008812732 
784	 0.120416108154797 
785	 0.120093207996039 
786	 0.119809216514342 
787	 0.119534150880533 
788	 0.119201323995483 
789	 0.11892524101552 
790	 0.118654433598412 
791	 0.118308688249791 
792	 0.118008104715033 
793	 0.11773557723708 
794	 0.117456052481921 
795	 0.117132137633445 
796	 0.116819271490338 
797	 0.11655583641525 
798	 0.116328954070028 
799	 0.116041066281753 
800	 0.115763112000506 
801	 0.115494186368405 
802	 0.115223306755632 
803	 0.11498617881448 
804	 0.114762646837252 
805	 0.114524843937383 
806	 0.114252031170942 
807	 0.114010233193369 
808	 0.113770002310753 
809	 0.113518750269276 
810	 0.113278843891787 
811	 0.113044759914863 
812	 0.112800750800931 
813	 0.112555607368967 
814	 0.112396409086196 
815	 0.112203688667342 
816	 0.111994786059703 
817	 0.111828196493111 
818	 0.111645252467672 
819	 0.11146517166994 
820	 0.111290421254479 
821	 0.111106949084632 
822	 0.110916647788118 
823	 0.110730195926567 
824	 0.110554266330282 
825	 0.110385389361108 
826	 0.110242199065873 
827	 0.110130016677722 
828	 0.110032569308077 
829	 0.109887033005155 
830	 0.109683075943104 
831	 0.109487480222767 
832	 0.109382268726674 
833	 0.109294242742348 
834	 0.109196371828907 
835	 0.109084902888769 
836	 0.108974465155635 
837	 0.108837135287084 
838	 0.108751240831556 
839	 0.108730764703285 
840	 0.108655737827599 
841	 0.108540909927386 
842	 0.10843394844157 
843	 0.108368202374749 
844	 0.108291873179842 
845	 0.108257257419102 
846	 0.10823568017395 
847	 0.10817837829585 
848	 0.108158947019116 
849	 0.108111368751152 
850	 0.108032632931887 
851	 0.107977709298091 
852	 0.107933301465103 
853	 0.10793146694256 
854	 0.10796434032365 
855	 0.107962148935744 
856	 0.107979380730071 
857	 0.107988143656606 
858	 0.107973067452889 
859	 0.107999870607638 
860	 0.108021719167264 
861	 0.108003460243628 
862	 0.107949554573948 
863	 0.108004927245208 
864	 0.10806043533638 
865	 0.108098554118553 
866	 0.108157118210934 
867	 0.108194022473291 
868	 0.108253261428554 
869	 0.108329555948345 
870	 0.108368040169887 
871	 0.108446662720558 
872	 0.108536502544853 
873	 0.108617727816203 
874	 0.108713745959541 
875	 0.108812129771029 
876	 0.108869795934339 
877	 0.108887681816292 
878	 0.108993009210716 
879	 0.109160789428184 
880	 0.109306558208066 
881	 0.109371952489606 
882	 0.109502128892493 
883	 0.109632156265722 
884	 0.109730248146937 
885	 0.109811774379704 
886	 0.110034978875565 
887	 0.110237616475886 
888	 0.110359162662642 
889	 0.110458919895872 
890	 0.110637056670949 
891	 0.110815083550524 
892	 0.110975008633164 
893	 0.111197278625874 
894	 0.11135255781784 
895	 0.111510379400555 
896	 0.111714767653307 
897	 0.111892605789296 
898	 0.112144825343215 
899	 0.112381434760759 
900	 0.112534296175252 
901	 0.112719493830059 
902	 0.112980788436218 
903	 0.113262258179023 
904	 0.113493544646109 
905	 0.113699205468217 
906	 0.114002888708868 
907	 0.114343540562454 
908	 0.114598154849448 
909	 0.114840304873513 
910	 0.115079784326864 
911	 0.115336689062567 
912	 0.11563550102038 
913	 0.115998288952637 
914	 0.116287102428057 
915	 0.116524518157839 
916	 0.116864950523446 
917	 0.117173250136647 
918	 0.117488124776278 
919	 0.117833027680728 
920	 0.118185420473959 
921	 0.118493933686232 
922	 0.118832754556729 
923	 0.119225319745326 
924	 0.119593259560152 
925	 0.119961278839277 
926	 0.12035363922838 
927	 0.120764344253076 
928	 0.121132307178313 
929	 0.121544338348094 
930	 0.122001629609086 
931	 0.122455211496687 
932	 0.122800519666995 
933	 0.123203729019514 
934	 0.123640717140489 
935	 0.124074434748026 
936	 0.124618110361311 
937	 0.125030495332045 
938	 0.125393021150019 
939	 0.125861986773533 
940	 0.126439484404647 
941	 0.126952560736474 
942	 0.127418797325797 
943	 0.127920362360386 
944	 0.128445243826144 
945	 0.128897807215755 
946	 0.129370901904835 
947	 0.129974289664455 
948	 0.130493439203542 
949	 0.130995190440159 
950	 0.131535518577694 
951	 0.132130637385933 
952	 0.13265755537642 
953	 0.133227646934733 
954	 0.133834838970743 
955	 0.134416767171654 
956	 0.135029201121284 
957	 0.135662104214571 
958	 0.136258630721443 
959	 0.136778629511943 
960	 0.137411170024175 
961	 0.138034280473464 
962	 0.138680393771083 
963	 0.139427377554896 
964	 0.139940218556842 
965	 0.140567737049311 
966	 0.141263503383656 
967	 0.141773494681836 
968	 0.142492857393378 
969	 0.1431795484569 
970	 0.143824082727286 
971	 0.144554834501459 
972	 0.14512330072896 
973	 0.145881040591256 
974	 0.146751914551928 
975	 0.147415981465891 
976	 0.148114351939346 
977	 0.148821633028981 
978	 0.149491153464517 
979	 0.150112759829627 
980	 0.150893888444039 
981	 0.151675932327983 
982	 0.152351677606349 
983	 0.152926921794394 
984	 0.153673733923451 
985	 0.154451600830512 
986	 0.155212439886902 
987	 0.155954381214517 
988	 0.156548642117952 
989	 0.15719423094696 
990	 0.157949797035185 
991	 0.158774364999654 
992	 0.159614981525533 
993	 0.160430395716047 
994	 0.161201746254887 
995	 0.16189175377424 
996	 0.162300312168824 
997	 0.163159896307454 
998	 0.164084712474414 
999	 0.16457332548944 
1000	 0.165429267843354 
1001	 0.166448785135628 
1002	 0.167250718924254 
1003	 0.167959854921166 
1004	 0.168614726531137 
1005	 0.169185289869179 
1006	 0.169829808612558 
1007	 0.170431326990015 
1008	 0.171111008551583 
1009	 0.171811142586685 
1010	 0.172472655104138 
1011	 0.173086686653234 
1012	 0.173631327326959 
1013	 0.174291807952901 
1014	 0.174931935376563 
1015	 0.175515294477324 
1016	 0.176173351258398 
1017	 0.176773561459657 
1018	 0.17731187769948 
1019	 0.177841446547793 
1020	 0.17844803914011 
1021	 0.179036967510975 
1022	 0.179573914154923 
1023	 0.180106011110457 
1024	 0.180656402750748 
1025	 0.181132112483359 
1026	 0.181645842800549 
1027	 0.182193954526854 
1028	 0.182661167173987 
1029	 0.183169041631387 
1030	 0.183646884986676 
1031	 0.184134911046269 
1032	 0.184632734508493 
1033	 0.185144644278395 
1034	 0.185546407412777 
1035	 0.186004453386023 
1036	 0.186429467337313 
1037	 0.186836937313807 
1038	 0.187357378330437 
1039	 0.187824936414062 
1040	 0.188248454635136 
1041	 0.188707776580782 
1042	 0.189152523077747 
1043	 0.189573758005439 
1044	 0.190023215481609 
1045	 0.19051967353825 
1046	 0.190964149067993 
1047	 0.191352552891072 
1048	 0.191807804876926 
1049	 0.19222865715154 
1050	 0.19264331665682 
1051	 0.19309754998915 
1052	 0.193525598017376 
1053	 0.193950346656976 
1054	 0.194403970037139 
1055	 0.194867732013127 
1056	 0.19528860398487 
1057	 0.195714411739472 
1058	 0.196132171716613 
1059	 0.196547263844956 
1060	 0.196947798484755 
1061	 0.197377855122162 
1062	 0.197764200827398 
1063	 0.19812418909308 
1064	 0.1985072009916 
1065	 0.198882974924719 
1066	 0.199281640637993 
1067	 0.199704534094363 
1068	 0.200106855408618 
1069	 0.200481375771492 
1070	 0.200882606037068 
1071	 0.201303653077466 
1072	 0.201727283057523 
1073	 0.202181791441365 
1074	 0.202583470844667 
1075	 0.202967326693366 
1076	 0.203326952956238 
1077	 0.203662484529834 
1078	 0.203989969648413 
1079	 0.204403172494416 
1080	 0.204791818291345 
1081	 0.205151880254483 
1082	 0.20555338589882 
1083	 0.205923786521931 
1084	 0.206257158161962 
1085	 0.206613975101646 
1086	 0.206984890096335 
1087	 0.2073368775545 
1088	 0.207675185344935 
1089	 0.208023143841292 
1090	 0.208386972893616 
1091	 0.20872563351352 
1092	 0.209085046520103 
1093	 0.209466254398498 
1094	 0.209833852342872 
1095	 0.210192430029886 
1096	 0.210543646218876 
1097	 0.210884581146644 
1098	 0.211209009927492 
1099	 0.211509981660188 
1100	 0.211814064351731 
1101	 0.212083927857185 
1102	 0.212401606642421 
1103	 0.212743709381567 
1104	 0.213079385453962 
1105	 0.213416664725486 
1106	 0.213758399464797 
1107	 0.214073761362312 
1108	 0.214373614531852 
1109	 0.214662677159338 
1110	 0.214973217293438 
1111	 0.215282266472563 
1112	 0.215582659681835 
1113	 0.21588445173871 
1114	 0.216201708540717 
1115	 0.216500563713057 
1116	 0.216770524939101 
1117	 0.217071311125035 
1118	 0.217381503938439 
1119	 0.217700621616173 
1120	 0.218046012208276 
1121	 0.218362722592525 
1122	 0.218651176326861 
1123	 0.218963253965102 
1124	 0.219264346009577 
1125	 0.219553181360881 
1126	 0.219841199519792 
1127	 0.220125922013456 
1128	 0.220414491711071 
1129	 0.220704335052253 
1130	 0.220984052797688 
1131	 0.221263484518264 
1132	 0.221544885951381 
1133	 0.221826494897102 
1134	 0.222090582714344 
1135	 0.222352589802429 
1136	 0.222611977193548 
1137	 0.222855607283446 
1138	 0.223065316475891 
1139	 0.223288337260526 
1140	 0.223511119503396 
1141	 0.223735960681127 
1142	 0.223949625319773 
1143	 0.22418325121432 
1144	 0.22443283324957 
1145	 0.224664685682065 
1146	 0.224908247576063 
1147	 0.225130152333703 
1148	 0.22532596675572 
1149	 0.225535778142741 
1150	 0.225741357707704 
1151	 0.22594978880198 
1152	 0.22616590312816 
1153	 0.226388345233205 
1154	 0.226597458832489 
1155	 0.226792316190339 
1156	 0.227008073337754 
1157	 0.227236423961249 
1158	 0.227443839664718 
1159	 0.227664212858075 
1160	 0.227864799790852 
1161	 0.228025904210181 
1162	 0.228212265831507 
1163	 0.228405612285028 
1164	 0.228600654539014 
1165	 0.228802661507608 
1166	 0.22901752952381 
1167	 0.229205495282116 
1168	 0.229374415311847 
1169	 0.229559460948339 
1170	 0.229729263198316 
1171	 0.229924380019872 
1172	 0.230149128404312 
1173	 0.230346725271637 
1174	 0.230551080114981 
1175	 0.230727691768007 
1176	 0.230872983232378 
1177	 0.231037844175081 
1178	 0.23119952671288 
1179	 0.231358681600184 
1180	 0.231525417608938 
1181	 0.231687798322516 
1182	 0.231843160143979 
1183	 0.231990513164827 
1184	 0.232153094294239 
1185	 0.232333308681484 
1186	 0.23248713554753 
1187	 0.232634285805483 
1188	 0.232781052457528 
1189	 0.232909132648901 
1190	 0.233052063213666 
1191	 0.233213939780461 
1192	 0.233355195699668 
1193	 0.233481666042312 
1194	 0.233618247354131 
1195	 0.233752535271154 
1196	 0.233883728124925 
1197	 0.234024578097494 
1198	 0.234158451381535 
1199	 0.234287090424244 
1200	 0.234402123473079 
1201	 0.23453195151301 
1202	 0.234668302971353 
1203	 0.234796180127281 
1204	 0.234931899652269 
1205	 0.235049665251352 
1206	 0.235142454788024 
1207	 0.235261693792125 
1208	 0.235390690907755 
1209	 0.235509789469431 
1210	 0.23565148030304 
1211	 0.235765686577185 
1212	 0.235839382662495 
1213	 0.235940210440267 
1214	 0.236050417372526 
1215	 0.236153768432122 
1216	 0.236259592195811 
1217	 0.236386623120362 
1218	 0.236479181508839 
1219	 0.23654417643571 
1220	 0.236632863534361 
1221	 0.23672015026209 
1222	 0.236807320072206 
1223	 0.236907398289772 
1224	 0.236996860660474 
1225	 0.237076073287541 
1226	 0.237157945897526 
1227	 0.237239648326319 
1228	 0.237322065430117 
1229	 0.237401542818077 
1230	 0.237483382473959 
1231	 0.237577465853224 
1232	 0.23765652721766 
1233	 0.237728960299802 
1234	 0.237791028564456 
1235	 0.2378675712426 
1236	 0.237940704717439 
1237	 0.238017152918525 
1238	 0.238112398446224 
1239	 0.238184475305866 
1240	 0.238237270190958 
1241	 0.238303078049218 
1242	 0.238370906378962 
1243	 0.238432618493912 
1244	 0.238496076374834 
1245	 0.238557431663624 
1246	 0.238599308702558 
1247	 0.238662567902214 
1248	 0.238744907348942 
1249	 0.238822752095987 
1250	 0.238886715250122 
1251	 0.238964852168618 
1252	 0.239024167260465 
1253	 0.239058812229557 
1254	 0.239115839077637 
1255	 0.239184267907915 
1256	 0.239238045155445 
1257	 0.239295999797061 
1258	 0.239342301787654 
1259	 0.239373586468457 
1260	 0.239408440516628 
1261	 0.239436175729802 
1262	 0.239469414688428 
1263	 0.23949964309404 
1264	 0.239538498300769 
1265	 0.239589285177992 
1266	 0.239634602767955 
1267	 0.239689098588346 
1268	 0.239729868854332 
1269	 0.239765048550833 
1270	 0.239788275787579 
1271	 0.239823141358662 
1272	 0.239854487086733 
1273	 0.239886034024838 
1274	 0.239919275531781 
1275	 0.239962306057251 
1276	 0.239996115826008 
1277	 0.240057391419044 
1278	 0.240146330952403 
1279	 0.240223458896608 
1280	 0.240309488024691 
1281	 0.240396129572097 
1282	 0.240496992314017 
1283	 0.24057096386787 
1284	 0.240634295440032 
1285	 0.240691048600039 
1286	 0.240735638573927 
1287	 0.240790556361892 
1288	 0.240849096428437 
1289	 0.240922919252426 
1290	 0.24098925477878 
1291	 0.24105202443139 
1292	 0.241114939617879 
1293	 0.241190021118409 
1294	 0.241240408515922 
1295	 0.241272020565618 
1296	 0.241313406035949 
1297	 0.241340240800601 
1298	 0.241382108509079 
1299	 0.241447214119313 
1300	 0.241489311133463 
1301	 0.241523365903442 
1302	 0.241559240619794 
1303	 0.241596190798155 
1304	 0.241602843033237 
1305	 0.241633102074617 
1306	 0.241671645413386 
1307	 0.241675942135835 
1308	 0.241671981540666 
1309	 0.241656990670864 
1310	 0.24161056719305 
1311	 0.24158450791041 
1312	 0.241561524531172 
1313	 0.241542941645513 
1314	 0.241537487179336 
1315	 0.241513447556867 
1316	 0.241475215790636 
1317	 0.241449941832825 
1318	 0.241409402398899 
1319	 0.241391884520198 
1320	 0.241424469034515 
1321	 0.241407292481298 
1322	 0.241373589714582 
1323	 0.241340639042141 
1324	 0.24126248636062 
1325	 0.24116534926335 
1326	 0.241103736245947 
1327	 0.241047429784622 
1328	 0.240994866594082 
1329	 0.240964387556748 
1330	 0.240924062572588 
1331	 0.240887582647483 
1332	 0.240834803981872 
1333	 0.240782720721553 
1334	 0.240715245939264 
1335	 0.240618941862553 
1336	 0.240547758901935 
1337	 0.240477791659182 
1338	 0.240417664250424 
1339	 0.240383125362463 
1340	 0.240325384328207 
1341	 0.240252587002483 
1342	 0.240191424384101 
1343	 0.240119204841669 
1344	 0.24006290741961 
1345	 0.24002812474569 
1346	 0.239991846220611 
1347	 0.239942187022052 
1348	 0.239868870191074 
1349	 0.239789457212047 
1350	 0.239708661845072 
1351	 0.239628367917537 
1352	 0.2395507276998 
1353	 0.239475576386818 
1354	 0.239394840447152 
1355	 0.239321668434389 
1356	 0.239260356626873 
1357	 0.239184184722961 
1358	 0.239096784746181 
1359	 0.239021785048258 
1360	 0.238941136686867 
1361	 0.238875037243103 
1362	 0.238830513719719 
1363	 0.238773698569094 
1364	 0.238720879210339 
1365	 0.238659129854511 
1366	 0.23859105358952 
1367	 0.238520782084038 
1368	 0.238436747107461 
1369	 0.238355675408201 
1370	 0.238265737980841 
1371	 0.238148790035082 
1372	 0.238012956373058 
1373	 0.237854519987568 
1374	 0.237679077676294 
1375	 0.237480998017065 
1376	 0.23725741025518 
1377	 0.237028904427366 
1378	 0.236747506164223 
1379	 0.23641000600523 
1380	 0.23608756990282 
1381	 0.235746267645574 
1382	 0.235382849215443 
1383	 0.235030999236969 
1384	 0.234626052518718 
1385	 0.234189465628782 
1386	 0.233716997964011 
1387	 0.233222280851326 
1388	 0.232677420880162 
1389	 0.232089776909752 
1390	 0.231462182775346 
1391	 0.23080710752979 
1392	 0.230091413886092 
1393	 0.229332909218517 
1394	 0.228555137917301 
1395	 0.227703855491075 
1396	 0.226849007721516 
1397	 0.225997115739519 
1398	 0.225118876525794 
1399	 0.22425512455218 
1400	 0.223401313086141 
1401	 0.222538695750412 
1402	 0.221659403875697 
1403	 0.220821081031318 
1404	 0.21997744659341 
1405	 0.219182941181168 
1406	 0.218427707374709 
1407	 0.217684790618047 
1408	 0.216961246935214 
1409	 0.216273916644082 
1410	 0.215593442553769 
1411	 0.214976347377694 
1412	 0.214396332738361 
1413	 0.213870654280671 
1414	 0.213416122362128 
1415	 0.212997624034333 
1416	 0.212631098256882 
1417	 0.212300191487367 
1418	 0.211969352411477 
1419	 0.211662629199151 
1420	 0.211381203327993 
1421	 0.211117972998456 
1422	 0.210900390572897 
1423	 0.210699955707758 
1424	 0.210482251313735 
1425	 0.210267077902088 
1426	 0.210057151548248 
1427	 0.20982874000519 
1428	 0.209639882106729 
1429	 0.209468141879491 
1430	 0.209322428604834 
1431	 0.209206613897599 
1432	 0.209089220928164 
1433	 0.208991961266263 
1434	 0.208899218130284 
1435	 0.208800955150434 
1436	 0.208724262302633 
1437	 0.208668334134478 
1438	 0.208618710582495 
1439	 0.208573962713194 
1440	 0.208560966102091 
1441	 0.20854513467215 
1442	 0.208519574515725 
1443	 0.208491336370603 
1444	 0.208463019737151 
1445	 0.208458891568874 
1446	 0.208450253457341 
1447	 0.208451383549568 
1448	 0.208457768868344 
1449	 0.208423061967309 
1450	 0.208411980397471 
1451	 0.208414412305918 
1452	 0.208413463348359 
1453	 0.208439978748608 
1454	 0.208499451965252 
1455	 0.208542167313377 
1456	 0.208594180369447 
1457	 0.208646070861134 
1458	 0.208697458500911 
1459	 0.20874615647421 
1460	 0.208784577952857 
1461	 0.208851309884621 
1462	 0.20891800668341 
1463	 0.209010493411152 
1464	 0.209135701927367 
1465	 0.20925909040196 
1466	 0.209393725701748 
1467	 0.209535472648623 
1468	 0.209675026642415 
1469	 0.209840803763021 
1470	 0.210020570685419 
1471	 0.210217468566377 
1472	 0.210438291680269 
1473	 0.210673914967196 
1474	 0.210908510499585 
1475	 0.21115504451489 
1476	 0.211391187513382 
1477	 0.211628108930642 
1478	 0.211883805928529 
1479	 0.212128031034296 
1480	 0.212375353749916 
1481	 0.212628102315 
1482	 0.212872844651292 
1483	 0.213100482823365 
1484	 0.213350127297685 
1485	 0.213609512946766 
1486	 0.213872964779041 
1487	 0.214151256383984 
1488	 0.214414057596695 
1489	 0.214672018671654 
1490	 0.214931764261631 
1491	 0.215193094487281 
1492	 0.215443231006133 
1493	 0.215694678698555 
1494	 0.215933051944148 
1495	 0.216142973039095 
1496	 0.216375311293435 
1497	 0.216616330147964 
1498	 0.216857134407965 
1499	 0.21711508751817 
1500	 0.217355336688157 
1501	 0.2175852650869 
1502	 0.21780876569136 
1503	 0.218018299599912 
1504	 0.218233586952331 
1505	 0.218452264399393 
1506	 0.218679281848011 
1507	 0.218910155149067 
1508	 0.219137239285298 
1509	 0.219344481269895 
1510	 0.21955185491303 
1511	 0.21976226189825 
1512	 0.219957092485801 
1513	 0.220154539718513 
1514	 0.22036090450216 
1515	 0.220559995791743 
1516	 0.220770805024934 
1517	 0.220969480759344 
1518	 0.221167427038175 
1519	 0.221356129938603 
1520	 0.221536103843008 
1521	 0.221716950276641 
1522	 0.22189325374686 
1523	 0.222072259676796 
1524	 0.222253638631285 
1525	 0.222423736845642 
1526	 0.222591557739305 
1527	 0.2227558852884 
1528	 0.222903521679888 
1529	 0.22306424291271 
1530	 0.223238290659605 
1531	 0.223393793031438 
1532	 0.223540043116609 
1533	 0.223695266871698 
1534	 0.223848660383953 
1535	 0.223997222973341 
1536	 0.224154213056562 
1537	 0.224298593421329 
1538	 0.224422062065214 
1539	 0.22455620341139 
1540	 0.224696005163237 
1541	 0.224831368907716 
1542	 0.224969816748388 
1543	 0.225097009532346 
1544	 0.225219387841002 
1545	 0.225339292326336 
1546	 0.22545268479196 
1547	 0.225559539043426 
1548	 0.225670984740667 
1549	 0.225781622598995 
1550	 0.225888853872668 
1551	 0.226001189048465 
1552	 0.226125711610338 
1553	 0.226248467118756 
1554	 0.226376570715148 
1555	 0.226507607075875 
1556	 0.226603706955764 
1557	 0.226679558526099 
1558	 0.226776293115389 
1559	 0.226872736631891 
1560	 0.226974808368489 
1561	 0.227102645504488 
1562	 0.22720409845262 
1563	 0.227289788190818 
1564	 0.227374953265884 
1565	 0.227454046605867 
1566	 0.227539389510707 
1567	 0.227616673018818 
1568	 0.227708869570167 
1569	 0.227820748306808 
1570	 0.227902975667373 
1571	 0.22797818014148 
1572	 0.228054253271594 
1573	 0.228108503115205 
1574	 0.228180027689579 
1575	 0.228273867385848 
1576	 0.228338697913741 
1577	 0.228384013228075 
1578	 0.228446429050895 
1579	 0.228502255933822 
1580	 0.228563761513262 
1581	 0.228644916409502 
1582	 0.228710868538424 
1583	 0.228763671146524 
1584	 0.228821974195155 
1585	 0.228884942002603 
1586	 0.228937692280294 
1587	 0.228982177209311 
1588	 0.229033523372659 
1589	 0.229081169429857 
1590	 0.229130346373852 
1591	 0.229185788782308 
1592	 0.229235819824232 
1593	 0.229278812919738 
1594	 0.229330057867106 
1595	 0.229389868718813 
1596	 0.229440986597699 
1597	 0.229491043723362 
1598	 0.229538776778623 
1599	 0.229577089093687 
1600	 0.229621434032129 
1601	 0.229671738167657 
1602	 0.229716184805195 
1603	 0.229751360156832 
1604	 0.229798161642391 
1605	 0.22985954597754 
1606	 0.229906028864697 
1607	 0.229953467179506 
1608	 0.22999363163618 
1609	 0.230037062032464 
1610	 0.230059916399327 
1611	 0.230074774395617 
1612	 0.230113961757235 
1613	 0.230117437638827 
1614	 0.230119943040235 
1615	 0.230147431976815 
1616	 0.23015954505974 
1617	 0.230174981103073 
1618	 0.230198677885052 
1619	 0.230223323248745 
1620	 0.230259549065411 
1621	 0.230306055018923 
1622	 0.230382674764497 
1623	 0.230413668682147 
1624	 0.230437890957357 
1625	 0.23043923392467 
1626	 0.230401270942544 
1627	 0.230403177952931 
1628	 0.230406003631594 
1629	 0.230422448201162 
1630	 0.230457967774688 
1631	 0.230490253858162 
1632	 0.230527841194122 
1633	 0.230560339757086 
1634	 0.230604109968303 
1635	 0.230625777769854 
1636	 0.230637451208721 
1637	 0.230638828278748 
1638	 0.23061911380084 
1639	 0.230619236771411 
1640	 0.230609857750201 
1641	 0.230628416350194 
1642	 0.230672455655241 
1643	 0.230701413697864 
1644	 0.230743589100559 
1645	 0.230767071175376 
1646	 0.230779355890044 
1647	 0.230790049594397 
1648	 0.23079253095509 
1649	 0.230797024238973 
1650	 0.230800401421098 
1651	 0.230797151933337 
1652	 0.230790783948124 
1653	 0.230782261921928 
1654	 0.230764792746821 
1655	 0.230752769576316 
1656	 0.230740949911371 
1657	 0.230733010956968 
1658	 0.230735977676182 
1659	 0.230717352567421 
1660	 0.230687813500809 
1661	 0.230666038214922 
1662	 0.230629552735397 
1663	 0.230606767416622 
1664	 0.230603433689345 
1665	 0.230583534322029 
1666	 0.230547358707541 
1667	 0.230534163549278 
1668	 0.230532879559495 
1669	 0.230520584943914 
1670	 0.230523059740686 
1671	 0.230505935206344 
1672	 0.230462290714334 
1673	 0.230439721570552 
1674	 0.230423614791082 
1675	 0.230404090194996 
1676	 0.230381808547368 
1677	 0.230377421903505 
1678	 0.230389530853527 
1679	 0.230380442538867 
1680	 0.23037432154715 
1681	 0.230366081576507 
1682	 0.23034385910228 
1683	 0.230318249677393 
1684	 0.230296784234627 
1685	 0.230275101629991 
1686	 0.230241665464765 
1687	 0.230207201842836 
1688	 0.230180473302577 
1689	 0.230148905451753 
1690	 0.230096562733489 
1691	 0.230067976964982 
1692	 0.230074426735226 
1693	 0.230034216345574 
1694	 0.22996766785183 
1695	 0.22992487891143 
1696	 0.229853996577682 
1697	 0.229819712357344 
1698	 0.229835464753784 
1699	 0.229818315399045 
1700	 0.229795450662899 
1701	 0.229769410727942 
1702	 0.229734364805824 
1703	 0.229698208989059 
1704	 0.229668641844856 
1705	 0.229620603920176 
1706	 0.22955995929034 
1707	 0.2294932452649 
1708	 0.229398655252288 
1709	 0.229338002196534 
1710	 0.229295095728672 
1711	 0.229238287276765 
1712	 0.229195077981072 
1713	 0.22913811477665 
1714	 0.229057931321257 
1715	 0.228997288318267 
1716	 0.22894926284522 
1717	 0.228892106077029 
1718	 0.228839394020699 
1719	 0.228775442849936 
1720	 0.228695214345077 
1721	 0.228635567321113 
1722	 0.228583406117486 
1723	 0.228520949817844 
1724	 0.228471774979225 
1725	 0.228406735686714 
1726	 0.228324709965279 
1727	 0.22824139657425 
1728	 0.228148838716163 
1729	 0.22806968498903 
1730	 0.227993213768237 
1731	 0.227909131048207 
1732	 0.227832664946782 
1733	 0.227749588076265 
1734	 0.227653946909912 
1735	 0.227561224867218 
1736	 0.227475447523352 
1737	 0.227380220829921 
1738	 0.227271286896576 
1739	 0.227175173771308 
1740	 0.227078825783737 
1741	 0.226988784830995 
1742	 0.226916401716162 
1743	 0.226819083641196 
1744	 0.226722586662675 
1745	 0.226601045166952 
1746	 0.226442489804942 
1747	 0.226323187855893 
1748	 0.226205729914291 
1749	 0.226096440725701 
1750	 0.225994993968746 
1751	 0.225880844279684 
1752	 0.225764008713315 
1753	 0.225658168490362 
1754	 0.225532421018911 
1755	 0.225381686665657 
1756	 0.225240025715113 
1757	 0.225107956089056 
1758	 0.224979622756477 
1759	 0.224864511215623 
1760	 0.22476367439948 
1761	 0.224670043095324 
1762	 0.224569446501925 
1763	 0.224455151279215 
1764	 0.224347620218113 
1765	 0.224224567441196 
1766	 0.224086617882529 
1767	 0.223970475711623 
1768	 0.223853624433739 
1769	 0.223763133822573 
1770	 0.223713198633978 
1771	 0.223640504776391 
1772	 0.223553539719934 
1773	 0.223448941679875 
1774	 0.223334732653913 
1775	 0.223270459011811 
1776	 0.223199835918501 
1777	 0.223111337673762 
1778	 0.223042993519531 
1779	 0.222962733961645 
1780	 0.222887459426394 
1781	 0.22283754937478 
1782	 0.222800200451752 
1783	 0.222757053121053 
1784	 0.222710049059742 
1785	 0.222663464121164 
1786	 0.222615061552185 
1787	 0.222564016253944 
1788	 0.222523629594575 
1789	 0.222502591066757 
1790	 0.222450856866053 
1791	 0.222380520881473 
1792	 0.222316068745944 
1793	 0.222213856591047 
1794	 0.222178724907558 
1795	 0.222186147158569 
1796	 0.222171001904298 
1797	 0.222207353010772 
1798	 0.222180508660472 
1799	 0.222098765619684 
1800	 0.222059629005098 
1801	 0.21677536115775 
1802	 0.216922779152032 
1803	 0.217091898130357 
1804	 0.217303205498937 
1805	 0.217572818192599 
1806	 0.21783242488341 
1807	 0.218060808348083 
1808	 0.218247176178276 
1809	 0.218392545993316 
1810	 0.218521271344313 
1811	 0.218618670074109 
1812	 0.218707873369641 
1813	 0.21876436680896 
1814	 0.218795574228551 
1815	 0.218798357959227 
1816	 0.218827841730562 
1817	 0.218859201516225 
1818	 0.218901379974535 
1819	 0.218936112804034 
1820	 0.218980668543732 
1821	 0.21899687646572 
1822	 0.219023405039988 
1823	 0.219051742806131 
1824	 0.219051698807928 
1825	 0.219040042220303 
1826	 0.21907042499197 
1827	 0.219088182735123 
1828	 0.219088598899368 
1829	 0.219123618618464 
1830	 0.219111561556761 
1831	 0.219052419302277 
1832	 0.21899632498515 
1833	 0.218933042456209 
1834	 0.218835188998744 
1835	 0.218769091763705 
1836	 0.218697217603535 
1837	 0.218632836419618 
1838	 0.218604459018573 
1839	 0.218560326591522 
1840	 0.218518327232649 
1841	 0.218456794239628 
1842	 0.218410546952088 
1843	 0.218331111148679 
1844	 0.21822629223907 
1845	 0.218129737177074 
1846	 0.218027290071659 
1847	 0.217920757842984 
1848	 0.217816829728574 
1849	 0.217716533210271 
1850	 0.217580645649797 
1851	 0.217413567805598 
1852	 0.217235934365573 
1853	 0.217073366569218 
1854	 0.216869251781868 
1855	 0.216651146059002 
1856	 0.216418128924673 
1857	 0.216123718560847 
1858	 0.21581863794311 
1859	 0.215499078327722 
1860	 0.215142251083776 
1861	 0.214764576439922 
1862	 0.214357833598003 
1863	 0.213878103743657 
1864	 0.213368958190848 
1865	 0.212820521348166 
1866	 0.212201467975402 
1867	 0.211557524751087 
1868	 0.210875627662694 
1869	 0.210116824122786 
1870	 0.20930255950331 
1871	 0.208423045759663 
1872	 0.207491180015511 
1873	 0.206471615512227 
1874	 0.205404781542641 
1875	 0.204263369337335 
1876	 0.203074501408503 
1877	 0.201851452126499 
1878	 0.200503811741084 
1879	 0.199095980535381 
1880	 0.197589251310729 
1881	 0.195969601622822 
1882	 0.194274537667759 
1883	 0.192508348750691 
1884	 0.190619859266232 
1885	 0.188661419725164 
1886	 0.186579776640101 
1887	 0.184400443548579 
1888	 0.182186797409373 
1889	 0.179867575433442 
1890	 0.177527841785572 
1891	 0.175221301035546 
1892	 0.172859785432038 
1893	 0.170557716396274 
1894	 0.168294923859226 
1895	 0.166056486468224 
1896	 0.163786364854088 
1897	 0.161594813943399 
1898	 0.159417563687516 
1899	 0.157325282011715 
1900	 0.155365388957012 
1901	 0.15346604101492 
1902	 0.151662838920063 
1903	 0.149968663921289 
1904	 0.148349227469049 
1905	 0.146796430344034 
1906	 0.145361908284954 
1907	 0.14402800056065 
1908	 0.142802473372814 
1909	 0.141677403629125 
1910	 0.140625940858708 
1911	 0.139640362689388 
1912	 0.138730136513351 
1913	 0.137884621003397 
1914	 0.137107996506194 
1915	 0.136386019015711 
1916	 0.135738034049732 
1917	 0.135135116215595 
1918	 0.13457989022452 
1919	 0.134076622972289 
1920	 0.133645364793369 
1921	 0.133248996013055 
1922	 0.132867576161307 
1923	 0.132534812168369 
1924	 0.132265151362791 
1925	 0.132047925756098 
1926	 0.131863417714124 
1927	 0.131734426839125 
1928	 0.131655976598442 
1929	 0.131588494689373 
1930	 0.131549686215667 
1931	 0.131567195424738 
1932	 0.131606115599958 
1933	 0.131665259453613 
1934	 0.131741223061757 
1935	 0.131845747048659 
1936	 0.131967502896037 
1937	 0.132129394552324 
1938	 0.132333780989459 
1939	 0.132546991255339 
1940	 0.132787132989415 
1941	 0.133043382985667 
1942	 0.133322062821502 
1943	 0.133611998341717 
1944	 0.133930177142698 
1945	 0.134269150026312 
1946	 0.134597858148281 
1947	 0.134910237529673 
1948	 0.135269564429077 
1949	 0.135646969131754 
1950	 0.136035680750059 
1951	 0.136457403317692 
1952	 0.136887897849917 
1953	 0.137306510310421 
1954	 0.137735172856173 
1955	 0.138181375355764 
1956	 0.138646490086322 
1957	 0.139122678497247 
1958	 0.13962082058031 
1959	 0.140114549753062 
1960	 0.140628518837518 
1961	 0.141123731792202 
1962	 0.141597521780592 
1963	 0.142105240459162 
1964	 0.142624605664547 
1965	 0.143135725178895 
1966	 0.14369157595694 
1967	 0.144251302639748 
1968	 0.144796449988638 
1969	 0.14534280533017 
1970	 0.14588015434802 
1971	 0.146399764184211 
1972	 0.146934235036537 
1973	 0.147468801108639 
1974	 0.148008335695008 
1975	 0.148551219510158 
1976	 0.149106867811129 
1977	 0.149667165042211 
1978	 0.150224914393589 
1979	 0.150785822534062 
1980	 0.151346455627661 
1981	 0.151894569784147 
1982	 0.15241914586632 
1983	 0.15296454825936 
1984	 0.153517343518524 
1985	 0.154064993244357 
1986	 0.154618529856505 
1987	 0.155173606992217 
1988	 0.155724623703182 
1989	 0.156277834046006 
1990	 0.156832552285728 
1991	 0.157388848610051 
1992	 0.157937900302365 
1993	 0.158475037317291 
1994	 0.159018943561992 
1995	 0.159575588549325 
1996	 0.160108450263259 
1997	 0.160628538053107 
1998	 0.161156995693007 
1999	 0.161655670014983 
2000	 0.162184276987628 
2001	 0.16274332753509 
2002	 0.163292798367572 
2003	 0.163839692958986 
2004	 0.164392351815566 
2005	 0.164908412009472 
2006	 0.165390780149202 
2007	 0.165890721811206 
2008	 0.166371014684624 
2009	 0.166862834382448 
2010	 0.167364664275288 
2011	 0.167863181775721 
2012	 0.168367181970877 
2013	 0.168861339802537 
2014	 0.169361965252272 
2015	 0.16984175011353 
2016	 0.170304641088393 
2017	 0.170788442819533 
2018	 0.171257656913801 
2019	 0.171715103678682 
2020	 0.172187945863239 
2021	 0.172671226425319 
2022	 0.173136960410879 
2023	 0.173609085053918 
2024	 0.174070571437528 
2025	 0.17451764777577 
2026	 0.174956491730163 
2027	 0.175388434705837 
2028	 0.175820236569101 
2029	 0.176240791079994 
2030	 0.176646511990797 
2031	 0.177054871944661 
2032	 0.177461247603018 
2033	 0.177862354844508 
2034	 0.178253493169541 
2035	 0.178648283324233 
2036	 0.179047013285052 
2037	 0.179435474203151 
2038	 0.179817810701946 
2039	 0.180200108553038 
2040	 0.180577071962895 
2041	 0.180950434696577 
2042	 0.181318777224052 
2043	 0.181695417623828 
2044	 0.182066434381104 
2045	 0.182429993102524 
2046	 0.182799200137381 
2047	 0.183180280810497 
2048	 0.18354302265338 
2049	 0.183915458462488 
2050	 0.184254666452901 
2051	 0.184561531443732 
2052	 0.184872422665933 
2053	 0.185154591480363 
2054	 0.185452329857787 
2055	 0.185752750476505 
2056	 0.186062583262078 
2057	 0.186372285076219 
2058	 0.186686396411122 
2059	 0.186999808420321 
2060	 0.187313023727941 
2061	 0.187633230373234 
2062	 0.187966930714956 
2063	 0.188282541759604 
2064	 0.188601574863068 
2065	 0.188907495792719 
2066	 0.189195697374693 
2067	 0.189481540921892 
2068	 0.189762625539669 
2069	 0.190034809598542 
2070	 0.190311777948333 
2071	 0.19058408980682 
2072	 0.190860013265684 
2073	 0.191138744916081 
2074	 0.19141479383671 
2075	 0.191695477509163 
2076	 0.191962198821373 
2077	 0.192214125844554 
2078	 0.192482471930122 
2079	 0.192755027390835 
2080	 0.19301719918031 
2081	 0.193286364031343 
2082	 0.193551655731728 
2083	 0.193796724854891 
2084	 0.194054714275406 
2085	 0.194313336299903 
2086	 0.19458253411155 
2087	 0.194838426345961 
2088	 0.195087828561624 
2089	 0.195341757185138 
2090	 0.195593471750752 
2091	 0.195845623940042 
2092	 0.196108859537828 
2093	 0.196353730216388 
2094	 0.196591941092353 
2095	 0.196821219114837 
2096	 0.197021810114049 
2097	 0.197244369460676 
2098	 0.197470308172317 
2099	 0.197702860354706 
2100	 0.197933545355907 
2101	 0.19817000296637 
2102	 0.198419190767244 
2103	 0.198677485927012 
2104	 0.198922656159519 
2105	 0.19918316468318 
2106	 0.199425653246906 
2107	 0.199647386294094 
2108	 0.199870914125038 
2109	 0.20008627096908 
2110	 0.200314258093386 
2111	 0.200530074403016 
2112	 0.200764144498711 
2113	 0.201020456272954 
2114	 0.201282438426053 
2115	 0.201525631941408 
2116	 0.201764992118684 
2117	 0.202011184837407 
2118	 0.202257396235214 
2119	 0.202485233457307 
2120	 0.202717182956038 
2121	 0.202934734016051 
2122	 0.203122134384838 
2123	 0.203322818192232 
2124	 0.20354912013296 
2125	 0.203732348225679 
2126	 0.20388726611293 
2127	 0.204045112768656 
2128	 0.204174565359863 
2129	 0.204309320425542 
2130	 0.204452838633987 
2131	 0.204585294108405 
2132	 0.204717533363113 
2133	 0.204847237377567 
2134	 0.20496402859711 
2135	 0.205065507076736 
2136	 0.205188091586176 
2137	 0.205332948932637 
2138	 0.205424189616557 
2139	 0.205512259411744 
2140	 0.205576934265527 
2141	 0.20558229432161 
2142	 0.205604374424571 
2143	 0.205632558458949 
2144	 0.20565145460306 
2145	 0.205660019127762 
2146	 0.205661772723099 
2147	 0.205670281050693 
2148	 0.205651233775096 
2149	 0.205632987462361 
2150	 0.205602363427949 
2151	 0.205566476483985 
2152	 0.205529916675843 
2153	 0.205476415057131 
2154	 0.205412261604898 
2155	 0.205333586710095 
2156	 0.205241904316977 
2157	 0.2051366946487 
2158	 0.205001794017979 
2159	 0.20488389161596 
2160	 0.204756578759037 
2161	 0.204639410477376 
2162	 0.204550522488217 
2163	 0.204437926491874 
2164	 0.204323121236307 
2165	 0.204197630929093 
2166	 0.204039783476683 
2167	 0.203844701665392 
2168	 0.203674824762001 
2169	 0.203474616896861 
2170	 0.203321631943356 
2171	 0.203208254124651 
2172	 0.203070705661088 
2173	 0.202960467167948 
2174	 0.202808722731505 
2175	 0.202616802149389 
2176	 0.202447937546326 
2177	 0.20227449198677 
2178	 0.202094644268834 
2179	 0.201927448250709 
2180	 0.201746498955819 
2181	 0.201542338412672 
2182	 0.201345305033488 
2183	 0.201142883229911 
2184	 0.200952404126839 
2185	 0.200757230113247 
2186	 0.200571806278142 
2187	 0.200354902206675 
2188	 0.200109503267574 
2189	 0.199902360136897 
2190	 0.199687427251127 
2191	 0.199490844246525 
2192	 0.199319151276276 
2193	 0.199161822737716 
2194	 0.199010067937551 
2195	 0.198865034394033 
2196	 0.19873792311633 
2197	 0.19863079657162 
2198	 0.198528304609348 
2199	 0.19844160343477 
2200	 0.198390256596299 
2201	 0.198337598497153 
2202	 0.198279183116451 
2203	 0.198232094141961 
2204	 0.198227457361804 
2205	 0.198259454336254 
2206	 0.198275258271699 
2207	 0.198321394641815 
2208	 0.198344592616379 
2209	 0.198343996246474 
2210	 0.198370911841499 
2211	 0.198411346991962 
2212	 0.198450115796688 
2213	 0.198485522277729 
2214	 0.198547880453079 
2215	 0.198642436680173 
2216	 0.198706304247515 
2217	 0.198769757528746 
2218	 0.198836374553081 
2219	 0.198883642254175 
2220	 0.198938860531644 
2221	 0.199024537212335 
2222	 0.199088287198684 
2223	 0.199123147774452 
2224	 0.199124869857812 
2225	 0.199154719298018 
2226	 0.199176704357771 
2227	 0.199203825595148 
2228	 0.199252659439777 
2229	 0.199273325202707 
2230	 0.199270669245083 
2231	 0.199284123569563 
2232	 0.19929572551131 
2233	 0.199310246937325 
2234	 0.199349470376941 
2235	 0.199342275935423 
2236	 0.199297608888504 
2237	 0.199280252479344 
2238	 0.199270656678396 
2239	 0.199227175722303 
2240	 0.199171498842918 
2241	 0.199129182769888 
2242	 0.199055473128195 
2243	 0.198991029773315 
2244	 0.198963428194583 
2245	 0.19891564126486 
2246	 0.1988337453275 
2247	 0.198758719815047 
2248	 0.198684268619981 
2249	 0.19860482102326 
2250	 0.198536581942346 
2251	 0.198475447617738 
2252	 0.19840328653706 
2253	 0.198334855661052 
2254	 0.198262467418804 
2255	 0.19817883344836 
2256	 0.198101250397142 
2257	 0.198021797653328 
2258	 0.197952246031236 
2259	 0.197877674869686 
2260	 0.197830717792804 
2261	 0.197823144600345 
2262	 0.197778151199139 
2263	 0.197742416123567 
2264	 0.19767689464851 
2265	 0.19754510903161 
2266	 0.197470123038066 
2267	 0.197402346605557 
2268	 0.197357009318841 
2269	 0.19735662694708 
2270	 0.197363658646191 
2271	 0.197321764189274 
2272	 0.19729368699418 
2273	 0.197286204232628 
2274	 0.197231850573839 
2275	 0.19719324652146 
2276	 0.197171277890917 
2277	 0.197137492515002 
2278	 0.197074775528927 
2279	 0.197050868975897 
2280	 0.197062312547465 
2281	 0.197042375115793 
2282	 0.197024579059989 
2283	 0.196992641304237 
2284	 0.196926676132787 
2285	 0.196891120931008 
2286	 0.19687721149255 
2287	 0.196841635260787 
2288	 0.196820438508793 
2289	 0.196772539484792 
2290	 0.196691489901041 
2291	 0.196616359005451 
2292	 0.196527646443498 
2293	 0.196447371378196 
2294	 0.196360049547099 
2295	 0.196283473828133 
2296	 0.196212160498875 
2297	 0.19615114094382 
2298	 0.1961105834423 
2299	 0.196066408237321 
2300	 0.196006727422143 
2301	 0.195930620327349 
2302	 0.195771708705887 
2303	 0.195641504340839 
2304	 0.1955503260327 
2305	 0.195431167202782 
2306	 0.195326091172939 
2307	 0.195256847318076 
2308	 0.195156435636235 
2309	 0.195039243521548 
2310	 0.194909390783364 
2311	 0.194775456852101 
2312	 0.194627790234493 
2313	 0.194439610102957 
2314	 0.194288035450202 
2315	 0.194150465452159 
2316	 0.19402281110497 
2317	 0.193916764738828 
2318	 0.193791377452918 
2319	 0.19369518157729 
2320	 0.193522816879763 
2321	 0.193274238590653 
2322	 0.193095953428661 
2323	 0.192905621537417 
2324	 0.192732223692875 
2325	 0.192596614635085 
2326	 0.192457851343777 
2327	 0.192320284614808 
2328	 0.192175915362553 
2329	 0.192017214793903 
2330	 0.191890591371605 
2331	 0.191751079944879 
2332	 0.191585146176632 
2333	 0.191452922140896 
2334	 0.191355091386653 
2335	 0.191219854064869 
2336	 0.191066969221815 
2337	 0.190934913242455 
2338	 0.190803752515594 
2339	 0.190637663957484 
2340	 0.190465059547113 
2341	 0.19025775591121 
2342	 0.190020965352547 
2343	 0.189863212738344 
2344	 0.189668005383996 
2345	 0.189457232700535 
2346	 0.189255717352735 
2347	 0.189062731622653 
2348	 0.188818556861658 
2349	 0.188652897509729 
2350	 0.188574871515203 
2351	 0.188395914913697 
2352	 0.188196142068697 
2353	 0.18797823326347 
2354	 0.187722684162637 
2355	 0.187445418117838 
2356	 0.187143911044755 
2357	 0.186852953721477 
2358	 0.186497604570056 
2359	 0.186219365229913 
2360	 0.186004647776427 
2361	 0.185773408500518 
2362	 0.185561367860075 
2363	 0.185345982769415 
2364	 0.185120878031801 
2365	 0.184915047656746 
2366	 0.184747377617552 
2367	 0.184543901831831 
2368	 0.184363901344359 
2369	 0.184119929013773 
2370	 0.183805369699223 
2371	 0.183522330192834 
2372	 0.18321100046414 
2373	 0.182879000386595 
2374	 0.18260550857652 
2375	 0.182317425483855 
2376	 0.182055211990976 
2377	 0.181754800478801 
2378	 0.181490980673224 
2379	 0.181269536528146 
2380	 0.180968180703195 
2381	 0.180684144458352 
2382	 0.180337994512998 
2383	 0.179949136601852 
2384	 0.179623617928823 
2385	 0.179313630879727 
2386	 0.179015652808254 
2387	 0.17866076652519 
2388	 0.178325163473121 
2389	 0.178055720660074 
2390	 0.177757996794566 
2391	 0.177505864008831 
2392	 0.177193546265929 
2393	 0.176773878467906 
2394	 0.176392005788067 
2395	 0.17596918314536 
2396	 0.175588813492905 
2397	 0.175318590830357 
2398	 0.174981849878393 
2399	 0.174664954316351 
2400	 0.174404361850354 
2401	 0.174053009290107 
2402	 0.173693347922595 
2403	 0.173432458246146 
2404	 0.173164108611811 
2405	 0.172821894495404 
2406	 0.172418233465354 
2407	 0.171891175756124 
2408	 0.171375772349278 
2409	 0.170930269830675 
2410	 0.170517941829753 
2411	 0.170269063340552 
2412	 0.169943386711058 
2413	 0.169477508976308 
2414	 0.169148539520822 
2415	 0.168776485341845 
2416	 0.168391963347258 
2417	 0.168053007515268 
2418	 0.167687601172747 
2419	 0.167248303626518 
2420	 0.166883129787198 
2421	 0.166538619531495 
2422	 0.166158751957033 
2423	 0.165831012326287 
2424	 0.16543144987913 
2425	 0.164982375024479 
2426	 0.164549029192396 
2427	 0.164060936878216 
2428	 0.16362787616485 
2429	 0.163236569961433 
2430	 0.162828987974342 
2431	 0.162398252042176 
2432	 0.162052551788111 
2433	 0.161719608741645 
2434	 0.161397555102869 
2435	 0.161203423941669 
2436	 0.160904794726894 
2437	 0.160582738053161 
2438	 0.160243589499367 
2439	 0.159852157413593 
2440	 0.159406144299607 
2441	 0.158867923952747 
2442	 0.158383760113014 
2443	 0.157901731725861 
2444	 0.157511153783431 
2445	 0.157203699784363 
2446	 0.156844226905322 
2447	 0.156496101959841 
2448	 0.15607638184668 
2449	 0.155616251650472 
2450	 0.155199393140348 
2451	 0.154733516529184 
2452	 0.154314693676381 
2453	 0.153928306850295 
2454	 0.153556964451998 
2455	 0.153224798214046 
2456	 0.152886889058943 
2457	 0.152607551725097 
2458	 0.152260744463017 
2459	 0.151883923218511 
2460	 0.151523594752682 
2461	 0.151068212269301 
2462	 0.150686340445287 
2463	 0.150370027879498 
2464	 0.150036887013523 
2465	 0.149798134615503 
2466	 0.149480391608632 
2467	 0.149058135467746 
2468	 0.148620784849315 
2469	 0.148138230579823 
2470	 0.147603434094882 
2471	 0.147281192341391 
2472	 0.146965276929016 
2473	 0.146605754621172 
2474	 0.146331351951767 
2475	 0.145951733553652 
2476	 0.145615114976868 
2477	 0.145326031723526 
2478	 0.14495743905567 
2479	 0.144641323805625 
2480	 0.144289367624197 
2481	 0.14377366846699 
2482	 0.143220525640058 
2483	 0.142831533831727 
2484	 0.142533495154605 
2485	 0.142309716448356 
2486	 0.142395455833609 
2487	 0.142342818891025 
2488	 0.141905582305247 
2489	 0.141511163035197 
2490	 0.140974689364546 
2491	 0.14050062616334 
2492	 0.14043768726691 
2493	 0.140309444203578 
2494	 0.13997555958328 
2495	 0.139624780703969 
2496	 0.139305354710444 
2497	 0.139109232071898 
2498	 0.139092938621433 
2499	 0.139126661520101 
2500	 0.139023133707181 
