Wavelength	mm2500001.asd
350	 3.90273986076677E-02 
351	 4.00928323080324E-02 
352	 3.87572666511885E-02 
353	 3.45056506054557E-02 
354	 3.53949238276985E-02 
355	 4.30426011686697E-02 
356	 4.71347425661008E-02 
357	 4.15346775132318E-02 
358	 4.57979622380031E-02 
359	 4.88512550604741E-02 
360	 4.57377029225061E-02 
361	 3.74875397386534E-02 
362	 3.65222343699468E-02 
363	 3.97265884553011E-02 
364	 4.20765008486809E-02 
365	 3.87664522591617E-02 
366	 3.69844089045222E-02 
367	 3.77964294636157E-02 
368	 4.01942592186891E-02 
369	 4.35005742786055E-02 
370	 4.36721138381917E-02 
371	 4.18003548059723E-02 
372	 4.22477423455628E-02 
373	 4.35959320125705E-02 
374	 4.35357163175094E-02 
375	 4.20657975945227E-02 
376	 4.33031290681285E-02 
377	 4.44045620468552E-02 
378	 0.045614787546722 
379	 4.73621711271304E-02 
380	 4.73553355886766E-02 
381	 4.52389969605815E-02 
382	 4.40572749404328E-02 
383	 4.82266901996467E-02 
384	 4.76437116172556E-02 
385	 4.52183543525804E-02 
386	 4.46597495703627E-02 
387	 4.75247735940183E-02 
388	 5.06499537395568E-02 
389	 5.08113142028203E-02 
390	 4.68209408613859E-02 
391	 4.60609528566481E-02 
392	 4.63638527411753E-02 
393	 4.75010741900808E-02 
394	 5.09358410166241E-02 
395	 5.22170348874795E-02 
396	 5.19429073877034E-02 
397	 5.15883004493166E-02 
398	 5.28306956446383E-02 
399	 5.13995699175006E-02 
400	 0.050394738030392 
401	 0.053723814039442 
402	 5.38788832636296E-02 
403	 5.32961485439055E-02 
404	 5.29354449333725E-02 
405	 5.17080619913739E-02 
406	 5.32343120326999E-02 
407	 5.50849797455016E-02 
408	 5.50003789671235E-02 
409	 5.40142489145118E-02 
410	 5.39665578015209E-02 
411	 5.48275049795615E-02 
412	 0.055536164839424 
413	 5.49702663357591E-02 
414	 5.48000331226066E-02 
415	 5.53517812419624E-02 
416	 5.49526824631293E-02 
417	 5.46791785140109E-02 
418	 5.47766969173269E-02 
419	 5.51632753697634E-02 
420	 5.55566967525187E-02 
421	 5.46740829871869E-02 
422	 5.37830938367088E-02 
423	 5.53170998913099E-02 
424	 5.54526968161509E-02 
425	 5.51239517160987E-02 
426	 5.50687968801698E-02 
427	 5.44639600672099E-02 
428	 5.40607246008844E-02 
429	 5.41319688260062E-02 
430	 5.46054599592037E-02 
431	 5.46724693109808E-02 
432	 5.43774625287528E-02 
433	 5.40844323627703E-02 
434	 5.43613816388659E-02 
435	 5.43929208254697E-02 
436	 5.45198828835778E-02 
437	 5.48421281332826E-02 
438	 5.41060025711984E-02 
439	 5.40282273046034E-02 
440	 5.44922634009812E-02 
441	 5.45338387644854E-02 
442	 5.44696026415891E-02 
443	 5.47015879982174E-02 
444	 0.055103218474921 
445	 5.47292125140953E-02 
446	 0.054751180941734 
447	 5.50475084554751E-02 
448	 5.52413928404704E-02 
449	 5.56233262676283E-02 
450	 5.58066421102156E-02 
451	 5.57647363939701E-02 
452	 5.57874365947746E-02 
453	 5.58999689011174E-02 
454	 5.58309417804851E-02 
455	 5.55597945368723E-02 
456	 5.58320981934225E-02 
457	 5.60153279676951E-02 
458	 0.05594580936895 
459	 5.57405009416131E-02 
460	 5.59036858249683E-02 
461	 5.58855517816524E-02 
462	 5.56193804868721E-02 
463	 5.58420857716879E-02 
464	 5.60076902258388E-02 
465	 5.60817245177931E-02 
466	 5.61394703953024E-02 
467	 5.61075336788199E-02 
468	 5.60838187591409E-02 
469	 5.61160337353984E-02 
470	 5.61944845720208E-02 
471	 5.61220034703702E-02 
472	 5.60932752117294E-02 
473	 5.61865068962017E-02 
474	 5.60318643105472E-02 
475	 5.59556259543465E-02 
476	 5.59815402875389E-02 
477	 5.59943158706854E-02 
478	 5.58840871473643E-02 
479	 5.59652740186205E-02 
480	 5.62204629224069E-02 
481	 5.61266975371047E-02 
482	 5.62600622873185E-02 
483	 0.056477154100736 
484	 5.65013232597172E-02 
485	 5.63487998167019E-02 
486	 5.63028923357875E-02 
487	 5.63519133804731E-02 
488	 5.62484121592648E-02 
489	 0.056188013026261 
490	 5.61323071808737E-02 
491	 5.60875534833939E-02 
492	 5.63063071047806E-02 
493	 5.63075842609489E-02 
494	 5.62214133843754E-02 
495	 5.64085962288771E-02 
496	 5.65991259742196E-02 
497	 5.65292349570774E-02 
498	 5.62833008155877E-02 
499	 5.64539183156755E-02 
500	 5.65028209607174E-02 
501	 5.64336796564044E-02 
502	 5.63933370585279E-02 
503	 5.64132495796464E-02 
504	 5.64567997881574E-02 
505	 0.056528401905267 
506	 5.66620900415513E-02 
507	 5.65995976041571E-02 
508	 5.65131061303643E-02 
509	 5.65526879869194E-02 
510	 5.65821173237306E-02 
511	 5.65932650941511E-02 
512	 5.65857075328296E-02 
513	 5.65701616243022E-02 
514	 5.65778467535862E-02 
515	 5.66208381660684E-02 
516	 5.66922549813656E-02 
517	 5.67635742717002E-02 
518	 5.67949962318643E-02 
519	 5.68076418226407E-02 
520	 0.056842039809754 
521	 5.69372605978048E-02 
522	 5.68537978266923E-02 
523	 5.66664055157168E-02 
524	 0.05677881691391 
525	 5.68395810513382E-02 
526	 0.056808232173357 
527	 5.67443779480085E-02 
528	 5.67900281171459E-02 
529	 5.68427011475696E-02 
530	 5.68679674913872E-02 
531	 5.68864935207568E-02 
532	 5.70052268082085E-02 
533	 5.71171234897485E-02 
534	 5.71409843428986E-02 
535	 5.70885980779463E-02 
536	 5.71694298631108E-02 
537	 5.73077467701719E-02 
538	 5.73408626522513E-02 
539	 5.73953135408097E-02 
540	 5.74614218986821E-02 
541	 5.75231482685126E-02 
542	 5.75698960209587E-02 
543	 5.76156647134959E-02 
544	 5.76709717799946E-02 
545	 5.77321028249824E-02 
546	 5.77417699944921E-02 
547	 5.77543350299358E-02 
548	 5.78375234285534E-02 
549	 5.80507362428985E-02 
550	 5.81112897447919E-02 
551	 5.81600608451705E-02 
552	 5.83248519585503E-02 
553	 5.85046628837643E-02 
554	 5.85548027814226E-02 
555	 5.85863291473698E-02 
556	 5.88085476722149E-02 
557	 5.89500383276687E-02 
558	 5.90414646187001E-02 
559	 5.91699606758613E-02 
560	 5.94720868586469E-02 
561	 5.96861559305564E-02 
562	 0.059862380159479 
563	 6.01213404393177E-02 
564	 6.03180775351485E-02 
565	 6.05062734080154E-02 
566	 6.07405235183183E-02 
567	 6.10615982931109E-02 
568	 6.14492915600157E-02 
569	 6.17906791181647E-02 
570	 6.20389940184941E-02 
571	 6.24368324276007E-02 
572	 6.28570670828298E-02 
573	 6.32487139733172E-02 
574	 6.36250949458702E-02 
575	 6.40849186608187E-02 
576	 6.45158022978679E-02 
577	 6.48769185678894E-02 
578	 6.53606704568987E-02 
579	 6.58540357937262E-02 
580	 6.63444828319462E-02 
581	 6.68568369541344E-02 
582	 6.73715961356852E-02 
583	 6.79250343140579E-02 
584	 6.85218068877555E-02 
585	 0.069119977736775 
586	 6.97223440870543E-02 
587	 7.03370336077676E-02 
588	 7.09685267002647E-02 
589	 7.15941258812433E-02 
590	 7.22376405366154E-02 
591	 7.28921098747161E-02 
592	 7.35252426520532E-02 
593	 7.41626493763802E-02 
594	 7.47812373868727E-02 
595	 7.53750837392198E-02 
596	 0.076010643890125 
597	 7.66442110308809E-02 
598	 7.72790469142978E-02 
599	 7.79401264219804E-02 
600	 7.85910361104641E-02 
601	 7.92100710328734E-02 
602	 7.97921471543933E-02 
603	 8.03606059887522E-02 
604	 8.08991282696289E-02 
605	 8.14358231543912E-02 
606	 8.19920562471225E-02 
607	 8.24605509406667E-02 
608	 8.29438924907836E-02 
609	 8.34542193616274E-02 
610	 8.38902642846375E-02 
611	 8.43766392827965E-02 
612	 8.48398226474068E-02 
613	 8.52044734764505E-02 
614	 8.55576291815821E-02 
615	 8.58939145379761E-02 
616	 8.62141060948382E-02 
617	 8.65239918526363E-02 
618	 8.68752608522071E-02 
619	 8.71723257026222E-02 
620	 8.73877719043218E-02 
621	 8.76926211293916E-02 
622	 8.79387011049062E-02 
623	 0.088135997226078 
624	 8.83515187567173E-02 
625	 8.85766555597306E-02 
626	 0.088799400165458 
627	 8.90155795010699E-02 
628	 8.92324911894545E-02 
629	 8.94096911106073E-02 
630	 8.95989483733322E-02 
631	 8.98359041447535E-02 
632	 8.99886361031137E-02 
633	 9.01360594459437E-02 
634	 9.03110331837486E-02 
635	 9.05035960738833E-02 
636	 9.07054410879207E-02 
637	 9.08984540332124E-02 
638	 9.10618214576656E-02 
639	 9.11560381771106E-02 
640	 9.13374041352743E-02 
641	 9.15729668699572E-02 
642	 9.17514968053619E-02 
643	 9.19325436185182E-02 
644	 9.21171510488386E-02 
645	 9.23050944062957E-02 
646	 9.25021046058014E-02 
647	 9.26642983802894E-02 
648	 9.28107342595451E-02 
649	 9.29842432724188E-02 
650	 9.32423140146492E-02 
651	 9.34848935011094E-02 
652	 9.36812477211182E-02 
653	 9.38689735977063E-02 
654	 9.41016554750661E-02 
655	 9.43292754731212E-02 
656	 0.094533902460715 
657	 9.48368710160139E-02 
658	 9.50942959563291E-02 
659	 9.53167350203524E-02 
660	 9.55775773153974E-02 
661	 9.58122366543652E-02 
662	 9.60727736687702E-02 
663	 9.63716687727588E-02 
664	 9.66493297378543E-02 
665	 9.69384647467574E-02 
666	 9.72100760715775E-02 
667	 9.74473678901939E-02 
668	 9.77453707581814E-02 
669	 9.80961640694946E-02 
670	 9.84508026966048E-02 
671	 9.87367922998612E-02 
672	 9.90382623337159E-02 
673	 9.93936165109533E-02 
674	 9.97870175090243E-02 
675	 0.100088019426381 
676	 0.100451731523695 
677	 0.100845559729837 
678	 0.101176468582227 
679	 0.10154689010965 
680	 0.101927805055517 
681	 0.102313099833645 
682	 0.102741082749114 
683	 0.103121741358213 
684	 0.103501401513542 
685	 0.103933209224715 
686	 0.10435813786017 
687	 0.104797991759436 
688	 0.105245290746799 
689	 0.105674761340845 
690	 0.106120132468023 
691	 0.106582993862075 
692	 0.107062745495823 
693	 0.107573108418383 
694	 0.108019403294223 
695	 0.108458454606108 
696	 0.108972588780496 
697	 0.109441386020251 
698	 0.109912117383013 
699	 0.110409011416197 
700	 0.110920641553949 
701	 0.111437476503324 
702	 0.111960642756704 
703	 0.112475362482355 
704	 0.112903680858549 
705	 0.113393152487881 
706	 0.113931944503148 
707	 0.114432034194047 
708	 0.114952133132463 
709	 0.115474703808338 
710	 0.11599150701475 
711	 0.116520724146139 
712	 0.117012627555559 
713	 0.117487729538518 
714	 0.117977196230122 
715	 0.11846588243375 
716	 0.118969369126941 
717	 0.119457603837933 
718	 0.119880930415683 
719	 0.120375110602361 
720	 0.120842687266453 
721	 0.121236754437774 
722	 0.121674391253391 
723	 0.122125110360224 
724	 0.122542132102328 
725	 0.122897801125494 
726	 0.123298921271634 
727	 0.123685157364356 
728	 0.124031681642235 
729	 0.124356059874631 
730	 0.124693495861766 
731	 0.124998078434897 
732	 0.125252577147144 
733	 0.125544920249783 
734	 0.125832430422634 
735	 0.126075832152184 
736	 0.126250973543517 
737	 0.126419384131493 
738	 0.126598397223614 
739	 0.126787052348147 
740	 0.126967055367422 
741	 0.127075676115458 
742	 0.127155645406605 
743	 0.127244759291242 
744	 0.127300948405841 
745	 0.127329921159097 
746	 0.127345198321188 
747	 0.127359367232142 
748	 0.127348932105368 
749	 0.127289122595762 
750	 0.127205225443813 
751	 0.127178995147734 
752	 0.127102838813107 
753	 0.126983667650035 
754	 0.12685072993162 
755	 0.126710660482492 
756	 0.126595273093092 
757	 0.126452677917216 
758	 0.126216277672631 
759	 0.126053704315554 
760	 0.125866906103255 
761	 0.125621798046866 
762	 0.125394847910671 
763	 0.125179923194497 
764	 0.124948830130733 
765	 0.124682621535153 
766	 0.124400024334589 
767	 0.124173920643631 
768	 0.123936486388128 
769	 0.123583712271928 
770	 0.123313788021522 
771	 0.123040171949862 
772	 0.122727491799201 
773	 0.122431546467132 
774	 0.122119378666157 
775	 0.121795128972483 
776	 0.121470816009192 
777	 0.121160209425327 
778	 0.120825025126853 
779	 0.120494772749683 
780	 0.120215263989142 
781	 0.119925709122492 
782	 0.119610051057093 
783	 0.11926947275485 
784	 0.118922146977971 
785	 0.11860555771093 
786	 0.118311281151106 
787	 0.118019813724731 
788	 0.117709450849075 
789	 0.117418124173323 
790	 0.117100094633447 
791	 0.116716531392673 
792	 0.116429621960697 
793	 0.116147402026477 
794	 0.115834132873888 
795	 0.115517136372502 
796	 0.115221474440786 
797	 0.114948689414622 
798	 0.11468479367391 
799	 0.11439770648707 
800	 0.114110012167122 
801	 0.113824715737493 
802	 0.113547605960224 
803	 0.113322549621715 
804	 0.113069721685373 
805	 0.11278537575491 
806	 0.112515834225139 
807	 0.112258908311937 
808	 0.112022857079193 
809	 0.111785910441424 
810	 0.111490454838478 
811	 0.11125380145511 
812	 0.111042430900424 
813	 0.110816596910277 
814	 0.110622588120648 
815	 0.110409371911257 
816	 0.110196184591597 
817	 0.110016148083637 
818	 0.109802674125821 
819	 0.109625367368472 
820	 0.109467911692082 
821	 0.109246315123707 
822	 0.109056798075618 
823	 0.108862457058355 
824	 0.108658657504381 
825	 0.10852454684347 
826	 0.108379837327331 
827	 0.10823257514591 
828	 0.108105958496852 
829	 0.108000548463262 
830	 0.10779936099613 
831	 0.107585130626725 
832	 0.107503070600718 
833	 0.107421831108 
834	 0.107321972252915 
835	 0.107198772864436 
836	 0.107059474241911 
837	 0.106948154897466 
838	 0.10689310356192 
839	 0.106858731710814 
840	 0.106711216494252 
841	 0.106578031209101 
842	 0.106502252048856 
843	 0.106471470565252 
844	 0.106380898641487 
845	 0.106322951335487 
846	 0.10628342544497 
847	 0.106216877580419 
848	 0.106209817757533 
849	 0.106186873235269 
850	 0.106121288188106 
851	 0.106042864823719 
852	 0.106012799822677 
853	 0.106015097550495 
854	 0.106031547787457 
855	 0.106059626692324 
856	 0.106044249550836 
857	 0.106019365296651 
858	 0.106019272924877 
859	 0.106018203329417 
860	 0.106046610864019 
861	 0.106072200008719 
862	 0.106058126280947 
863	 0.106042511390843 
864	 0.106089361423139 
865	 0.106173325927753 
866	 0.106219894724538 
867	 0.106242834593038 
868	 0.106298412896987 
869	 0.106378313519556 
870	 0.106413146053987 
871	 0.106484788371467 
872	 0.106595171964404 
873	 0.106708293289675 
874	 0.106753307967648 
875	 0.106833019396846 
876	 0.106916977375566 
877	 0.106972129889709 
878	 0.107040066873414 
879	 0.107205861068915 
880	 0.107382415559816 
881	 0.107472292382959 
882	 0.10761729337025 
883	 0.10775317570293 
884	 0.107844162184322 
885	 0.107901991437274 
886	 0.108090628344647 
887	 0.10830590220539 
888	 0.108479969219703 
889	 0.108607119579903 
890	 0.108767390410638 
891	 0.108933733891003 
892	 0.10910651832182 
893	 0.109331508909563 
894	 0.109503223727998 
895	 0.109656679886654 
896	 0.109840499520081 
897	 0.110073590897722 
898	 0.110300464350405 
899	 0.110513184237152 
900	 0.110718334002709 
901	 0.110917035633873 
902	 0.111168490641342 
903	 0.111448356314499 
904	 0.111708876475349 
905	 0.111938598315804 
906	 0.112210289316577 
907	 0.112502475802707 
908	 0.112765235142214 
909	 0.113070549553872 
910	 0.113322666416658 
911	 0.113574966048131 
912	 0.113939844683354 
913	 0.114185488600012 
914	 0.114503727434285 
915	 0.114893775013403 
916	 0.115172130191395 
917	 0.115412907055736 
918	 0.115749975151585 
919	 0.116155326839776 
920	 0.11642913357524 
921	 0.116769393286473 
922	 0.117175245820159 
923	 0.117600030807507 
924	 0.117987373577017 
925	 0.118357858673917 
926	 0.118746929496074 
927	 0.119167567281598 
928	 0.11958430127846 
929	 0.12004272377338 
930	 0.120478575494804 
931	 0.120858835857523 
932	 0.121285990722846 
933	 0.121703410793939 
934	 0.122149986782787 
935	 0.122653100798321 
936	 0.123137299480487 
937	 0.123568897681902 
938	 0.123973085248292 
939	 0.124410069792012 
940	 0.124972227990383 
941	 0.125493618075127 
942	 0.125987284740516 
943	 0.12652650932207 
944	 0.127110127974467 
945	 0.127575104010202 
946	 0.128025551703786 
947	 0.128625573657982 
948	 0.129216163037352 
949	 0.129776903812561 
950	 0.130316200412783 
951	 0.130874444222364 
952	 0.131568566590049 
953	 0.132086258861357 
954	 0.132530208647272 
955	 0.133185369631087 
956	 0.13388548305351 
957	 0.134534736441107 
958	 0.13511823123741 
959	 0.135692766904198 
960	 0.136381648155298 
961	 0.137042342513907 
962	 0.137648765652473 
963	 0.13826568255061 
964	 0.138931394282713 
965	 0.139614043579422 
966	 0.140286423604943 
967	 0.140941501344151 
968	 0.141632289433031 
969	 0.142330966186652 
970	 0.143031135058137 
971	 0.143736023259718 
972	 0.144397711137508 
973	 0.145131902767972 
974	 0.145868464034368 
975	 0.146478894009311 
976	 0.147311828952823 
977	 0.148073079776468 
978	 0.148745900633022 
979	 0.149485152156226 
980	 0.150130837020007 
981	 0.150792314795065 
982	 0.151511699711721 
983	 0.152277939463109 
984	 0.153121461237224 
985	 0.153869272506689 
986	 0.154566978830938 
987	 0.155355296621407 
988	 0.156153577974285 
989	 0.15678955610395 
990	 0.157441720365541 
991	 0.158346104872163 
992	 0.159117627973891 
993	 0.159971229787582 
994	 0.160858140317806 
995	 0.161600408374967 
996	 0.162035458353166 
997	 0.162893030866134 
998	 0.163783897345651 
999	 0.164240467343396 
1000	 0.165234061066501 
1001	 0.166354414130229 
1002	 0.167052586692651 
1003	 0.167717086965245 
1004	 0.168388738283597 
1005	 0.169020923365294 
1006	 0.169708350555642 
1007	 0.170437681739377 
1008	 0.171159683456933 
1009	 0.171825534899424 
1010	 0.172431803717632 
1011	 0.17300892086677 
1012	 0.1736130960038 
1013	 0.174259279061822 
1014	 0.174945643680388 
1015	 0.175603154990862 
1016	 0.176209818140356 
1017	 0.176813652085397 
1018	 0.177389837969773 
1019	 0.177926050871434 
1020	 0.178525969051024 
1021	 0.179129132788745 
1022	 0.179673752652657 
1023	 0.180223532913506 
1024	 0.180700745843564 
1025	 0.181183291962562 
1026	 0.18170774803745 
1027	 0.182227395756554 
1028	 0.182764547077518 
1029	 0.183297242044969 
1030	 0.183853053640263 
1031	 0.184366317442105 
1032	 0.184864662508023 
1033	 0.185341206507137 
1034	 0.185836382068666 
1035	 0.186246581775096 
1036	 0.186658631074527 
1037	 0.187145227759187 
1038	 0.187587862049004 
1039	 0.18807254888152 
1040	 0.188576107127695 
1041	 0.188983517817873 
1042	 0.189436734552909 
1043	 0.189888789663623 
1044	 0.190324165211534 
1045	 0.19074154757403 
1046	 0.191236656814765 
1047	 0.191679366050932 
1048	 0.192116798396604 
1049	 0.192605223774468 
1050	 0.193044571512805 
1051	 0.193482130439395 
1052	 0.193903334514629 
1053	 0.194294793247718 
1054	 0.194750313442802 
1055	 0.1952186162566 
1056	 0.195630475367422 
1057	 0.196065737171145 
1058	 0.196519113573706 
1059	 0.196944371511686 
1060	 0.197342847900313 
1061	 0.197782760821701 
1062	 0.198216827468956 
1063	 0.198608615187829 
1064	 0.19898732330677 
1065	 0.199383147639644 
1066	 0.199780850847963 
1067	 0.200147446674305 
1068	 0.200535157334974 
1069	 0.200951270122942 
1070	 0.201356507207648 
1071	 0.201747402491495 
1072	 0.202163516011783 
1073	 0.202603281996183 
1074	 0.20301834658155 
1075	 0.203436848758858 
1076	 0.203838476406247 
1077	 0.204217075032117 
1078	 0.204578352623011 
1079	 0.204927452379597 
1080	 0.205284679056104 
1081	 0.205660011427467 
1082	 0.206058774622587 
1083	 0.20645269708945 
1084	 0.206865950631094 
1085	 0.207253922850353 
1086	 0.207652564262743 
1087	 0.207999699789118 
1088	 0.208289941267957 
1089	 0.208644828745695 
1090	 0.208977393325114 
1091	 0.209258615645981 
1092	 0.209605440834332 
1093	 0.209940189381542 
1094	 0.210283694800268 
1095	 0.210663120773149 
1096	 0.211052934683236 
1097	 0.211432987110108 
1098	 0.211773309279564 
1099	 0.212085494342503 
1100	 0.212400524988599 
1101	 0.212664730547005 
1102	 0.212973177457979 
1103	 0.213312326879454 
1104	 0.21362092442806 
1105	 0.213953626132377 
1106	 0.21429621736157 
1107	 0.214591455394547 
1108	 0.214932342437749 
1109	 0.215261910934175 
1110	 0.215554278287366 
1111	 0.215862563010899 
1112	 0.216173409502174 
1113	 0.216475759897507 
1114	 0.21677146038206 
1115	 0.217076809823069 
1116	 0.217385376386308 
1117	 0.217693437893642 
1118	 0.217995420293527 
1119	 0.218308027395897 
1120	 0.218679362976026 
1121	 0.218990529494644 
1122	 0.219260177225238 
1123	 0.219585010304698 
1124	 0.219893268445621 
1125	 0.220169465522981 
1126	 0.220456817621614 
1127	 0.220775013565943 
1128	 0.221060676218921 
1129	 0.221310395381831 
1130	 0.221589430360457 
1131	 0.221883380905715 
1132	 0.222161693473284 
1133	 0.222436616794079 
1134	 0.22270649048304 
1135	 0.222956959110241 
1136	 0.223231501247327 
1137	 0.22352435015071 
1138	 0.223811539713214 
1139	 0.224069051728274 
1140	 0.224318775051674 
1141	 0.22456543437324 
1142	 0.224783477691987 
1143	 0.225010106728937 
1144	 0.225246068712831 
1145	 0.225478778016676 
1146	 0.225706070399697 
1147	 0.225922505283416 
1148	 0.226144197747116 
1149	 0.226351198064623 
1150	 0.226523496430948 
1151	 0.226722655378768 
1152	 0.226934378768842 
1153	 0.227151562393752 
1154	 0.227361692458163 
1155	 0.227579250791825 
1156	 0.227792243451022 
1157	 0.227997582602052 
1158	 0.228206001382062 
1159	 0.228429697846303 
1160	 0.22863330393855 
1161	 0.228826081782018 
1162	 0.229014438799661 
1163	 0.229179973643447 
1164	 0.229366042126275 
1165	 0.229562724507701 
1166	 0.229750767355665 
1167	 0.2299508875727 
1168	 0.230161470914093 
1169	 0.230362993649631 
1170	 0.230560798609336 
1171	 0.230760932594506 
1172	 0.230979070137475 
1173	 0.231156601457519 
1174	 0.23130529998901 
1175	 0.231473602396011 
1176	 0.231620819364585 
1177	 0.231784234162624 
1178	 0.231975310266918 
1179	 0.232151720620455 
1180	 0.232323701102981 
1181	 0.232489564663915 
1182	 0.232647872216545 
1183	 0.232812213415817 
1184	 0.23297002957502 
1185	 0.233119601536074 
1186	 0.23327527085395 
1187	 0.233441780845577 
1188	 0.233584653386796 
1189	 0.233706097754299 
1190	 0.233851429884636 
1191	 0.233991985098201 
1192	 0.234141498109181 
1193	 0.234327243832801 
1194	 0.234478946703043 
1195	 0.234615818829798 
1196	 0.234745900928142 
1197	 0.234847318076867 
1198	 0.234965665396918 
1199	 0.235087511868338 
1200	 0.235210043919617 
1201	 0.235334142470989 
1202	 0.235473971437435 
1203	 0.235591097903244 
1204	 0.235690672623925 
1205	 0.235806421087569 
1206	 0.23591824303744 
1207	 0.236036505334937 
1208	 0.236181660546288 
1209	 0.236293957681493 
1210	 0.236383782905833 
1211	 0.236484067150242 
1212	 0.236559218301814 
1213	 0.236659745969456 
1214	 0.236794598661987 
1215	 0.236908493887135 
1216	 0.237018797264538 
1217	 0.237140911532641 
1218	 0.237229699415999 
1219	 0.237289752391394 
1220	 0.237365296247047 
1221	 0.237419167692578 
1222	 0.237506261795979 
1223	 0.237618589513179 
1224	 0.237715225852937 
1225	 0.237825087992482 
1226	 0.237922369597942 
1227	 0.238005085331557 
1228	 0.238091496405139 
1229	 0.238181104521437 
1230	 0.238264673451341 
1231	 0.238346278603123 
1232	 0.238421400007319 
1233	 0.238491687853894 
1234	 0.238555520215858 
1235	 0.238622413636954 
1236	 0.238687224085654 
1237	 0.23874837094537 
1238	 0.238801126112259 
1239	 0.238870653755339 
1240	 0.238944699660365 
1241	 0.239016738703247 
1242	 0.23910674423852 
1243	 0.23918055356417 
1244	 0.239239169118671 
1245	 0.239305399210062 
1246	 0.239366701965044 
1247	 0.23943572563872 
1248	 0.239516302960806 
1249	 0.239589825149183 
1250	 0.239651855825423 
1251	 0.239715530192491 
1252	 0.239777302268103 
1253	 0.239829871191447 
1254	 0.239882136992673 
1255	 0.239941353852585 
1256	 0.239989407481247 
1257	 0.240020719829374 
1258	 0.240064149249018 
1259	 0.240116437936229 
1260	 0.240154925718061 
1261	 0.240191740019642 
1262	 0.240223807925338 
1263	 0.240234474741106 
1264	 0.240264308727065 
1265	 0.240309390538598 
1266	 0.240343095993333 
1267	 0.240373343411955 
1268	 0.240416898870556 
1269	 0.240447910347167 
1270	 0.240460772340802 
1271	 0.240498651174301 
1272	 0.240545407646197 
1273	 0.240593158834679 
1274	 0.240655174459607 
1275	 0.240709162929898 
1276	 0.240752933519632 
1277	 0.240814827918907 
1278	 0.240888868837637 
1279	 0.240954455830083 
1280	 0.24102959340688 
1281	 0.241102189979683 
1282	 0.241159400215821 
1283	 0.241229966586884 
1284	 0.241322358889187 
1285	 0.241392727508028 
1286	 0.241453787101524 
1287	 0.241541518781167 
1288	 0.241628558634153 
1289	 0.24172311774554 
1290	 0.241803460029262 
1291	 0.241888686627385 
1292	 0.241962833867895 
1293	 0.24201525612684 
1294	 0.242083038386136 
1295	 0.242171517874569 
1296	 0.242232890271119 
1297	 0.242281565086348 
1298	 0.242328394200973 
1299	 0.242362519438772 
1300	 0.242390928973657 
1301	 0.242404569340898 
1302	 0.242435746555633 
1303	 0.242471924096375 
1304	 0.24249888430434 
1305	 0.24254476827398 
1306	 0.24259086596991 
1307	 0.242599578022701 
1308	 0.242602873303505 
1309	 0.242611112664023 
1310	 0.242610600974067 
1311	 0.242608141566493 
1312	 0.242620714804022 
1313	 0.242601309578997 
1314	 0.242554356660422 
1315	 0.242522185261149 
1316	 0.242470968109016 
1317	 0.24244466633817 
1318	 0.242447062972468 
1319	 0.242424986012848 
1320	 0.242410804381559 
1321	 0.242374332008876 
1322	 0.242311865152417 
1323	 0.24224742058839 
1324	 0.242213882256468 
1325	 0.242164491768506 
1326	 0.242100193597162 
1327	 0.242072015059799 
1328	 0.242015893497711 
1329	 0.241965295081995 
1330	 0.241924075451847 
1331	 0.241906712263108 
1332	 0.241855189107681 
1333	 0.241793000841335 
1334	 0.241731135980218 
1335	 0.24165066220193 
1336	 0.24158773980771 
1337	 0.241531695150608 
1338	 0.24147426442756 
1339	 0.241421077432645 
1340	 0.24136566397595 
1341	 0.241310172531593 
1342	 0.241255596472689 
1343	 0.241194524373545 
1344	 0.241148880725294 
1345	 0.241104431152917 
1346	 0.241059965562805 
1347	 0.241025899196171 
1348	 0.240988203118444 
1349	 0.240921779928378 
1350	 0.240840846026104 
1351	 0.240767748370197 
1352	 0.240670084684099 
1353	 0.240605231865722 
1354	 0.240567261016838 
1355	 0.240510980697781 
1356	 0.240460771411935 
1357	 0.240396549070256 
1358	 0.240308041356233 
1359	 0.240244307604432 
1360	 0.240191181966138 
1361	 0.240136686448187 
1362	 0.240097263840413 
1363	 0.240049440347458 
1364	 0.239994078220091 
1365	 0.239937339757854 
1366	 0.239881196288337 
1367	 0.239822190846723 
1368	 0.239766910547164 
1369	 0.239702503715526 
1370	 0.239607335171717 
1371	 0.23950901399087 
1372	 0.239398654845833 
1373	 0.239271042921228 
1374	 0.239132138318194 
1375	 0.239000377839953 
1376	 0.238819262312644 
1377	 0.238607694989499 
1378	 0.238375078724817 
1379	 0.238112545516755 
1380	 0.237833217978034 
1381	 0.237521452178053 
1382	 0.23721138811126 
1383	 0.236903474355269 
1384	 0.236556962996706 
1385	 0.236229586476654 
1386	 0.235819793996829 
1387	 0.23532952298476 
1388	 0.234839833485925 
1389	 0.234324321047658 
1390	 0.233761197796416 
1391	 0.233179549648234 
1392	 0.23257997270828 
1393	 0.231912588026118 
1394	 0.231213264283307 
1395	 0.230470191859581 
1396	 0.229707103852123 
1397	 0.228950554545304 
1398	 0.228160710954996 
1399	 0.227394841116244 
1400	 0.226651805327867 
1401	 0.22588039469447 
1402	 0.225089112835445 
1403	 0.224317382790676 
1404	 0.22351343427684 
1405	 0.222783220200718 
1406	 0.222089730644008 
1407	 0.22141368769454 
1408	 0.220771899069255 
1409	 0.220160347841126 
1410	 0.219549360987338 
1411	 0.219000360160633 
1412	 0.218489710297912 
1413	 0.218046903894448 
1414	 0.217640345804335 
1415	 0.217260180821376 
1416	 0.216927559581241 
1417	 0.216616722181711 
1418	 0.216319193621469 
1419	 0.21606156524962 
1420	 0.215833936897101 
1421	 0.215606154409167 
1422	 0.215401872588457 
1423	 0.215210470465872 
1424	 0.215008884940122 
1425	 0.214800953735504 
1426	 0.214612803930564 
1427	 0.214412070845694 
1428	 0.214257751133375 
1429	 0.214138161550102 
1430	 0.214019836339237 
1431	 0.213940527944404 
1432	 0.213834926739438 
1433	 0.213713195384277 
1434	 0.213609315293201 
1435	 0.21348744635185 
1436	 0.213408653379114 
1437	 0.21336495444829 
1438	 0.213320886510102 
1439	 0.213294871872155 
1440	 0.213286821900574 
1441	 0.21326466431415 
1442	 0.213242203789495 
1443	 0.213208972940293 
1444	 0.213170069357264 
1445	 0.213150973116127 
1446	 0.21313782726773 
1447	 0.213132288983408 
1448	 0.213139204358285 
1449	 0.213130210177485 
1450	 0.213114060474078 
1451	 0.213106794179187 
1452	 0.213096709779446 
1453	 0.213103685302539 
1454	 0.213118989033925 
1455	 0.213141326662227 
1456	 0.213176018638093 
1457	 0.21321491415754 
1458	 0.213264325970435 
1459	 0.213305129920118 
1460	 0.213339892745463 
1461	 0.213399311350416 
1462	 0.213458926103137 
1463	 0.213534428100141 
1464	 0.213643677750538 
1465	 0.213736910565174 
1466	 0.213818273148405 
1467	 0.213921179205386 
1468	 0.214017098472232 
1469	 0.214146882418776 
1470	 0.214304193511696 
1471	 0.214476013935466 
1472	 0.214660305113154 
1473	 0.214847972512434 
1474	 0.215030502063584 
1475	 0.215219764645301 
1476	 0.215416604676782 
1477	 0.215621566389127 
1478	 0.215828207583146 
1479	 0.216038477224838 
1480	 0.216259647141402 
1481	 0.216476090473519 
1482	 0.216693135259579 
1483	 0.216912142228292 
1484	 0.217135228257576 
1485	 0.217358867195683 
1486	 0.21758657726697 
1487	 0.217832793535054 
1488	 0.218048830268964 
1489	 0.218245999402995 
1490	 0.218447960287223 
1491	 0.218629933723796 
1492	 0.218835940577498 
1493	 0.219055811553943 
1494	 0.21927489649376 
1495	 0.219506646274796 
1496	 0.2197238562401 
1497	 0.219939500291535 
1498	 0.220151117154954 
1499	 0.220360699931153 
1500	 0.220560166238584 
1501	 0.220754370278318 
1502	 0.220939768068521 
1503	 0.221110389443917 
1504	 0.221281508844629 
1505	 0.221451517567705 
1506	 0.221628293517873 
1507	 0.221806004545411 
1508	 0.221974511609505 
1509	 0.22215916263907 
1510	 0.222333629898184 
1511	 0.222496651810647 
1512	 0.222674397466297 
1513	 0.222842464268882 
1514	 0.22300984319069 
1515	 0.223198134996636 
1516	 0.223383218413188 
1517	 0.223557501738057 
1518	 0.223732171305151 
1519	 0.223890324503337 
1520	 0.224033549523323 
1521	 0.224177903902009 
1522	 0.224302436694779 
1523	 0.224450679661745 
1524	 0.224608628791071 
1525	 0.224765129403142 
1526	 0.224935841548096 
1527	 0.225094115987719 
1528	 0.225249751868157 
1529	 0.225397100416037 
1530	 0.225541426271001 
1531	 0.225679214594769 
1532	 0.225801433376042 
1533	 0.22592951605559 
1534	 0.226055884134602 
1535	 0.226183097107334 
1536	 0.226320887271305 
1537	 0.226441272462119 
1538	 0.226551704306539 
1539	 0.226660450287785 
1540	 0.226752166381931 
1541	 0.22685509539682 
1542	 0.226960374974831 
1543	 0.227068093842881 
1544	 0.22718503329885 
1545	 0.227295315302433 
1546	 0.227407138634979 
1547	 0.22751325653487 
1548	 0.227612277358094 
1549	 0.227701598827126 
1550	 0.227797316096309 
1551	 0.227902180504948 
1552	 0.228005613012744 
1553	 0.22811273251995 
1554	 0.228214935717614 
1555	 0.228309184993642 
1556	 0.228394266086508 
1557	 0.228482721119428 
1558	 0.228562867356539 
1559	 0.228637716881498 
1560	 0.228727349663428 
1561	 0.228836399949235 
1562	 0.228904853000493 
1563	 0.228955888557046 
1564	 0.229031060831383 
1565	 0.229088692931365 
1566	 0.229167563737966 
1567	 0.229285442185531 
1568	 0.229368449064623 
1569	 0.229426197020429 
1570	 0.229503057208435 
1571	 0.229588368644084 
1572	 0.229660981023719 
1573	 0.229739840346132 
1574	 0.229805501926275 
1575	 0.229859744041434 
1576	 0.229901840007885 
1577	 0.22992439091012 
1578	 0.229962954061104 
1579	 0.22998820425892 
1580	 0.230037618051383 
1581	 0.230116361197813 
1582	 0.230178761885628 
1583	 0.230243916578772 
1584	 0.230303613534628 
1585	 0.230362632246413 
1586	 0.23041035738704 
1587	 0.23045152996254 
1588	 0.230488573620991 
1589	 0.23050654883274 
1590	 0.230536696651916 
1591	 0.230567974949337 
1592	 0.23060969849975 
1593	 0.230665730446895 
1594	 0.230712286665952 
1595	 0.230760777339673 
1596	 0.230806644348807 
1597	 0.230844085877611 
1598	 0.230887406676288 
1599	 0.230943373461961 
1600	 0.230983376084752 
1601	 0.231015018194512 
1602	 0.231045382290428 
1603	 0.231052664532631 
1604	 0.231082200048377 
1605	 0.231132398059346 
1606	 0.231170148674638 
1607	 0.2312138678493 
1608	 0.231256548109869 
1609	 0.231278412562199 
1610	 0.231305982503255 
1611	 0.231320483705337 
1612	 0.231313720647722 
1613	 0.231306489399394 
1614	 0.231302913929279 
1615	 0.231334098686014 
1616	 0.231368756712734 
1617	 0.231388883158315 
1618	 0.231424469537485 
1619	 0.231442744142479 
1620	 0.231478493806494 
1621	 0.231522501504614 
1622	 0.231601647750967 
1623	 0.231613385353833 
1624	 0.231602635167295 
1625	 0.231592544978784 
1626	 0.231536715558069 
1627	 0.231532539131327 
1628	 0.23155328013906 
1629	 0.231567183759932 
1630	 0.231587045565329 
1631	 0.231619329720793 
1632	 0.231670161007345 
1633	 0.231693065711505 
1634	 0.231718835389868 
1635	 0.231730191594229 
1636	 0.23171175660791 
1637	 0.231713365136785 
1638	 0.231724091764307 
1639	 0.231728060462468 
1640	 0.231723992604066 
1641	 0.2317382426388 
1642	 0.231762243452869 
1643	 0.231779400673001 
1644	 0.231808857442291 
1645	 0.231820906122128 
1646	 0.231813630046991 
1647	 0.231827705926456 
1648	 0.231847254583465 
1649	 0.231865529622909 
1650	 0.231898509195253 
1651	 0.231912036400136 
1652	 0.231916478003465 
1653	 0.231916599034692 
1654	 0.231905140846116 
1655	 0.231900320199229 
1656	 0.231897807105383 
1657	 0.231883825568962 
1658	 0.231867296212282 
1659	 0.231846480473704 
1660	 0.231816027597099 
1661	 0.23178297430422 
1662	 0.231739075428015 
1663	 0.231714962097065 
1664	 0.231695159987757 
1665	 0.231674061081968 
1666	 0.231671144243547 
1667	 0.231654029841429 
1668	 0.231615756558834 
1669	 0.231601772545636 
1670	 0.231606439453718 
1671	 0.231593807826347 
1672	 0.231589046333392 
1673	 0.231567125771276 
1674	 0.231515443181766 
1675	 0.231492927125818 
1676	 0.231479200216014 
1677	 0.231465248321069 
1678	 0.231471182288017 
1679	 0.231457793696997 
1680	 0.231426327742213 
1681	 0.231411196845744 
1682	 0.23140103869082 
1683	 0.231385857782185 
1684	 0.231378228359521 
1685	 0.231363710387795 
1686	 0.231346907612416 
1687	 0.231315702159723 
1688	 0.231277251693479 
1689	 0.231238071965143 
1690	 0.231174606777244 
1691	 0.23113692511559 
1692	 0.231115532607655 
1693	 0.231090144811377 
1694	 0.231075176999538 
1695	 0.231053285833997 
1696	 0.231028749392388 
1697	 0.231001155816693 
1698	 0.230968710438394 
1699	 0.230943931207246 
1700	 0.230921590035366 
1701	 0.230895491637674 
1702	 0.230878582098868 
1703	 0.230843470445769 
1704	 0.230795847772155 
1705	 0.230751143653386 
1706	 0.230704046243694 
1707	 0.230645335484011 
1708	 0.230575220313947 
1709	 0.230513534161811 
1710	 0.230445738328518 
1711	 0.230379582287428 
1712	 0.230319592747289 
1713	 0.230261643680646 
1714	 0.230201565438884 
1715	 0.230137219252034 
1716	 0.230071535812293 
1717	 0.230018463519627 
1718	 0.229969308551152 
1719	 0.229915106933305 
1720	 0.229878651742017 
1721	 0.229817830909702 
1722	 0.229724241722675 
1723	 0.229662002374451 
1724	 0.229618570098499 
1725	 0.229551908040587 
1726	 0.229490172215204 
1727	 0.229415979030777 
1728	 0.229312718800584 
1729	 0.229227483474952 
1730	 0.229153989676641 
1731	 0.229067947209071 
1732	 0.228979130780708 
1733	 0.228895077129029 
1734	 0.228810367556291 
1735	 0.228718643669085 
1736	 0.228626974376252 
1737	 0.228522065843674 
1738	 0.22839921268352 
1739	 0.228300625363528 
1740	 0.228202518057338 
1741	 0.228120296191839 
1742	 0.228061823651044 
1743	 0.227984210860904 
1744	 0.227922017955938 
1745	 0.227805132628902 
1746	 0.22764708576364 
1747	 0.227500006250554 
1748	 0.227371774037344 
1749	 0.227294876908218 
1750	 0.227223380019448 
1751	 0.227134990072756 
1752	 0.227034308233082 
1753	 0.22693083515386 
1754	 0.226826200185665 
1755	 0.226697513271911 
1756	 0.22658552563832 
1757	 0.226449929149251 
1758	 0.226291165471136 
1759	 0.226181860440088 
1760	 0.226087318145911 
1761	 0.226009360643419 
1762	 0.225953963281982 
1763	 0.225881283530953 
1764	 0.225748996401167 
1765	 0.225619982474653 
1766	 0.225493537179937 
1767	 0.22532227212542 
1768	 0.225221291869209 
1769	 0.225138635041244 
1770	 0.225040148651156 
1771	 0.224999461288415 
1772	 0.224933573186061 
1773	 0.224838455023453 
1774	 0.224773938693627 
1775	 0.224727239099266 
1776	 0.224662987895438 
1777	 0.224596344747134 
1778	 0.224518800237499 
1779	 0.224404917151872 
1780	 0.224322821638369 
1781	 0.224243041961428 
1782	 0.224175744139551 
1783	 0.224127096395647 
1784	 0.22407244362057 
1785	 0.224040506122461 
1786	 0.223995610801902 
1787	 0.223952230993477 
1788	 0.223905735146891 
1789	 0.22384581608756 
1790	 0.223802373150088 
1791	 0.223756997589889 
1792	 0.223695608331602 
1793	 0.223630562327781 
1794	 0.223593271762196 
1795	 0.223557978690317 
1796	 0.223541776301154 
1797	 0.223570031024928 
1798	 0.223556595218614 
1799	 0.223521923739722 
1800	 0.223489803729876 
1801	 0.218126849813374 
1802	 0.218309877008501 
1803	 0.218505763582912 
1804	 0.218737701220805 
1805	 0.218971975286302 
1806	 0.219190528666109 
1807	 0.219408997047744 
1808	 0.219601048413112 
1809	 0.219798198371805 
1810	 0.219941811033493 
1811	 0.220047249041683 
1812	 0.220138425929784 
1813	 0.220227260132265 
1814	 0.220279762750818 
1815	 0.220321250653567 
1816	 0.220368692947777 
1817	 0.220393838622348 
1818	 0.220381385475065 
1819	 0.220380086766611 
1820	 0.220366614799297 
1821	 0.220369717645936 
1822	 0.220404984371185 
1823	 0.220424986558642 
1824	 0.220456473718924 
1825	 0.220492102470351 
1826	 0.220502420940962 
1827	 0.22051957491891 
1828	 0.220521791068887 
1829	 0.220529613584129 
1830	 0.220516146524679 
1831	 0.220488037783153 
1832	 0.220441694468428 
1833	 0.220374760572993 
1834	 0.220297380647175 
1835	 0.220235962604601 
1836	 0.220167403177917 
1837	 0.220105714157249 
1838	 0.220073727252705 
1839	 0.220042997067629 
1840	 0.220016769549026 
1841	 0.219993462029961 
1842	 0.219962904336992 
1843	 0.219910002241975 
1844	 0.219860182675457 
1845	 0.219773426574566 
1846	 0.219677768143192 
1847	 0.219603162697137 
1848	 0.219500943911117 
1849	 0.21939109385109 
1850	 0.219280309821704 
1851	 0.219176414526501 
1852	 0.219060836585031 
1853	 0.218924248945406 
1854	 0.21875873321436 
1855	 0.218586783543485 
1856	 0.218379036255049 
1857	 0.21814418749027 
1858	 0.217916037254375 
1859	 0.21765309329263 
1860	 0.217356399423173 
1861	 0.217029797463033 
1862	 0.216687301949901 
1863	 0.21631306708781 
1864	 0.215891304974942 
1865	 0.215440965610702 
1866	 0.214950480724804 
1867	 0.214404706394128 
1868	 0.213842935171388 
1869	 0.213240840607191 
1870	 0.212577293897956 
1871	 0.211848912702116 
1872	 0.211062935423155 
1873	 0.21021514355939 
1874	 0.209325790195227 
1875	 0.208367775257594 
1876	 0.207379032785437 
1877	 0.206326802962406 
1878	 0.205155945022388 
1879	 0.203944043825073 
1880	 0.202633903989689 
1881	 0.201222725994141 
1882	 0.199738365250029 
1883	 0.198185040023657 
1884	 0.196503270297479 
1885	 0.194776234420172 
1886	 0.192996161121199 
1887	 0.191133097337058 
1888	 0.189197220137501 
1889	 0.187181216486237 
1890	 0.185120742987105 
1891	 0.183066504508439 
1892	 0.180957214293248 
1893	 0.178882078078092 
1894	 0.176812026613451 
1895	 0.174741879127559 
1896	 0.172653767099266 
1897	 0.170641638268733 
1898	 0.168666743119924 
1899	 0.166730615850145 
1900	 0.164883919750663 
1901	 0.163083141778631 
1902	 0.161378193511185 
1903	 0.159750187898736 
1904	 0.158221531445934 
1905	 0.156770458510062 
1906	 0.155446010027242 
1907	 0.154198859975782 
1908	 0.153027115586011 
1909	 0.151949155715659 
1910	 0.15091207946018 
1911	 0.149962243714616 
1912	 0.149082792727121 
1913	 0.148249489092031 
1914	 0.147477201554784 
1915	 0.146759418128566 
1916	 0.14609530172155 
1917	 0.145477228403718 
1918	 0.144936526678356 
1919	 0.144427085818909 
1920	 0.143962456816538 
1921	 0.143566180803607 
1922	 0.143208683181378 
1923	 0.142907180721075 
1924	 0.142640028905517 
1925	 0.14243259954957 
1926	 0.142245729714018 
1927	 0.142090086077928 
1928	 0.141957561993546 
1929	 0.141890632495486 
1930	 0.14183514828219 
1931	 0.141792824824167 
1932	 0.141804774835581 
1933	 0.141839227262807 
1934	 0.14189507554192 
1935	 0.141966243392423 
1936	 0.142061824247558 
1937	 0.142181890372865 
1938	 0.14230871956972 
1939	 0.142473833899085 
1940	 0.142690228240034 
1941	 0.142906085787029 
1942	 0.143128891315972 
1943	 0.143369018921289 
1944	 0.143598268029482 
1945	 0.143865939007249 
1946	 0.144149731162164 
1947	 0.144457519022698 
1948	 0.144776416976029 
1949	 0.145120287046097 
1950	 0.145462249178729 
1951	 0.145819358110847 
1952	 0.146169708001136 
1953	 0.146523783636826 
1954	 0.146937594428928 
1955	 0.147340865346352 
1956	 0.147750033157698 
1957	 0.148175424491017 
1958	 0.148598452280722 
1959	 0.149045943381576 
1960	 0.149543164131998 
1961	 0.150003263567795 
1962	 0.150455803948052 
1963	 0.150920603871197 
1964	 0.151373324231109 
1965	 0.151820042143134 
1966	 0.152316581774193 
1967	 0.152824462694814 
1968	 0.153311064546836 
1969	 0.153796870806045 
1970	 0.154284759986762 
1971	 0.154762605296148 
1972	 0.155239692696201 
1973	 0.155712065369584 
1974	 0.156204356289956 
1975	 0.156694459232762 
1976	 0.157199506425233 
1977	 0.157731944909999 
1978	 0.158241654959659 
1979	 0.15873106198785 
1980	 0.159220782836887 
1981	 0.159718306785781 
1982	 0.160208716185164 
1983	 0.160710829719388 
1984	 0.161228870321067 
1985	 0.161738359277821 
1986	 0.162250329837406 
1987	 0.162760933265026 
1988	 0.163255618324455 
1989	 0.163779409022707 
1990	 0.164319688709149 
1991	 0.164829807787758 
1992	 0.165329413116935 
1993	 0.165825430383945 
1994	 0.16631148884084 
1995	 0.166766041580231 
1996	 0.16724203551647 
1997	 0.167735233986099 
1998	 0.16821223303558 
1999	 0.168679531980963 
2000	 0.169150790140655 
2001	 0.169613301174887 
2002	 0.170082877603534 
2003	 0.17056933005779 
2004	 0.171047786818461 
2005	 0.171512904406689 
2006	 0.171975308547324 
2007	 0.172431326994183 
2008	 0.172862014662903 
2009	 0.173313120378729 
2010	 0.173782185086558 
2011	 0.174233523443342 
2012	 0.174681792361553 
2013	 0.175126946085081 
2014	 0.175555156436187 
2015	 0.175989196286848 
2016	 0.176446984812097 
2017	 0.176908572801823 
2018	 0.177355554789573 
2019	 0.1778106696875 
2020	 0.178249999748374 
2021	 0.178673828646107 
2022	 0.179092631993628 
2023	 0.179505748987069 
2024	 0.179917839527825 
2025	 0.180316777887306 
2026	 0.180715653358783 
2027	 0.181119329379466 
2028	 0.181510355704937 
2029	 0.181912308863533 
2030	 0.182316286458017 
2031	 0.182712964008396 
2032	 0.183123156911157 
2033	 0.183505609907418 
2034	 0.183871355554025 
2035	 0.184226513076334 
2036	 0.184557341188039 
2037	 0.184901502251429 
2038	 0.18524201236596 
2039	 0.185578283659168 
2040	 0.185921808026518 
2041	 0.186256493136847 
2042	 0.186577044102887 
2043	 0.186892814715266 
2044	 0.187206251162648 
2045	 0.187510389007363 
2046	 0.18782511982089 
2047	 0.188147896163933 
2048	 0.188455335290423 
2049	 0.188771737581501 
2050	 0.189063666423224 
2051	 0.189322625795092 
2052	 0.189597620464133 
2053	 0.189865377550619 
2054	 0.19013869372031 
2055	 0.190417769904698 
2056	 0.19070175854358 
2057	 0.190981967736194 
2058	 0.191259042125107 
2059	 0.19154201978751 
2060	 0.191835358324634 
2061	 0.192112445017262 
2062	 0.19238382574121 
2063	 0.192654440509448 
2064	 0.192920855948971 
2065	 0.19317951345166 
2066	 0.193426098030268 
2067	 0.193686648561841 
2068	 0.193957405413147 
2069	 0.194200267029859 
2070	 0.194465907154976 
2071	 0.194756650117128 
2072	 0.195011854842193 
2073	 0.195253863852208 
2074	 0.195494928620077 
2075	 0.195721137927187 
2076	 0.195952521657758 
2077	 0.196181567935255 
2078	 0.1964133226863 
2079	 0.196631527389188 
2080	 0.196868293140535 
2081	 0.197127609513283 
2082	 0.197373296502829 
2083	 0.197623077922252 
2084	 0.197876085472725 
2085	 0.198108314833603 
2086	 0.19832186942933 
2087	 0.198546245052754 
2088	 0.198757566093812 
2089	 0.198987424436883 
2090	 0.199229172550623 
2091	 0.199462795325982 
2092	 0.19971121326497 
2093	 0.199941012482229 
2094	 0.200160777180359 
2095	 0.200374432063118 
2096	 0.200577058180381 
2097	 0.200777436229974 
2098	 0.200961891287973 
2099	 0.201155324837215 
2100	 0.201361204504446 
2101	 0.201572482135787 
2102	 0.20178257771733 
2103	 0.202016678794689 
2104	 0.202219680142465 
2105	 0.202399501551274 
2106	 0.202592669092311 
2107	 0.202763401507034 
2108	 0.202966525590213 
2109	 0.203191342378451 
2110	 0.203418460788021 
2111	 0.203674414591361 
2112	 0.20391306041503 
2113	 0.204156752302521 
2114	 0.20437912709732 
2115	 0.204604988962475 
2116	 0.204824385690801 
2117	 0.205038545250652 
2118	 0.205250065676829 
2119	 0.205454715471249 
2120	 0.205647916264317 
2121	 0.205844746690624 
2122	 0.206046647174086 
2123	 0.206231290158732 
2124	 0.206417434664651 
2125	 0.20658154115431 
2126	 0.206708213255921 
2127	 0.20685688991334 
2128	 0.20700648918314 
2129	 0.207150500385792 
2130	 0.207292406696451 
2131	 0.20746037031591 
2132	 0.207590751468094 
2133	 0.207706662851908 
2134	 0.207807243481882 
2135	 0.207892735718651 
2136	 0.207964531809779 
2137	 0.208016150500934 
2138	 0.208066224376566 
2139	 0.208094565392424 
2140	 0.208136859027189 
2141	 0.208177344459976 
2142	 0.208220332221029 
2143	 0.208293142986873 
2144	 0.208325856622138 
2145	 0.208350380863973 
2146	 0.208348074576357 
2147	 0.2083010037137 
2148	 0.208255183322443 
2149	 0.208201248410986 
2150	 0.208129993739357 
2151	 0.208063417184929 
2152	 0.207991937887379 
2153	 0.207920081473911 
2154	 0.207846719323576 
2155	 0.207768747369448 
2156	 0.207704454354255 
2157	 0.207606171063869 
2158	 0.20748793659471 
2159	 0.207364257545322 
2160	 0.207207920156993 
2161	 0.207065550097945 
2162	 0.206928851849988 
2163	 0.206785639612149 
2164	 0.206645758659041 
2165	 0.2064879852444 
2166	 0.206349229464547 
2167	 0.206215242596172 
2168	 0.206071672072545 
2169	 0.205946479242806 
2170	 0.205783213978932 
2171	 0.205588843585343 
2172	 0.205408545206913 
2173	 0.205201326197476 
2174	 0.205027570445728 
2175	 0.20488448478881 
2176	 0.204718203580279 
2177	 0.204556800747907 
2178	 0.204389873269763 
2179	 0.204228040048818 
2180	 0.204032516533233 
2181	 0.20381421383469 
2182	 0.203600507912217 
2183	 0.203353541412568 
2184	 0.203118043038451 
2185	 0.202881516887957 
2186	 0.202654614775747 
2187	 0.202424661679804 
2188	 0.202175268386883 
2189	 0.201960021786231 
2190	 0.201762421237459 
2191	 0.201572991187419 
2192	 0.201391677953802 
2193	 0.201236000534847 
2194	 0.201106378876686 
2195	 0.200973004567652 
2196	 0.200862599317962 
2197	 0.200747274462435 
2198	 0.200600064066923 
2199	 0.200504628334103 
2200	 0.200453076877194 
2201	 0.200392430156044 
2202	 0.200348986164332 
2203	 0.200325420848127 
2204	 0.200301718785874 
2205	 0.200261295405908 
2206	 0.200267810112721 
2207	 0.200309836093143 
2208	 0.200345388414193 
2209	 0.200401542415841 
2210	 0.200451740215263 
2211	 0.200518493626043 
2212	 0.200558998010339 
2213	 0.200571357067523 
2214	 0.200623291310887 
2215	 0.200669848869114 
2216	 0.200736644183897 
2217	 0.200859750126369 
2218	 0.200946595522285 
2219	 0.201018904524964 
2220	 0.201092097342231 
2221	 0.201163536577631 
2222	 0.201222109526423 
2223	 0.201264880000338 
2224	 0.201312189440206 
2225	 0.201356823639976 
2226	 0.201394883015036 
2227	 0.201418555421838 
2228	 0.201438982372202 
2229	 0.20145764756664 
2230	 0.201459318045822 
2231	 0.201465515790255 
2232	 0.201483605481749 
2233	 0.201484354734828 
2234	 0.201459055264236 
2235	 0.201455244147752 
2236	 0.201471417441929 
2237	 0.201459671092773 
2238	 0.201444799731896 
2239	 0.201418293884519 
2240	 0.201370524568407 
2241	 0.201317614423306 
2242	 0.201247667741557 
2243	 0.201195659961017 
2244	 0.201146017381388 
2245	 0.201087547762174 
2246	 0.201061349916977 
2247	 0.201008536387246 
2248	 0.20094690509322 
2249	 0.200858073515538 
2250	 0.200813665619533 
2251	 0.20078357801201 
2252	 0.20073809570149 
2253	 0.200726453166601 
2254	 0.200659630156822 
2255	 0.200538728135299 
2256	 0.20045836398353 
2257	 0.200367468538572 
2258	 0.200296339109342 
2259	 0.200247649494744 
2260	 0.200198294869619 
2261	 0.200153215599798 
2262	 0.200117577056517 
2263	 0.200110006880442 
2264	 0.200072507787837 
2265	 0.200014648376261 
2266	 0.199971285844365 
2267	 0.199906350400215 
2268	 0.199868237079091 
2269	 0.199849538927496 
2270	 0.19985939899281 
2271	 0.19985092010206 
2272	 0.199812599805136 
2273	 0.199777498971129 
2274	 0.199731033463201 
2275	 0.199689640971195 
2276	 0.199640624846028 
2277	 0.19962149884552 
2278	 0.199606126251953 
2279	 0.199609959551059 
2280	 0.199659217733591 
2281	 0.199660111437452 
2282	 0.199645555658166 
2283	 0.199645221095705 
2284	 0.199628615340971 
2285	 0.199624607592234 
2286	 0.199655604495036 
2287	 0.199636714619178 
2288	 0.199581420552968 
2289	 0.199540975925351 
2290	 0.199478569086361 
2291	 0.199439744848903 
2292	 0.199426969203475 
2293	 0.199391810056226 
2294	 0.199360490011573 
2295	 0.199305895117049 
2296	 0.199200419435842 
2297	 0.199157985877715 
2298	 0.199105111765254 
2299	 0.199025905603447 
2300	 0.198955700946381 
2301	 0.198875316667447 
2302	 0.198786116020411 
2303	 0.198719563306006 
2304	 0.198654560999972 
2305	 0.198590815074358 
2306	 0.19852193590321 
2307	 0.198448703740922 
2308	 0.198370135225382 
2309	 0.198300412950179 
2310	 0.198189619327289 
2311	 0.198055019049157 
2312	 0.197920594481323 
2313	 0.197753269664676 
2314	 0.197610120561516 
2315	 0.197469599682465 
2316	 0.197336644730918 
2317	 0.197223822161649 
2318	 0.197085922617238 
2319	 0.196954176408369 
2320	 0.196796049404235 
2321	 0.196572573464708 
2322	 0.196419052987869 
2323	 0.19630093022436 
2324	 0.196171658605105 
2325	 0.196068473637839 
2326	 0.195961784932147 
2327	 0.195857935970358 
2328	 0.195725979249407 
2329	 0.195591343606969 
2330	 0.195545232768928 
2331	 0.195452192704786 
2332	 0.195366040097378 
2333	 0.195301981715049 
2334	 0.195166468792811 
2335	 0.195030895116769 
2336	 0.194850347463811 
2337	 0.194647353309238 
2338	 0.194516167374348 
2339	 0.194382730902914 
2340	 0.194223204617143 
2341	 0.19404907198275 
2342	 0.193868105226643 
2343	 0.19376614137155 
2344	 0.193700340196398 
2345	 0.193563165190804 
2346	 0.193449080877996 
2347	 0.193292071235066 
2348	 0.193033435271659 
2349	 0.192838314802194 
2350	 0.192699975770754 
2351	 0.19249937354884 
2352	 0.192248029705607 
2353	 0.192032114827841 
2354	 0.191808510305469 
2355	 0.191596593647425 
2356	 0.191413546112623 
2357	 0.191229121678813 
2358	 0.191058419144085 
2359	 0.190839351382205 
2360	 0.190603831875801 
2361	 0.190385343953173 
2362	 0.190107351351673 
2363	 0.189892630401857 
2364	 0.189742178706535 
2365	 0.189537988433569 
2366	 0.189353254461436 
2367	 0.189151830177288 
2368	 0.188887991761556 
2369	 0.188671432433741 
2370	 0.188497789418541 
2371	 0.188264354726189 
2372	 0.188030617305509 
2373	 0.18781416077977 
2374	 0.187455337141653 
2375	 0.187147663273538 
2376	 0.18687804269062 
2377	 0.186602573162098 
2378	 0.186413199810782 
2379	 0.186130337118024 
2380	 0.1857803627352 
2381	 0.185500273027213 
2382	 0.185220990670203 
2383	 0.184969768404858 
2384	 0.184763084923714 
2385	 0.184527995531759 
2386	 0.184205589917336 
2387	 0.183898570574776 
2388	 0.183638567737441 
2389	 0.183306974231332 
2390	 0.183048630010981 
2391	 0.182778026994794 
2392	 0.182400984073232 
2393	 0.182113663392236 
2394	 0.181798395896911 
2395	 0.181457764121287 
2396	 0.181246454914666 
2397	 0.180936573005452 
2398	 0.180564951784401 
2399	 0.180191633324301 
2400	 0.179714940420336 
2401	 0.179288818580043 
2402	 0.178842847607378 
2403	 0.178495395632561 
2404	 0.178252809581747 
2405	 0.177919186511223 
2406	 0.177645155895051 
2407	 0.177352354269491 
2408	 0.17691506037412 
2409	 0.176522122501746 
2410	 0.176199216388909 
2411	 0.175825197392544 
2412	 0.175508686471207 
2413	 0.175252809965231 
2414	 0.17495992921209 
2415	 0.174606853485774 
2416	 0.17430082206349 
2417	 0.174035884341338 
2418	 0.173716728829058 
2419	 0.173426739356659 
2420	 0.173082492349934 
2421	 0.172654191126779 
2422	 0.172236190330513 
2423	 0.171761107913168 
2424	 0.171348971687792 
2425	 0.170941227727475 
2426	 0.170626727103618 
2427	 0.170446321305449 
2428	 0.17011272906753 
2429	 0.169780845020883 
2430	 0.169382065249222 
2431	 0.168780723341913 
2432	 0.168361027663987 
2433	 0.168060781435248 
2434	 0.167723978277512 
2435	 0.16741450093017 
2436	 0.167132997534849 
2437	 0.166877668818037 
2438	 0.166576141162308 
2439	 0.166345015641568 
2440	 0.165973376360476 
2441	 0.165429107245293 
2442	 0.164979294173077 
2443	 0.164542269647254 
2444	 0.16408878015603 
2445	 0.163644069709001 
2446	 0.16323764735835 
2447	 0.162793137956821 
2448	 0.162382290643148 
2449	 0.162013961281667 
2450	 0.161739888030641 
2451	 0.161538744052022 
2452	 0.161224024839889 
2453	 0.160992117709444 
2454	 0.160656270000336 
2455	 0.160148053641002 
2456	 0.159783307890307 
2457	 0.159459671843146 
2458	 0.159139890106006 
2459	 0.158862879292341 
2460	 0.158523464297661 
2461	 0.15822639774043 
2462	 0.157858589116105 
2463	 0.157374876754655 
2464	 0.157041756512475 
2465	 0.156652174244439 
2466	 0.156357148421426 
2467	 0.156295716052698 
2468	 0.155976210689575 
2469	 0.155595100376065 
2470	 0.155200516529884 
2471	 0.154739285224891 
2472	 0.154354661181465 
2473	 0.154049647599918 
2474	 0.153664254928777 
2475	 0.153308698490745 
2476	 0.153053679864582 
2477	 0.15283465013473 
2478	 0.152633211110354 
2479	 0.152411495878345 
2480	 0.152175099763155 
2481	 0.151768891048213 
2482	 0.151473558308671 
2483	 0.151291402153388 
2484	 0.151022947986635 
2485	 0.150851010901356 
2486	 0.150597934066632 
2487	 0.150264852067439 
2488	 0.149842572750834 
2489	 0.149342729298836 
2490	 0.149005580367982 
2491	 0.148797413334252 
2492	 0.14881037749496 
2493	 0.148763170066744 
2494	 0.148480820413756 
2495	 0.148236941138026 
2496	 0.147677190251152 
2497	 0.147199111531223 
2498	 0.147059876443228 
2499	 0.146623376027963 
2500	 0.146402194271057 
