Wavelength	mm2500009.asd
350	 5.40217843649822E-02 
351	 0.053714683769258 
352	 4.52288574576215E-02 
353	 3.60312561801187E-02 
354	 4.19519090674523E-02 
355	 4.61310211592309E-02 
356	 4.53366643469734E-02 
357	 4.23106487714751E-02 
358	 0.046360950235801 
359	 4.69223238999842E-02 
360	 4.36897663459856E-02 
361	 4.30930930667288E-02 
362	 4.48090182925191E-02 
363	 4.68253857884024E-02 
364	 4.68907537828351E-02 
365	 4.24269422357888E-02 
366	 0.040117527970227 
367	 0.040775734133327 
368	 4.32884226601103E-02 
369	 4.76039778346442E-02 
370	 4.83932175274724E-02 
371	 4.70735320716122E-02 
372	 4.90883462607838E-02 
373	 4.89531973950447E-02 
374	 4.79515611496354E-02 
375	 0.047867916650346 
376	 5.00893609096777E-02 
377	 4.91076591640695E-02 
378	 4.79497619233878E-02 
379	 5.01314739783764E-02 
380	 4.95524044542267E-02 
381	 4.85307864355958E-02 
382	 4.90137795455056E-02 
383	 5.18065276156049E-02 
384	 4.97526424068229E-02 
385	 4.88419181506438E-02 
386	 5.20035376833833E-02 
387	 5.28529694168745E-02 
388	 5.28031667805709E-02 
389	 5.26221502218506E-02 
390	 5.27096722959287E-02 
391	 5.19558079146045E-02 
392	 5.16202588004446E-02 
393	 5.20074902060636E-02 
394	 5.25466963876103E-02 
395	 5.36171729538796E-02 
396	 5.39975610028282E-02 
397	 5.36154655732942E-02 
398	 5.56300181434835E-02 
399	 5.56145353338532E-02 
400	 5.47602880866047E-02 
401	 5.56744081739066E-02 
402	 5.63130177700255E-02 
403	 5.67036689134421E-02 
404	 5.69319021850076E-02 
405	 5.70333945814278E-02 
406	 5.78346636242875E-02 
407	 5.88298444995887E-02 
408	 5.91552353548425E-02 
409	 5.74364953680648E-02 
410	 5.70508619261483E-02 
411	 5.81163341145632E-02 
412	 5.90685954481402E-02 
413	 5.88137982219394E-02 
414	 5.80877981636023E-02 
415	 5.77434806034308E-02 
416	 5.85456410598949E-02 
417	 5.87015460612843E-02 
418	 5.87085671635076E-02 
419	 5.91495172529825E-02 
420	 5.88171927075095E-02 
421	 5.87097799548041E-02 
422	 5.87097970230717E-02 
423	 5.80964645410356E-02 
424	 5.80968930810758E-02 
425	 5.82920247585901E-02 
426	 0.058337904221668 
427	 5.84257658933937E-02 
428	 5.84507195138274E-02 
429	 5.84258990282777E-02 
430	 5.83473919086302E-02 
431	 5.78817669732822E-02 
432	 5.76753710215752E-02 
433	 0.057842603612208 
434	 5.79570160953079E-02 
435	 5.79117940267946E-02 
436	 5.78565878044409E-02 
437	 0.057895734297709 
438	 0.057829605824483 
439	 5.79743940147708E-02 
440	 5.83044132748826E-02 
441	 5.85775590698255E-02 
442	 5.82993498946345E-02 
443	 5.83468941136105E-02 
444	 5.88563887723568E-02 
445	 5.86606115908146E-02 
446	 5.87137537957097E-02 
447	 5.89714974711291E-02 
448	 5.91091690994677E-02 
449	 0.058819502157867 
450	 5.90160127151672E-02 
451	 5.95937366056909E-02 
452	 5.96051427452224E-02 
453	 5.95426249472858E-02 
454	 5.94157302129432E-02 
455	 0.059265815092415 
456	 5.94155015661269E-02 
457	 5.95838378029169E-02 
458	 5.95661503988168E-02 
459	 5.92952930780193E-02 
460	 5.93952361329735E-02 
461	 5.96571377682052E-02 
462	 5.98444933135753E-02 
463	 5.97970589239757E-02 
464	 5.97803491403423E-02 
465	 5.97121424649011E-02 
466	 5.95172490986128E-02 
467	 5.95263916697417E-02 
468	 0.059714782054796 
469	 5.98857296463452E-02 
470	 5.97382563315268E-02 
471	 5.94223449658895E-02 
472	 5.93658282392945E-02 
473	 0.059668776106368 
474	 5.95413622820303E-02 
475	 5.97424877112947E-02 
476	 5.99912272282558E-02 
477	 5.97207448154913E-02 
478	 5.98177770568075E-02 
479	 5.98894755412107E-02 
480	 5.97473641676234E-02 
481	 0.059628821026662 
482	 5.97939911925519E-02 
483	 6.00355294136123E-02 
484	 6.00997076130487E-02 
485	 6.01806397995507E-02 
486	 6.00532247786492E-02 
487	 5.98343805655701E-02 
488	 0.059904052467861 
489	 0.060006471997907 
490	 6.01078251045738E-02 
491	 6.01822406263828E-02 
492	 6.01210658205153E-02 
493	 6.00632779140855E-02 
494	 5.99618144018027E-02 
495	 5.97539141845691E-02 
496	 5.99860068207567E-02 
497	 6.00701640315487E-02 
498	 5.98870306493939E-02 
499	 6.01779562516581E-02 
500	 6.01825717585451E-02 
501	 6.00684589697104E-02 
502	 6.01464123504992E-02 
503	 6.00835263498835E-02 
504	 6.00481555763432E-02 
505	 6.01042199651629E-02 
506	 6.02013247142726E-02 
507	 6.02229391236577E-02 
508	 0.060315612287076 
509	 0.060498701762171 
510	 6.02800120227688E-02 
511	 6.02105495761863E-02 
512	 6.02953457677699E-02 
513	 6.02711243628221E-02 
514	 6.03275357041404E-02 
515	 6.03202318509555E-02 
516	 6.02384678875909E-02 
517	 6.03680993309784E-02 
518	 0.060389950152746 
519	 0.060325939324938 
520	 6.03076210736125E-02 
521	 6.04018231442783E-02 
522	 6.05114284003167E-02 
523	 6.05525911810894E-02 
524	 6.04705800514302E-02 
525	 6.04138347947569E-02 
526	 6.04228162687569E-02 
527	 6.04880358406008E-02 
528	 6.05459269637397E-02 
529	 6.05772051077321E-02 
530	 6.05725944795988E-02 
531	 6.05413662517149E-02 
532	 6.06087780602352E-02 
533	 0.060737592598735 
534	 6.08485677666303E-02 
535	 6.08166111067678E-02 
536	 6.08009662697884E-02 
537	 6.08453549596528E-02 
538	 6.09276908606595E-02 
539	 6.09272936084239E-02 
540	 6.09006079962032E-02 
541	 6.09206323211598E-02 
542	 6.10631730468577E-02 
543	 6.11956838882879E-02 
544	 6.12737708303128E-02 
545	 6.13094104898772E-02 
546	 6.14369992279378E-02 
547	 6.14522363593342E-02 
548	 6.14162603519658E-02 
549	 6.15983705473089E-02 
550	 6.16464679130142E-02 
551	 0.061645792973655 
552	 6.17326888505748E-02 
553	 6.19869476865743E-02 
554	 6.21070061898229E-02 
555	 6.21273384340827E-02 
556	 6.22484187709431E-02 
557	 6.23839130183846E-02 
558	 6.25221909996378E-02 
559	 6.26705356404509E-02 
560	 6.28619285735035E-02 
561	 0.063000906823866 
562	 6.31468543647429E-02 
563	 6.33873034726063E-02 
564	 6.36469979298732E-02 
565	 6.38752280644523E-02 
566	 6.40898066888113E-02 
567	 6.43805338714745E-02 
568	 6.46343910185971E-02 
569	 6.49180258684166E-02 
570	 6.52781670149873E-02 
571	 6.55376975126696E-02 
572	 6.58979134192096E-02 
573	 6.63262940673467E-02 
574	 6.66388402985161E-02 
575	 6.70062531816007E-02 
576	 6.74408737917251E-02 
577	 6.79041276929845E-02 
578	 6.82933216099612E-02 
579	 6.87310083458149E-02 
580	 6.92094398453761E-02 
581	 6.96771985741047E-02 
582	 0.070198585225564 
583	 7.07119802952386E-02 
584	 7.12112849290221E-02 
585	 7.17867563219131E-02 
586	 7.23698934443588E-02 
587	 7.29507759268443E-02 
588	 7.35403422155332E-02 
589	 7.41695831146088E-02 
590	 0.074789399834705 
591	 7.53774331627376E-02 
592	 7.59406270359049E-02 
593	 7.64535949104861E-02 
594	 7.69980630623302E-02 
595	 7.76223649692071E-02 
596	 7.82385365071844E-02 
597	 7.88667337287274E-02 
598	 7.95054903485162E-02 
599	 0.080146092067086 
600	 8.08014013854192E-02 
601	 8.13938768660048E-02 
602	 0.081903760556101 
603	 8.24322478510251E-02 
604	 8.29492764381309E-02 
605	 8.34524388925548E-02 
606	 8.39481200927201E-02 
607	 8.44495178017174E-02 
608	 8.49474361196093E-02 
609	 8.54222536750891E-02 
610	 8.58465728142006E-02 
611	 8.62974059344717E-02 
612	 8.67404343639207E-02 
613	 8.71271157176366E-02 
614	 8.74587413291714E-02 
615	 8.78035681635427E-02 
616	 8.81524926241313E-02 
617	 8.84463632424091E-02 
618	 8.87602688919877E-02 
619	 8.90570168667679E-02 
620	 8.93109835558615E-02 
621	 8.95543301603934E-02 
622	 8.97818674448337E-02 
623	 9.00048882471001E-02 
624	 9.02375286954531E-02 
625	 9.04719947140855E-02 
626	 9.06829311175856E-02 
627	 0.090878445058389 
628	 9.11116444035964E-02 
629	 9.13131397978988E-02 
630	 9.14943856600992E-02 
631	 9.16750845372168E-02 
632	 9.18083157312617E-02 
633	 9.19551676617916E-02 
634	 9.21271211457755E-02 
635	 9.22965131736838E-02 
636	 9.25317606327507E-02 
637	 0.092722986734022 
638	 9.28217480953073E-02 
639	 9.30007605534275E-02 
640	 9.31982897290789E-02 
641	 9.33876233480043E-02 
642	 9.35600749851229E-02 
643	 9.37524970496014E-02 
644	 9.39236076397244E-02 
645	 9.40688304923842E-02 
646	 9.42455106654553E-02 
647	 9.44592832582283E-02 
648	 9.46623791199025E-02 
649	 9.48215452928665E-02 
650	 9.50345888291528E-02 
651	 9.52867448889782E-02 
652	 9.55185607717231E-02 
653	 9.56497035532127E-02 
654	 9.58833411845686E-02 
655	 9.61181773119908E-02 
656	 9.62849237146635E-02 
657	 9.65364617818407E-02 
658	 9.68158484912715E-02 
659	 9.70769442567105E-02 
660	 9.72910063234492E-02 
661	 9.75453567447541E-02 
662	 9.78104513035206E-02 
663	 0.098059397092164 
664	 9.82844398463442E-02 
665	 9.85493463621763E-02 
666	 9.88357319471455E-02 
667	 9.91124979570068E-02 
668	 9.94041428927286E-02 
669	 9.97272085617214E-02 
670	 0.100076430893959 
671	 0.100423927377805 
672	 0.100681332740764 
673	 0.100984180051664 
674	 0.101397259814035 
675	 0.101729844580898 
676	 0.102031443790525 
677	 0.102349325589399 
678	 0.1027214197598 
679	 0.103085650074186 
680	 0.103459378914277 
681	 0.103845371717955 
682	 0.104218791308575 
683	 0.104596865958932 
684	 0.1049957221932 
685	 0.105420263373559 
686	 0.105840489542627 
687	 0.106262763839224 
688	 0.106691497850055 
689	 0.107127401196597 
690	 0.107550722140245 
691	 0.107988615608824 
692	 0.108442883781481 
693	 0.108848712063587 
694	 0.109274931785147 
695	 0.109729039236631 
696	 0.11020165007465 
697	 0.110727929086671 
698	 0.111216187895135 
699	 0.111662488834196 
700	 0.112159025834363 
701	 0.112686820271125 
702	 0.113193099000694 
703	 0.113644899845471 
704	 0.114078180037948 
705	 0.114560454263674 
706	 0.115077554815837 
707	 0.115572098501612 
708	 0.116046538789999 
709	 0.116537300231375 
710	 0.117050882748943 
711	 0.117547280300809 
712	 0.118022321755317 
713	 0.118489712522104 
714	 0.118969411715604 
715	 0.119481607618396 
716	 0.119964817744411 
717	 0.120411757298483 
718	 0.120857158833884 
719	 0.121307746128621 
720	 0.121753171172942 
721	 0.122178918472078 
722	 0.122568140334146 
723	 0.122967062320673 
724	 0.123374466993654 
725	 0.123773486322598 
726	 0.124168959350052 
727	 0.12451028892618 
728	 0.124820579542455 
729	 0.125185304904594 
730	 0.125501313217714 
731	 0.125780258651381 
732	 0.126057606235875 
733	 0.126381886340701 
734	 0.126648709516907 
735	 0.126842504911447 
736	 0.126995933284414 
737	 0.127168225864161 
738	 0.127348318003914 
739	 0.127526140543728 
740	 0.127698599838771 
741	 0.127835495833208 
742	 0.127918266000341 
743	 0.12795531212081 
744	 0.128018072520803 
745	 0.128035617500476 
746	 0.128041270134328 
747	 0.128094003637445 
748	 0.128062831729448 
749	 0.12799185219868 
750	 0.12793654773614 
751	 0.127942892644809 
752	 0.127868782969572 
753	 0.127739139297265 
754	 0.127606534300445 
755	 0.127475197675577 
756	 0.127357244908893 
757	 0.127216739844937 
758	 0.127011205349001 
759	 0.1268429410949 
760	 0.12666984867376 
761	 0.126466706407533 
762	 0.12624729377861 
763	 0.12603375955188 
764	 0.125813243052919 
765	 0.125571019661495 
766	 0.125307975594173 
767	 0.12507899021991 
768	 0.124845081080242 
769	 0.124537729343421 
770	 0.124252635423442 
771	 0.12396613645752 
772	 0.12367584929648 
773	 0.123415758269421 
774	 0.123125787761925 
775	 0.122811377378973 
776	 0.122496171071143 
777	 0.122212613952478 
778	 0.121903561373499 
779	 0.121572567311933 
780	 0.121252584954567 
781	 0.120964163457007 
782	 0.120660742220153 
783	 0.120334025968433 
784	 0.12002231975475 
785	 0.119721472696012 
786	 0.119437236739379 
787	 0.119164854449248 
788	 0.118873166801456 
789	 0.118577598397087 
790	 0.118266094239239 
791	 0.117931747883552 
792	 0.117638896318787 
793	 0.117358630220217 
794	 0.117071578653203 
795	 0.116773125962922 
796	 0.116473573787912 
797	 0.116197567802177 
798	 0.115945096173639 
799	 0.115669376089802 
800	 0.115398102343847 
801	 0.11511853124763 
802	 0.114829925165716 
803	 0.114623430959683 
804	 0.114422810559857 
805	 0.114179873132589 
806	 0.11388298527921 
807	 0.113622086299469 
808	 0.113393151091914 
809	 0.113165960822842 
810	 0.112894072877915 
811	 0.112662000840057 
812	 0.112447870571051 
813	 0.112227719009521 
814	 0.112043466556221 
815	 0.111859154178799 
816	 0.111669492091427 
817	 0.111482113264798 
818	 0.111297400423461 
819	 0.111119884862934 
820	 0.110934937360202 
821	 0.110720057857368 
822	 0.11055593718992 
823	 0.110395341998885 
824	 0.110219173046741 
825	 0.110086622861109 
826	 0.10992809511744 
827	 0.109778246324522 
828	 0.109669530622107 
829	 0.109538820302274 
830	 0.109358695176739 
831	 0.109171291064976 
832	 0.109043199573698 
833	 0.108953266677304 
834	 0.108874076842311 
835	 0.108774674292192 
836	 0.108631714732916 
837	 0.108535215955943 
838	 0.108465951435615 
839	 0.108393306623133 
840	 0.108301342313303 
841	 0.108196443903875 
842	 0.108115391649974 
843	 0.108072026068057 
844	 0.107981181615384 
845	 0.107924753573841 
846	 0.107883406254566 
847	 0.107812516313917 
848	 0.107820072241205 
849	 0.107787342741076 
850	 0.107704861648313 
851	 0.107663274575737 
852	 0.107641522460114 
853	 0.107623377918252 
854	 0.107609903021683 
855	 0.107626971722035 
856	 0.107665320078101 
857	 0.107669474853169 
858	 0.107629992343772 
859	 0.107685430980875 
860	 0.107686798289136 
861	 0.107670718892513 
862	 0.107707789142386 
863	 0.107704986135225 
864	 0.107719086243473 
865	 0.107762412476149 
866	 0.107813588020612 
867	 0.107841987739147 
868	 0.10791311579655 
869	 0.108006073388331 
870	 0.108017747366416 
871	 0.108072270239136 
872	 0.108155127417415 
873	 0.108243453523857 
874	 0.108339246920533 
875	 0.108447586580841 
876	 0.108526032182115 
877	 0.108566483495307 
878	 0.108672502029498 
879	 0.108848501635435 
880	 0.109007680149193 
881	 0.109075227754642 
882	 0.109171254053538 
883	 0.109287224678072 
884	 0.109394612457809 
885	 0.109478794172419 
886	 0.109675427168786 
887	 0.109885224820512 
888	 0.110040197576263 
889	 0.110134410466642 
890	 0.110309281278642 
891	 0.110496662004145 
892	 0.110671696398856 
893	 0.110892817216773 
894	 0.111044493781504 
895	 0.1111890256746 
896	 0.1113772389508 
897	 0.111573573998536 
898	 0.111819106082969 
899	 0.112042480900703 
900	 0.112205090753172 
901	 0.112432094637179 
902	 0.112643053960707 
903	 0.112854178415707 
904	 0.113101065527 
905	 0.113364179675452 
906	 0.113663297591057 
907	 0.113962183367068 
908	 0.114219042073841 
909	 0.114507396075346 
910	 0.114779226001492 
911	 0.115055109286148 
912	 0.115379717332304 
913	 0.115610480289644 
914	 0.115904997569248 
915	 0.116269596599669 
916	 0.116565921449126 
917	 0.116842176129077 
918	 0.117121820326301 
919	 0.117436775246654 
920	 0.117819608458161 
921	 0.118200780701375 
922	 0.118528013211093 
923	 0.118829463976715 
924	 0.119233770893771 
925	 0.119617380613355 
926	 0.120041543147498 
927	 0.120495434508608 
928	 0.120773690951308 
929	 0.121155170812165 
930	 0.121639312059061 
931	 0.122139502387514 
932	 0.122562643213533 
933	 0.122911606274179 
934	 0.123316867405133 
935	 0.123851332977799 
936	 0.124328115702882 
937	 0.124678258471609 
938	 0.125028441489674 
939	 0.125520285210317 
940	 0.126092434444491 
941	 0.12660008373134 
942	 0.127063798141589 
943	 0.127556736350124 
944	 0.128046743448626 
945	 0.128514647547324 
946	 0.129003106561274 
947	 0.129558432130634 
948	 0.130123894143802 
949	 0.130630117949703 
950	 0.13114071281293 
951	 0.131755741236641 
952	 0.132401042784999 
953	 0.132909571344173 
954	 0.133380935088319 
955	 0.134016507599846 
956	 0.134668044259393 
957	 0.135327340958882 
958	 0.135962486084941 
959	 0.136531831716499 
960	 0.137015072361363 
961	 0.13756582162824 
962	 0.138241143859068 
963	 0.13897807680324 
964	 0.139516369803239 
965	 0.14013395493493 
966	 0.140854304623454 
967	 0.141511892547001 
968	 0.142084436049831 
969	 0.142767947232157 
970	 0.143502213321809 
971	 0.144098204142362 
972	 0.144788993430082 
973	 0.145534069888165 
974	 0.146279053738212 
975	 0.146985978388059 
976	 0.147701148260984 
977	 0.148351275880186 
978	 0.148996453835581 
979	 0.14974064904966 
980	 0.150398533610962 
981	 0.151083222463603 
982	 0.151813178702189 
983	 0.152544373814683 
984	 0.153302062705241 
985	 0.154119440828955 
986	 0.154875756853595 
987	 0.155459605265511 
988	 0.15624563275302 
989	 0.156853831129303 
990	 0.157407223450117 
991	 0.158211934756523 
992	 0.159054017314928 
993	 0.159848930221681 
994	 0.16059525041147 
995	 0.161326371565877 
996	 0.16202834661629 
997	 0.162702559087669 
998	 0.16341585544089 
999	 0.164196344943139 
1000	 0.164837700815425 
1001	 0.166129305125897 
1002	 0.166792012213195 
1003	 0.167521921343541 
1004	 0.168214874083307 
1005	 0.168868245081394 
1006	 0.169553081027074 
1007	 0.170268539441725 
1008	 0.170932399862783 
1009	 0.171565966373879 
1010	 0.172271695810709 
1011	 0.172896268132905 
1012	 0.173447822232709 
1013	 0.173998029847517 
1014	 0.174534817112666 
1015	 0.175044445628729 
1016	 0.175580167385427 
1017	 0.176164614305407 
1018	 0.176822938481421 
1019	 0.177387267315196 
1020	 0.177953221507915 
1021	 0.178567249481787 
1022	 0.179092506965658 
1023	 0.179627057699517 
1024	 0.180135651079576 
1025	 0.180632652502705 
1026	 0.181141936381662 
1027	 0.181622544766609 
1028	 0.182171228467898 
1029	 0.182741967162233 
1030	 0.183281613895084 
1031	 0.183781419471175 
1032	 0.184284756473274 
1033	 0.184719363119006 
1034	 0.185096500158265 
1035	 0.185524339011703 
1036	 0.185981768203671 
1037	 0.186417917050525 
1038	 0.186899530916974 
1039	 0.187369057725579 
1040	 0.187829625056028 
1041	 0.188313855376437 
1042	 0.188787147056721 
1043	 0.189228200136897 
1044	 0.189655249266821 
1045	 0.190040927510673 
1046	 0.190483070320666 
1047	 0.190933979050479 
1048	 0.191348933862063 
1049	 0.191810920615723 
1050	 0.192273251820065 
1051	 0.192715267567071 
1052	 0.193156654536138 
1053	 0.19355886119165 
1054	 0.193940386777443 
1055	 0.194335857818719 
1056	 0.194782994464715 
1057	 0.195216172327413 
1058	 0.195692229437463 
1059	 0.19612608488921 
1060	 0.196543621176541 
1061	 0.196918362986613 
1062	 0.197321136900406 
1063	 0.197737339955612 
1064	 0.198118720641554 
1065	 0.198519363548155 
1066	 0.198917148935415 
1067	 0.199297168725481 
1068	 0.199738893565108 
1069	 0.200163538027444 
1070	 0.200570539983287 
1071	 0.200980710180889 
1072	 0.201390096995315 
1073	 0.201778425851539 
1074	 0.202167164026639 
1075	 0.202576199967139 
1076	 0.202922463978543 
1077	 0.203265163275407 
1078	 0.203600774001171 
1079	 0.203947972298348 
1080	 0.204350817503234 
1081	 0.204766238263409 
1082	 0.205176683906544 
1083	 0.205548552211918 
1084	 0.205879030785375 
1085	 0.20623795945722 
1086	 0.206587639309933 
1087	 0.206946261913268 
1088	 0.207325561230814 
1089	 0.207696347928008 
1090	 0.208044601016608 
1091	 0.208343082702762 
1092	 0.208658423940027 
1093	 0.208994573553358 
1094	 0.20931657772216 
1095	 0.209664859227173 
1096	 0.21002204569104 
1097	 0.210347152098418 
1098	 0.210683286609147 
1099	 0.211033528005626 
1100	 0.21136934299983 
1101	 0.211692385521875 
1102	 0.212021724103613 
1103	 0.212363027255789 
1104	 0.212673307831956 
1105	 0.212977060202368 
1106	 0.213285308794649 
1107	 0.213611432094485 
1108	 0.213934157369258 
1109	 0.214252314139918 
1110	 0.21458781155087 
1111	 0.214898420798541 
1112	 0.215194610141225 
1113	 0.215483938721472 
1114	 0.21574175587318 
1115	 0.216033954629388 
1116	 0.216326226679296 
1117	 0.216633710425348 
1118	 0.216965495796369 
1119	 0.217307618286508 
1120	 0.21762484672126 
1121	 0.217945002575625 
1122	 0.21827934110717 
1123	 0.218603153849396 
1124	 0.218907597461445 
1125	 0.219221060326847 
1126	 0.219504662522896 
1127	 0.219742632258116 
1128	 0.220007734727913 
1129	 0.2202720940053 
1130	 0.220537183238796 
1131	 0.220815960301374 
1132	 0.221076981142006 
1133	 0.221325592943081 
1134	 0.221582461374621 
1135	 0.22183301525955 
1136	 0.222083643236863 
1137	 0.222344955978155 
1138	 0.222596668257892 
1139	 0.222841889071621 
1140	 0.223071725007849 
1141	 0.223316433039658 
1142	 0.223571808241616 
1143	 0.223808649110706 
1144	 0.224055227870226 
1145	 0.224274273169964 
1146	 0.224460471716222 
1147	 0.224655580199636 
1148	 0.224832288550001 
1149	 0.225026448698289 
1150	 0.225214272841819 
1151	 0.22543966853363 
1152	 0.225672695681463 
1153	 0.225878194430425 
1154	 0.226099747638697 
1155	 0.22633103175886 
1156	 0.226550921670188 
1157	 0.226776135675791 
1158	 0.226986704746315 
1159	 0.227186119201146 
1160	 0.227381867699543 
1161	 0.227557870848603 
1162	 0.227751416205949 
1163	 0.227961698380829 
1164	 0.22815443663261 
1165	 0.228338392442657 
1166	 0.228534808707335 
1167	 0.228734992947935 
1168	 0.228916080744031 
1169	 0.229098422313492 
1170	 0.229290419003852 
1171	 0.229472754004683 
1172	 0.22963614965355 
1173	 0.229812142334034 
1174	 0.22999659263116 
1175	 0.230176391337541 
1176	 0.230357420609318 
1177	 0.230532594228821 
1178	 0.230697422669153 
1179	 0.230877652073497 
1180	 0.231077400455902 
1181	 0.231250847858185 
1182	 0.231425770503093 
1183	 0.231585455796721 
1184	 0.231745642627238 
1185	 0.23188038720374 
1186	 0.232035921598532 
1187	 0.232213835737027 
1188	 0.232362409172032 
1189	 0.232498679282363 
1190	 0.232634326405889 
1191	 0.232747143053886 
1192	 0.232882755605311 
1193	 0.233040929616831 
1194	 0.233173643843314 
1195	 0.233297663819868 
1196	 0.23342816663063 
1197	 0.233537771559422 
1198	 0.233663005683588 
1199	 0.233797504396385 
1200	 0.233950826308329 
1201	 0.234092670580554 
1202	 0.234243982042511 
1203	 0.23437154610126 
1204	 0.234485361277544 
1205	 0.234607540726036 
1206	 0.234717859319262 
1207	 0.234834459565857 
1208	 0.234964498690905 
1209	 0.235082660877769 
1210	 0.235201454906398 
1211	 0.235303583310134 
1212	 0.235380863960941 
1213	 0.235478618215457 
1214	 0.235576484286214 
1215	 0.235672448208613 
1216	 0.235773047194341 
1217	 0.235893840739248 
1218	 0.235993694204346 
1219	 0.236080598130217 
1220	 0.236171660051206 
1221	 0.236258558878063 
1222	 0.236352240629906 
1223	 0.236452320195429 
1224	 0.236540056143875 
1225	 0.236629774152643 
1226	 0.236712009346169 
1227	 0.236771504930763 
1228	 0.23684899456624 
1229	 0.236945739835676 
1230	 0.237023656113796 
1231	 0.237090321400798 
1232	 0.237167555839495 
1233	 0.237244537272593 
1234	 0.237310627198567 
1235	 0.237387539662644 
1236	 0.237483196587661 
1237	 0.237559783805822 
1238	 0.237631221017994 
1239	 0.237692312403021 
1240	 0.23773175927721 
1241	 0.237798057707744 
1242	 0.237872707734348 
1243	 0.237939032694408 
1244	 0.238025124213265 
1245	 0.238095110858858 
1246	 0.238133068113498 
1247	 0.238195471092269 
1248	 0.238279038919454 
1249	 0.238348263018334 
1250	 0.238413356063024 
1251	 0.238482906695381 
1252	 0.238544520588529 
1253	 0.238588122159218 
1254	 0.238648131612743 
1255	 0.238727058749088 
1256	 0.238777515252221 
1257	 0.238816769228282 
1258	 0.23885617712301 
1259	 0.238874141562246 
1260	 0.238906616802426 
1261	 0.238952110885877 
1262	 0.238987083985387 
1263	 0.239019411911697 
1264	 0.239052166620476 
1265	 0.239079604241033 
1266	 0.239108258957575 
1267	 0.239141591243988 
1268	 0.239164666604908 
1269	 0.239196711056757 
1270	 0.239224290042249 
1271	 0.239267622699169 
1272	 0.239325173520268 
1273	 0.239374416770847 
1274	 0.239426590773616 
1275	 0.239481187057126 
1276	 0.239535449689259 
1277	 0.239589670974079 
1278	 0.239642744598334 
1279	 0.239705902977376 
1280	 0.2397648006679 
1281	 0.239836563480261 
1282	 0.239936099756421 
1283	 0.240019103140729 
1284	 0.240106552884886 
1285	 0.24017791862221 
1286	 0.240238418397804 
1287	 0.240310289257226 
1288	 0.240382245819886 
1289	 0.240461565216979 
1290	 0.240526071468996 
1291	 0.240585603298207 
1292	 0.240644142128914 
1293	 0.240690598842322 
1294	 0.240746235382396 
1295	 0.240814845722598 
1296	 0.240865624741125 
1297	 0.240908201650383 
1298	 0.240948551795885 
1299	 0.240984977892448 
1300	 0.241012094508322 
1301	 0.241017238407241 
1302	 0.241046957945851 
1303	 0.241095194254167 
1304	 0.241118374392672 
1305	 0.241142256392397 
1306	 0.241184204720869 
1307	 0.241184486749653 
1308	 0.241160138334882 
1309	 0.241156428023959 
1310	 0.241161702399953 
1311	 0.241143795999556 
1312	 0.241122476492135 
1313	 0.241096640163991 
1314	 0.241042855803775 
1315	 0.241015243304893 
1316	 0.24100556611738 
1317	 0.240987125271502 
1318	 0.24097163303286 
1319	 0.240954400584096 
1320	 0.240951735349903 
1321	 0.24091327594859 
1322	 0.240846695060068 
1323	 0.240801116672999 
1324	 0.240735278404181 
1325	 0.24065708631064 
1326	 0.240614724308216 
1327	 0.240583329745668 
1328	 0.240543545352775 
1329	 0.240506961119199 
1330	 0.240461793744714 
1331	 0.240422068384606 
1332	 0.240353489723955 
1333	 0.240260113847544 
1334	 0.240185922743639 
1335	 0.240098075247106 
1336	 0.240025657117347 
1337	 0.239971002449987 
1338	 0.239909859529292 
1339	 0.239848799044419 
1340	 0.239784739528877 
1341	 0.239723326768027 
1342	 0.239662116217654 
1343	 0.2395928015668 
1344	 0.239532474362941 
1345	 0.239491387781907 
1346	 0.239437119342057 
1347	 0.239365948773135 
1348	 0.239286451385798 
1349	 0.239189847109545 
1350	 0.239096505943872 
1351	 0.239018404793941 
1352	 0.238959211614855 
1353	 0.238883614367375 
1354	 0.238805397527841 
1355	 0.238732148194786 
1356	 0.238655225742808 
1357	 0.23858487408795 
1358	 0.23852816658639 
1359	 0.238454410519447 
1360	 0.238358349437103 
1361	 0.238290790796107 
1362	 0.238241225064653 
1363	 0.238178765133239 
1364	 0.238132971517591 
1365	 0.238071606337268 
1366	 0.237995427967116 
1367	 0.237904469061543 
1368	 0.237832398119687 
1369	 0.23776426843766 
1370	 0.237659739878352 
1371	 0.237539965588674 
1372	 0.237408339497207 
1373	 0.23724311252771 
1374	 0.237072353831433 
1375	 0.23690604523128 
1376	 0.236693716131212 
1377	 0.236459489348148 
1378	 0.236187978718303 
1379	 0.235873658595224 
1380	 0.235552510400278 
1381	 0.235200044050996 
1382	 0.234835672147423 
1383	 0.234487418016346 
1384	 0.234068713154285 
1385	 0.233618320613868 
1386	 0.233128811049328 
1387	 0.232572657429002 
1388	 0.232009978699163 
1389	 0.231440534857198 
1390	 0.230820750167841 
1391	 0.230156863792161 
1392	 0.229457489137501 
1393	 0.228694160753043 
1394	 0.227891365377957 
1395	 0.227032231497698 
1396	 0.226166720627377 
1397	 0.22530130622178 
1398	 0.224395443498323 
1399	 0.22352644706619 
1400	 0.222679560946378 
1401	 0.221817669263538 
1402	 0.220949655390384 
1403	 0.220103522463764 
1404	 0.219241169086419 
1405	 0.218438333006184 
1406	 0.217669850007883 
1407	 0.216913014741464 
1408	 0.216175612161892 
1409	 0.215480958950499 
1410	 0.214787629866748 
1411	 0.214170203230303 
1412	 0.21361089893402 
1413	 0.213095223182912 
1414	 0.212637246436156 
1415	 0.212221649038004 
1416	 0.211849957915552 
1417	 0.211506072189362 
1418	 0.211168870225903 
1419	 0.210867139257946 
1420	 0.210594226267174 
1421	 0.210342341694279 
1422	 0.21012626204358 
1423	 0.209913474194726 
1424	 0.209687833468899 
1425	 0.209446931245136 
1426	 0.20923603318915 
1427	 0.209032583973412 
1428	 0.208842218872488 
1429	 0.208663814956937 
1430	 0.20851573821585 
1431	 0.208380294442358 
1432	 0.208253763865384 
1433	 0.208159385864186 
1434	 0.208068182002795 
1435	 0.207970431750688 
1436	 0.207899195797441 
1437	 0.207858372799446 
1438	 0.207814756757307 
1439	 0.207778605617167 
1440	 0.207760338061349 
1441	 0.207726898505419 
1442	 0.2076944237887 
1443	 0.207667582667312 
1444	 0.207628397457026 
1445	 0.207609260526188 
1446	 0.207613756260157 
1447	 0.207631751019947 
1448	 0.207653671575148 
1449	 0.207662613131438 
1450	 0.207668054701122 
1451	 0.207674427449666 
1452	 0.20766129787079 
1453	 0.207683221248599 
1454	 0.207724444908286 
1455	 0.207758711171975 
1456	 0.207800488343998 
1457	 0.207856667416863 
1458	 0.20791798651305 
1459	 0.207982028459534 
1460	 0.20805990776208 
1461	 0.208143598965159 
1462	 0.208221942891565 
1463	 0.208316557004794 
1464	 0.208431126975744 
1465	 0.208544042209907 
1466	 0.208655021076581 
1467	 0.208784520484805 
1468	 0.208907407131799 
1469	 0.209072448933829 
1470	 0.209272399403695 
1471	 0.209473989597615 
1472	 0.20970740896962 
1473	 0.209964862260662 
1474	 0.210190752114265 
1475	 0.210432838744531 
1476	 0.210677315889697 
1477	 0.210909683031066 
1478	 0.211154842002513 
1479	 0.2114020031624 
1480	 0.21165041577626 
1481	 0.211896309477801 
1482	 0.212150873073158 
1483	 0.212413095802876 
1484	 0.212673998137157 
1485	 0.212943684031287 
1486	 0.213201751281781 
1487	 0.213447152838678 
1488	 0.213706979460741 
1489	 0.213973504075875 
1490	 0.214233785042542 
1491	 0.214509376567272 
1492	 0.214761972717238 
1493	 0.214989900673909 
1494	 0.215230249452729 
1495	 0.215466032916447 
1496	 0.215706424650437 
1497	 0.215964268116747 
1498	 0.216201669201206 
1499	 0.216423201067328 
1500	 0.216650394532814 
1501	 0.216870463072428 
1502	 0.217087286457206 
1503	 0.217297639888208 
1504	 0.217525267385851 
1505	 0.217745464329197 
1506	 0.217977134176559 
1507	 0.218230518974698 
1508	 0.218472057344951 
1509	 0.218695893298916 
1510	 0.218911499255306 
1511	 0.219103875263205 
1512	 0.219294222636317 
1513	 0.219487542535646 
1514	 0.219679288242802 
1515	 0.219877946233264 
1516	 0.220076582925453 
1517	 0.220275466439402 
1518	 0.220478856383858 
1519	 0.220673368041935 
1520	 0.220866285623667 
1521	 0.22105164580829 
1522	 0.221229061294011 
1523	 0.221407456052357 
1524	 0.22157929792719 
1525	 0.221755844656553 
1526	 0.221935769703209 
1527	 0.22210915199371 
1528	 0.222279912143372 
1529	 0.222453568385644 
1530	 0.2226296654793 
1531	 0.222794124403894 
1532	 0.222958412796682 
1533	 0.223113108214812 
1534	 0.223253364988642 
1535	 0.223397438451516 
1536	 0.223535364643742 
1537	 0.223674428711574 
1538	 0.223818732157931 
1539	 0.223950813095877 
1540	 0.224075511732306 
1541	 0.224206648183544 
1542	 0.224333261046897 
1543	 0.224455032187585 
1544	 0.224574314703061 
1545	 0.224698266690369 
1546	 0.224824062447731 
1547	 0.224945301331671 
1548	 0.225054494270871 
1549	 0.225168838794253 
1550	 0.225266369190372 
1551	 0.22536311878153 
1552	 0.225487712318079 
1553	 0.225623522214716 
1554	 0.225760544931908 
1555	 0.225884910278275 
1556	 0.225988265788033 
1557	 0.226084213283819 
1558	 0.226189808545172 
1559	 0.226300368605051 
1560	 0.226411552081795 
1561	 0.226543280526265 
1562	 0.226640640099947 
1563	 0.22671400929564 
1564	 0.226809852049386 
1565	 0.226899267003595 
1566	 0.226995080720727 
1567	 0.227115560646516 
1568	 0.227201961583606 
1569	 0.227266732904993 
1570	 0.22733917337682 
1571	 0.227400989453325 
1572	 0.227470961494332 
1573	 0.227541985729808 
1574	 0.227618134315886 
1575	 0.227700847832588 
1576	 0.227776152193166 
1577	 0.227857223789206 
1578	 0.22792712766608 
1579	 0.227988366179302 
1580	 0.228043180702148 
1581	 0.228073727808105 
1582	 0.228142209110543 
1583	 0.228234443643017 
1584	 0.228304131981785 
1585	 0.228394697778025 
1586	 0.228461734894043 
1587	 0.22849458345314 
1588	 0.228540633913164 
1589	 0.228587936369393 
1590	 0.228634605190522 
1591	 0.228677627851573 
1592	 0.228723475702131 
1593	 0.228773631120208 
1594	 0.228821031761532 
1595	 0.228867474715241 
1596	 0.228912097438922 
1597	 0.228948995650457 
1598	 0.228998169625212 
1599	 0.229059812921115 
1600	 0.229111343254941 
1601	 0.22917396194353 
1602	 0.229219472199323 
1603	 0.22923661684241 
1604	 0.229269662272376 
1605	 0.229309334994404 
1606	 0.229338670737387 
1607	 0.229361357910433 
1608	 0.229400032225882 
1609	 0.229436291830647 
1610	 0.229477229832745 
1611	 0.229515776692693 
1612	 0.229544226426002 
1613	 0.229544148102205 
1614	 0.229543217805964 
1615	 0.229566793440809 
1616	 0.229593959772486 
1617	 0.229631192282504 
1618	 0.229664956413412 
1619	 0.229691770326648 
1620	 0.229722781775662 
1621	 0.229756425728301 
1622	 0.229797027861104 
1623	 0.229821378168795 
1624	 0.229844378822837 
1625	 0.229857735261918 
1626	 0.229855914102917 
1627	 0.229860044904846 
1628	 0.229855397478659 
1629	 0.229874547826716 
1630	 0.229902155784175 
1631	 0.229930188302972 
1632	 0.229976995658647 
1633	 0.230009092046674 
1634	 0.230036524588768 
1635	 0.230053696232106 
1636	 0.23006479387007 
1637	 0.230079247884135 
1638	 0.230086368275472 
1639	 0.230091225239578 
1640	 0.230094953644815 
1641	 0.230107335504146 
1642	 0.230112714923102 
1643	 0.230130010372822 
1644	 0.230170054055595 
1645	 0.230187378503367 
1646	 0.230193515964666 
1647	 0.230205937209365 
1648	 0.230213020060612 
1649	 0.230224654280394 
1650	 0.230245305028823 
1651	 0.230253524285086 
1652	 0.230255107875764 
1653	 0.230257518828304 
1654	 0.230255894075232 
1655	 0.230252118064747 
1656	 0.230253981109926 
1657	 0.230237718250235 
1658	 0.230210228446245 
1659	 0.230179458844241 
1660	 0.230124859031622 
1661	 0.230099689415161 
1662	 0.230085280487188 
1663	 0.230070343615109 
1664	 0.230074852666336 
1665	 0.230064064944172 
1666	 0.230037889500458 
1667	 0.230029630737048 
1668	 0.230033225865143 
1669	 0.23002390777423 
1670	 0.230019789885729 
1671	 0.230006377241837 
1672	 0.229976865117955 
1673	 0.22995580865856 
1674	 0.229932712144476 
1675	 0.229920035616989 
1676	 0.229910703431273 
1677	 0.229906416425463 
1678	 0.229915939746521 
1679	 0.229916922724069 
1680	 0.229924121064605 
1681	 0.229912000579482 
1682	 0.229891811953378 
1683	 0.229862987749251 
1684	 0.229807918551083 
1685	 0.22977693916922 
1686	 0.229755842680215 
1687	 0.229726501850306 
1688	 0.229710526578913 
1689	 0.229673597255113 
1690	 0.229607823736861 
1691	 0.229571845672231 
1692	 0.229538205675239 
1693	 0.229516366536501 
1694	 0.229527365344562 
1695	 0.229505425858484 
1696	 0.229471432641693 
1697	 0.229440320475761 
1698	 0.229392994590727 
1699	 0.229359278730739 
1700	 0.229343082541201 
1701	 0.229302180754184 
1702	 0.22924453530246 
1703	 0.229202459463108 
1704	 0.229158463265654 
1705	 0.229107489828458 
1706	 0.229078439300336 
1707	 0.22901170998217 
1708	 0.228898884304366 
1709	 0.228828159005078 
1710	 0.228757331515554 
1711	 0.228698898274852 
1712	 0.228676525508773 
1713	 0.228627187858482 
1714	 0.228558136512762 
1715	 0.228507858479703 
1716	 0.228465766058906 
1717	 0.228410012159958 
1718	 0.228357797319091 
1719	 0.228307165296392 
1720	 0.228252061013884 
1721	 0.228183778590277 
1722	 0.22811183137158 
1723	 0.228041195335831 
1724	 0.22795429125806 
1725	 0.227883175754899 
1726	 0.227832819273256 
1727	 0.227762674292018 
1728	 0.227683766019811 
1729	 0.227593130794686 
1730	 0.227494683002518 
1731	 0.227394883246965 
1732	 0.227273721121741 
1733	 0.227184563716491 
1734	 0.227114635718201 
1735	 0.22702191887707 
1736	 0.226937962926612 
1737	 0.226845856167795 
1738	 0.226734189704194 
1739	 0.226631947718145 
1740	 0.226540032190218 
1741	 0.226434827313577 
1742	 0.22631796382716 
1743	 0.226208283602065 
1744	 0.226097070415062 
1745	 0.225989281529234 
1746	 0.225882384444155 
1747	 0.225771519245221 
1748	 0.225670112019629 
1749	 0.225560085524431 
1750	 0.225458129310916 
1751	 0.225343507698708 
1752	 0.225229749953916 
1753	 0.225109208145581 
1754	 0.224962804681304 
1755	 0.224834128445571 
1756	 0.22471154015864 
1757	 0.224571814476661 
1758	 0.224456637144633 
1759	 0.224360904608708 
1760	 0.22424696876068 
1761	 0.224159969849775 
1762	 0.224077579330249 
1763	 0.223949398583725 
1764	 0.223837599410975 
1765	 0.223729264288244 
1766	 0.223597513172119 
1767	 0.223478776686479 
1768	 0.223358156817933 
1769	 0.223236769147239 
1770	 0.223131371917899 
1771	 0.223044904646376 
1772	 0.222952372727843 
1773	 0.222848320652711 
1774	 0.222779983920469 
1775	 0.222720037237532 
1776	 0.222649467889793 
1777	 0.222599026551955 
1778	 0.222536233977569 
1779	 0.222460827447074 
1780	 0.222392332961454 
1781	 0.22231428971796 
1782	 0.222225016071447 
1783	 0.222142234084251 
1784	 0.222091729840822 
1785	 0.222082099479037 
1786	 0.222042877319252 
1787	 0.222011949842403 
1788	 0.221965285180972 
1789	 0.221876729711506 
1790	 0.221830643017357 
1791	 0.221818421857621 
1792	 0.221765632222385 
1793	 0.221699618745315 
1794	 0.221668226039796 
1795	 0.221629553200444 
1796	 0.221597923966124 
1797	 0.221612202115005 
1798	 0.221587142081148 
1799	 0.22152237152754 
1800	 0.221482624655732 
1801	 0.216134713205629 
1802	 0.216356827841784 
1803	 0.216588500998493 
1804	 0.2168338012711 
1805	 0.217102748410407 
1806	 0.217317986967462 
1807	 0.217485564945277 
1808	 0.217653202112824 
1809	 0.217823833744985 
1810	 0.217963091473162 
1811	 0.218074385754544 
1812	 0.218189976649214 
1813	 0.218259309067391 
1814	 0.218292882101541 
1815	 0.218304789007517 
1816	 0.218297409366703 
1817	 0.218316164655287 
1818	 0.218344057187334 
1819	 0.218366884875598 
1820	 0.218396865789775 
1821	 0.218423896467494 
1822	 0.218444467916702 
1823	 0.21848809766011 
1824	 0.21852116861872 
1825	 0.218539793268773 
1826	 0.218571885335487 
1827	 0.218590801390064 
1828	 0.218591746458523 
1829	 0.218597439717902 
1830	 0.218570164009111 
1831	 0.218517065312937 
1832	 0.218443500870509 
1833	 0.218353319276546 
1834	 0.218292035826846 
1835	 0.218232847812091 
1836	 0.218159356173228 
1837	 0.218103061718838 
1838	 0.218046743081861 
1839	 0.217989305403595 
1840	 0.217938171301465 
1841	 0.217879174800868 
1842	 0.217803727729281 
1843	 0.217730208659164 
1844	 0.217660364024351 
1845	 0.217580429596026 
1846	 0.217496306587144 
1847	 0.217401814289609 
1848	 0.217265077048921 
1849	 0.217125086472129 
1850	 0.216988178003134 
1851	 0.216857767709014 
1852	 0.216696327089163 
1853	 0.216531141054654 
1854	 0.216340337664592 
1855	 0.216099890225065 
1856	 0.215856123599751 
1857	 0.215580811394283 
1858	 0.215265946166136 
1859	 0.214935136845775 
1860	 0.214556255056057 
1861	 0.214131135398928 
1862	 0.213661283678581 
1863	 0.213187135850774 
1864	 0.212688385870619 
1865	 0.212151135753617 
1866	 0.211561124344245 
1867	 0.210905218357109 
1868	 0.210215628738886 
1869	 0.209448415654289 
1870	 0.208621415758154 
1871	 0.207742157428069 
1872	 0.20682726655963 
1873	 0.2058039379728 
1874	 0.204727329484621 
1875	 0.20360813478316 
1876	 0.202400240681433 
1877	 0.20113314575638 
1878	 0.199799146679387 
1879	 0.198362206891872 
1880	 0.196828796512706 
1881	 0.195212418948234 
1882	 0.193487841513965 
1883	 0.191653841427228 
1884	 0.189702381406507 
1885	 0.187709291648096 
1886	 0.185640954877117 
1887	 0.183472177989435 
1888	 0.181277533075488 
1889	 0.179003793601779 
1890	 0.176657546356261 
1891	 0.174348127638822 
1892	 0.171990835650083 
1893	 0.16968646947299 
1894	 0.167392818926583 
1895	 0.165153654459463 
1896	 0.162892990089236 
1897	 0.160703925854835 
1898	 0.158553362882464 
1899	 0.156462279505833 
1900	 0.154493739420219 
1901	 0.152597433780809 
1902	 0.150803992657731 
1903	 0.149129943345797 
1904	 0.147522208525587 
1905	 0.145978800540738 
1906	 0.144570158207606 
1907	 0.143249518574912 
1908	 0.142010771328401 
1909	 0.140895089873782 
1910	 0.139852221386169 
1911	 0.138882623481599 
1912	 0.137977283801249 
1913	 0.137129383771599 
1914	 0.136335821665028 
1915	 0.135606634962624 
1916	 0.134936814647589 
1917	 0.134342871513354 
1918	 0.133800959206094 
1919	 0.133314429181212 
1920	 0.132877784193903 
1921	 0.13248095094092 
1922	 0.132144541294981 
1923	 0.131862822960634 
1924	 0.131607655673517 
1925	 0.131403401213247 
1926	 0.131225947242625 
1927	 0.131071212088774 
1928	 0.130962130414671 
1929	 0.130891134677975 
1930	 0.130854828480959 
1931	 0.130867129364801 
1932	 0.130890174234215 
1933	 0.130945917506007 
1934	 0.131050618176984 
1935	 0.131167930505085 
1936	 0.131305938079425 
1937	 0.131472444263863 
1938	 0.131674371299554 
1939	 0.131881641485029 
1940	 0.13210990424718 
1941	 0.132345818901036 
1942	 0.132604731687094 
1943	 0.132887276345036 
1944	 0.133193936561615 
1945	 0.133522161481699 
1946	 0.133864603217152 
1947	 0.134222038697526 
1948	 0.134597746438165 
1949	 0.135009644121451 
1950	 0.135408300653791 
1951	 0.135814072937619 
1952	 0.136223160034275 
1953	 0.136622158381054 
1954	 0.137044691302768 
1955	 0.137492790288141 
1956	 0.137938707116303 
1957	 0.138404903750548 
1958	 0.138890428513004 
1959	 0.139375737000502 
1960	 0.139875300341357 
1961	 0.140380869101261 
1962	 0.140899855204693 
1963	 0.141416215090088 
1964	 0.141940539805125 
1965	 0.142455206545457 
1966	 0.142972117651973 
1967	 0.143500988014717 
1968	 0.144034034992157 
1969	 0.144579193342237 
1970	 0.145112970948362 
1971	 0.145646561474617 
1972	 0.14618216312047 
1973	 0.14670454378452 
1974	 0.147244855794693 
1975	 0.147796269770162 
1976	 0.148354132825553 
1977	 0.148919150606436 
1978	 0.149492638503391 
1979	 0.150049339818553 
1980	 0.150586721538105 
1981	 0.15112849608669 
1982	 0.151647482485579 
1983	 0.152191888899485 
1984	 0.15274860226913 
1985	 0.153306387167001 
1986	 0.153875331248968 
1987	 0.154437719377883 
1988	 0.154998667514277 
1989	 0.155568561270042 
1990	 0.156118710772552 
1991	 0.156676155599186 
1992	 0.157239318828417 
1993	 0.157815583716924 
1994	 0.158356438484344 
1995	 0.158888044585143 
1996	 0.159419366470335 
1997	 0.159918300920562 
1998	 0.160439347036737 
1999	 0.160970368587688 
2000	 0.161511170999375 
2001	 0.162072892284461 
2002	 0.162607935057176 
2003	 0.163151215875128 
2004	 0.16369196993697 
2005	 0.164217533645471 
2006	 0.164724081022768 
2007	 0.165229319393991 
2008	 0.165722266379444 
2009	 0.166225795377208 
2010	 0.166730186330873 
2011	 0.16722413664283 
2012	 0.167730425132819 
2013	 0.168215247562762 
2014	 0.168676980357116 
2015	 0.16913369491815 
2016	 0.169583554910929 
2017	 0.170051690775041 
2018	 0.170524134566609 
2019	 0.171004570506577 
2020	 0.171482190119403 
2021	 0.171978709870242 
2022	 0.172450336589216 
2023	 0.172907138728811 
2024	 0.173371077604468 
2025	 0.173830330131215 
2026	 0.174282169541851 
2027	 0.17474340361367 
2028	 0.175187869255179 
2029	 0.17561084326156 
2030	 0.176006559178006 
2031	 0.176419813182224 
2032	 0.176820259914335 
2033	 0.177229527710526 
2034	 0.177654754845559 
2035	 0.178064672110532 
2036	 0.178472866734735 
2037	 0.178866876667349 
2038	 0.179250279742908 
2039	 0.179628631751774 
2040	 0.17999708630989 
2041	 0.18035714153656 
2042	 0.180710782414842 
2043	 0.181060332005632 
2044	 0.181406018537116 
2045	 0.181734487819329 
2046	 0.182081376703802 
2047	 0.18244037892342 
2048	 0.182788232243353 
2049	 0.18315281667933 
2050	 0.183487534628599 
2051	 0.183782441172669 
2052	 0.184106761550945 
2053	 0.184426775828933 
2054	 0.184752798476445 
2055	 0.185096434349808 
2056	 0.185453321641774 
2057	 0.185785769595209 
2058	 0.186115458894674 
2059	 0.186424539404784 
2060	 0.186709009223474 
2061	 0.187007551678372 
2062	 0.187289208425744 
2063	 0.187586753120052 
2064	 0.18790647886813 
2065	 0.188210386939517 
2066	 0.188525207117821 
2067	 0.188812933266032 
2068	 0.189074393727066 
2069	 0.189334508028284 
2070	 0.189614237139867 
2071	 0.189888285498833 
2072	 0.190164228792004 
2073	 0.190459090006196 
2074	 0.190745986104567 
2075	 0.191025198807748 
2076	 0.191298830581055 
2077	 0.191577258085624 
2078	 0.191850441968065 
2079	 0.192105132589018 
2080	 0.192368657150179 
2081	 0.192641310067705 
2082	 0.192913857794437 
2083	 0.193198113614383 
2084	 0.193453309827557 
2085	 0.193722042463569 
2086	 0.193994904827149 
2087	 0.194263378033295 
2088	 0.19453084402853 
2089	 0.194792638572949 
2090	 0.19506046863713 
2091	 0.195308089086508 
2092	 0.195547781577137 
2093	 0.195772409915142 
2094	 0.195958546174575 
2095	 0.196175482046405 
2096	 0.196396591160506 
2097	 0.196619951775231 
2098	 0.196854069939373 
2099	 0.197107011680593 
2100	 0.197338991694831 
2101	 0.197555875684147 
2102	 0.19778745914908 
2103	 0.198024331875903 
2104	 0.198255809996691 
2105	 0.19848144320941 
2106	 0.19872541677005 
2107	 0.198981716300712 
2108	 0.199225091129291 
2109	 0.199481079824389 
2110	 0.199725940182485 
2111	 0.199945458330698 
2112	 0.200179686980608 
2113	 0.200425034782462 
2114	 0.20067195122906 
2115	 0.200897837713307 
2116	 0.201115390805161 
2117	 0.201337670748935 
2118	 0.201535081295116 
2119	 0.201767508320667 
2120	 0.202036522227081 
2121	 0.202268096396232 
2122	 0.202499797527199 
2123	 0.202720132119599 
2124	 0.202925189826559 
2125	 0.203114229925537 
2126	 0.203302376407083 
2127	 0.203470309941156 
2128	 0.20360381381744 
2129	 0.203740567523109 
2130	 0.203865826655636 
2131	 0.203995309574205 
2132	 0.204111313104503 
2133	 0.20421627492614 
2134	 0.204326036594228 
2135	 0.204434217496096 
2136	 0.204529793245531 
2137	 0.20462703918632 
2138	 0.204708506481467 
2139	 0.204769464672841 
2140	 0.204835630970295 
2141	 0.204903160944717 
2142	 0.20495446398747 
2143	 0.205007036470775 
2144	 0.205037203989432 
2145	 0.205037692909638 
2146	 0.205043905623981 
2147	 0.205041331748527 
2148	 0.20502779277703 
2149	 0.205023835519157 
2150	 0.205031298049968 
2151	 0.205014994515148 
2152	 0.20500328462491 
2153	 0.20495389592696 
2154	 0.204873888322946 
2155	 0.204795310715837 
2156	 0.204694965825598 
2157	 0.204593231254725 
2158	 0.204489880125279 
2159	 0.204374258638753 
2160	 0.204232763889005 
2161	 0.204108124535359 
2162	 0.203994756779261 
2163	 0.203866002743693 
2164	 0.203736810247041 
2165	 0.20360504320059 
2166	 0.203462885663114 
2167	 0.203295364302233 
2168	 0.203157520605303 
2169	 0.203036454226104 
2170	 0.202893601126067 
2171	 0.20275646948129 
2172	 0.202604839985241 
2173	 0.202432995817019 
2174	 0.20226600574505 
2175	 0.202093636373501 
2176	 0.201926784459753 
2177	 0.201769352538629 
2178	 0.201589532447944 
2179	 0.201410303861061 
2180	 0.20121533041112 
2181	 0.200985202845712 
2182	 0.20076787407564 
2183	 0.200545126625596 
2184	 0.200328588615181 
2185	 0.200119513792923 
2186	 0.199921004851778 
2187	 0.199710749062145 
2188	 0.199488479602299 
2189	 0.199298296882073 
2190	 0.19910114191167 
2191	 0.198944914736803 
2192	 0.198846081195849 
2193	 0.198713886547787 
2194	 0.198586889754878 
2195	 0.198458297539999 
2196	 0.198300509645438 
2197	 0.198180202137027 
2198	 0.198089882592257 
2199	 0.197994566906556 
2200	 0.197908745769637 
2201	 0.197836047565504 
2202	 0.197770550839075 
2203	 0.19769621468876 
2204	 0.197665806363564 
2205	 0.197660517753014 
2206	 0.197676392719434 
2207	 0.197730011196091 
2208	 0.197767686314928 
2209	 0.197826167211939 
2210	 0.197867236668582 
2211	 0.197894819717053 
2212	 0.197936173539902 
2213	 0.197972601851479 
2214	 0.198024317756022 
2215	 0.19810510709194 
2216	 0.198158829770765 
2217	 0.198211658608416 
2218	 0.198256295319886 
2219	 0.198268394475714 
2220	 0.198300079165534 
2221	 0.198348297097214 
2222	 0.198385039166358 
2223	 0.198405314374655 
2224	 0.198454731220879 
2225	 0.198484070696529 
2226	 0.198496549338305 
2227	 0.19852626202738 
2228	 0.198556076506043 
2229	 0.198604989870223 
2230	 0.198681059311334 
2231	 0.198714344150326 
2232	 0.198753412803211 
2233	 0.198765219128459 
2234	 0.198724776528418 
2235	 0.198716269521555 
2236	 0.198718544530817 
2237	 0.198710518090235 
2238	 0.198721331936053 
2239	 0.19869370387269 
2240	 0.198637820878737 
2241	 0.198581323278476 
2242	 0.198481872181455 
2243	 0.198415408532774 
2244	 0.198371876600758 
2245	 0.19832111716077 
2246	 0.198277594057814 
2247	 0.198230593936651 
2248	 0.198154930771161 
2249	 0.198047160725011 
2250	 0.1979685583734 
2251	 0.19789105661436 
2252	 0.197801794429954 
2253	 0.197708325861315 
2254	 0.197637220702837 
2255	 0.197560871448154 
2256	 0.197493019624641 
2257	 0.197452856958417 
2258	 0.197406044299425 
2259	 0.197337310035214 
2260	 0.197300506876982 
2261	 0.197310419831365 
2262	 0.197283197211323 
2263	 0.197253607332938 
2264	 0.19721346585572 
2265	 0.197151111146334 
2266	 0.197086166820721 
2267	 0.196999404222527 
2268	 0.196938609639356 
2269	 0.196860025668821 
2270	 0.196828177143625 
2271	 0.196842666434756 
2272	 0.196848745369316 
2273	 0.196825924817327 
2274	 0.19677815584975 
2275	 0.196738576578977 
2276	 0.196660635531397 
2277	 0.196623628447155 
2278	 0.196615561113325 
2279	 0.196590575394978 
2280	 0.196566000320044 
2281	 0.196537149638092 
2282	 0.196503435104214 
2283	 0.196483134792673 
2284	 0.196471192403514 
2285	 0.196445830823313 
2286	 0.196430923510291 
2287	 0.196399504236428 
2288	 0.196362868712159 
2289	 0.196296921067557 
2290	 0.196202056799879 
2291	 0.196117633077361 
2292	 0.195991259597673 
2293	 0.195902361328494 
2294	 0.195870043369221 
2295	 0.195792262106875 
2296	 0.195690207847618 
2297	 0.195612632992352 
2298	 0.195506154108525 
2299	 0.195386132528467 
2300	 0.195338446038623 
2301	 0.195292663523319 
2302	 0.195202130774774 
2303	 0.195107879578187 
2304	 0.195012693323357 
2305	 0.19488085385617 
2306	 0.194763774825704 
2307	 0.194672559074884 
2308	 0.194562411181211 
2309	 0.194429520567256 
2310	 0.194299470646987 
2311	 0.194172581552641 
2312	 0.194032473852545 
2313	 0.193874516734204 
2314	 0.1937297759439 
2315	 0.193586428215628 
2316	 0.193447257919138 
2317	 0.193306243530861 
2318	 0.193170841218284 
2319	 0.193063593874799 
2320	 0.192915639529103 
2321	 0.192749180325434 
2322	 0.192586572096021 
2323	 0.192389324326192 
2324	 0.192209534861337 
2325	 0.192040253133442 
2326	 0.191875779417024 
2327	 0.191715089754482 
2328	 0.191555152524279 
2329	 0.191422022046701 
2330	 0.191270632149597 
2331	 0.191079939835306 
2332	 0.190945943457893 
2333	 0.190821720922413 
2334	 0.190692991055724 
2335	 0.190619448895381 
2336	 0.190484741696186 
2337	 0.190299999019207 
2338	 0.190123416886781 
2339	 0.189922948725409 
2340	 0.189744047936259 
2341	 0.189568298311725 
2342	 0.189369194538438 
2343	 0.189165872207192 
2344	 0.188982717893827 
2345	 0.188791812965041 
2346	 0.188612814282596 
2347	 0.188401633341232 
2348	 0.188158529443044 
2349	 0.187938991115077 
2350	 0.187713063916329 
2351	 0.187525377342875 
2352	 0.187395330102164 
2353	 0.187193053455732 
2354	 0.186953391043039 
2355	 0.18671227755939 
2356	 0.186448912198114 
2357	 0.186184254352064 
2358	 0.185913315367346 
2359	 0.185664416415142 
2360	 0.185390613861896 
2361	 0.185151103508132 
2362	 0.184958055926983 
2363	 0.184761107248472 
2364	 0.184563256556022 
2365	 0.184376000621903 
2366	 0.184259369103032 
2367	 0.18403571038574 
2368	 0.183728086155874 
2369	 0.183469587390038 
2370	 0.183169947523363 
2371	 0.182887649640907 
2372	 0.182667136998822 
2373	 0.182392160142427 
2374	 0.182065091566459 
2375	 0.181697365583759 
2376	 0.18131068279658 
2377	 0.181015346387945 
2378	 0.180770501537341 
2379	 0.180557723163345 
2380	 0.18031004477676 
2381	 0.18004500816173 
2382	 0.179774695391031 
2383	 0.179414940863186 
2384	 0.179100449245152 
2385	 0.178730606313505 
2386	 0.178301872184676 
2387	 0.177933582873952 
2388	 0.17758076268355 
2389	 0.177350756889518 
2390	 0.177096960809648 
2391	 0.176756104951983 
2392	 0.176360249419966 
2393	 0.175907659129934 
2394	 0.175540806770172 
2395	 0.175221455213131 
2396	 0.17495585788282 
2397	 0.174679903334838 
2398	 0.174315032491529 
2399	 0.173958085616119 
2400	 0.173572350772642 
2401	 0.173210483712048 
2402	 0.172920184105807 
2403	 0.17260059249673 
2404	 0.172279096931004 
2405	 0.171939554161493 
2406	 0.17153200760083 
2407	 0.171150236685629 
2408	 0.17077087967099 
2409	 0.170365864890256 
2410	 0.169957784641231 
2411	 0.169572160237491 
2412	 0.169275939212773 
2413	 0.168988576610814 
2414	 0.168636987506923 
2415	 0.168248248749691 
2416	 0.167885154505347 
2417	 0.167414264262272 
2418	 0.167094200437016 
2419	 0.16695441410707 
2420	 0.16664087342526 
2421	 0.166269096533362 
2422	 0.165876858797633 
2423	 0.16539777377486 
2424	 0.164966577966091 
2425	 0.164550111055951 
2426	 0.164189714834359 
2427	 0.163884444086134 
2428	 0.163513875996426 
2429	 0.163166753628286 
2430	 0.162733425168735 
2431	 0.162155090831582 
2432	 0.161649719938665 
2433	 0.161154390882375 
2434	 0.160718368526863 
2435	 0.160342429259558 
2436	 0.159976963524813 
2437	 0.159661314358894 
2438	 0.159318937232366 
2439	 0.158991588780156 
2440	 0.15859637174058 
2441	 0.158149847353151 
2442	 0.157734869445975 
2443	 0.157287199778379 
2444	 0.156861855229847 
2445	 0.156488360033656 
2446	 0.156030594972828 
2447	 0.155463846545305 
2448	 0.155076682586581 
2449	 0.154748434158613 
2450	 0.154464576367361 
2451	 0.154343765488212 
2452	 0.154080528881254 
2453	 0.153789818491894 
2454	 0.153406173096358 
2455	 0.152920487826865 
2456	 0.15249448694676 
2457	 0.152034087721774 
2458	 0.151629244013129 
2459	 0.151274553639702 
2460	 0.150911530959791 
2461	 0.1504782488946 
2462	 0.150072835382787 
2463	 0.149781721860113 
2464	 0.149394760101011 
2465	 0.148948251291071 
2466	 0.148603173659185 
2467	 0.148269241075195 
2468	 0.14789173521946 
2469	 0.147510676994729 
2470	 0.147215656092458 
2471	 0.146926655612424 
2472	 0.146678409939416 
2473	 0.146388606542576 
2474	 0.145874661045005 
2475	 0.14534882089067 
2476	 0.14491327465511 
2477	 0.144573758197818 
2478	 0.144280893540266 
2479	 0.144023008848947 
2480	 0.143728904843907 
2481	 0.143344665901769 
2482	 0.143176349577296 
2483	 0.142981644444821 
2484	 0.142552396929135 
2485	 0.142168765211978 
2486	 0.14171204334744 
2487	 0.141270854223657 
2488	 0.141007360487635 
2489	 0.140742808931297 
2490	 0.140520319909244 
2491	 0.140188506449455 
2492	 0.139724519128345 
2493	 0.139505389736476 
2494	 0.13933050681487 
2495	 0.139090005734612 
2496	 0.139084640723671 
2497	 0.139045087866184 
2498	 0.138824209877645 
2499	 0.138699486934245 
2500	 0.138507440800651 
