Wavelength	mm2500007.asd
350	 3.95676033754008E-02 
351	 4.12898585875182E-02 
352	 4.11138866607592E-02 
353	 3.56709901990095E-02 
354	 3.80964366121965E-02 
355	 0.044083011215158 
356	 5.00044217902887E-02 
357	 5.27406550258755E-02 
358	 4.89498423207644E-02 
359	 4.72815863350164E-02 
360	 4.69595333991149E-02 
361	 4.21218903150132E-02 
362	 4.28486178081722E-02 
363	 4.48246120904788E-02 
364	 4.48380917882222E-02 
365	 4.40906971198662E-02 
366	 0.043970580224138 
367	 4.38772278087953E-02 
368	 4.29092242354469E-02 
369	 4.11913723379758E-02 
370	 4.10818478538388E-02 
371	 4.32736398489166E-02 
372	 4.67148560899826E-02 
373	 4.51411829865769E-02 
374	 4.53085543203021E-02 
375	 4.88096671406013E-02 
376	 4.52014273453626E-02 
377	 0.04547964530319 
378	 4.81982926945355E-02 
379	 4.89750067817014E-02 
380	 4.82679710160233E-02 
381	 4.53692732529184E-02 
382	 4.38108986374014E-02 
383	 4.89978374235713E-02 
384	 4.93601364153863E-02 
385	 4.92045966862919E-02 
386	 5.13400589361763E-02 
387	 0.051158560504199 
388	 5.13432289126604E-02 
389	 5.17745754458936E-02 
390	 0.051575838350062 
391	 5.02885911041551E-02 
392	 5.07414132824696E-02 
393	 5.27598847875073E-02 
394	 5.35969091892997E-02 
395	 0.052766588103468 
396	 0.051942719534495 
397	 5.24968676479979E-02 
398	 5.46901304448197E-02 
399	 5.52444426443417E-02 
400	 5.46241853911438E-02 
401	 5.45941780612205E-02 
402	 5.51645354907803E-02 
403	 5.57383131370944E-02 
404	 5.62015226798395E-02 
405	 5.69559674242779E-02 
406	 5.72274308425786E-02 
407	 0.057264816659917 
408	 5.73049517160709E-02 
409	 5.69596813943201E-02 
410	 5.66479914568821E-02 
411	 5.68176243079324E-02 
412	 5.76818817566399E-02 
413	 5.79665345071979E-02 
414	 5.76209645862149E-02 
415	 5.71293951222275E-02 
416	 5.74701269854154E-02 
417	 5.74306266195738E-02 
418	 5.75808715580111E-02 
419	 5.83598723262259E-02 
420	 5.83067385817907E-02 
421	 5.81023899038954E-02 
422	 5.80419218416084E-02 
423	 5.80939665098276E-02 
424	 5.77025091079315E-02 
425	 0.057706387857795 
426	 5.81725548807913E-02 
427	 5.73904133144837E-02 
428	 5.73238630777693E-02 
429	 5.75989259065457E-02 
430	 5.73581701404852E-02 
431	 5.73472868666205E-02 
432	 0.057373432024534 
433	 0.057419843627821 
434	 0.057663043080701 
435	 5.76679592784857E-02 
436	 5.75671376249609E-02 
437	 5.74846056485437E-02 
438	 5.71435918694107E-02 
439	 5.72217876878584E-02 
440	 5.76463557272906E-02 
441	 5.79607815396658E-02 
442	 0.058001176947756 
443	 5.81940165030748E-02 
444	 5.85055543094611E-02 
445	 0.058101646721264 
446	 5.81266808542996E-02 
447	 5.84404274389712E-02 
448	 5.85857681527607E-02 
449	 5.84416919179885E-02 
450	 5.86139277676087E-02 
451	 5.89967233855586E-02 
452	 5.89087028006072E-02 
453	 0.058857330086854 
454	 5.87731306831869E-02 
455	 5.86401883443114E-02 
456	 5.88480810031313E-02 
457	 5.88916086667696E-02 
458	 5.88350927274916E-02 
459	 5.89584298685626E-02 
460	 5.90556737027723E-02 
461	 5.89760479010478E-02 
462	 5.88206930379771E-02 
463	 5.90282868083623E-02 
464	 0.059262587030823 
465	 5.92932998546929E-02 
466	 5.90772148712379E-02 
467	 5.91567560336618E-02 
468	 5.92927016285376E-02 
469	 5.93265988999966E-02 
470	 5.92076970957025E-02 
471	 5.92696884972063E-02 
472	 5.93625495956299E-02 
473	 5.93397159500602E-02 
474	 5.92639029917261E-02 
475	 5.91121592482855E-02 
476	 5.90744330622763E-02 
477	 5.93312396929893E-02 
478	 5.93161241307316E-02 
479	 5.92495197700019E-02 
480	 5.93019576628949E-02 
481	 5.94807293431491E-02 
482	 5.94655398287739E-02 
483	 5.95390526613371E-02 
484	 0.059904071342639 
485	 5.97293004662784E-02 
486	 5.95640316728188E-02 
487	 5.95152403307283E-02 
488	 5.93147762524794E-02 
489	 5.92732370353385E-02 
490	 5.93567702689583E-02 
491	 5.94805481401534E-02 
492	 5.96208324206978E-02 
493	 5.95712569393974E-02 
494	 5.93985584201642E-02 
495	 5.93141814643133E-02 
496	 5.94788625826582E-02 
497	 5.96856887887201E-02 
498	 5.97685951543238E-02 
499	 5.96724128989309E-02 
500	 5.95949853528215E-02 
501	 5.95729225925345E-02 
502	 5.95808060817025E-02 
503	 5.95671141459082E-02 
504	 5.95807720393499E-02 
505	 5.96209829664897E-02 
506	 5.96422655534287E-02 
507	 5.97083847015263E-02 
508	 0.059814816856297 
509	 0.059899956055152 
510	 5.97745163192918E-02 
511	 5.96536529234841E-02 
512	 5.96644192118649E-02 
513	 5.98323714177762E-02 
514	 5.97414163794108E-02 
515	 5.97384128048891E-02 
516	 5.99591666721254E-02 
517	 6.00553572856725E-02 
518	 5.99267045329991E-02 
519	 0.059760583681638 
520	 5.97948762039794E-02 
521	 5.99378359712649E-02 
522	 6.00099095505892E-02 
523	 5.99655735860488E-02 
524	 5.99045206294483E-02 
525	 5.99228384954508E-02 
526	 5.99477512129581E-02 
527	 5.99245708889227E-02 
528	 5.99959983529955E-02 
529	 6.00549533658636E-02 
530	 6.01027948540951E-02 
531	 6.01997910673926E-02 
532	 6.01788136726207E-02 
533	 6.02411378921075E-02 
534	 6.04272459552401E-02 
535	 6.03190261030824E-02 
536	 6.02811772776479E-02 
537	 6.03567057184912E-02 
538	 6.04547026709708E-02 
539	 6.04947071680024E-02 
540	 6.05103668438336E-02 
541	 6.05411134482886E-02 
542	 6.06191910108451E-02 
543	 0.060713993256903 
544	 6.07845197921862E-02 
545	 6.08085691999382E-02 
546	 6.08400755645078E-02 
547	 6.09053038814293E-02 
548	 0.061015809402357 
549	 6.11618330795291E-02 
550	 6.11310843029042E-02 
551	 6.11460623956242E-02 
552	 6.13437930950039E-02 
553	 6.14322464490377E-02 
554	 6.15018406959484E-02 
555	 6.16074656406363E-02 
556	 6.17764922823751E-02 
557	 6.19211622846073E-02 
558	 6.20425844492792E-02 
559	 6.21886447661132E-02 
560	 6.24858294504332E-02 
561	 6.26257060120936E-02 
562	 6.27252222804741E-02 
563	 6.29914583967552E-02 
564	 6.32382814716933E-02 
565	 6.34430676212188E-02 
566	 6.36421489483809E-02 
567	 6.39245844021443E-02 
568	 6.42204221345857E-02 
569	 6.45359997679807E-02 
570	 6.48734937193199E-02 
571	 6.51524912131131E-02 
572	 6.54958376552958E-02 
573	 0.065926078756874 
574	 6.63814977609048E-02 
575	 6.67195879259502E-02 
576	 6.70811051644889E-02 
577	 6.75458604122716E-02 
578	 6.79537364099703E-02 
579	 6.84114026501056E-02 
580	 6.88858597345636E-02 
581	 6.93176069234075E-02 
582	 6.98940773414508E-02 
583	 7.04530969552969E-02 
584	 7.09448691078549E-02 
585	 7.15251196293037E-02 
586	 7.20604181414751E-02 
587	 7.26192013882441E-02 
588	 7.32745893498603E-02 
589	 7.38634082861099E-02 
590	 7.44617808488588E-02 
591	 7.50766467404627E-02 
592	 7.56507920367689E-02 
593	 7.62489762644192E-02 
594	 7.68260982540953E-02 
595	 7.73770188390797E-02 
596	 7.80712489222845E-02 
597	 7.87396377273076E-02 
598	 7.93610069759967E-02 
599	 7.99937289191504E-02 
600	 8.06175246649148E-02 
601	 8.11869693292162E-02 
602	 8.17035805407331E-02 
603	 0.082262348380046 
604	 8.27884918404253E-02 
605	 8.32942929746646E-02 
606	 8.38145063687975E-02 
607	 8.43411037543594E-02 
608	 8.47914749898898E-02 
609	 8.51959212668047E-02 
610	 8.57137605516606E-02 
611	 8.61802463505707E-02 
612	 8.66133051985526E-02 
613	 8.70366028500145E-02 
614	 8.73385650712642E-02 
615	 8.76326842359652E-02 
616	 8.79666289615146E-02 
617	 0.088329384422369 
618	 0.088646067974361 
619	 8.88841457793281E-02 
620	 8.90810210553058E-02 
621	 8.94173922546008E-02 
622	 8.96809431609977E-02 
623	 8.98731756184711E-02 
624	 9.00827575871044E-02 
625	 9.03516813026105E-02 
626	 9.05851730075726E-02 
627	 9.07606193377416E-02 
628	 9.09637653384522E-02 
629	 9.11767501728059E-02 
630	 9.13575214655506E-02 
631	 9.14844404087254E-02 
632	 9.16383450346952E-02 
633	 9.18249622409022E-02 
634	 9.20149128315599E-02 
635	 9.21602152493417E-02 
636	 9.23883957656552E-02 
637	 9.25988192752568E-02 
638	 9.27200353035094E-02 
639	 9.28392636759307E-02 
640	 9.30169948110973E-02 
641	 9.32389709656536E-02 
642	 9.34513045804976E-02 
643	 9.36445265373035E-02 
644	 9.38065544081184E-02 
645	 9.39582175721566E-02 
646	 9.41662849845649E-02 
647	 9.43703359564202E-02 
648	 9.45506296879012E-02 
649	 9.47190460954301E-02 
650	 9.49705918041242E-02 
651	 9.51821126531563E-02 
652	 9.53485718683054E-02 
653	 0.095568739572543 
654	 9.57921829590718E-02 
655	 9.60105593573791E-02 
656	 9.62247373159485E-02 
657	 9.64349052685918E-02 
658	 9.66884805281563E-02 
659	 9.69454699828639E-02 
660	 9.71446016249057E-02 
661	 9.74167451518675E-02 
662	 0.097707729383837 
663	 9.79750599791964E-02 
664	 9.82181707741538E-02 
665	 9.84927603789243E-02 
666	 0.098770202531325 
667	 9.90176311059243E-02 
668	 9.92893913938861E-02 
669	 0.09960499660235 
670	 9.99531413971325E-02 
671	 0.100294741578337 
672	 0.100567743435514 
673	 0.100884712526811 
674	 0.101295265959481 
675	 0.101628521941165 
676	 0.101962404007381 
677	 0.102303327213147 
678	 0.102637127687744 
679	 0.103005357817991 
680	 0.10339928053492 
681	 0.10379521294505 
682	 0.104156473401891 
683	 0.104560972460902 
684	 0.104962441479472 
685	 0.105326178943046 
686	 0.105786375272839 
687	 0.106237339382075 
688	 0.10665161703798 
689	 0.107062872958345 
690	 0.107502198232255 
691	 0.10793825831067 
692	 0.108363427120611 
693	 0.108842610049183 
694	 0.109287759523695 
695	 0.109737244884651 
696	 0.110248801685015 
697	 0.110714139108391 
698	 0.111175788596161 
699	 0.111660727401824 
700	 0.112168194529663 
701	 0.112677376533257 
702	 0.113162519002063 
703	 0.113616710448802 
704	 0.114080505921301 
705	 0.114570643908564 
706	 0.115073104105418 
707	 0.115561229183864 
708	 0.116069227432705 
709	 0.116572994277899 
710	 0.11706258335449 
711	 0.117559000696789 
712	 0.118021060782138 
713	 0.11846978637635 
714	 0.118945085023348 
715	 0.119493046024879 
716	 0.119984516259498 
717	 0.120420286438412 
718	 0.120894725056458 
719	 0.121373703206696 
720	 0.121808251764238 
721	 0.122196712660228 
722	 0.122634443729262 
723	 0.123076067897045 
724	 0.123486002272333 
725	 0.123846640961252 
726	 0.124216919096218 
727	 0.124572751055736 
728	 0.124902845705418 
729	 0.125212964968617 
730	 0.125530945781211 
731	 0.125831087945874 
732	 0.126102841641214 
733	 0.126398746112572 
734	 0.126676940497312 
735	 0.126902880268337 
736	 0.12706228325221 
737	 0.127237282195032 
738	 0.127415650659121 
739	 0.127582785751963 
740	 0.127729744244908 
741	 0.12784678847436 
742	 0.127937958216803 
743	 0.128013681363599 
744	 0.128099137012484 
745	 0.128105502797933 
746	 0.12808171319848 
747	 0.128121193120094 
748	 0.128119360853597 
749	 0.128069981733556 
750	 0.128005494299332 
751	 0.127991220296819 
752	 0.127930071029421 
753	 0.127824330517585 
754	 0.127699082806068 
755	 0.127568992698767 
756	 0.127452629035656 
757	 0.127304670924446 
758	 0.127072134332358 
759	 0.126901490071244 
760	 0.126732206399141 
761	 0.126530263384422 
762	 0.126320191126783 
763	 0.126096204872643 
764	 0.125863825341149 
765	 0.125622969551799 
766	 0.125342361595705 
767	 0.125110088732725 
768	 0.124879443771668 
769	 0.124558850046099 
770	 0.124271393789555 
771	 0.123999512590021 
772	 0.123724291562293 
773	 0.123441209222914 
774	 0.123161656254252 
775	 0.122851430125966 
776	 0.122506131061091 
777	 0.122231022327547 
778	 0.121943916283679 
779	 0.121630504521234 
780	 0.121309853780058 
781	 0.120996606316574 
782	 0.120693185302744 
783	 0.120379903185614 
784	 0.120021755702218 
785	 0.119715090926914 
786	 0.119453654841847 
787	 0.119195164633132 
788	 0.118858752134999 
789	 0.118567331791612 
790	 0.11827700236679 
791	 0.117916729115467 
792	 0.117624383921601 
793	 0.117342397220727 
794	 0.117047581654857 
795	 0.11675456499287 
796	 0.11644340565092 
797	 0.116171823198795 
798	 0.115948408173565 
799	 0.11567448503266 
800	 0.115373849108291 
801	 0.115071446933721 
802	 0.114796696103327 
803	 0.114588729546635 
804	 0.114359438968243 
805	 0.114100102014002 
806	 0.113852931118445 
807	 0.113596946660903 
808	 0.113364445468381 
809	 0.113146233111523 
810	 0.112875466660232 
811	 0.112644606644001 
812	 0.112411835114618 
813	 0.112150861130317 
814	 0.111961241972236 
815	 0.111793601268232 
816	 0.111613826705912 
817	 0.111407052522248 
818	 0.111226816221946 
819	 0.111057836856249 
820	 0.110878047238634 
821	 0.110669752224524 
822	 0.110493121170579 
823	 0.110304073057308 
824	 0.110100360490751 
825	 0.10997266741674 
826	 0.10982562913682 
827	 0.109686321087541 
828	 0.109584702024406 
829	 0.109454650136069 
830	 0.10927799206071 
831	 0.109096628108396 
832	 0.108972589953237 
833	 0.108887943839195 
834	 0.108803261413431 
835	 0.108689382183251 
836	 0.10853766572767 
837	 0.108426988755285 
838	 0.10837305589452 
839	 0.108340638348587 
840	 0.108232492440653 
841	 0.108096020578822 
842	 0.107994480774811 
843	 0.107954695914928 
844	 0.107875099366544 
845	 0.107825222331437 
846	 0.10778709317511 
847	 0.107721279104612 
848	 0.107715094839471 
849	 0.107696683703268 
850	 0.107636303185129 
851	 0.107557095878842 
852	 0.107540367508915 
853	 0.107533631582998 
854	 0.107517423164993 
855	 0.107548190600122 
856	 0.10758355808882 
857	 0.107584432681322 
858	 0.107549919967732 
859	 0.107573562884233 
860	 0.107567859034967 
861	 0.107561300261442 
862	 0.107598240698597 
863	 0.107601938696233 
864	 0.107621383605521 
865	 0.10767376118874 
866	 0.107744415372923 
867	 0.107767617890103 
868	 0.107800522578153 
869	 0.107865811767145 
870	 0.10793860993272 
871	 0.108015700520171 
872	 0.108101460111856 
873	 0.108193766454533 
874	 0.108277894155999 
875	 0.108348768591607 
876	 0.108410669119194 
877	 0.108475368025404 
878	 0.10856127647434 
879	 0.108702150953648 
880	 0.108853437991428 
881	 0.108963795631677 
882	 0.109085030257603 
883	 0.109183736982308 
884	 0.109263581084936 
885	 0.109363859558088 
886	 0.109595074687689 
887	 0.109813029665144 
888	 0.109951475784325 
889	 0.110045384033131 
890	 0.110235380849621 
891	 0.110391825997965 
892	 0.110496198460307 
893	 0.110702694310062 
894	 0.110888508169377 
895	 0.111071233541877 
896	 0.111275143129391 
897	 0.111488226528209 
898	 0.111706360317255 
899	 0.111931224547249 
900	 0.112155997220555 
901	 0.112342507885382 
902	 0.112570026314243 
903	 0.112823379068697 
904	 0.113058518790635 
905	 0.113253451026264 
906	 0.113546493526069 
907	 0.113876945504002 
908	 0.114125998490031 
909	 0.114431695416263 
910	 0.114678774293123 
911	 0.114900996491661 
912	 0.115214325616136 
913	 0.115527928474361 
914	 0.115855650495178 
915	 0.116168577630272 
916	 0.116417484177254 
917	 0.116778721735253 
918	 0.117144785879947 
919	 0.117451027976682 
920	 0.117731425964634 
921	 0.118060382838178 
922	 0.118429948299091 
923	 0.11881139321592 
924	 0.119174913984669 
925	 0.119544357166732 
926	 0.119960423786271 
927	 0.120398448629789 
928	 0.120714678124787 
929	 0.121119677082714 
930	 0.121571596717238 
931	 0.121987428633545 
932	 0.122347417934413 
933	 0.122811044913652 
934	 0.123319227847716 
935	 0.123782881884166 
936	 0.124239763609079 
937	 0.124613452063857 
938	 0.124986019173277 
939	 0.125463568748435 
940	 0.1260472720415 
941	 0.126543723082852 
942	 0.127031302924088 
943	 0.127615891043281 
944	 0.128029457735113 
945	 0.128531411614085 
946	 0.129096576923152 
947	 0.129595360968092 
948	 0.130097399341073 
949	 0.130588678853824 
950	 0.131122983447385 
951	 0.131748436271486 
952	 0.132327745498162 
953	 0.132832043057068 
954	 0.133353346546292 
955	 0.13401250769379 
956	 0.134727231306692 
957	 0.135339855747425 
958	 0.135877392458344 
959	 0.136468895665256 
960	 0.137080436574581 
961	 0.13771279562058 
962	 0.13833241516791 
963	 0.138897657882176 
964	 0.139448075081111 
965	 0.140089010378933 
966	 0.140803029103905 
967	 0.141498806345481 
968	 0.142220986605487 
969	 0.142836786289765 
970	 0.143409619810456 
971	 0.144103705400464 
972	 0.144795043897599 
973	 0.145581301685499 
974	 0.146334594744356 
975	 0.146865710840396 
976	 0.147582457720606 
977	 0.148285441817377 
978	 0.148961165037285 
979	 0.149730488641546 
980	 0.150594064008393 
981	 0.151389452938501 
982	 0.151999671788271 
983	 0.152459077924085 
984	 0.153288997730289 
985	 0.154159909395383 
986	 0.154941042019587 
987	 0.155668728702645 
988	 0.156425005953704 
989	 0.157045069402009 
990	 0.157644203776313 
991	 0.158425614644224 
992	 0.159274882608916 
993	 0.159966203564803 
994	 0.160667760564174 
995	 0.161567062036141 
996	 0.1621532703127 
997	 0.162829543277863 
998	 0.163548493308758 
999	 0.164192651471303 
1000	 0.165106698768793 
1001	 0.166320552813289 
1002	 0.166942168995586 
1003	 0.167618627943757 
1004	 0.168265970487939 
1005	 0.168909791223059 
1006	 0.169573447737678 
1007	 0.170237803791892 
1008	 0.170879577778508 
1009	 0.171522799713888 
1010	 0.172172217187091 
1011	 0.17280387949675 
1012	 0.173398993411188 
1013	 0.174027440224885 
1014	 0.174687538734672 
1015	 0.175328532771052 
1016	 0.175917436582129 
1017	 0.176506003936741 
1018	 0.177080925594123 
1019	 0.177629071945918 
1020	 0.178188029819115 
1021	 0.178780160921677 
1022	 0.17928859570515 
1023	 0.179817840915262 
1024	 0.180373345237543 
1025	 0.180851620384552 
1026	 0.181418514282602 
1027	 0.181991056852837 
1028	 0.182462416823503 
1029	 0.182957356214845 
1030	 0.183428185876719 
1031	 0.183897334012988 
1032	 0.184335623022907 
1033	 0.184802287686397 
1034	 0.185296004518892 
1035	 0.185792913167834 
1036	 0.186226534285243 
1037	 0.186674060616835 
1038	 0.187127547502226 
1039	 0.187515313021114 
1040	 0.18797712188859 
1041	 0.188444916881712 
1042	 0.18885456859543 
1043	 0.189357256050607 
1044	 0.189805505290555 
1045	 0.190233439410698 
1046	 0.190628082919639 
1047	 0.191089635292813 
1048	 0.191528248406916 
1049	 0.191991825871768 
1050	 0.192455898346394 
1051	 0.192886713751146 
1052	 0.193294274621667 
1053	 0.193680052689663 
1054	 0.194094409650359 
1055	 0.194574292876948 
1056	 0.195073553025342 
1057	 0.195512790983978 
1058	 0.195959339170273 
1059	 0.196376430926729 
1060	 0.19673871059976 
1061	 0.19706228750554 
1062	 0.197472563221363 
1063	 0.197909753609448 
1064	 0.198330094128377 
1065	 0.198767759902925 
1066	 0.199163350349351 
1067	 0.199515475568178 
1068	 0.199916357116791 
1069	 0.200334136332338 
1070	 0.200731477204213 
1071	 0.201141019808634 
1072	 0.20154339946693 
1073	 0.201919258148386 
1074	 0.202298255867488 
1075	 0.202678894128812 
1076	 0.203058882203395 
1077	 0.20343323306422 
1078	 0.203798235413148 
1079	 0.204178980735464 
1080	 0.20456306321952 
1081	 0.204971873096025 
1082	 0.2053842877826 
1083	 0.205746235975099 
1084	 0.206075106312194 
1085	 0.206438036793768 
1086	 0.206757731878372 
1087	 0.207111540686182 
1088	 0.207513960471146 
1089	 0.207884186117079 
1090	 0.208217790397259 
1091	 0.208583695776105 
1092	 0.208942059053094 
1093	 0.209295337396014 
1094	 0.209675046321787 
1095	 0.210013837714228 
1096	 0.210321840345942 
1097	 0.210649350446691 
1098	 0.210970210987492 
1099	 0.21128413618481 
1100	 0.21160183752067 
1101	 0.211911734634383 
1102	 0.212235152888268 
1103	 0.212584922337738 
1104	 0.212883193084722 
1105	 0.213170154748865 
1106	 0.213480284754486 
1107	 0.213760154992845 
1108	 0.214062157510855 
1109	 0.214393380129623 
1110	 0.214717259342956 
1111	 0.215033881689316 
1112	 0.215345059605754 
1113	 0.215652055526128 
1114	 0.215962164203015 
1115	 0.216256076455489 
1116	 0.216513815631073 
1117	 0.216809430695725 
1118	 0.217112606822513 
1119	 0.217427210492472 
1120	 0.217750396691224 
1121	 0.218089405656346 
1122	 0.218398589489766 
1123	 0.218695897786596 
1124	 0.218998654231467 
1125	 0.219308426213572 
1126	 0.219593590585361 
1127	 0.219850329180538 
1128	 0.220144308318102 
1129	 0.22044937641408 
1130	 0.220739019311222 
1131	 0.221061865148597 
1132	 0.221341497916777 
1133	 0.221571677638449 
1134	 0.221826180724059 
1135	 0.222082060174682 
1136	 0.222335673156616 
1137	 0.222585714891469 
1138	 0.222811150352916 
1139	 0.223046967888126 
1140	 0.22326372178414 
1141	 0.223507665662982 
1142	 0.223777797418671 
1143	 0.224020734124996 
1144	 0.224276462949238 
1145	 0.224494271710185 
1146	 0.224671900888615 
1147	 0.224868038631281 
1148	 0.225038437072332 
1149	 0.225232959175155 
1150	 0.225433915607273 
1151	 0.225665319759856 
1152	 0.225907062162703 
1153	 0.226146530096985 
1154	 0.226352700457778 
1155	 0.226532782513201 
1156	 0.226749585001632 
1157	 0.226955988516506 
1158	 0.227169161033201 
1159	 0.227428082222679 
1160	 0.227643997613624 
1161	 0.227832213892739 
1162	 0.228022168149504 
1163	 0.22819416736418 
1164	 0.228378966353257 
1165	 0.228570493819429 
1166	 0.228747224453366 
1167	 0.228923026463774 
1168	 0.229120981589212 
1169	 0.229313974616247 
1170	 0.229500505981415 
1171	 0.229698603238773 
1172	 0.229924014272905 
1173	 0.230111431055324 
1174	 0.230281565213398 
1175	 0.230457453775287 
1176	 0.230616411693409 
1177	 0.2307814710829 
1178	 0.23095117920522 
1179	 0.231122492744519 
1180	 0.23129680897639 
1181	 0.231463363715483 
1182	 0.231641532443455 
1183	 0.23180415685161 
1184	 0.231943818399279 
1185	 0.232051799775193 
1186	 0.232193509127649 
1187	 0.232327576995808 
1188	 0.23247598096227 
1189	 0.232656989822684 
1190	 0.232809730768711 
1191	 0.232945592379737 
1192	 0.233091814506182 
1193	 0.233248452616977 
1194	 0.233384086132343 
1195	 0.233502589071345 
1196	 0.23363438277317 
1197	 0.233765468533183 
1198	 0.233887367787604 
1199	 0.234008583923747 
1200	 0.234141864040111 
1201	 0.234260973620713 
1202	 0.234356784410088 
1203	 0.234475912721282 
1204	 0.234604635529434 
1205	 0.234734647251866 
1206	 0.234881773978573 
1207	 0.235005077264915 
1208	 0.235118726927771 
1209	 0.235236136314168 
1210	 0.235346901818986 
1211	 0.235450402365307 
1212	 0.235551127435943 
1213	 0.23565465271583 
1214	 0.235743879447745 
1215	 0.235841625985616 
1216	 0.235944873588307 
1217	 0.236065844114939 
1218	 0.236162199627438 
1219	 0.236247644954772 
1220	 0.236341824837294 
1221	 0.236433760129184 
1222	 0.236518680506601 
1223	 0.236605979302207 
1224	 0.236690132466568 
1225	 0.236754431542759 
1226	 0.236838010447461 
1227	 0.23694807480948 
1228	 0.237032885310231 
1229	 0.237106746632816 
1230	 0.237185740057052 
1231	 0.237243474400522 
1232	 0.23731716053148 
1233	 0.237400022185999 
1234	 0.237505030200828 
1235	 0.237582666762837 
1236	 0.237656763035216 
1237	 0.237729617328668 
1238	 0.237788410032885 
1239	 0.237855493681381 
1240	 0.237933411542901 
1241	 0.237997133990507 
1242	 0.23804941499861 
1243	 0.238107353849828 
1244	 0.238156828255226 
1245	 0.238217543412805 
1246	 0.238290529205124 
1247	 0.238356984562903 
1248	 0.238427372778212 
1249	 0.238494019218027 
1250	 0.238553190627951 
1251	 0.238612300889713 
1252	 0.238674757122959 
1253	 0.238742260508201 
1254	 0.238797628557806 
1255	 0.238853720990365 
1256	 0.238897542332595 
1257	 0.23892434273905 
1258	 0.238960760452396 
1259	 0.238986151330839 
1260	 0.239031086128136 
1261	 0.239099920794539 
1262	 0.239146750234989 
1263	 0.239195481578668 
1264	 0.23923693179854 
1265	 0.23924856452561 
1266	 0.239281340088329 
1267	 0.23932930112118 
1268	 0.23937831611087 
1269	 0.239411816543071 
1270	 0.239443194623042 
1271	 0.23947404652904 
1272	 0.239481899095152 
1273	 0.239524072673651 
1274	 0.239591029172809 
1275	 0.239646136982748 
1276	 0.2397006567315 
1277	 0.239771101090308 
1278	 0.239852578722188 
1279	 0.23992475541067 
1280	 0.240011379201026 
1281	 0.24008817186614 
1282	 0.240144380326984 
1283	 0.24021187415042 
1284	 0.240290850841656 
1285	 0.240361196339822 
1286	 0.240419241467904 
1287	 0.240506188771442 
1288	 0.240592414065333 
1289	 0.240692454676957 
1290	 0.240763690864083 
1291	 0.24083629316875 
1292	 0.240894648076821 
1293	 0.240922424366677 
1294	 0.240968341927152 
1295	 0.241029284152276 
1296	 0.2410669036129 
1297	 0.241087202147447 
1298	 0.24112209966942 
1299	 0.241159018273922 
1300	 0.241180711251897 
1301	 0.241191647633136 
1302	 0.241216115275354 
1303	 0.241222532497578 
1304	 0.24125672569985 
1305	 0.241315506794525 
1306	 0.241367992985163 
1307	 0.241384918692644 
1308	 0.241388664064578 
1309	 0.241378763622147 
1310	 0.241330947076264 
1311	 0.241311479393545 
1312	 0.241298224908318 
1313	 0.241277153096629 
1314	 0.241253471366849 
1315	 0.241242193082528 
1316	 0.241237266607202 
1317	 0.241222106669514 
1318	 0.241236496920093 
1319	 0.24120250194745 
1320	 0.241110980077289 
1321	 0.241057931343327 
1322	 0.241004484855667 
1323	 0.240943595358955 
1324	 0.240913754743802 
1325	 0.240894646191294 
1326	 0.240850490862758 
1327	 0.240802306076247 
1328	 0.240757156474326 
1329	 0.240715137405198 
1330	 0.240669196979058 
1331	 0.240625895286897 
1332	 0.24056946499436 
1333	 0.24051176638028 
1334	 0.240443096348203 
1335	 0.24034837365286 
1336	 0.240283341248313 
1337	 0.240226257524007 
1338	 0.240164086691963 
1339	 0.240119453286136 
1340	 0.240066949708662 
1341	 0.240004335919029 
1342	 0.239946404727155 
1343	 0.239894558732165 
1344	 0.239831960088959 
1345	 0.23978609745423 
1346	 0.239729149149072 
1347	 0.239678639561643 
1348	 0.239618738948288 
1349	 0.239522464200879 
1350	 0.239439123956261 
1351	 0.239359463115631 
1352	 0.239268771133067 
1353	 0.239198928459973 
1354	 0.239152918560024 
1355	 0.239085609299355 
1356	 0.239014187566812 
1357	 0.238945318275257 
1358	 0.238861566917437 
1359	 0.238798191495772 
1360	 0.238744964288653 
1361	 0.2386955092323 
1362	 0.238687672075468 
1363	 0.238626853202948 
1364	 0.238523661991236 
1365	 0.238447778745017 
1366	 0.238359292230212 
1367	 0.238264729756239 
1368	 0.238207890775338 
1369	 0.238162280800909 
1370	 0.238075391914581 
1371	 0.237964936874672 
1372	 0.237841787299679 
1373	 0.23768911530908 
1374	 0.237515811526546 
1375	 0.237324822231135 
1376	 0.23710891189316 
1377	 0.236868378087983 
1378	 0.236602842669374 
1379	 0.236307565147397 
1380	 0.236005658899978 
1381	 0.235685847135729 
1382	 0.235343892189707 
1383	 0.235000925682227 
1384	 0.234614673581287 
1385	 0.23422061780619 
1386	 0.233759137093523 
1387	 0.23324288778296 
1388	 0.23270876605979 
1389	 0.232141782677828 
1390	 0.231516745158651 
1391	 0.230871750108723 
1392	 0.230184627329676 
1393	 0.22942598605134 
1394	 0.228647900797725 
1395	 0.227847410466151 
1396	 0.22702765011899 
1397	 0.226207658878322 
1398	 0.225374253350747 
1399	 0.224535130660677 
1400	 0.223681712886518 
1401	 0.222844154186455 
1402	 0.221995515140439 
1403	 0.221173498679328 
1404	 0.22035236421779 
1405	 0.219573844747008 
1406	 0.21881464915131 
1407	 0.218088862042585 
1408	 0.217389526856843 
1409	 0.216729140679788 
1410	 0.216090694343073 
1411	 0.215500702810684 
1412	 0.214938950092376 
1413	 0.214450708385182 
1414	 0.214009240781665 
1415	 0.213591218568636 
1416	 0.213228441053629 
1417	 0.212889732162147 
1418	 0.212560312085601 
1419	 0.212263225315234 
1420	 0.211984630369358 
1421	 0.211738029841628 
1422	 0.211525237753044 
1423	 0.211316159034914 
1424	 0.211094140842431 
1425	 0.210869568568255 
1426	 0.210659142822342 
1427	 0.210428400071288 
1428	 0.210245438973938 
1429	 0.210089089588422 
1430	 0.209951426274824 
1431	 0.209850156954387 
1432	 0.209742025225827 
1433	 0.209653913410084 
1434	 0.209560297875916 
1435	 0.209448701148205 
1436	 0.209371296434585 
1437	 0.209312448955597 
1438	 0.20925899398578 
1439	 0.20922960990012 
1440	 0.209201612342329 
1441	 0.209162350251663 
1442	 0.209132231001819 
1443	 0.209101153219894 
1444	 0.209074941416651 
1445	 0.209059755176579 
1446	 0.209058585342469 
1447	 0.209074147182831 
1448	 0.209085407361972 
1449	 0.209090346366236 
1450	 0.209096504287592 
1451	 0.209105765551781 
1452	 0.209105779615497 
1453	 0.209127591922832 
1454	 0.209163708463497 
1455	 0.209198883591573 
1456	 0.209246321408352 
1457	 0.209287755913477 
1458	 0.209323870160745 
1459	 0.209371094789854 
1460	 0.209409357758335 
1461	 0.209478421459442 
1462	 0.209572212120754 
1463	 0.209664588205886 
1464	 0.20977748929066 
1465	 0.209885896484288 
1466	 0.209976546260115 
1467	 0.21010164430572 
1468	 0.210241852227685 
1469	 0.210398888998596 
1470	 0.210580594236401 
1471	 0.210771880793301 
1472	 0.210985088131866 
1473	 0.211217987739611 
1474	 0.211449698471066 
1475	 0.211688959813327 
1476	 0.211921571971252 
1477	 0.212138733594938 
1478	 0.212372963275921 
1479	 0.212627838672303 
1480	 0.212874535243376 
1481	 0.213117645189313 
1482	 0.213365304969227 
1483	 0.21361852386582 
1484	 0.213854045874509 
1485	 0.214079389483969 
1486	 0.214320607581109 
1487	 0.214547597179281 
1488	 0.214795076376846 
1489	 0.215075624038055 
1490	 0.215333085460477 
1491	 0.215593192761437 
1492	 0.215836334758571 
1493	 0.216058945546501 
1494	 0.216290722270229 
1495	 0.21651261734924 
1496	 0.216740671965406 
1497	 0.216975955742732 
1498	 0.217213094350775 
1499	 0.217468529289521 
1500	 0.217693178127836 
1501	 0.217897702462983 
1502	 0.218109435568686 
1503	 0.218299806940141 
1504	 0.218499177389074 
1505	 0.218720280686224 
1506	 0.218942441371191 
1507	 0.219176023830212 
1508	 0.219397797824519 
1509	 0.219597185850878 
1510	 0.219804400448165 
1511	 0.220002768412228 
1512	 0.220186681987288 
1513	 0.220378804101577 
1514	 0.220572646489032 
1515	 0.220764536089149 
1516	 0.220952765383434 
1517	 0.221144359624633 
1518	 0.221348730317325 
1519	 0.221535031308782 
1520	 0.221714131409759 
1521	 0.221887605004261 
1522	 0.222048513865761 
1523	 0.222216838655356 
1524	 0.222379814769897 
1525	 0.222547050849908 
1526	 0.222723221860472 
1527	 0.222887283378584 
1528	 0.223049789545465 
1529	 0.223206902705529 
1530	 0.223356180049228 
1531	 0.223503634525211 
1532	 0.223645438440502 
1533	 0.223787645612111 
1534	 0.223926121959708 
1535	 0.224067419975771 
1536	 0.224211506077637 
1537	 0.224349100376101 
1538	 0.224485112820688 
1539	 0.2246158494537 
1540	 0.224743433455262 
1541	 0.224867266491679 
1542	 0.224976925434929 
1543	 0.225101355929667 
1544	 0.225236050053801 
1545	 0.225359132418976 
1546	 0.225484644194843 
1547	 0.225613474909245 
1548	 0.225717420879437 
1549	 0.225823553734408 
1550	 0.225936505003371 
1551	 0.22603882084954 
1552	 0.226145668157223 
1553	 0.22626400859179 
1554	 0.226370305859742 
1555	 0.226477497697916 
1556	 0.226589776182667 
1557	 0.226677201414225 
1558	 0.226780380946896 
1559	 0.226891677170327 
1560	 0.226992256067757 
1561	 0.227092314187955 
1562	 0.227191115779316 
1563	 0.227281708262757 
1564	 0.227379153113279 
1565	 0.227486678063883 
1566	 0.227571185371344 
1567	 0.227642225006749 
1568	 0.227725157810797 
1569	 0.227803367598076 
1570	 0.22787642048824 
1571	 0.227957655234736 
1572	 0.228029179654451 
1573	 0.228080587475129 
1574	 0.228147732184084 
1575	 0.228235150116354 
1576	 0.228294248668779 
1577	 0.228342324140693 
1578	 0.228386723953717 
1579	 0.228397022416667 
1580	 0.228447326007982 
1581	 0.228520005017279 
1582	 0.228584941202355 
1583	 0.22867426473541 
1584	 0.228740990776649 
1585	 0.228785644781863 
1586	 0.228844136856746 
1587	 0.228904787393809 
1588	 0.228963832259745 
1589	 0.229033202621655 
1590	 0.229088345462584 
1591	 0.229136052748587 
1592	 0.229179111826154 
1593	 0.229199857744668 
1594	 0.229242068654855 
1595	 0.229299523206876 
1596	 0.229344004961988 
1597	 0.229392898420685 
1598	 0.229443233230669 
1599	 0.229483860259609 
1600	 0.229525270550399 
1601	 0.229573780247021 
1602	 0.22962029230389 
1603	 0.22966393008096 
1604	 0.229702176502407 
1605	 0.229744668176355 
1606	 0.229777069945577 
1607	 0.229789913151812 
1608	 0.229814956588093 
1609	 0.229843545711048 
1610	 0.229876079827424 
1611	 0.229906558592676 
1612	 0.229924293099785 
1613	 0.229931657396995 
1614	 0.229933922927404 
1615	 0.229945341281198 
1616	 0.229961543885282 
1617	 0.22998910067705 
1618	 0.2300234798228 
1619	 0.23005653273486 
1620	 0.230101811350146 
1621	 0.230144905912451 
1622	 0.230200455335527 
1623	 0.230218569589718 
1624	 0.230220794790011 
1625	 0.230233611093033 
1626	 0.230224016924336 
1627	 0.23023246325257 
1628	 0.23026216556394 
1629	 0.230276871801748 
1630	 0.230271341680484 
1631	 0.230300470957206 
1632	 0.230353781829067 
1633	 0.230381642460439 
1634	 0.230422095076799 
1635	 0.230437208235978 
1636	 0.230422116696854 
1637	 0.230425091019464 
1638	 0.23042500096807 
1639	 0.230435200038268 
1640	 0.230452769018403 
1641	 0.230466842884919 
1642	 0.230485139551169 
1643	 0.230502368728574 
1644	 0.230512662307286 
1645	 0.230536846019204 
1646	 0.230577481351767 
1647	 0.230598319678233 
1648	 0.230620198400534 
1649	 0.230631273464933 
1650	 0.230622579467223 
1651	 0.230625084545206 
1652	 0.230632619168713 
1653	 0.230631499000849 
1654	 0.230624841256413 
1655	 0.230623023811429 
1656	 0.230624184104038 
1657	 0.230611630968268 
1658	 0.230599422369305 
1659	 0.230576445180425 
1660	 0.23053351186119 
1661	 0.230500799908416 
1662	 0.23046264151514 
1663	 0.230439487638166 
1664	 0.230424066425235 
1665	 0.230408524328618 
1666	 0.230402221836529 
1667	 0.230396126081867 
1668	 0.230388541468794 
1669	 0.230385173272649 
1670	 0.230394517299218 
1671	 0.230389495921239 
1672	 0.23038058459231 
1673	 0.230365952876881 
1674	 0.230338352522996 
1675	 0.230320295025814 
1676	 0.230298149704504 
1677	 0.23028675914909 
1678	 0.230291022793412 
1679	 0.230280433540042 
1680	 0.230271394694171 
1681	 0.230253166610809 
1682	 0.230222655546456 
1683	 0.230193173980824 
1684	 0.230163252728964 
1685	 0.230125825832367 
1686	 0.230078442069181 
1687	 0.230037522230167 
1688	 0.229987098638332 
1689	 0.229955381364566 
1690	 0.229941620329724 
1691	 0.22991395471828 
1692	 0.229889321177837 
1693	 0.229863437467579 
1694	 0.229828135760769 
1695	 0.22979981094638 
1696	 0.229787859217237 
1697	 0.229751202086237 
1698	 0.229690735331576 
1699	 0.229655194070781 
1700	 0.229614877686495 
1701	 0.229587255851509 
1702	 0.229592537544232 
1703	 0.22957182323498 
1704	 0.229551030842686 
1705	 0.229505172763984 
1706	 0.229434668665596 
1707	 0.229370471219729 
1708	 0.229280765241686 
1709	 0.229219291893321 
1710	 0.229177115837149 
1711	 0.229128474263265 
1712	 0.229090770204183 
1713	 0.229041309779031 
1714	 0.228981103110145 
1715	 0.228928444446762 
1716	 0.228875331170616 
1717	 0.228828756644995 
1718	 0.228795820430378 
1719	 0.228740388347511 
1720	 0.228680355491677 
1721	 0.228610021103075 
1722	 0.228512567964824 
1723	 0.228447623227143 
1724	 0.228397969859606 
1725	 0.228330754343395 
1726	 0.228275789442709 
1727	 0.2281990688072 
1728	 0.228092873960078 
1729	 0.228013023968264 
1730	 0.227951703651182 
1731	 0.227855800292412 
1732	 0.227745086971317 
1733	 0.227651693567539 
1734	 0.227541431590539 
1735	 0.227444787246101 
1736	 0.227384190414966 
1737	 0.227276321166223 
1738	 0.227126554288103 
1739	 0.227022909542684 
1740	 0.226926824209186 
1741	 0.22683157818464 
1742	 0.226761950563164 
1743	 0.22667369833485 
1744	 0.226567224926831 
1745	 0.226473350005871 
1746	 0.226395916862821 
1747	 0.226281936166229 
1748	 0.226165135304102 
1749	 0.226029229602738 
1750	 0.225913010454575 
1751	 0.225819616993217 
1752	 0.225697894224032 
1753	 0.225578743142085 
1754	 0.225457105249403 
1755	 0.225320921317158 
1756	 0.225201240080451 
1757	 0.225069418294091 
1758	 0.224931782161388 
1759	 0.224807681997274 
1760	 0.224697674193113 
1761	 0.224633727693458 
1762	 0.224558598048407 
1763	 0.224439014623252 
1764	 0.22433522799505 
1765	 0.224210900040662 
1766	 0.224064894538849 
1767	 0.223968703658465 
1768	 0.223867514781645 
1769	 0.223726732970993 
1770	 0.223609395413965 
1771	 0.223524898828114 
1772	 0.223435273856205 
1773	 0.223357288765505 
1774	 0.223310939669311 
1775	 0.223245427874239 
1776	 0.223143272973012 
1777	 0.223059080362364 
1778	 0.222977753427174 
1779	 0.222882070590099 
1780	 0.222808059395244 
1781	 0.222732605463648 
1782	 0.222676281973577 
1783	 0.222624903719359 
1784	 0.222588830637281 
1785	 0.222599910039547 
1786	 0.222564539218855 
1787	 0.222507110027514 
1788	 0.22246566001306 
1789	 0.222411397943781 
1790	 0.222361128246367 
1791	 0.222316778724649 
1792	 0.222276394765382 
1793	 0.222238059533495 
1794	 0.222189809573195 
1795	 0.222140511585705 
1796	 0.222105359405473 
1797	 0.222057270775759 
1798	 0.22203001975181 
1799	 0.222039933876055 
1800	 0.222030725375645 
1801	 0.21673699567879 
1802	 0.216902093953259 
1803	 0.217069118326655 
1804	 0.217288765043775 
1805	 0.217531385077434 
1806	 0.217724661416632 
1807	 0.217940159747704 
1808	 0.218121779884246 
1809	 0.218301804483872 
1810	 0.218429333903291 
1811	 0.218524356866198 
1812	 0.218597068691698 
1813	 0.218668686895728 
1814	 0.218705274083769 
1815	 0.218746382579286 
1816	 0.218777226795713 
1817	 0.218797779000259 
1818	 0.218785003920638 
1819	 0.21879341763229 
1820	 0.218795016900074 
1821	 0.218825306876348 
1822	 0.218881694384032 
1823	 0.218914462506534 
1824	 0.218951596282603 
1825	 0.218978666751255 
1826	 0.218985953328258 
1827	 0.219003198202123 
1828	 0.219005062287304 
1829	 0.219021813808478 
1830	 0.219002396375031 
1831	 0.218960161130414 
1832	 0.218891809781083 
1833	 0.218825580834297 
1834	 0.218761890436539 
1835	 0.218708625542776 
1836	 0.218662988143421 
1837	 0.218599869117363 
1838	 0.218525935535661 
1839	 0.218463416054864 
1840	 0.218396447304628 
1841	 0.218339483419503 
1842	 0.218298088411907 
1843	 0.218250706959393 
1844	 0.218190078145739 
1845	 0.218093217541493 
1846	 0.217972655392718 
1847	 0.21787483100833 
1848	 0.217780316729047 
1849	 0.217676615355209 
1850	 0.217556768051689 
1851	 0.217437700307495 
1852	 0.217287366077713 
1853	 0.217110106582728 
1854	 0.216913205825005 
1855	 0.21671283117978 
1856	 0.216480610181966 
1857	 0.216215161577238 
1858	 0.21594017288049 
1859	 0.215619362170933 
1860	 0.215266556036411 
1861	 0.21488178513639 
1862	 0.21447768536739 
1863	 0.214022000546115 
1864	 0.213520130099055 
1865	 0.21300676009865 
1866	 0.21245061827655 
1867	 0.211823112289465 
1868	 0.211160605622401 
1869	 0.210430090192052 
1870	 0.209617062607644 
1871	 0.208761079860298 
1872	 0.207862837487278 
1873	 0.206916174409164 
1874	 0.205895526685832 
1875	 0.204817095276439 
1876	 0.203673814329287 
1877	 0.202430538753449 
1878	 0.201106572157858 
1879	 0.199726463184356 
1880	 0.198248652272171 
1881	 0.196676996199998 
1882	 0.195035721000508 
1883	 0.193331990922476 
1884	 0.191475078845977 
1885	 0.189562200165635 
1886	 0.18757769001607 
1887	 0.185478593151795 
1888	 0.183334134430028 
1889	 0.181095010056146 
1890	 0.178805157581457 
1891	 0.176536202403156 
1892	 0.174182929754606 
1893	 0.171914772461484 
1894	 0.169678665337774 
1895	 0.167475273208686 
1896	 0.165268788462111 
1897	 0.163141850929349 
1898	 0.1610504831968 
1899	 0.158999152224263 
1900	 0.157043775958204 
1901	 0.155163200293318 
1902	 0.153386591959761 
1903	 0.151720788062818 
1904	 0.15012549012936 
1905	 0.148612581581706 
1906	 0.147199786949459 
1907	 0.14586838179847 
1908	 0.144625677897364 
1909	 0.143496763758576 
1910	 0.142454247084796 
1911	 0.141489923310437 
1912	 0.140587746831446 
1913	 0.139746606440157 
1914	 0.138977788945505 
1915	 0.138253012395362 
1916	 0.13758347164475 
1917	 0.136975760699902 
1918	 0.136415571688683 
1919	 0.135899993099123 
1920	 0.135445279307421 
1921	 0.135025289790915 
1922	 0.134646101330721 
1923	 0.134339735238156 
1924	 0.13408386540436 
1925	 0.133899335329931 
1926	 0.133733256235502 
1927	 0.133615128660781 
1928	 0.133531559106804 
1929	 0.133470093062396 
1930	 0.133449292875308 
1931	 0.13344041673683 
1932	 0.133451096717922 
1933	 0.133489718780737 
1934	 0.133559402280553 
1935	 0.133669209698398 
1936	 0.133837417523673 
1937	 0.134007159639471 
1938	 0.134201737485237 
1939	 0.134409393691393 
1940	 0.13463188809525 
1941	 0.134877527143796 
1942	 0.135137187602411 
1943	 0.135438334170233 
1944	 0.135734545234533 
1945	 0.136036149038524 
1946	 0.136358744044293 
1947	 0.136691270651565 
1948	 0.137036820906695 
1949	 0.13740193013534 
1950	 0.13777671700372 
1951	 0.138165984109412 
1952	 0.138553996175645 
1953	 0.138949741792117 
1954	 0.139386494003154 
1955	 0.139840276162913 
1956	 0.140300016641605 
1957	 0.140763348914909 
1958	 0.141240450542452 
1959	 0.141725476215516 
1960	 0.142221162402871 
1961	 0.142713637134368 
1962	 0.143217010149901 
1963	 0.143722023215314 
1964	 0.144218840609014 
1965	 0.14472102868403 
1966	 0.145238857307499 
1967	 0.145783601832407 
1968	 0.146319149494121 
1969	 0.146861851456443 
1970	 0.147397786982831 
1971	 0.147937904739779 
1972	 0.148468467386401 
1973	 0.148991470394224 
1974	 0.149518679205789 
1975	 0.15003122623713 
1976	 0.150563812755376 
1977	 0.151118933403494 
1978	 0.151673544191986 
1979	 0.152241479534328 
1980	 0.152814311645639 
1981	 0.15335735706471 
1982	 0.153874113135327 
1983	 0.154404528471567 
1984	 0.154917909512414 
1985	 0.155448825786824 
1986	 0.155986108853217 
1987	 0.156531752855885 
1988	 0.157100088204842 
1989	 0.157645070422425 
1990	 0.158184540637558 
1991	 0.158744821714982 
1992	 0.15928831193447 
1993	 0.159826671019436 
1994	 0.160349027617571 
1995	 0.160852480967958 
1996	 0.161372879527272 
1997	 0.161879588835957 
1998	 0.162406050021912 
1999	 0.162968307430758 
2000	 0.163505819822292 
2001	 0.164044796095586 
2002	 0.164560189150877 
2003	 0.165088048989823 
2004	 0.165589462524121 
2005	 0.166081624860988 
2006	 0.16656454442967 
2007	 0.167041881307314 
2008	 0.167486261869095 
2009	 0.167961061561667 
2010	 0.16845664200689 
2011	 0.168937750495989 
2012	 0.169417818488215 
2013	 0.169899436821023 
2014	 0.170378451064084 
2015	 0.170851421456037 
2016	 0.171328137213032 
2017	 0.171809802257202 
2018	 0.172284088757714 
2019	 0.172752742497798 
2020	 0.173221347261103 
2021	 0.173693887148687 
2022	 0.174153652368906 
2023	 0.174607129924169 
2024	 0.175056063905267 
2025	 0.175485427189471 
2026	 0.17592879545865 
2027	 0.176393754884545 
2028	 0.17683325430191 
2029	 0.177254117842296 
2030	 0.177671659453009 
2031	 0.178073100061146 
2032	 0.178432329721232 
2033	 0.178825169580784 
2034	 0.179230488719629 
2035	 0.179624990470201 
2036	 0.180025644287161 
2037	 0.180418592850534 
2038	 0.180809120545269 
2039	 0.181188082064423 
2040	 0.181568711114234 
2041	 0.181930380677374 
2042	 0.182271177421386 
2043	 0.182606686093999 
2044	 0.182940679324689 
2045	 0.183258359815807 
2046	 0.183593369894735 
2047	 0.183934528509993 
2048	 0.184274404678952 
2049	 0.184629287695939 
2050	 0.184963034790466 
2051	 0.185288042034905 
2052	 0.185608822513981 
2053	 0.185908894921459 
2054	 0.186220665120677 
2055	 0.186532647861529 
2056	 0.186848794915422 
2057	 0.187168345371308 
2058	 0.187501941643527 
2059	 0.187814139419626 
2060	 0.188123409816702 
2061	 0.188422483759969 
2062	 0.188701600786302 
2063	 0.188990253379052 
2064	 0.189282427437815 
2065	 0.189565308879265 
2066	 0.189846852033805 
2067	 0.190123657268086 
2068	 0.190379424613263 
2069	 0.190653810542579 
2070	 0.190932796834013 
2071	 0.191220308778919 
2072	 0.191494276615362 
2073	 0.191774318356763 
2074	 0.19204288992763 
2075	 0.192293922509992 
2076	 0.192554305079942 
2077	 0.192821789503445 
2078	 0.193080250494113 
2079	 0.193332228181557 
2080	 0.193585485579195 
2081	 0.193826497271435 
2082	 0.194081273030488 
2083	 0.194337435560223 
2084	 0.194610538157119 
2085	 0.194876119110643 
2086	 0.195157392607516 
2087	 0.195410755185267 
2088	 0.195650862625365 
2089	 0.195890447466614 
2090	 0.196112710817267 
2091	 0.196345151462941 
2092	 0.196575805269895 
2093	 0.196814819741767 
2094	 0.197061985857763 
2095	 0.197303053529597 
2096	 0.197547951568317 
2097	 0.197791544600039 
2098	 0.198033045909511 
2099	 0.198273327640643 
2100	 0.19850198120649 
2101	 0.198723886411364 
2102	 0.198953057759474 
2103	 0.199174020263868 
2104	 0.199399656347266 
2105	 0.199637805873464 
2106	 0.199864422748046 
2107	 0.200077583131158 
2108	 0.200300836536805 
2109	 0.200528371112802 
2110	 0.20075544310676 
2111	 0.200981270968553 
2112	 0.201212778674895 
2113	 0.201442530427464 
2114	 0.201688728207084 
2115	 0.20191486862803 
2116	 0.202141686570869 
2117	 0.202360671184526 
2118	 0.202552152132841 
2119	 0.202779646016995 
2120	 0.203038263999854 
2121	 0.203260849774149 
2122	 0.203488466406129 
2123	 0.203700776698222 
2124	 0.203893208571063 
2125	 0.2040695426641 
2126	 0.204226560196751 
2127	 0.204394590748204 
2128	 0.204555838081158 
2129	 0.204701663926874 
2130	 0.204857137940588 
2131	 0.204997080577544 
2132	 0.205121304419388 
2133	 0.205217323248901 
2134	 0.205314367651929 
2135	 0.20540451684489 
2136	 0.205491528974489 
2137	 0.205574745524658 
2138	 0.205636307828316 
2139	 0.20567406481677 
2140	 0.205733175571856 
2141	 0.205787412925458 
2142	 0.205834778984968 
2143	 0.205916513763806 
2144	 0.205956510917606 
2145	 0.205961834668958 
2146	 0.205960909886788 
2147	 0.20593714063944 
2148	 0.205908662222542 
2149	 0.205878098315078 
2150	 0.205836365836975 
2151	 0.205796180926975 
2152	 0.205760863060384 
2153	 0.205707311100938 
2154	 0.205644510052142 
2155	 0.205576143387728 
2156	 0.205515738480345 
2157	 0.205411153319101 
2158	 0.205263082604429 
2159	 0.205138801032932 
2160	 0.204981103037852 
2161	 0.204849719687394 
2162	 0.20477036248487 
2163	 0.204655607901388 
2164	 0.204532113993908 
2165	 0.204391841411166 
2166	 0.204243640753406 
2167	 0.204066392076665 
2168	 0.203913010050818 
2169	 0.203759203436799 
2170	 0.203614119515448 
2171	 0.203488133913665 
2172	 0.203342385177866 
2173	 0.203193003384216 
2174	 0.203037514902049 
2175	 0.202871324369131 
2176	 0.202702047826333 
2177	 0.202536488266953 
2178	 0.202355658223289 
2179	 0.202166075526672 
2180	 0.20196436978689 
2181	 0.201747497893204 
2182	 0.201526333468901 
2183	 0.201292602768172 
2184	 0.201048700042909 
2185	 0.200822290257879 
2186	 0.200592633176484 
2187	 0.200383110999565 
2188	 0.200188859427053 
2189	 0.199996736466377 
2190	 0.199803283688712 
2191	 0.199639710370662 
2192	 0.199491878415081 
2193	 0.199356851571286 
2194	 0.199263322106478 
2195	 0.199143589385296 
2196	 0.199012125044683 
2197	 0.198896846988917 
2198	 0.198772858665958 
2199	 0.198668535466083 
2200	 0.198573768323386 
2201	 0.198500885645568 
2202	 0.198434704822118 
2203	 0.198409773885536 
2204	 0.19837817589865 
2205	 0.1983606644506 
2206	 0.198360325159761 
2207	 0.198366689569575 
2208	 0.198392276024922 
2209	 0.198453996511619 
2210	 0.19850093066715 
2211	 0.198550290965964 
2212	 0.198602230295729 
2213	 0.198654963931029 
2214	 0.198711620129641 
2215	 0.198774227768818 
2216	 0.198837761562897 
2217	 0.198914116890925 
2218	 0.198974270244217 
2219	 0.199019362973195 
2220	 0.199075302401144 
2221	 0.199146504760875 
2222	 0.199183420213172 
2223	 0.199207591476828 
2224	 0.199256023617801 
2225	 0.199296027919443 
2226	 0.199313004425631 
2227	 0.199357348140918 
2228	 0.199432239051554 
2229	 0.199476441496267 
2230	 0.199511118458842 
2231	 0.199548469957455 
2232	 0.199591859339177 
2233	 0.199605113986138 
2234	 0.199614194137448 
2235	 0.199597669851049 
2236	 0.19953804458179 
2237	 0.199491494842097 
2238	 0.199426299422925 
2239	 0.19937837707323 
2240	 0.19934677409538 
2241	 0.19930186811941 
2242	 0.199258159490502 
2243	 0.19921475716241 
2244	 0.199178123394249 
2245	 0.199106068641228 
2246	 0.199049551813681 
2247	 0.19898827002777 
2248	 0.198926613058837 
2249	 0.198854565449365 
2250	 0.198794424940883 
2251	 0.198744458851911 
2252	 0.198683693803292 
2253	 0.198620740654514 
2254	 0.19855796165605 
2255	 0.198492178233649 
2256	 0.198419083734073 
2257	 0.198339329220625 
2258	 0.198270575407821 
2259	 0.198189436021472 
2260	 0.198134558874839 
2261	 0.19811890611908 
2262	 0.198064586558391 
2263	 0.197988995360555 
2264	 0.19793773385116 
2265	 0.197877998918191 
2266	 0.197823834219826 
2267	 0.197802979342525 
2268	 0.197766945309834 
2269	 0.197706587547407 
2270	 0.197661959096913 
2271	 0.197636221873074 
2272	 0.197603917025362 
2273	 0.197600948536943 
2274	 0.197595454232934 
2275	 0.19756409289444 
2276	 0.197525347558434 
2277	 0.197476072943874 
2278	 0.19739226194863 
2279	 0.197341737304311 
2280	 0.197308633454967 
2281	 0.197260945574734 
2282	 0.197196141238521 
2283	 0.197177776200361 
2284	 0.197172766001905 
2285	 0.197168719625421 
2286	 0.197233984136713 
2287	 0.197224749916606 
2288	 0.197161171051734 
2289	 0.197124622320387 
2290	 0.197081475615461 
2291	 0.197016917981568 
2292	 0.196947719884014 
2293	 0.196879508572245 
2294	 0.196771368187968 
2295	 0.196688121035329 
2296	 0.196616829437704 
2297	 0.196572129635214 
2298	 0.196531269150494 
2299	 0.196478121289191 
2300	 0.196402942914445 
2301	 0.196327454249409 
2302	 0.196199559546801 
2303	 0.196091430893868 
2304	 0.19601377617781 
2305	 0.19589177760105 
2306	 0.195787130344207 
2307	 0.195686119010857 
2308	 0.195593781163167 
2309	 0.19550320231308 
2310	 0.19541675440739 
2311	 0.195356146420105 
2312	 0.195243294943254 
2313	 0.195103529066298 
2314	 0.194972256428337 
2315	 0.19483742773402 
2316	 0.194661701124158 
2317	 0.194462364962879 
2318	 0.194269937547416 
2319	 0.193997701874131 
2320	 0.193821844851286 
2321	 0.193736912955485 
2322	 0.193595492940794 
2323	 0.193477325569842 
2324	 0.193334498522929 
2325	 0.19313238908576 
2326	 0.192966871701358 
2327	 0.19280799678327 
2328	 0.192676804222174 
2329	 0.192549858382134 
2330	 0.192398993522198 
2331	 0.19228348055324 
2332	 0.192175103854107 
2333	 0.19202252283534 
2334	 0.191940867640487 
2335	 0.191870308904342 
2336	 0.191712812625622 
2337	 0.191600921077351 
2338	 0.19145815003531 
2339	 0.191215683402275 
2340	 0.191031534880433 
2341	 0.190859678819944 
2342	 0.19070050048723 
2343	 0.190594341363831 
2344	 0.190421645306147 
2345	 0.190221714201331 
2346	 0.18996448426797 
2347	 0.189742938314579 
2348	 0.189504440986075 
2349	 0.189297615926925 
2350	 0.189122116819023 
2351	 0.188921260414166 
2352	 0.188716690812525 
2353	 0.188489957906154 
2354	 0.188256069352012 
2355	 0.188009807238576 
2356	 0.18772522956164 
2357	 0.187493279695038 
2358	 0.187281870640132 
2359	 0.187045694324504 
2360	 0.18681580575577 
2361	 0.186604781372793 
2362	 0.186397553232665 
2363	 0.186189294781704 
2364	 0.185987007315179 
2365	 0.185800834883514 
2366	 0.185638708008919 
2367	 0.185424071253819 
2368	 0.185223465738588 
2369	 0.184996676961039 
2370	 0.184736193554791 
2371	 0.184407983099928 
2372	 0.184071843769043 
2373	 0.183722181272793 
2374	 0.183378865719223 
2375	 0.183055623361382 
2376	 0.182757000861265 
2377	 0.182497042148696 
2378	 0.182241362500188 
2379	 0.181958274415276 
2380	 0.181678645197396 
2381	 0.1814578623053 
2382	 0.181234956716334 
2383	 0.180965760594719 
2384	 0.180627861292692 
2385	 0.18023452731209 
2386	 0.17984098624464 
2387	 0.179460575857194 
2388	 0.179179658372926 
2389	 0.178964000061719 
2390	 0.178645391781193 
2391	 0.178277518972201 
2392	 0.177929275071082 
2393	 0.177534963794126 
2394	 0.177160368043045 
2395	 0.176826114438863 
2396	 0.176508253460175 
2397	 0.176192774026865 
2398	 0.175898055983877 
2399	 0.175624237552248 
2400	 0.175275190268076 
2401	 0.174919801676301 
2402	 0.174539980803171 
2403	 0.174182526108883 
2404	 0.173886161045786 
2405	 0.173528550128019 
2406	 0.17319400296091 
2407	 0.172873638340037 
2408	 0.172513682888813 
2409	 0.172177312152591 
2410	 0.171845208884661 
2411	 0.171483053161359 
2412	 0.171175007117316 
2413	 0.170882042131797 
2414	 0.170550705955364 
2415	 0.170264210847082 
2416	 0.169930713735534 
2417	 0.169515058655214 
2418	 0.16912377550029 
2419	 0.16876456947922 
2420	 0.16836368471233 
2421	 0.16794338407071 
2422	 0.167542054498326 
2423	 0.167083672494433 
2424	 0.166680018631016 
2425	 0.16631992710156 
2426	 0.165888110911886 
2427	 0.165471893376852 
2428	 0.165081982796769 
2429	 0.16467713568112 
2430	 0.164262685474428 
2431	 0.163846589993833 
2432	 0.16345915792147 
2433	 0.163020543009114 
2434	 0.162600530937633 
2435	 0.162274130202984 
2436	 0.161914735968063 
2437	 0.161568338713641 
2438	 0.161191876375679 
2439	 0.160754922047761 
2440	 0.160344819260925 
2441	 0.159863430127064 
2442	 0.159462255449162 
2443	 0.159236672710777 
2444	 0.158851909700171 
2445	 0.158401482369536 
2446	 0.157988166249763 
2447	 0.157451298667646 
2448	 0.15703130522485 
2449	 0.156719024563553 
2450	 0.156306697603029 
2451	 0.155892075850224 
2452	 0.155504412771283 
2453	 0.155122233541256 
2454	 0.154718700985685 
2455	 0.154304960757926 
2456	 0.153897861078266 
2457	 0.153439117799821 
2458	 0.153080838537028 
2459	 0.15277845192375 
2460	 0.152423535507418 
2461	 0.152114759907101 
2462	 0.151750282448576 
2463	 0.151371566212184 
2464	 0.151050260891799 
2465	 0.150720628899331 
2466	 0.150375651361314 
2467	 0.150054723737684 
2468	 0.149676417895758 
2469	 0.149241422773839 
2470	 0.148856980561391 
2471	 0.148326261974662 
2472	 0.147827084666498 
2473	 0.147530578041693 
2474	 0.147034239493201 
2475	 0.146751743252772 
2476	 0.146664132789631 
2477	 0.146264136383797 
2478	 0.146013897368513 
2479	 0.1457663301409 
2480	 0.145330425321114 
2481	 0.145008998345175 
2482	 0.144659293819531 
2483	 0.144321180403882 
2484	 0.143991383762682 
2485	 0.143617963179376 
2486	 0.14349479612047 
2487	 0.143422966320028 
2488	 0.143128072475136 
2489	 0.143022795939285 
2490	 0.142800171455573 
2491	 0.142278303566439 
2492	 0.14206048682408 
2493	 0.141800462966094 
2494	 0.141490256040463 
2495	 0.141512358390949 
2496	 0.141281338516782 
2497	 0.140835246603928 
2498	 0.140431968856362 
2499	 0.139881291090049 
2500	 0.139489110239656 
