Wavelength	mm2500005.asd
350	 2.50197835703068E-02 
351	 0.035307546268064 
352	 3.88769667248542E-02 
353	 0.029228043763861 
354	 3.91641725957155E-02 
355	 4.19204216809751E-02 
356	 4.01704170429428E-02 
357	 4.22246016542111E-02 
358	 4.73600732481264E-02 
359	 4.71029195756778E-02 
360	 4.40269145136501E-02 
361	 4.67313880206096E-02 
362	 4.69040536373071E-02 
363	 4.58922509530862E-02 
364	 4.50490579162739E-02 
365	 4.37870117913524E-02 
366	 4.23693186616783E-02 
367	 0.041740196548082 
368	 4.22747723568013E-02 
369	 4.16647195808527E-02 
370	 4.15954141832151E-02 
371	 4.23939727807551E-02 
372	 4.34063296274594E-02 
373	 4.54375388742906E-02 
374	 4.50906727573763E-02 
375	 4.33709283823414E-02 
376	 5.03401683453187E-02 
377	 4.74782997079547E-02 
378	 4.28555579562891E-02 
379	 4.73607674128525E-02 
380	 4.78655293825398E-02 
381	 4.52569021950252E-02 
382	 4.31971654222468E-02 
383	 4.62343141517444E-02 
384	 0.047557033909134 
385	 4.88227971562985E-02 
386	 0.050555560305648 
387	 4.84770744170508E-02 
388	 4.80990668475529E-02 
389	 4.96302777220904E-02 
390	 5.11942083853878E-02 
391	 4.98949609094822E-02 
392	 4.98940174082508E-02 
393	 5.19059033459327E-02 
394	 5.34229895957252E-02 
395	 5.27571450767567E-02 
396	 5.16281474516671E-02 
397	 0.051936375893763 
398	 5.52361802060126E-02 
399	 5.50807224326953E-02 
400	 5.42382069591567E-02 
401	 5.71392066620025E-02 
402	 5.67188714960873E-02 
403	 5.55323274120637E-02 
404	 5.49110143494423E-02 
405	 5.43322761031466E-02 
406	 5.49762430133793E-02 
407	 5.60067711016628E-02 
408	 5.63967685228386E-02 
409	 5.54770636765539E-02 
410	 5.53864604901155E-02 
411	 5.61372250215076E-02 
412	 5.67900962874992E-02 
413	 5.79277537970681E-02 
414	 5.77735682654694E-02 
415	 5.64617987009549E-02 
416	 5.67090805988708E-02 
417	 5.67496735625998E-02 
418	 5.70495525347197E-02 
419	 5.78748001928997E-02 
420	 5.69896800952239E-02 
421	 0.056278752704622 
422	 5.65791816174448E-02 
423	 5.77494472642237E-02 
424	 5.74257938633797E-02 
425	 5.68223037601787E-02 
426	 5.68136755350789E-02 
427	 5.68305686254015E-02 
428	 5.66520403772405E-02 
429	 5.64016603716159E-02 
430	 5.63011754145829E-02 
431	 5.63460228075452E-02 
432	 5.64635705584792E-02 
433	 5.65676687232804E-02 
434	 5.65800503916435E-02 
435	 5.69934402997764E-02 
436	 5.72848877485975E-02 
437	 5.70207895085709E-02 
438	 5.63693775527138E-02 
439	 5.65130651958248E-02 
440	 5.70523123407632E-02 
441	 5.69180211342819E-02 
442	 5.67903934235341E-02 
443	 5.68384103049658E-02 
444	 5.70724102046359E-02 
445	 5.73659015439841E-02 
446	 5.74133211470657E-02 
447	 5.74586923280978E-02 
448	 5.77489084067525E-02 
449	 0.057797423007099 
450	 5.78373781400084E-02 
451	 5.79698837432242E-02 
452	 5.81529277200558E-02 
453	 5.82001274638996E-02 
454	 5.80484823252332E-02 
455	 5.78457918062431E-02 
456	 5.82229819435432E-02 
457	 5.84228469608927E-02 
458	 0.05835085542049 
459	 0.058252097018329 
460	 5.84312291123451E-02 
461	 5.84536286398067E-02 
462	 5.82471122640681E-02 
463	 5.83367917769319E-02 
464	 0.05830408625712 
465	 5.83591219562982E-02 
466	 5.86860039297131E-02 
467	 5.86908907113229E-02 
468	 5.86249055755714E-02 
469	 0.058585886930904 
470	 0.058537051011524 
471	 5.86221740998211E-02 
472	 5.85994592264102E-02 
473	 5.84043861764368E-02 
474	 5.85437435461477E-02 
475	 5.87025970177743E-02 
476	 5.87428835151181E-02 
477	 5.86298810220783E-02 
478	 5.84747718027468E-02 
479	 5.85467848876974E-02 
480	 0.058819195543164 
481	 5.88564180020034E-02 
482	 5.87876188789629E-02 
483	 5.87965306523344E-02 
484	 5.89583364256047E-02 
485	 5.88327197326094E-02 
486	 5.86302004914154E-02 
487	 5.85544155024636E-02 
488	 5.87578619070632E-02 
489	 5.89294045412527E-02 
490	 5.88851135715311E-02 
491	 5.86563110972544E-02 
492	 5.87304902880934E-02 
493	 0.058681376670525 
494	 5.85682453656533E-02 
495	 5.86490180656578E-02 
496	 5.88707623283032E-02 
497	 5.88967971229786E-02 
498	 5.87295508864156E-02 
499	 5.89121951577354E-02 
500	 5.88805044283213E-02 
501	 0.058826412094946 
502	 5.90073519577134E-02 
503	 5.89540672837591E-02 
504	 5.89037895866595E-02 
505	 5.89205938301146E-02 
506	 5.88975622154273E-02 
507	 0.05903571328306 
508	 5.91710617346114E-02 
509	 5.91625406038679E-02 
510	 5.91105323765288E-02 
511	 5.90550543687121E-02 
512	 5.90416660542914E-02 
513	 5.90993771795529E-02 
514	 5.91241968156759E-02 
515	 5.91180350582483E-02 
516	 5.91108968103959E-02 
517	 5.91609638189297E-02 
518	 5.91742035857113E-02 
519	 5.91678355357634E-02 
520	 5.91944105926429E-02 
521	 0.059283891330956 
522	 5.93663503677445E-02 
523	 5.93816627429785E-02 
524	 0.059290117969852 
525	 5.93001784718952E-02 
526	 5.93039125117434E-02 
527	 5.92215483816122E-02 
528	 5.93106670528192E-02 
529	 5.93469478888011E-02 
530	 5.93516903872738E-02 
531	 5.94846430023068E-02 
532	 5.94785905649873E-02 
533	 5.95022913171048E-02 
534	 5.96382115888539E-02 
535	 5.96649561133367E-02 
536	 0.059647438977572 
537	 5.96514942734772E-02 
538	 5.97255420977007E-02 
539	 0.059752459506481 
540	 5.98036228029676E-02 
541	 0.059903360426341 
542	 5.99975591780145E-02 
543	 5.99818674912278E-02 
544	 5.99859614269745E-02 
545	 6.01358942103396E-02 
546	 6.02738376947403E-02 
547	 6.03762560660441E-02 
548	 6.04341898519603E-02 
549	 6.04533709086834E-02 
550	 6.05225486511185E-02 
551	 6.05896577589921E-02 
552	 6.06315720883483E-02 
553	 6.07813820892282E-02 
554	 6.08987100133801E-02 
555	 6.09845904219382E-02 
556	 6.11141919807564E-02 
557	 6.13052651962875E-02 
558	 0.061496812833991 
559	 6.16550310684676E-02 
560	 6.18069006524425E-02 
561	 6.19728636328733E-02 
562	 6.21458242075659E-02 
563	 6.23177376420017E-02 
564	 6.25342493719185E-02 
565	 6.27851733180449E-02 
566	 6.30547885112382E-02 
567	 6.33260212398053E-02 
568	 0.06362757096527 
569	 6.39359264383892E-02 
570	 6.42307966336572E-02 
571	 6.45364255493706E-02 
572	 6.49171874052735E-02 
573	 6.53488053916181E-02 
574	 6.57446555980175E-02 
575	 6.60920920399429E-02 
576	 6.64975436452266E-02 
577	 6.69871827883671E-02 
578	 0.067361695155063 
579	 6.77726782188127E-02 
580	 6.82593566960094E-02 
581	 0.068807513264772 
582	 6.93842485761587E-02 
583	 6.99062185643626E-02 
584	 7.03768603001719E-02 
585	 7.09260964026535E-02 
586	 7.15271646410418E-02 
587	 7.21588019580328E-02 
588	 7.27938038619099E-02 
589	 7.33977336869137E-02 
590	 7.39875335409684E-02 
591	 7.45878621822864E-02 
592	 7.52252908212237E-02 
593	 7.58023291492005E-02 
594	 7.63783932411003E-02 
595	 7.70043258149725E-02 
596	 7.76257666725718E-02 
597	 7.82542914810699E-02 
598	 0.078896345010983 
599	 7.95545716297963E-02 
600	 8.02071565020854E-02 
601	 8.07752283108555E-02 
602	 8.12656192041217E-02 
603	 8.18495744533283E-02 
604	 8.24567348178595E-02 
605	 8.30012925426225E-02 
606	 8.34307670172723E-02 
607	 8.39221554803362E-02 
608	 0.084406719459238 
609	 8.48678294169383E-02 
610	 8.53642227888305E-02 
611	 8.58223901165056E-02 
612	 8.62535710063304E-02 
613	 8.66694321022254E-02 
614	 8.70141723458457E-02 
615	 8.73289408474078E-02 
616	 8.76351244491463E-02 
617	 8.79391148173978E-02 
618	 8.82768967226539E-02 
619	 8.85719050070056E-02 
620	 8.88022199878069E-02 
621	 8.91049519756749E-02 
622	 8.93414705219522E-02 
623	 8.95283203225637E-02 
624	 8.97418210601936E-02 
625	 9.00037086916452E-02 
626	 9.02336958757071E-02 
627	 9.04224892470059E-02 
628	 9.06646447736981E-02 
629	 9.08586259771517E-02 
630	 9.10229119077444E-02 
631	 9.11985767430745E-02 
632	 9.13749180967221E-02 
633	 9.15628740742414E-02 
634	 9.17373403838233E-02 
635	 9.18531403652734E-02 
636	 9.20278002850965E-02 
637	 0.092247518413775 
638	 9.24604697638467E-02 
639	 9.25777970667239E-02 
640	 0.092705516031369 
641	 0.09288969504945 
642	 9.31287974884175E-02 
643	 9.33024588903429E-02 
644	 9.34563795556667E-02 
645	 0.093634395230755 
646	 9.38546919210411E-02 
647	 9.40069316800422E-02 
648	 9.41678367393155E-02 
649	 9.44231813914407E-02 
650	 9.46539569196035E-02 
651	 9.48438096708536E-02 
652	 9.50212052608986E-02 
653	 9.52478383188208E-02 
654	 0.095489686066198 
655	 9.57245140094465E-02 
656	 9.59464542022126E-02 
657	 9.61852906676617E-02 
658	 9.64134092352375E-02 
659	 9.66343209147096E-02 
660	 9.68704058698683E-02 
661	 9.71647369661034E-02 
662	 9.74663106172557E-02 
663	 9.77423565209381E-02 
664	 9.79994034785088E-02 
665	 9.82546158204563E-02 
666	 9.85097672432974E-02 
667	 9.87682891375998E-02 
668	 9.90585715396572E-02 
669	 9.93841480144758E-02 
670	 9.97201596027795E-02 
671	 0.100021015829527 
672	 0.100290992083991 
673	 0.100608873672167 
674	 0.101005513617995 
675	 0.101375291279982 
676	 0.101723587205804 
677	 0.102061463696357 
678	 0.102406212061847 
679	 0.102759965402373 
680	 0.10314710419441 
681	 0.103555082147418 
682	 0.103922260538574 
683	 0.104335420882599 
684	 0.104746429204369 
685	 0.105114245342424 
686	 0.105557166882417 
687	 0.106003258836659 
688	 0.106423388386329 
689	 0.106825904908149 
690	 0.107257345378084 
691	 0.107731245050775 
692	 0.108225489881899 
693	 0.108660068364148 
694	 0.109080160931048 
695	 0.109539822796037 
696	 0.110065505521816 
697	 0.110506996685029 
698	 0.110969419924195 
699	 0.111482354176518 
700	 0.111980204296473 
701	 0.112462896863426 
702	 0.112948375425478 
703	 0.113439771222152 
704	 0.113874890877958 
705	 0.114370811395092 
706	 0.114910852254963 
707	 0.115413981724655 
708	 0.115921411934717 
709	 0.116424412705612 
710	 0.116919436543688 
711	 0.117418855639514 
712	 0.117884761558813 
713	 0.118351973884439 
714	 0.118859325168379 
715	 0.119386021844652 
716	 0.119848160510849 
717	 0.120273879772241 
718	 0.120764000206354 
719	 0.121226084438859 
720	 0.121675325930502 
721	 0.122125138194035 
722	 0.122559409106467 
723	 0.122962673288854 
724	 0.123364855507411 
725	 0.123786770465318 
726	 0.124114545456794 
727	 0.124461727701041 
728	 0.124839199497688 
729	 0.125156669162393 
730	 0.125457970981804 
731	 0.125764464352266 
732	 0.126078656406171 
733	 0.126371176524471 
734	 0.126634507251563 
735	 0.126842874247793 
736	 0.12698430756855 
737	 0.127160253945823 
738	 0.127330921881322 
739	 0.12748586821832 
740	 0.12765659384771 
741	 0.127794926619433 
742	 0.127883779086861 
743	 0.127935786265651 
744	 0.128026942356548 
745	 0.128059096021411 
746	 0.128052998101117 
747	 0.128072870712007 
748	 0.128049719644356 
749	 0.127996091482753 
750	 0.127943893540645 
751	 0.127936798610759 
752	 0.127856298855386 
753	 0.12771706272183 
754	 0.127569055638339 
755	 0.127462867118737 
756	 0.127367857623964 
757	 0.127224529744389 
758	 0.126986824227097 
759	 0.126812536242653 
760	 0.126635991817651 
761	 0.126417064365983 
762	 0.126175865235947 
763	 0.125989451287437 
764	 0.125776177302026 
765	 0.125479052754563 
766	 0.125223290222467 
767	 0.125000075556253 
768	 0.124757959107756 
769	 0.124441508411358 
770	 0.12414291457745 
771	 0.123871248326011 
772	 0.123609412237413 
773	 0.123320342984877 
774	 0.123032342347659 
775	 0.122719406240391 
776	 0.122377409147863 
777	 0.122099017754556 
778	 0.121767777265226 
779	 0.12142739878725 
780	 0.121165880299123 
781	 0.120847734657654 
782	 0.120523108963845 
783	 0.120208227401911 
784	 0.119872223876048 
785	 0.119563623955615 
786	 0.119289259928681 
787	 0.119026094012996 
788	 0.118698717092616 
789	 0.118393447751086 
790	 0.118091256406408 
791	 0.117754421571001 
792	 0.117465686967881 
793	 0.117177955249191 
794	 0.116882299191544 
795	 0.116604705243422 
796	 0.116294720822659 
797	 0.116000110477509 
798	 0.115743224517864 
799	 0.115475173625946 
800	 0.115167336774087 
801	 0.114860470799941 
802	 0.114604941870745 
803	 0.114397005086724 
804	 0.114174958495995 
805	 0.113920525589278 
806	 0.113648687416348 
807	 0.113368087994025 
808	 0.113127423829345 
809	 0.112920573717743 
810	 0.112668453003073 
811	 0.112446987740505 
812	 0.112216232758237 
813	 0.111957903128228 
814	 0.111787285413248 
815	 0.111585313268523 
816	 0.1113614130175 
817	 0.111170508273609 
818	 0.110996378716277 
819	 0.110824193135998 
820	 0.11063282109278 
821	 0.110407527993416 
822	 0.110259654308763 
823	 0.110110000597872 
824	 0.109914760861637 
825	 0.109734980083826 
826	 0.10960680361193 
827	 0.109484271629927 
828	 0.109324665347251 
829	 0.109180136035797 
830	 0.108998366740089 
831	 0.108830128959353 
832	 0.108749729977192 
833	 0.108654640285843 
834	 0.108533919471469 
835	 0.108390294849758 
836	 0.108239388165342 
837	 0.108161636896908 
838	 0.108122526135744 
839	 0.108072894190715 
840	 0.107977180168843 
841	 0.107830900240276 
842	 0.107724503961643 
843	 0.1077092782763 
844	 0.107634852486474 
845	 0.10755482973776 
846	 0.107490508965625 
847	 0.107448725383864 
848	 0.107441833171669 
849	 0.107410040994094 
850	 0.107343261585656 
851	 0.107282237304336 
852	 0.107284695985051 
853	 0.10728593051701 
854	 0.107263092405145 
855	 0.107279424080827 
856	 0.107291196427803 
857	 0.107304391282144 
858	 0.10732268468203 
859	 0.107314186745533 
860	 0.107299403994753 
861	 0.107305417021978 
862	 0.107343815020933 
863	 0.107351747699533 
864	 0.107374808104447 
865	 0.107408766790952 
866	 0.107430368925371 
867	 0.107530311081808 
868	 0.107614424213039 
869	 0.107645529749139 
870	 0.107667049829313 
871	 0.107747264658504 
872	 0.107847077205684 
873	 0.107931837147503 
874	 0.108007129579719 
875	 0.108093944967827 
876	 0.108169871481236 
877	 0.108220687384092 
878	 0.108271866105923 
879	 0.108427393999905 
880	 0.108623749970233 
881	 0.108755659864284 
882	 0.108827470609015 
883	 0.108936599558603 
884	 0.109068021105243 
885	 0.10916336201383 
886	 0.109334709674016 
887	 0.109530606257407 
888	 0.109685189337777 
889	 0.109755083895673 
890	 0.109903229239707 
891	 0.11009755084806 
892	 0.110314483298427 
893	 0.110567304732539 
894	 0.110673528009384 
895	 0.110785366528602 
896	 0.111005434160775 
897	 0.111224048071461 
898	 0.111479314346437 
899	 0.111705210679261 
900	 0.111866059265013 
901	 0.112063078075993 
902	 0.112334140699128 
903	 0.11261093206465 
904	 0.112820713010487 
905	 0.113030024712562 
906	 0.113287361051207 
907	 0.113606907446255 
908	 0.113959765692044 
909	 0.114229475194648 
910	 0.114453566160591 
911	 0.114688572657417 
912	 0.114984627975663 
913	 0.115308014902962 
914	 0.115632849239803 
915	 0.115941371986236 
916	 0.116230056089645 
917	 0.116536947915698 
918	 0.116864740803034 
919	 0.117189126612409 
920	 0.11747183003128 
921	 0.117848805473343 
922	 0.118241677761223 
923	 0.118603632090674 
924	 0.118989945196625 
925	 0.119375141727108 
926	 0.119788562279222 
927	 0.120212524447328 
928	 0.120528560685309 
929	 0.120907912551746 
930	 0.121376123201773 
931	 0.121867423522591 
932	 0.122209617812302 
933	 0.12261964414998 
934	 0.123086476803187 
935	 0.123556207586241 
936	 0.124073837208362 
937	 0.124466525334109 
938	 0.124843129779236 
939	 0.125351315157822 
940	 0.12592184686598 
941	 0.126418556911184 
942	 0.126901549383735 
943	 0.127457165027188 
944	 0.127924266196567 
945	 0.128381100623738 
946	 0.128911689827275 
947	 0.129536174069414 
948	 0.130023983375548 
949	 0.130494896499275 
950	 0.131017840491979 
951	 0.13161011792984 
952	 0.132227691409782 
953	 0.132770609014619 
954	 0.133290835133421 
955	 0.133903830171302 
956	 0.134554178070439 
957	 0.135171317091833 
958	 0.135770145821513 
959	 0.136395661082199 
960	 0.136919519066545 
961	 0.137541950230439 
962	 0.138289709019667 
963	 0.139024222048864 
964	 0.13947352343558 
965	 0.14008958130331 
966	 0.140834669874957 
967	 0.141397026068785 
968	 0.142179662073078 
969	 0.142870992194086 
970	 0.143419325555368 
971	 0.143994462252338 
972	 0.144708188416801 
973	 0.145519012135185 
974	 0.146307830409099 
975	 0.146967375618815 
976	 0.147691052342874 
977	 0.14844740765673 
978	 0.149180147132789 
979	 0.149866929718669 
980	 0.150719534802438 
981	 0.151418103119539 
982	 0.152012995567686 
983	 0.152741015247399 
984	 0.153371100368546 
985	 0.154141213647769 
986	 0.154957124506668 
987	 0.155593782996096 
988	 0.156252961885397 
989	 0.156930124272211 
990	 0.157651591711065 
991	 0.158448174559373 
992	 0.159304976634692 
993	 0.160047173716131 
994	 0.160845835871259 
995	 0.161823887060506 
996	 0.16225352382871 
997	 0.162899828385028 
998	 0.163681813785742 
999	 0.164321883311113 
1000	 0.165204325341562 
1001	 0.166484469421214 
1002	 0.167138469203269 
1003	 0.167859384352941 
1004	 0.16851477070923 
1005	 0.169151601643183 
1006	 0.169808314010646 
1007	 0.170450032603274 
1008	 0.171014516831668 
1009	 0.171677949825151 
1010	 0.172370257324591 
1011	 0.173012912386365 
1012	 0.173684509364692 
1013	 0.174342004893593 
1014	 0.174960779497792 
1015	 0.175536647535928 
1016	 0.176098773250328 
1017	 0.176681089880912 
1018	 0.177254910804684 
1019	 0.17786562911016 
1020	 0.17849059484941 
1021	 0.17907489608504 
1022	 0.179617867309837 
1023	 0.180117100804742 
1024	 0.180618998096714 
1025	 0.18111081503173 
1026	 0.181613761758781 
1027	 0.182136545618525 
1028	 0.182629571291233 
1029	 0.183139932405702 
1030	 0.183699494972332 
1031	 0.18421610667822 
1032	 0.184728103829722 
1033	 0.185162402400923 
1034	 0.185609041397266 
1035	 0.186095285101522 
1036	 0.186570397882957 
1037	 0.187069493566409 
1038	 0.187555405335508 
1039	 0.187966986835943 
1040	 0.18837599496045 
1041	 0.188817447744867 
1042	 0.189267949481578 
1043	 0.189728498261996 
1044	 0.190187142304931 
1045	 0.190650406604595 
1046	 0.191102510269697 
1047	 0.191517699772908 
1048	 0.191934106985145 
1049	 0.192376302619454 
1050	 0.192810733650712 
1051	 0.19330783198233 
1052	 0.193798425452766 
1053	 0.194187597765978 
1054	 0.194578354648476 
1055	 0.194967966796575 
1056	 0.195360378234332 
1057	 0.195781899386732 
1058	 0.196262696212029 
1059	 0.196704864724919 
1060	 0.197153041319049 
1061	 0.197562156627307 
1062	 0.19794076949678 
1063	 0.198362927812377 
1064	 0.19874520629769 
1065	 0.199160424543623 
1066	 0.199650547808392 
1067	 0.200082476891667 
1068	 0.200474886823664 
1069	 0.200863504527381 
1070	 0.201249699051353 
1071	 0.201595007495872 
1072	 0.201962516509676 
1073	 0.20233586562974 
1074	 0.20271936436434 
1075	 0.203101542067259 
1076	 0.203478481054568 
1077	 0.203884885366793 
1078	 0.204305528256982 
1079	 0.204671312190564 
1080	 0.205023637343936 
1081	 0.205380855193213 
1082	 0.205731379195549 
1083	 0.206102907609723 
1084	 0.206496832053437 
1085	 0.206893861128172 
1086	 0.207315576253573 
1087	 0.207692104431689 
1088	 0.208070053744881 
1089	 0.20842096699657 
1090	 0.208692859920493 
1091	 0.208975954170972 
1092	 0.209284883592604 
1093	 0.209600447151327 
1094	 0.209974035848509 
1095	 0.210367643291808 
1096	 0.210737947779691 
1097	 0.211072971251879 
1098	 0.211406612713734 
1099	 0.211710304728394 
1100	 0.212036844357199 
1101	 0.212371106870501 
1102	 0.212705256420344 
1103	 0.213060001658481 
1104	 0.213375774325083 
1105	 0.213680131508124 
1106	 0.213977500828583 
1107	 0.214268003464935 
1108	 0.214549725996724 
1109	 0.214863248087757 
1110	 0.215222398535681 
1111	 0.21556241754706 
1112	 0.215938169316711 
1113	 0.216258488284049 
1114	 0.21654434406679 
1115	 0.216837669450206 
1116	 0.217097790069841 
1117	 0.217389329134657 
1118	 0.217697694278181 
1119	 0.218002922552807 
1120	 0.218346108516163 
1121	 0.218646628192348 
1122	 0.218929844205157 
1123	 0.219241579409135 
1124	 0.219529780847634 
1125	 0.219788276456033 
1126	 0.220073155236131 
1127	 0.220368748286055 
1128	 0.220657211330404 
1129	 0.220947969658119 
1130	 0.22123782522382 
1131	 0.221535710983512 
1132	 0.221812765014788 
1133	 0.222083474656187 
1134	 0.222347486055755 
1135	 0.222598034157389 
1136	 0.222838368885578 
1137	 0.223093294146374 
1138	 0.223332636567729 
1139	 0.223579561195274 
1140	 0.223831466551199 
1141	 0.224075792411478 
1142	 0.224325919876519 
1143	 0.224556672646603 
1144	 0.224770826393093 
1145	 0.224989874617077 
1146	 0.225201187245891 
1147	 0.225411778508886 
1148	 0.225629124862087 
1149	 0.225835450984092 
1150	 0.226027314920929 
1151	 0.226225040591646 
1152	 0.226423609697849 
1153	 0.226612154674928 
1154	 0.226823066781364 
1155	 0.22704482966083 
1156	 0.227268290966469 
1157	 0.227522348269551 
1158	 0.227733309940321 
1159	 0.2279165283001 
1160	 0.228123778700596 
1161	 0.228326494530977 
1162	 0.228522046999882 
1163	 0.228735353733817 
1164	 0.228934194908729 
1165	 0.229114161995436 
1166	 0.229282530496916 
1167	 0.229481520776447 
1168	 0.22968916223666 
1169	 0.229885368109976 
1170	 0.230093791213583 
1171	 0.230280038407777 
1172	 0.230446154952102 
1173	 0.230623069268778 
1174	 0.230793386459651 
1175	 0.230965823110405 
1176	 0.231141847711534 
1177	 0.231319035829407 
1178	 0.231502019985674 
1179	 0.231674844892358 
1180	 0.231844612410549 
1181	 0.232014645608058 
1182	 0.232181041591606 
1183	 0.232337717627254 
1184	 0.232500059881024 
1185	 0.232669780067669 
1186	 0.232823663337009 
1187	 0.23297352496243 
1188	 0.233115209656055 
1189	 0.233240648255463 
1190	 0.233377712387009 
1191	 0.233509022849466 
1192	 0.233651251335036 
1193	 0.233815548199384 
1194	 0.23395744986621 
1195	 0.234089766568233 
1196	 0.234224145550185 
1197	 0.234343353822577 
1198	 0.234470163925232 
1199	 0.234600847998168 
1200	 0.234738613405283 
1201	 0.234877860601373 
1202	 0.23502650562602 
1203	 0.23515435542842 
1204	 0.235280509995737 
1205	 0.235399162466421 
1206	 0.235494757109115 
1207	 0.235606824620111 
1208	 0.235728913234348 
1209	 0.235842686753767 
1210	 0.235961114954628 
1211	 0.236068246728474 
1212	 0.236166844326301 
1213	 0.236263372722016 
1214	 0.236341749086475 
1215	 0.236435636851578 
1216	 0.2365350724375 
1217	 0.236642022316777 
1218	 0.236739366322754 
1219	 0.236842475629138 
1220	 0.236940953271695 
1221	 0.237034516367939 
1222	 0.2371212321882 
1223	 0.2372043515991 
1224	 0.23729162232494 
1225	 0.237367989086857 
1226	 0.237453009848377 
1227	 0.237555342426227 
1228	 0.237644123271769 
1229	 0.23772607076988 
1230	 0.237807453126335 
1231	 0.237886381258316 
1232	 0.237960730323522 
1233	 0.238031928611668 
1234	 0.238096813547687 
1235	 0.238172441317857 
1236	 0.238247508000323 
1237	 0.238325746940086 
1238	 0.238419952743524 
1239	 0.238494385304733 
1240	 0.238561656583987 
1241	 0.238623642659775 
1242	 0.238669427581883 
1243	 0.238726243983548 
1244	 0.238783100893085 
1245	 0.238841709081435 
1246	 0.238903394391998 
1247	 0.238968756983785 
1248	 0.239038272814636 
1249	 0.23910284714453 
1250	 0.239182200689522 
1251	 0.239258207209814 
1252	 0.23931913012283 
1253	 0.239371817438604 
1254	 0.239424550321991 
1255	 0.239468343060979 
1256	 0.23950747665161 
1257	 0.239549420952918 
1258	 0.239581013795654 
1259	 0.239579230792465 
1260	 0.239617711743002 
1261	 0.239679937732517 
1262	 0.239727152565123 
1263	 0.239801073669578 
1264	 0.239850743010153 
1265	 0.239871639291676 
1266	 0.239900784412749 
1267	 0.2399262221636 
1268	 0.239949631728305 
1269	 0.239980871317838 
1270	 0.240013468838447 
1271	 0.240049535814282 
1272	 0.240091796325584 
1273	 0.240132951650053 
1274	 0.24017072169721 
1275	 0.240221705848714 
1276	 0.240277951099377 
1277	 0.240340891051377 
1278	 0.240409739125757 
1279	 0.240490657762085 
1280	 0.240594060759063 
1281	 0.240677819628261 
1282	 0.24076826463272 
1283	 0.240844669709102 
1284	 0.240897866607486 
1285	 0.240955087799965 
1286	 0.241021946762031 
1287	 0.241089810830755 
1288	 0.241159245255679 
1289	 0.241240418160774 
1290	 0.241303052930904 
1291	 0.241353692408836 
1292	 0.241412559445132 
1293	 0.24146383024141 
1294	 0.241522003718984 
1295	 0.24159626707916 
1296	 0.241655738585205 
1297	 0.241716692357683 
1298	 0.241761403382082 
1299	 0.241779741104781 
1300	 0.241813388767027 
1301	 0.241850925566745 
1302	 0.24187829907578 
1303	 0.24190003372731 
1304	 0.241938798815424 
1305	 0.241960552002144 
1306	 0.241982088451473 
1307	 0.241998536107951 
1308	 0.241995099631314 
1309	 0.241992532066392 
1310	 0.241972110216109 
1311	 0.241955250127734 
1312	 0.241945328517363 
1313	 0.241921226849152 
1314	 0.241876815627937 
1315	 0.241849811642254 
1316	 0.241826807114809 
1317	 0.241802310888082 
1318	 0.241782173924646 
1319	 0.24176070020342 
1320	 0.24174530121337 
1321	 0.241718118185764 
1322	 0.241687369055389 
1323	 0.241655348444509 
1324	 0.241618052451891 
1325	 0.241557008162524 
1326	 0.241482572473213 
1327	 0.241430097206585 
1328	 0.241380201318471 
1329	 0.241318638417444 
1330	 0.241265605810539 
1331	 0.241233347586429 
1332	 0.241168306871079 
1333	 0.241079404993195 
1334	 0.24101275015366 
1335	 0.240930264865121 
1336	 0.240877059079669 
1337	 0.240859820914072 
1338	 0.240819876251211 
1339	 0.240795754740513 
1340	 0.240738686147978 
1341	 0.240650281982874 
1342	 0.240573789737549 
1343	 0.240472865922065 
1344	 0.240395213922462 
1345	 0.240352863022298 
1346	 0.240315531219723 
1347	 0.240286376549998 
1348	 0.240238058487891 
1349	 0.240164086591289 
1350	 0.24008425184162 
1351	 0.24000994938913 
1352	 0.239930599819183 
1353	 0.23985868085428 
1354	 0.239792724133503 
1355	 0.239721923033724 
1356	 0.239641190040965 
1357	 0.239576476679003 
1358	 0.239520651512501 
1359	 0.239463537484343 
1360	 0.239413321764958 
1361	 0.239365475216924 
1362	 0.23932020235 
1363	 0.239271110724515 
1364	 0.239241083897613 
1365	 0.239183277437731 
1366	 0.239108835885807 
1367	 0.239025498713386 
1368	 0.238935835509577 
1369	 0.238855594487737 
1370	 0.238758393728628 
1371	 0.23864886456772 
1372	 0.238531911688388 
1373	 0.238378188388439 
1374	 0.238215333384199 
1375	 0.23804730992646 
1376	 0.237849058312198 
1377	 0.237633679258756 
1378	 0.237380792722269 
1379	 0.237094626997692 
1380	 0.236799106750034 
1381	 0.236471166920513 
1382	 0.23612880787032 
1383	 0.235789312458798 
1384	 0.235408003820888 
1385	 0.235013450093994 
1386	 0.234570433042816 
1387	 0.234096747268587 
1388	 0.233575940921909 
1389	 0.233010952900131 
1390	 0.232399162673775 
1391	 0.23176106012171 
1392	 0.231087598491827 
1393	 0.230373743047435 
1394	 0.229618459073155 
1395	 0.228805676962111 
1396	 0.227986072475344 
1397	 0.227171294807661 
1398	 0.226330637327813 
1399	 0.22551007659492 
1400	 0.224708764941638 
1401	 0.223882060312686 
1402	 0.223034905225611 
1403	 0.222225687289987 
1404	 0.221392041487484 
1405	 0.22062786455855 
1406	 0.219915608915576 
1407	 0.219203410545279 
1408	 0.218515546676861 
1409	 0.217860607705663 
1410	 0.217200731305479 
1411	 0.216613052044945 
1412	 0.216073941806562 
1413	 0.215575308130319 
1414	 0.215151065349567 
1415	 0.214751698635245 
1416	 0.214388505203447 
1417	 0.214063985322998 
1418	 0.213733929872105 
1419	 0.213434962444714 
1420	 0.213189330567986 
1421	 0.212964283841101 
1422	 0.212759985741034 
1423	 0.212565411709355 
1424	 0.212351270814835 
1425	 0.212108982140972 
1426	 0.211907581474115 
1427	 0.211706010633625 
1428	 0.211539852259149 
1429	 0.211409548694282 
1430	 0.211276792111405 
1431	 0.211169245667395 
1432	 0.211050350344999 
1433	 0.210922898716093 
1434	 0.210819779185624 
1435	 0.210713061090568 
1436	 0.210636110303769 
1437	 0.210592599143454 
1438	 0.210549153808819 
1439	 0.210524091893439 
1440	 0.210498498725412 
1441	 0.210479689273586 
1442	 0.210448930315714 
1443	 0.210406743329573 
1444	 0.210385598787266 
1445	 0.210361132487004 
1446	 0.210342522470518 
1447	 0.210360188385382 
1448	 0.210375794719099 
1449	 0.210373616044039 
1450	 0.2103872497926 
1451	 0.210392932783666 
1452	 0.210374699002744 
1453	 0.210390215664933 
1454	 0.210426189111151 
1455	 0.210455499040704 
1456	 0.210496267731679 
1457	 0.210535426077385 
1458	 0.210569554393734 
1459	 0.210616172825301 
1460	 0.210661647686993 
1461	 0.210730258511829 
1462	 0.21081308564766 
1463	 0.210905252651178 
1464	 0.211022052134725 
1465	 0.211133558721138 
1466	 0.211246290041144 
1467	 0.211366452101597 
1468	 0.211469475703619 
1469	 0.211616222322276 
1470	 0.211786910899217 
1471	 0.211974460932939 
1472	 0.212195597445895 
1473	 0.212436208624567 
1474	 0.212662103215268 
1475	 0.212884435321419 
1476	 0.213100366134267 
1477	 0.213320395943577 
1478	 0.213537793364658 
1479	 0.213761441460168 
1480	 0.214002524871445 
1481	 0.214233356438298 
1482	 0.214467292568353 
1483	 0.214708997965331 
1484	 0.214943782988169 
1485	 0.215170426919898 
1486	 0.21540524630047 
1487	 0.215643535520239 
1488	 0.215884504399916 
1489	 0.216130488552009 
1490	 0.216375271401534 
1491	 0.216623053486583 
1492	 0.216863949039425 
1493	 0.217105705969976 
1494	 0.217336069684866 
1495	 0.217551376844209 
1496	 0.217782306140174 
1497	 0.218019095120554 
1498	 0.218246838039154 
1499	 0.218489747061663 
1500	 0.218710901506827 
1501	 0.218904018660166 
1502	 0.219107447256248 
1503	 0.21930812642136 
1504	 0.219503613273348 
1505	 0.219714533384158 
1506	 0.219932666007824 
1507	 0.220154993559366 
1508	 0.220371865244325 
1509	 0.220561552249133 
1510	 0.22075151649056 
1511	 0.220933531917295 
1512	 0.221102755260046 
1513	 0.221285385759695 
1514	 0.221470642610199 
1515	 0.221656661328052 
1516	 0.221860238723393 
1517	 0.222046728133108 
1518	 0.222232114412719 
1519	 0.22240925334194 
1520	 0.222572879226969 
1521	 0.222740618392419 
1522	 0.222906848523085 
1523	 0.22307938968696 
1524	 0.223254286127531 
1525	 0.223424719226321 
1526	 0.223600426484755 
1527	 0.223763397183208 
1528	 0.22391949325297 
1529	 0.224071970637612 
1530	 0.224214666312973 
1531	 0.224362933938887 
1532	 0.224511611544814 
1533	 0.224650893224493 
1534	 0.224789761571198 
1535	 0.224926061848371 
1536	 0.225055500004498 
1537	 0.225182282374948 
1538	 0.225303597946523 
1539	 0.225426454453674 
1540	 0.225540501207197 
1541	 0.225663921346234 
1542	 0.225806203901824 
1543	 0.225930981026665 
1544	 0.226038853810809 
1545	 0.226162612689574 
1546	 0.226293576340022 
1547	 0.226410091038046 
1548	 0.226536153844343 
1549	 0.226655725265668 
1550	 0.226738696953797 
1551	 0.226831365647615 
1552	 0.226939436632824 
1553	 0.227058872761475 
1554	 0.227183509208417 
1555	 0.227288406267554 
1556	 0.227390721522166 
1557	 0.227479385213682 
1558	 0.227567159560303 
1559	 0.227676699349061 
1560	 0.227768849498686 
1561	 0.227852386320573 
1562	 0.227938098334957 
1563	 0.228018734057698 
1564	 0.228106138487665 
1565	 0.228199088351035 
1566	 0.228283161969827 
1567	 0.228365860268816 
1568	 0.228447947631763 
1569	 0.22852499124317 
1570	 0.228603380126307 
1571	 0.228688689700074 
1572	 0.228759181135086 
1573	 0.228819604291797 
1574	 0.2288807970619 
1575	 0.228933639797141 
1576	 0.22899007078267 
1577	 0.229046007383948 
1578	 0.229102418591716 
1579	 0.229153895902384 
1580	 0.229218712438175 
1581	 0.229296917721598 
1582	 0.229362948834794 
1583	 0.229433697359037 
1584	 0.229494225465749 
1585	 0.229542094167273 
1586	 0.229590583567394 
1587	 0.22962926972057 
1588	 0.229684152660023 
1589	 0.229752481059462 
1590	 0.229804631694669 
1591	 0.229864061435576 
1592	 0.229909869192395 
1593	 0.229929524256402 
1594	 0.229959981188634 
1595	 0.229985495144596 
1596	 0.230024410749136 
1597	 0.230075937968326 
1598	 0.23012270052782 
1599	 0.230172294629103 
1600	 0.230227307389963 
1601	 0.230290415752317 
1602	 0.230340625248086 
1603	 0.230394897731854 
1604	 0.230440846236128 
1605	 0.230469879649406 
1606	 0.230497548335167 
1607	 0.230517019931183 
1608	 0.230543028487894 
1609	 0.230588677610723 
1610	 0.230613251913767 
1611	 0.230635334972289 
1612	 0.230665138355664 
1613	 0.230657604012282 
1614	 0.230674647999499 
1615	 0.230706153624836 
1616	 0.230722382003183 
1617	 0.230762796942016 
1618	 0.230794146282253 
1619	 0.230819012117717 
1620	 0.230863259804061 
1621	 0.230902274967949 
1622	 0.230944412683345 
1623	 0.230971105420389 
1624	 0.231004104620879 
1625	 0.231005758458724 
1626	 0.230976031790616 
1627	 0.230971642311274 
1628	 0.230955263659495 
1629	 0.23096689345678 
1630	 0.231003314147287 
1631	 0.23102230616941 
1632	 0.231040940829624 
1633	 0.231070068037375 
1634	 0.231107072488175 
1635	 0.231124259306493 
1636	 0.231149493442478 
1637	 0.23115219471734 
1638	 0.231115759824998 
1639	 0.231118314672017 
1640	 0.231133484931763 
1641	 0.231145561315609 
1642	 0.231168671797946 
1643	 0.231189666107313 
1644	 0.231205392413746 
1645	 0.231230980139363 
1646	 0.23127625918119 
1647	 0.231295564462289 
1648	 0.231305338349406 
1649	 0.231314615992097 
1650	 0.23130902453628 
1651	 0.231309747335975 
1652	 0.231314031067617 
1653	 0.23131652060788 
1654	 0.231317091945149 
1655	 0.231315062553792 
1656	 0.231321787880561 
1657	 0.231305563496467 
1658	 0.231268923435592 
1659	 0.231245883820645 
1660	 0.231215729930692 
1661	 0.23118926586461 
1662	 0.231170537067073 
1663	 0.231150760080727 
1664	 0.231129161161257 
1665	 0.231104289787299 
1666	 0.231077743247373 
1667	 0.23106081218422 
1668	 0.231039719177873 
1669	 0.231028437509488 
1670	 0.231044046009353 
1671	 0.231028628531404 
1672	 0.230991421751292 
1673	 0.230974257438432 
1674	 0.230951157525593 
1675	 0.230936034669968 
1676	 0.230938635405117 
1677	 0.230933678123814 
1678	 0.230924396968165 
1679	 0.23091526094721 
1680	 0.230913291876454 
1681	 0.230901079932259 
1682	 0.23088019425149 
1683	 0.230859144448032 
1684	 0.230836463449461 
1685	 0.230809266543718 
1686	 0.230777601418872 
1687	 0.230745192674608 
1688	 0.230706343224424 
1689	 0.230671412614573 
1690	 0.230635420478415 
1691	 0.230604286338494 
1692	 0.230589561290609 
1693	 0.230546157620377 
1694	 0.230476721434878 
1695	 0.230440047440592 
1696	 0.230393673286156 
1697	 0.230368118849662 
1698	 0.230391642136805 
1699	 0.23037338747527 
1700	 0.230333599496781 
1701	 0.230309180609227 
1702	 0.230278429598848 
1703	 0.230248289376483 
1704	 0.230236172860715 
1705	 0.230197095478996 
1706	 0.230138729257799 
1707	 0.2300857693544 
1708	 0.230020900607554 
1709	 0.229961116452645 
1710	 0.229906583213851 
1711	 0.229845593890959 
1712	 0.229768907156597 
1713	 0.229718034250335 
1714	 0.229680659721608 
1715	 0.229634562548148 
1716	 0.229611385446281 
1717	 0.22956359752722 
1718	 0.229493469551506 
1719	 0.229428919485897 
1720	 0.22935562054807 
1721	 0.229289755426927 
1722	 0.229224770442244 
1723	 0.229162023922961 
1724	 0.22910829235787 
1725	 0.229041480672247 
1726	 0.228975505599704 
1727	 0.228893370919879 
1728	 0.228798160657001 
1729	 0.228704823292998 
1730	 0.228596836682192 
1731	 0.22849836177511 
1732	 0.228402972491184 
1733	 0.228305120761285 
1734	 0.228207263907577 
1735	 0.228115164536794 
1736	 0.228027642329627 
1737	 0.227935593362023 
1738	 0.227844005491537 
1739	 0.227752814134338 
1740	 0.227656151219639 
1741	 0.227565663761433 
1742	 0.22749398940981 
1743	 0.227386924018729 
1744	 0.227265133837184 
1745	 0.227139996617708 
1746	 0.226975311155366 
1747	 0.226859453455629 
1748	 0.22677339681816 
1749	 0.226655131579217 
1750	 0.22655167383134 
1751	 0.226449566211086 
1752	 0.226351098695608 
1753	 0.226261000919795 
1754	 0.226170572737377 
1755	 0.226045564322884 
1756	 0.225891113996888 
1757	 0.22574998298696 
1758	 0.22563110881162 
1759	 0.225544005660285 
1760	 0.22545502159097 
1761	 0.225367618519539 
1762	 0.225306215193383 
1763	 0.225210305957889 
1764	 0.225085597876024 
1765	 0.224989203158963 
1766	 0.224861134878697 
1767	 0.224704467190054 
1768	 0.224596978916388 
1769	 0.224499934920417 
1770	 0.224375433046871 
1771	 0.22427998496595 
1772	 0.224205164520058 
1773	 0.224098613238804 
1774	 0.224017717110463 
1775	 0.223974057358923 
1776	 0.223909049716095 
1777	 0.223851511737698 
1778	 0.223786210307091 
1779	 0.223698478135218 
1780	 0.223620338169665 
1781	 0.223507128640482 
1782	 0.223409850459229 
1783	 0.223350110939025 
1784	 0.223295464353151 
1785	 0.223284478302658 
1786	 0.223258221202075 
1787	 0.22323932873288 
1788	 0.223206796084046 
1789	 0.223167596765678 
1790	 0.223125834987665 
1791	 0.223057693106476 
1792	 0.223001488011362 
1793	 0.22295844530894 
1794	 0.22291257612916 
1795	 0.222852197333279 
1796	 0.222815082541707 
1797	 0.222799975295737 
1798	 0.222773589861691 
1799	 0.222765330568004 
1800	 0.222752573725694 
1801	 0.217431389528829 
1802	 0.217613363593306 
1803	 0.217807854711014 
1804	 0.218021741044107 
1805	 0.218248519988832 
1806	 0.218463677542003 
1807	 0.218679483417471 
1808	 0.218857763161064 
1809	 0.219038441606963 
1810	 0.219171165454162 
1811	 0.219263423896014 
1812	 0.219326661031195 
1813	 0.219400146195348 
1814	 0.219445973518159 
1815	 0.21949410586522 
1816	 0.219548959661315 
1817	 0.219579393540053 
1818	 0.219581683907715 
1819	 0.219605719559952 
1820	 0.219623368506397 
1821	 0.21964690401353 
1822	 0.219686247321148 
1823	 0.219729346717779 
1824	 0.219785363808055 
1825	 0.21981426806755 
1826	 0.219847346085737 
1827	 0.219856168833351 
1828	 0.21983633106676 
1829	 0.219785143140273 
1830	 0.219745044772956 
1831	 0.219679202535807 
1832	 0.219621453188218 
1833	 0.21959098918222 
1834	 0.219520036102066 
1835	 0.219451263719802 
1836	 0.21937987049646 
1837	 0.219319084466589 
1838	 0.219275417390764 
1839	 0.219227894438768 
1840	 0.219193721556146 
1841	 0.219157680023962 
1842	 0.21909736947451 
1843	 0.219029944645306 
1844	 0.218927339418163 
1845	 0.218811564437927 
1846	 0.218705822533658 
1847	 0.218592950361739 
1848	 0.218502433955381 
1849	 0.218411131949083 
1850	 0.21830505570433 
1851	 0.218198104607299 
1852	 0.218069544971985 
1853	 0.217905936839899 
1854	 0.217744834376045 
1855	 0.2175675884313 
1856	 0.217337770851671 
1857	 0.217076582640634 
1858	 0.21678293252999 
1859	 0.216473867073842 
1860	 0.216123560012345 
1861	 0.215743079823664 
1862	 0.215335197764826 
1863	 0.214911040212437 
1864	 0.214411301895753 
1865	 0.213903004543574 
1866	 0.213363500637305 
1867	 0.212769911739957 
1868	 0.212138634840385 
1869	 0.211417308501635 
1870	 0.210672403245608 
1871	 0.209859853503036 
1872	 0.208985389718827 
1873	 0.208052901731771 
1874	 0.207092651327988 
1875	 0.206035592655846 
1876	 0.204931613216496 
1877	 0.203754354570158 
1878	 0.202479089081418 
1879	 0.201129349077529 
1880	 0.199686237777599 
1881	 0.198141524477302 
1882	 0.196528067532687 
1883	 0.194832307559816 
1884	 0.193037564210876 
1885	 0.191198906153694 
1886	 0.189260032668346 
1887	 0.187232732360381 
1888	 0.185134313595981 
1889	 0.182923005834319 
1890	 0.180690071175003 
1891	 0.178481635083851 
1892	 0.176224255370999 
1893	 0.174011901002394 
1894	 0.171829156173382 
1895	 0.16964420952119 
1896	 0.167441587108383 
1897	 0.165314779440956 
1898	 0.163234742709395 
1899	 0.16122131729793 
1900	 0.159303212401678 
1901	 0.157449333791884 
1902	 0.155687324367434 
1903	 0.154009939948925 
1904	 0.152418889810764 
1905	 0.150904754736967 
1906	 0.149510787917452 
1907	 0.148185055931034 
1908	 0.146961763543576 
1909	 0.145862811774336 
1910	 0.144815451465821 
1911	 0.143830626132181 
1912	 0.142928021579761 
1913	 0.142074720409139 
1914	 0.141257616169156 
1915	 0.140522780840038 
1916	 0.139863989789005 
1917	 0.139263730453208 
1918	 0.13873436029266 
1919	 0.138230987276821 
1920	 0.137773305257651 
1921	 0.137369231246976 
1922	 0.137010460447198 
1923	 0.136716986652833 
1924	 0.136454659848838 
1925	 0.136258259384608 
1926	 0.136078085055532 
1927	 0.135923194376908 
1928	 0.135799650733547 
1929	 0.135728545947456 
1930	 0.135676436487836 
1931	 0.135661978778191 
1932	 0.135679125008773 
1933	 0.13573202097265 
1934	 0.135819006783762 
1935	 0.13591735416057 
1936	 0.13604013498653 
1937	 0.136187919207394 
1938	 0.136344006102524 
1939	 0.136538527039482 
1940	 0.136779843121865 
1941	 0.137022378113476 
1942	 0.137272537829538 
1943	 0.137554052930236 
1944	 0.13784872591588 
1945	 0.138149828413098 
1946	 0.138470610506755 
1947	 0.138819387192097 
1948	 0.139170783787699 
1949	 0.139526888238732 
1950	 0.139906213008022 
1951	 0.140309035066223 
1952	 0.140712974505319 
1953	 0.141128870217781 
1954	 0.141554111199498 
1955	 0.141991486065358 
1956	 0.142442990447545 
1957	 0.14290228235964 
1958	 0.143383572835731 
1959	 0.143854497089077 
1960	 0.144328150719765 
1961	 0.144801468185145 
1962	 0.145264470436762 
1963	 0.145752650568733 
1964	 0.146249983472602 
1965	 0.146763528142861 
1966	 0.147290688372282 
1967	 0.147791079425966 
1968	 0.148298750401706 
1969	 0.14879555123172 
1970	 0.149302513737696 
1971	 0.149821256851131 
1972	 0.150331087497446 
1973	 0.150822937345282 
1974	 0.151342664541743 
1975	 0.151869691840885 
1976	 0.152410047350248 
1977	 0.152961430043531 
1978	 0.153508590913511 
1979	 0.154036009485753 
1980	 0.154562890684429 
1981	 0.155095218660694 
1982	 0.155623051811183 
1983	 0.156161217185514 
1984	 0.156708054664062 
1985	 0.15725500451005 
1986	 0.157811024899917 
1987	 0.158363319869201 
1988	 0.158916465196165 
1989	 0.159470675009779 
1990	 0.160023729896614 
1991	 0.160564348997758 
1992	 0.161095046423453 
1993	 0.16161094933375 
1994	 0.162134933727656 
1995	 0.162653060831999 
1996	 0.163169958460931 
1997	 0.16368819790529 
1998	 0.164213103664751 
1999	 0.164743907717491 
2000	 0.165261288790113 
2001	 0.165793642934395 
2002	 0.16629653651538 
2003	 0.166783737012262 
2004	 0.16725070057338 
2005	 0.167728158396879 
2006	 0.168194961539154 
2007	 0.168676080027213 
2008	 0.169167886598261 
2009	 0.169654735763592 
2010	 0.170151116750323 
2011	 0.170635599723688 
2012	 0.171116103452397 
2013	 0.171582943707348 
2014	 0.172027207084806 
2015	 0.172490254824452 
2016	 0.172946372809208 
2017	 0.173409437562275 
2018	 0.173864408244193 
2019	 0.174321381961756 
2020	 0.174776288850957 
2021	 0.17523076628231 
2022	 0.175674684276368 
2023	 0.176114225854864 
2024	 0.176556830568129 
2025	 0.17698734377005 
2026	 0.177421697535996 
2027	 0.177869472853808 
2028	 0.178308640103142 
2029	 0.178735189966831 
2030	 0.179153464803727 
2031	 0.17956409777144 
2032	 0.179965056528545 
2033	 0.180360791028285 
2034	 0.180751142586345 
2035	 0.181130140131995 
2036	 0.181493192945059 
2037	 0.181862952867921 
2038	 0.18222797692218 
2039	 0.182591082938202 
2040	 0.182974276295838 
2041	 0.183321444504193 
2042	 0.183642634499716 
2043	 0.183968586162951 
2044	 0.184303000905191 
2045	 0.184626654618954 
2046	 0.184962389911615 
2047	 0.185325019053985 
2048	 0.185657786159337 
2049	 0.185986651323875 
2050	 0.186293005009483 
2051	 0.186559979295106 
2052	 0.186858909027165 
2053	 0.187152058323912 
2054	 0.187452239854276 
2055	 0.18776738350498 
2056	 0.188108211627348 
2057	 0.188415447095127 
2058	 0.188708683547284 
2059	 0.189001867445711 
2060	 0.189280060610462 
2061	 0.18956873391668 
2062	 0.189865582104237 
2063	 0.190148854612797 
2064	 0.190427756118214 
2065	 0.190706695438232 
2066	 0.190972740634886 
2067	 0.191244221971419 
2068	 0.191517809922322 
2069	 0.191796410684879 
2070	 0.192071389500557 
2071	 0.192342273239532 
2072	 0.192618423778977 
2073	 0.192900996015104 
2074	 0.193174772198023 
2075	 0.193457040307052 
2076	 0.193719188909029 
2077	 0.193952658207386 
2078	 0.194211418761567 
2079	 0.19447564429997 
2080	 0.194732130360486 
2081	 0.195006187291256 
2082	 0.195267462132948 
2083	 0.195504137289333 
2084	 0.195752081425426 
2085	 0.196005961877776 
2086	 0.196266570988895 
2087	 0.196522985708157 
2088	 0.196790780270813 
2089	 0.197036332712393 
2090	 0.197269577926606 
2091	 0.197502745220958 
2092	 0.197727450943386 
2093	 0.197948947068634 
2094	 0.198155446916739 
2095	 0.198380827407272 
2096	 0.198610652062401 
2097	 0.198840013034766 
2098	 0.199084552761925 
2099	 0.199326352610583 
2100	 0.199562772015084 
2101	 0.199795758881514 
2102	 0.200019254669066 
2103	 0.200237862770582 
2104	 0.200457491411212 
2105	 0.200669320292683 
2106	 0.200878596700849 
2107	 0.201076873055257 
2108	 0.201295099796903 
2109	 0.201514056955294 
2110	 0.201741208509383 
2111	 0.201993680177931 
2112	 0.202237313382299 
2113	 0.202483765236428 
2114	 0.202725965160653 
2115	 0.202943954649438 
2116	 0.203147260895408 
2117	 0.203360202686151 
2118	 0.203545916496879 
2119	 0.203765336708638 
2120	 0.204025649500218 
2121	 0.204242274365553 
2122	 0.204446405797186 
2123	 0.20465117597957 
2124	 0.204844368997339 
2125	 0.205024834780103 
2126	 0.205204523522748 
2127	 0.205376170236126 
2128	 0.205519028630659 
2129	 0.205669892820737 
2130	 0.205836218873364 
2131	 0.20598869258142 
2132	 0.206114942077969 
2133	 0.206222849258375 
2134	 0.206333470732996 
2135	 0.206433695879407 
2136	 0.206510228574825 
2137	 0.2065857028928 
2138	 0.20663375759903 
2139	 0.206618877120122 
2140	 0.206655002914418 
2141	 0.206716109375051 
2142	 0.206755133537531 
2143	 0.206819540331508 
2144	 0.206848928636358 
2145	 0.206835200548262 
2146	 0.206831485519861 
2147	 0.20682209800294 
2148	 0.206806347511477 
2149	 0.206787688112348 
2150	 0.206773555789983 
2151	 0.206738884550064 
2152	 0.20669320828997 
2153	 0.20663842007381 
2154	 0.206581115958219 
2155	 0.206492134498292 
2156	 0.206385793506552 
2157	 0.206263742975579 
2158	 0.206098025827126 
2159	 0.20595325106884 
2160	 0.205795163371123 
2161	 0.205656115945197 
2162	 0.205532768872635 
2163	 0.205408187803219 
2164	 0.20529636969892 
2165	 0.205191714538599 
2166	 0.205052356741933 
2167	 0.204896531553185 
2168	 0.204744977553989 
2169	 0.204570267731204 
2170	 0.204408689860611 
2171	 0.204251428503999 
2172	 0.204101228933942 
2173	 0.20396101794873 
2174	 0.203803078018348 
2175	 0.203649325147517 
2176	 0.20348501613303 
2177	 0.203293750259235 
2178	 0.203115759786026 
2179	 0.202960261682129 
2180	 0.20277656875417 
2181	 0.20258065332122 
2182	 0.202376937647182 
2183	 0.202138004280205 
2184	 0.201912951487452 
2185	 0.201706502133183 
2186	 0.20151319612245 
2187	 0.201306917513401 
2188	 0.201112583171188 
2189	 0.200911201023813 
2190	 0.200675459741864 
2191	 0.200493484837127 
2192	 0.200346818947781 
2193	 0.200192513195428 
2194	 0.200052251963178 
2195	 0.199924114155632 
2196	 0.199803697109835 
2197	 0.199684906233503 
2198	 0.199572034358346 
2199	 0.199482423180301 
2200	 0.199383685264427 
2201	 0.199321786250019 
2202	 0.199299947813842 
2203	 0.199298662120867 
2204	 0.199289760572267 
2205	 0.199296927720743 
2206	 0.199304968458097 
2207	 0.199302915265643 
2208	 0.199337057820555 
2209	 0.199405667031044 
2210	 0.199454773292923 
2211	 0.199523009905851 
2212	 0.199565553642313 
2213	 0.199565532099265 
2214	 0.19961794853499 
2215	 0.199706756046461 
2216	 0.199764072995918 
2217	 0.199842313124039 
2218	 0.199900630335592 
2219	 0.199909479281534 
2220	 0.199943735556136 
2221	 0.200003215037722 
2222	 0.200044681434218 
2223	 0.200077950594317 
2224	 0.200119821492134 
2225	 0.200134187472527 
2226	 0.200121909537161 
2227	 0.200138455658895 
2228	 0.200133232023732 
2229	 0.200185728831026 
2230	 0.200309770145841 
2231	 0.200344905927782 
2232	 0.200376943072551 
2233	 0.20038467112376 
2234	 0.200321378831456 
2235	 0.200292803691326 
2236	 0.200280143057673 
2237	 0.200258982088723 
2238	 0.200229037874556 
2239	 0.200198591317533 
2240	 0.200177283375495 
2241	 0.200143616656161 
2242	 0.200090460149551 
2243	 0.200045969635974 
2244	 0.20000134175774 
2245	 0.199960729614451 
2246	 0.199900891430646 
2247	 0.19987117322968 
2248	 0.199795697217371 
2249	 0.19968548072291 
2250	 0.199604698401367 
2251	 0.199508590699188 
2252	 0.199437346207871 
2253	 0.199397868202224 
2254	 0.19933951267376 
2255	 0.199281649116666 
2256	 0.199218481745155 
2257	 0.199127191193868 
2258	 0.199086909421691 
2259	 0.199077410609143 
2260	 0.199052352916189 
2261	 0.199083307806828 
2262	 0.199050700818118 
2263	 0.198951875778634 
2264	 0.198886754953433 
2265	 0.198800679524696 
2266	 0.198736870008847 
2267	 0.198688217774212 
2268	 0.198664336794397 
2269	 0.1986758470334 
2270	 0.19867401248765 
2271	 0.198650478370502 
2272	 0.198619912218324 
2273	 0.198568672916875 
2274	 0.198496243971785 
2275	 0.198449290127859 
2276	 0.198426354669354 
2277	 0.198392144172047 
2278	 0.198345516355608 
2279	 0.198326159702093 
2280	 0.198333467783592 
2281	 0.198311569905818 
2282	 0.198285601765499 
2283	 0.198268219054858 
2284	 0.198238894274254 
2285	 0.198215278809583 
2286	 0.198231705229047 
2287	 0.198191599856493 
2288	 0.198080341604468 
2289	 0.198036387768381 
2290	 0.198027615200117 
2291	 0.197974401723037 
2292	 0.197929513237092 
2293	 0.197888305660233 
2294	 0.197797163153623 
2295	 0.197724946149123 
2296	 0.197678501663913 
2297	 0.197659360571844 
2298	 0.1975683587953 
2299	 0.197500044015551 
2300	 0.197433285878299 
2301	 0.197344606877257 
2302	 0.197241313871101 
2303	 0.19709057042529 
2304	 0.196929501300185 
2305	 0.196784255572315 
2306	 0.196682898568596 
2307	 0.196636248417098 
2308	 0.196547853517824 
2309	 0.196476797319517 
2310	 0.196383909643541 
2311	 0.196263277489711 
2312	 0.196146300320586 
2313	 0.19603606602249 
2314	 0.195915766602171 
2315	 0.195779692087336 
2316	 0.195645391440006 
2317	 0.195509147155697 
2318	 0.195360067866886 
2319	 0.195192649003898 
2320	 0.195033473859663 
2321	 0.194879749274854 
2322	 0.194724739542661 
2323	 0.19458712188121 
2324	 0.194429609800248 
2325	 0.194206578814276 
2326	 0.194064033846467 
2327	 0.19398629103892 
2328	 0.193833095959966 
2329	 0.19375745346113 
2330	 0.193723085016723 
2331	 0.193545650116216 
2332	 0.193392046552921 
2333	 0.193263924266055 
2334	 0.193099088803267 
2335	 0.193001339819373 
2336	 0.192900716864591 
2337	 0.192756620235172 
2338	 0.192597300964128 
2339	 0.192400895645897 
2340	 0.192232408835257 
2341	 0.192112760524561 
2342	 0.191954449079384 
2343	 0.19178615798369 
2344	 0.191627766110316 
2345	 0.191430110630347 
2346	 0.191180546995318 
2347	 0.190962667587492 
2348	 0.190704768996825 
2349	 0.190525620154317 
2350	 0.19041755948086 
2351	 0.190231715118322 
2352	 0.190073413583301 
2353	 0.18987779670112 
2354	 0.189597101107142 
2355	 0.189356235563074 
2356	 0.18915160804614 
2357	 0.188912664101448 
2358	 0.188633270375764 
2359	 0.188385687605139 
2360	 0.188135067445618 
2361	 0.187909919525586 
2362	 0.187707920449066 
2363	 0.187516999757302 
2364	 0.187360917196449 
2365	 0.187170417285639 
2366	 0.186991441098289 
2367	 0.186781402569969 
2368	 0.186544009469599 
2369	 0.186281450677059 
2370	 0.185998162368073 
2371	 0.185682946321096 
2372	 0.185366676261763 
2373	 0.185103829400969 
2374	 0.184825414807635 
2375	 0.184576451863683 
2376	 0.184360703907461 
2377	 0.184079756657636 
2378	 0.183819375315224 
2379	 0.183574381625159 
2380	 0.183253879726525 
2381	 0.182979517566504 
2382	 0.182671420888698 
2383	 0.182322107751816 
2384	 0.182057548007359 
2385	 0.18175712583947 
2386	 0.181444834444706 
2387	 0.181119622699985 
2388	 0.1807812855799 
2389	 0.180447890998959 
2390	 0.180103803014916 
2391	 0.179811362626005 
2392	 0.179526000858426 
2393	 0.179200754243333 
2394	 0.178840911415251 
2395	 0.178493225221803 
2396	 0.178140563974661 
2397	 0.17781422543124 
2398	 0.177546488673309 
2399	 0.177222506197074 
2400	 0.176914315617512 
2401	 0.176548174865544 
2402	 0.176078009237497 
2403	 0.175722802478772 
2404	 0.175345725376592 
2405	 0.174986271834805 
2406	 0.17476301171517 
2407	 0.17452458975448 
2408	 0.174249421470147 
2409	 0.17388916363732 
2410	 0.173511739173934 
2411	 0.173138886781557 
2412	 0.172771212343598 
2413	 0.172487986583632 
2414	 0.17210350526865 
2415	 0.171699628981078 
2416	 0.171304815991718 
2417	 0.170800231783451 
2418	 0.170459457741429 
2419	 0.170298074621045 
2420	 0.169959503317913 
2421	 0.169650294143291 
2422	 0.169270487334471 
2423	 0.168722032909487 
2424	 0.168253746823244 
2425	 0.1677865682401 
2426	 0.167380093862084 
2427	 0.166981952519506 
2428	 0.16662656369088 
2429	 0.166393669846858 
2430	 0.166019385462612 
2431	 0.165594079369064 
2432	 0.165210003913427 
2433	 0.164802299352014 
2434	 0.164408942529521 
2435	 0.164000749489603 
2436	 0.16361516688864 
2437	 0.163239870304591 
2438	 0.16281823442398 
2439	 0.162449244964034 
2440	 0.162067762401312 
2441	 0.161572913196661 
2442	 0.161128790897164 
2443	 0.160748452155646 
2444	 0.16033872607078 
2445	 0.159910570485892 
2446	 0.159518106261523 
2447	 0.159152985068377 
2448	 0.15879580784751 
2449	 0.158458876991457 
2450	 0.158137086795889 
2451	 0.157832018435442 
2452	 0.157461518813154 
2453	 0.157039466552182 
2454	 0.156688561957855 
2455	 0.156350942475664 
2456	 0.1560504759955 
2457	 0.155887889640646 
2458	 0.155517113735011 
2459	 0.154989013260597 
2460	 0.154564703699738 
2461	 0.154059870884507 
2462	 0.153715999517913 
2463	 0.153551140050412 
2464	 0.153210662742449 
2465	 0.152852555747811 
2466	 0.152466331061492 
2467	 0.151950797556966 
2468	 0.151643643373945 
2469	 0.151469896312008 
2470	 0.151071336917143 
2471	 0.150730137431766 
2472	 0.150343926534135 
2473	 0.149978546204254 
2474	 0.149710943343495 
2475	 0.149516215279512 
2476	 0.149197897144523 
2477	 0.148857352751183 
2478	 0.148699958077803 
2479	 0.148512917529635 
2480	 0.14814240913801 
2481	 0.147650745345871 
2482	 0.147056093753114 
2483	 0.146515510529463 
2484	 0.146231017080398 
2485	 0.146047792685296 
2486	 0.145916437607562 
2487	 0.145675807347799 
2488	 0.145322440637161 
2489	 0.145196800690486 
2490	 0.145035832224476 
2491	 0.144719866566423 
2492	 0.144374320646108 
2493	 0.143920257428985 
2494	 0.143471935680084 
2495	 0.143187588819528 
2496	 0.142982249193443 
2497	 0.142868126071097 
2498	 0.14283903700013 
2499	 0.142747119931661 
2500	 0.142851962058238 
