Wavelength	mm2500004.asd
350	 5.29083042344627E-02 
351	 5.38756281269879E-02 
352	 4.80316021285321E-02 
353	 3.74683662223131E-02 
354	 5.06497119386064E-02 
355	 5.06368596377254E-02 
356	 4.41443467007776E-02 
357	 4.53348199486828E-02 
358	 5.12463619020746E-02 
359	 4.81696517620583E-02 
360	 4.21523927564685E-02 
361	 0.049137070724379 
362	 4.54715831528669E-02 
363	 4.15435788065111E-02 
364	 4.34246734961872E-02 
365	 4.40563274554521E-02 
366	 4.64488537676256E-02 
367	 0.046749487296678 
368	 4.29298161859183E-02 
369	 4.67945151408945E-02 
370	 4.72593704532348E-02 
371	 4.48455585829685E-02 
372	 4.76105113558259E-02 
373	 4.93966681221811E-02 
374	 4.82199154339931E-02 
375	 4.58218271921341E-02 
376	 4.95985433019895E-02 
377	 4.89872736424084E-02 
378	 4.75445307635644E-02 
379	 5.02555293608214E-02 
380	 4.94548775737607E-02 
381	 4.56094494533033E-02 
382	 4.36215013475383E-02 
383	 4.99690095341477E-02 
384	 5.16950746326704E-02 
385	 0.050810068769627 
386	 5.02885368482935E-02 
387	 5.04120297390047E-02 
388	 5.13079114879301E-02 
389	 5.24854029347232E-02 
390	 5.29600056537973E-02 
391	 0.050211562658271 
392	 5.00363429336841E-02 
393	 5.31975634858785E-02 
394	 5.58557396107195E-02 
395	 5.54920555323359E-02 
396	 5.44736935024496E-02 
397	 5.44115529668783E-02 
398	 5.31167388736804E-02 
399	 5.40089171172629E-02 
400	 5.59714013398638E-02 
401	 5.65275968728317E-02 
402	 5.59937872894886E-02 
403	 5.50704292671116E-02 
404	 5.47656984331683E-02 
405	 5.62156814475999E-02 
406	 5.72202659549675E-02 
407	 5.74961229504855E-02 
408	 5.71602532726961E-02 
409	 5.59451009203711E-02 
410	 5.60677492022823E-02 
411	 5.67984265276688E-02 
412	 5.64848010324108E-02 
413	 5.80874105708169E-02 
414	 5.85814427005194E-02 
415	 5.75075328996482E-02 
416	 5.82819870344157E-02 
417	 5.72805578640931E-02 
418	 0.056486756839885 
419	 5.77952933258222E-02 
420	 5.84020153087033E-02 
421	 5.76732915620041E-02 
422	 5.65788035858185E-02 
423	 5.68707619596637E-02 
424	 5.70034963516587E-02 
425	 5.72866554351337E-02 
426	 0.057640160150011 
427	 0.056682703398276 
428	 0.057067313708259 
429	 5.75962376874718E-02 
430	 5.65627420453327E-02 
431	 5.63276455524689E-02 
432	 5.62727715539491E-02 
433	 5.63369689903825E-02 
434	 5.70823978370088E-02 
435	 5.73111833448788E-02 
436	 5.71703199254228E-02 
437	 5.69590475792923E-02 
438	 5.65089041883776E-02 
439	 5.67463375261245E-02 
440	 5.72530878481797E-02 
441	 5.70797742016803E-02 
442	 0.056973355948619 
443	 5.71841322169673E-02 
444	 5.75921696618847E-02 
445	 5.76177862880625E-02 
446	 5.76069082706167E-02 
447	 5.76342341522401E-02 
448	 5.76979686362671E-02 
449	 5.77774435091053E-02 
450	 5.79903949958224E-02 
451	 5.82240989061817E-02 
452	 5.81908369815506E-02 
453	 5.80816359948837E-02 
454	 5.79976790630264E-02 
455	 0.058003508544151 
456	 5.81193497175881E-02 
457	 5.83436222277677E-02 
458	 5.85059522879318E-02 
459	 5.84076659784613E-02 
460	 5.82314711997522E-02 
461	 5.81911780078603E-02 
462	 5.83119032309126E-02 
463	 5.83606580852505E-02 
464	 5.84669679258449E-02 
465	 5.85569941683677E-02 
466	 5.85719175736238E-02 
467	 5.87404605579397E-02 
468	 5.88006483590198E-02 
469	 5.87273808366881E-02 
470	 5.86908621688083E-02 
471	 5.86251047656656E-02 
472	 5.85830864293853E-02 
473	 5.85886276676779E-02 
474	 5.85645501068456E-02 
475	 5.84900467696106E-02 
476	 0.058429118154441 
477	 5.84593672485372E-02 
478	 5.84464274329017E-02 
479	 5.84061629119431E-02 
480	 5.84209839915807E-02 
481	 5.86529221777361E-02 
482	 5.86103217995597E-02 
483	 5.85785312735416E-02 
484	 5.88632480426229E-02 
485	 5.89581355516259E-02 
486	 5.87986455199306E-02 
487	 5.85595445359842E-02 
488	 5.85859419377861E-02 
489	 5.87842482382824E-02 
490	 5.89356965955517E-02 
491	 5.89055994264826E-02 
492	 0.058804592840067 
493	 5.86916589163487E-02 
494	 5.86153673111448E-02 
495	 5.86246063921817E-02 
496	 5.88877286227975E-02 
497	 5.89643701393198E-02 
498	 5.87708951912454E-02 
499	 5.88192307744203E-02 
500	 0.059005942165081 
501	 5.90765493618038E-02 
502	 5.88871754898437E-02 
503	 5.90168591245817E-02 
504	 5.91145206299647E-02 
505	 0.059068857566574 
506	 5.90157408698022E-02 
507	 5.89335836402262E-02 
508	 5.89632355718599E-02 
509	 5.91374092329335E-02 
510	 5.91482123516088E-02 
511	 5.90464370634584E-02 
512	 5.89735307861351E-02 
513	 5.90794060597319E-02 
514	 5.90656848710906E-02 
515	 5.90718502713823E-02 
516	 0.059173096354839 
517	 0.059260354168518 
518	 0.059264862788194 
519	 5.91858196276736E-02 
520	 5.90940317928633E-02 
521	 5.92710115460771E-02 
522	 5.93616526689337E-02 
523	 5.92508532806787E-02 
524	 5.91121293024709E-02 
525	 5.91715204222677E-02 
526	 5.92851471251684E-02 
527	 5.92929892842597E-02 
528	 0.059278864823607 
529	 5.92718539248754E-02 
530	 5.92996184123636E-02 
531	 5.93832356351171E-02 
532	 5.95105590900028E-02 
533	 5.95886697429649E-02 
534	 5.95775963275334E-02 
535	 5.95494166987293E-02 
536	 0.059608443126156 
537	 5.96937777700335E-02 
538	 0.059697402163227 
539	 5.97092683546615E-02 
540	 5.97659098089155E-02 
541	 5.98545535478254E-02 
542	 5.99042268614373E-02 
543	 5.99693744527739E-02 
544	 6.00514049095692E-02 
545	 6.01343565379382E-02 
546	 6.02014465797052E-02 
547	 6.02003379234511E-02 
548	 0.060187152397122 
549	 6.02988470843822E-02 
550	 6.03962633482041E-02 
551	 6.04766667018818E-02 
552	 6.05706556516562E-02 
553	 6.07366398162526E-02 
554	 6.08533176711245E-02 
555	 6.09395470972991E-02 
556	 6.10807983860328E-02 
557	 6.12295547196497E-02 
558	 6.13751041138634E-02 
559	 6.15106971231224E-02 
560	 6.16261873815418E-02 
561	 6.17611987343248E-02 
562	 6.19492550128937E-02 
563	 6.22099739193025E-02 
564	 6.25234976451596E-02 
565	 6.27767117955069E-02 
566	 6.29811104572212E-02 
567	 6.32888384365157E-02 
568	 6.36340654998626E-02 
569	 6.39727425410512E-02 
570	 6.42782086916766E-02 
571	 6.45626672595219E-02 
572	 6.48847095926791E-02 
573	 6.52661112752742E-02 
574	 6.56917793900646E-02 
575	 6.60443071697458E-02 
576	 6.64665846827033E-02 
577	 6.69974157615467E-02 
578	 6.73353655675023E-02 
579	 0.067805170416779 
580	 6.83519465903441E-02 
581	 6.87961141843731E-02 
582	 6.93109823770715E-02 
583	 6.98505126475968E-02 
584	 7.03875222268486E-02 
585	 0.070950175770101 
586	 7.15632376360325E-02 
587	 7.21787803146251E-02 
588	 7.27579976636857E-02 
589	 7.34136123818289E-02 
590	 7.40185375902883E-02 
591	 7.45797719560377E-02 
592	 7.52259071829455E-02 
593	 7.57823004991078E-02 
594	 7.63723118082183E-02 
595	 0.077063270174716 
596	 7.76106919198831E-02 
597	 7.82233774072733E-02 
598	 0.07890489108782 
599	 7.95553204761014E-02 
600	 8.02061156571652E-02 
601	 8.08087170286498E-02 
602	 8.13500510807865E-02 
603	 8.18972165073121E-02 
604	 8.24034497761037E-02 
605	 8.29098473010709E-02 
606	 8.34585575217842E-02 
607	 8.39232282465742E-02 
608	 8.43836145964086E-02 
609	 0.084874671635881 
610	 8.53669892831472E-02 
611	 8.58473491253563E-02 
612	 8.62887640700482E-02 
613	 8.66715975819378E-02 
614	 8.70067526396753E-02 
615	 8.73306538585192E-02 
616	 8.76529542898231E-02 
617	 8.79661520998338E-02 
618	 8.83449187243052E-02 
619	 8.86487785455126E-02 
620	 8.88218855857881E-02 
621	 8.90490385164901E-02 
622	 0.089293585000199 
623	 8.95456980516025E-02 
624	 8.97973754021774E-02 
625	 9.00254001067461E-02 
626	 9.02461163979372E-02 
627	 9.04616903223505E-02 
628	 9.06504840079045E-02 
629	 9.08397175531335E-02 
630	 9.10382173228238E-02 
631	 9.12343803537939E-02 
632	 9.13568174090929E-02 
633	 9.14726498132259E-02 
634	 9.16291228615806E-02 
635	 9.18467664092942E-02 
636	 9.20405665597524E-02 
637	 9.22197839989049E-02 
638	 0.092402384950815 
639	 9.25808783302167E-02 
640	 0.092780835874156 
641	 0.092989563923086 
642	 9.31750285942521E-02 
643	 9.33155848710456E-02 
644	 9.34556478953306E-02 
645	 9.36241845828091E-02 
646	 0.093818428575608 
647	 9.40190060365417E-02 
648	 9.42151876002924E-02 
649	 9.44063436737414E-02 
650	 9.46182301908953E-02 
651	 9.48333649302423E-02 
652	 9.50485410213691E-02 
653	 0.095274504590928 
654	 9.55207469142987E-02 
655	 9.57448298917386E-02 
656	 9.59312433816105E-02 
657	 9.61478062347242E-02 
658	 9.64061629384051E-02 
659	 0.096674613336785 
660	 0.096908161983044 
661	 0.097157783516 
662	 9.74126770199745E-02 
663	 0.097669907395657 
664	 9.79459387759339E-02 
665	 0.098236227731966 
666	 0.098527611642362 
667	 0.098807226347286 
668	 9.90715467615366E-02 
669	 9.93597192464066E-02 
670	 9.96816935917797E-02 
671	 0.100017259299626 
672	 0.100293815147896 
673	 0.100590683421032 
674	 0.100962705932923 
675	 0.10135171070018 
676	 0.101695714862504 
677	 0.10202712102636 
678	 0.102408849398446 
679	 0.102771391981902 
680	 0.103127087150501 
681	 0.103494187065392 
682	 0.103889059216775 
683	 0.104299460179545 
684	 0.104716304691179 
685	 0.105132202080071 
686	 0.105543462060749 
687	 0.105967358561133 
688	 0.106403804266003 
689	 0.106839774618367 
690	 0.107277204824002 
691	 0.107714916569383 
692	 0.108157246802279 
693	 0.108623630797178 
694	 0.109068353947725 
695	 0.10952277810766 
696	 0.110027403372816 
697	 0.11050469780503 
698	 0.110977782012769 
699	 0.111466494758946 
700	 0.111978454170376 
701	 0.112470015465722 
702	 0.112969532333308 
703	 0.113485711965172 
704	 0.113920497127985 
705	 0.114389440093652 
706	 0.114898064629752 
707	 0.115396689599802 
708	 0.115914020825935 
709	 0.116423475265913 
710	 0.116917508818919 
711	 0.117425401265388 
712	 0.117901842510356 
713	 0.118355514141595 
714	 0.118815269750559 
715	 0.119319013760215 
716	 0.119838358357306 
717	 0.120334246983159 
718	 0.120772129855413 
719	 0.121247812869392 
720	 0.121698027328044 
721	 0.12209885941616 
722	 0.122551627117505 
723	 0.122980113530464 
724	 0.12337960944936 
725	 0.123768091480948 
726	 0.124149690732528 
727	 0.124503037209968 
728	 0.124833590555141 
729	 0.125169910712434 
730	 0.125465818891353 
731	 0.125761828632178 
732	 0.12607703847959 
733	 0.126342883960184 
734	 0.126595264234137 
735	 0.126826828213734 
736	 0.127017533483275 
737	 0.12717587143405 
738	 0.127337436022658 
739	 0.12751544451883 
740	 0.127694889468754 
741	 0.127816403035197 
742	 0.127886382086386 
743	 0.127937819906516 
744	 0.128039058519224 
745	 0.128049213297896 
746	 0.128032618685367 
747	 0.128114000406003 
748	 0.128087309304194 
749	 0.128029472897043 
750	 0.127988482477447 
751	 0.127945722636011 
752	 0.127851633974735 
753	 0.127724521464996 
754	 0.127595189098006 
755	 0.127475493451517 
756	 0.127381403231573 
757	 0.127240668902541 
758	 0.126975964334811 
759	 0.126820985381761 
760	 0.126661974468478 
761	 0.126435752678951 
762	 0.126185525142125 
763	 0.12598631164533 
764	 0.125775039807444 
765	 0.125499307645574 
766	 0.125235597729907 
767	 0.125015620091013 
768	 0.124782044566938 
769	 0.124456421564088 
770	 0.12416887568444 
771	 0.123893598373217 
772	 0.123607799801231 
773	 0.123310025423024 
774	 0.122991848142461 
775	 0.122678459780495 
776	 0.122381651006044 
777	 0.122054038606752 
778	 0.121736662229116 
779	 0.121444736961753 
780	 0.121168829805278 
781	 0.120830291240807 
782	 0.120516509675208 
783	 0.120227971805833 
784	 0.119867885468035 
785	 0.119553146346372 
786	 0.11927425018581 
787	 0.11899568087899 
788	 0.118679916833683 
789	 0.11838242811099 
790	 0.118082115470928 
791	 0.11774745228809 
792	 0.11745014611052 
793	 0.117159580375915 
794	 0.116860209184784 
795	 0.116554657852842 
796	 0.116234345503684 
797	 0.115953831960029 
798	 0.115724079596683 
799	 0.115463741133458 
800	 0.115166210301776 
801	 0.114877863857737 
802	 0.114638885732228 
803	 0.114390014044897 
804	 0.1141661415589 
805	 0.113934802482067 
806	 0.113637124191753 
807	 0.113367798020643 
808	 0.1131259095496 
809	 0.112886962379746 
810	 0.112612536703021 
811	 0.112395334137465 
812	 0.112173121465044 
813	 0.111911686963798 
814	 0.111757831305567 
815	 0.111553341876084 
816	 0.111319103556335 
817	 0.111135671105421 
818	 0.110964137997269 
819	 0.110792703692311 
820	 0.110614352315928 
821	 0.110427757520752 
822	 0.110244809055207 
823	 0.110073727328457 
824	 0.10990643784156 
825	 0.109708869421514 
826	 0.109555601488851 
827	 0.109440011220973 
828	 0.109325535792506 
829	 0.109161750409448 
830	 0.108986035188189 
831	 0.108825245983496 
832	 0.108699065175763 
833	 0.108625795311914 
834	 0.108544675620539 
835	 0.108415136788547 
836	 0.108234458851923 
837	 0.108138840381846 
838	 0.108092233813855 
839	 0.108037533919171 
840	 0.107937320209827 
841	 0.107813114813155 
842	 0.107714012662572 
843	 0.107667573379474 
844	 0.107613985695792 
845	 0.107559048640713 
846	 0.107505155815508 
847	 0.107454594582275 
848	 0.107408876849932 
849	 0.107375441455204 
850	 0.107330926457954 
851	 0.107241846405582 
852	 0.107257010785315 
853	 0.107280850586976 
854	 0.107260800586738 
855	 0.107258578144914 
856	 0.107265551768831 
857	 0.107264972124583 
858	 0.107257423457493 
859	 0.107301532516112 
860	 0.107285602697612 
861	 0.107251556369321 
862	 0.107272434633337 
863	 0.10728750733549 
864	 0.107340593405556 
865	 0.107406600065384 
866	 0.10742912148015 
867	 0.107454081981556 
868	 0.107544120230285 
869	 0.107651810594438 
870	 0.107639915663894 
871	 0.107725625560711 
872	 0.107816253243455 
873	 0.107862226371543 
874	 0.107964628767172 
875	 0.108082625526076 
876	 0.10816225530208 
877	 0.10819156379281 
878	 0.108267384559013 
879	 0.108426677813415 
880	 0.108596561418162 
881	 0.108692835573813 
882	 0.108769310076186 
883	 0.108881136118578 
884	 0.109028038360477 
885	 0.109176999097902 
886	 0.109318986520318 
887	 0.109504040767039 
888	 0.109690272195661 
889	 0.109778900227309 
890	 0.109933593768486 
891	 0.110131360001383 
892	 0.110331028193565 
893	 0.110502984257756 
894	 0.110633590931985 
895	 0.110797242337615 
896	 0.111029457040889 
897	 0.111266205383528 
898	 0.111514457452927 
899	 0.111702450202636 
900	 0.11182156835169 
901	 0.112073745137011 
902	 0.112323760065473 
903	 0.112552163598919 
904	 0.112782892451866 
905	 0.113045365479783 
906	 0.113343039942721 
907	 0.113630588849646 
908	 0.113870829838357 
909	 0.114192623202487 
910	 0.114456875345317 
911	 0.114697537134324 
912	 0.115039221924047 
913	 0.115340210041347 
914	 0.115603651336151 
915	 0.11587174732676 
916	 0.116197511817005 
917	 0.116501182883703 
918	 0.116823668351347 
919	 0.117181705990622 
920	 0.117544857158603 
921	 0.117891899404099 
922	 0.118248757861029 
923	 0.118622836484918 
924	 0.118983550053525 
925	 0.119294015388183 
926	 0.119711200473646 
927	 0.12022859037076 
928	 0.120480355295535 
929	 0.120912934150554 
930	 0.121424706700387 
931	 0.121853734973731 
932	 0.122241872572902 
933	 0.122634661526944 
934	 0.123085889446803 
935	 0.123600962955806 
936	 0.12406028785018 
937	 0.124479107729122 
938	 0.124897940826306 
939	 0.125371014588998 
940	 0.125965331857774 
941	 0.126464739869677 
942	 0.126933315176752 
943	 0.127482851931078 
944	 0.127918845988991 
945	 0.128364607184613 
946	 0.128906596525058 
947	 0.129542024103332 
948	 0.13000671430378 
949	 0.130495793016653 
950	 0.131019433290615 
951	 0.131532417945076 
952	 0.132275963264101 
953	 0.132826016167052 
954	 0.133327495676811 
955	 0.134121406025881 
956	 0.134656561481317 
957	 0.135230598615722 
958	 0.135881927652315 
959	 0.136475897347086 
960	 0.137034646095738 
961	 0.137651130890795 
962	 0.138315225431521 
963	 0.13894237648123 
964	 0.139468715857107 
965	 0.140137904224355 
966	 0.140871038468101 
967	 0.141440540319379 
968	 0.1422141285329 
969	 0.142853633915798 
970	 0.143422493457907 
971	 0.144199894235655 
972	 0.144814032616795 
973	 0.145582470828062 
974	 0.146434177717545 
975	 0.147084416635751 
976	 0.147827328746646 
977	 0.14854279838395 
978	 0.149216937702468 
979	 0.149918009724859 
980	 0.150665415077684 
981	 0.151328830674534 
982	 0.151929962479552 
983	 0.152594404859476 
984	 0.153397931135664 
985	 0.154249796793792 
986	 0.155032400537799 
987	 0.155687912600671 
988	 0.156466317112524 
989	 0.157087596860461 
990	 0.157689507437081 
991	 0.158539773316466 
992	 0.159404205410917 
993	 0.160176946811116 
994	 0.160909181324336 
995	 0.161689463550302 
996	 0.162439379881346 
997	 0.163084359756988 
998	 0.163713481619521 
999	 0.164460216313367 
1000	 0.165367955979188 
1001	 0.166529967496719 
1002	 0.167179420450443 
1003	 0.167785474424442 
1004	 0.168407810145178 
1005	 0.169044475259968 
1006	 0.16969955543148 
1007	 0.170359369939273 
1008	 0.171000080496155 
1009	 0.171702229235305 
1010	 0.172344453483644 
1011	 0.172966436281424 
1012	 0.173591287937715 
1013	 0.174187925671035 
1014	 0.174822030257222 
1015	 0.175463223670538 
1016	 0.176065721002741 
1017	 0.176673421243024 
1018	 0.177268475415974 
1019	 0.177823634857993 
1020	 0.178408560566029 
1021	 0.17898775079687 
1022	 0.17951476983752 
1023	 0.180075550861588 
1024	 0.180576481678846 
1025	 0.181068047700542 
1026	 0.181607809679834 
1027	 0.182085304991058 
1028	 0.182594790483266 
1029	 0.183152697810455 
1030	 0.183702964536996 
1031	 0.184202215860586 
1032	 0.184675012987344 
1033	 0.185109569030542 
1034	 0.185582731488977 
1035	 0.185987035820367 
1036	 0.186411328309256 
1037	 0.186957692781054 
1038	 0.187430254760194 
1039	 0.187898952971062 
1040	 0.188396286589589 
1041	 0.188797238823575 
1042	 0.189247623288345 
1043	 0.18970692844327 
1044	 0.19013117144724 
1045	 0.190545809659794 
1046	 0.191000530487931 
1047	 0.191388776405354 
1048	 0.191787265895728 
1049	 0.19224628871251 
1050	 0.192674631344286 
1051	 0.193109860873335 
1052	 0.193554258331087 
1053	 0.193973941892417 
1054	 0.194390271154775 
1055	 0.194804606911866 
1056	 0.195253238829542 
1057	 0.195686120174222 
1058	 0.196122694055364 
1059	 0.196555545559022 
1060	 0.196999935035813 
1061	 0.197388918788225 
1062	 0.197782401037451 
1063	 0.198219550265898 
1064	 0.198634144525425 
1065	 0.199080242716997 
1066	 0.199528665941279 
1067	 0.199969213132277 
1068	 0.200394770689643 
1069	 0.200749035133723 
1070	 0.201132645327094 
1071	 0.201511605934789 
1072	 0.201888490212545 
1073	 0.202258181951978 
1074	 0.202657260523103 
1075	 0.203068283424405 
1076	 0.203443003632558 
1077	 0.203872216892352 
1078	 0.204292832284092 
1079	 0.204645091659672 
1080	 0.205007503528404 
1081	 0.205379930882564 
1082	 0.205727414754573 
1083	 0.206065088344796 
1084	 0.206385573007829 
1085	 0.20674711286757 
1086	 0.207108625162401 
1087	 0.207466759208598 
1088	 0.207847445853029 
1089	 0.208253022411345 
1090	 0.208582607867971 
1091	 0.208887480963791 
1092	 0.209255209062779 
1093	 0.209589928912631 
1094	 0.209923534219365 
1095	 0.210285286646281 
1096	 0.210614048353875 
1097	 0.210934210892084 
1098	 0.211259714878544 
1099	 0.211590701889613 
1100	 0.211921499318827 
1101	 0.212246610517354 
1102	 0.212572599971669 
1103	 0.212912626734302 
1104	 0.213234061373427 
1105	 0.213525053250138 
1106	 0.21382544112013 
1107	 0.214141437097718 
1108	 0.214451310547929 
1109	 0.214779641093605 
1110	 0.215116651729718 
1111	 0.215423968770563 
1112	 0.215713573069101 
1113	 0.215998816363063 
1114	 0.216252525204675 
1115	 0.216537371428349 
1116	 0.216811447165751 
1117	 0.217128672627837 
1118	 0.217488887679178 
1119	 0.21783472265295 
1120	 0.218202058905236 
1121	 0.218504903646836 
1122	 0.218743071385295 
1123	 0.219037876260248 
1124	 0.219337821181117 
1125	 0.219645500295209 
1126	 0.219943870704496 
1127	 0.220264610020577 
1128	 0.220548350194513 
1129	 0.220793637822601 
1130	 0.221072377294606 
1131	 0.221372636535949 
1132	 0.221645319194557 
1133	 0.221912804490298 
1134	 0.222178716389982 
1135	 0.222425043496962 
1136	 0.222670718780792 
1137	 0.222927543481482 
1138	 0.223188774903086 
1139	 0.223439128019845 
1140	 0.223674767717585 
1141	 0.223923285029511 
1142	 0.224179389378572 
1143	 0.224422111080431 
1144	 0.224683855268847 
1145	 0.224902421512271 
1146	 0.225074902713503 
1147	 0.225282435182612 
1148	 0.225480446667063 
1149	 0.225682030224783 
1150	 0.225908325286097 
1151	 0.226128850551155 
1152	 0.226308204619133 
1153	 0.226518925254676 
1154	 0.226729082353716 
1155	 0.2269394671453 
1156	 0.227157219415116 
1157	 0.227394194633117 
1158	 0.227609247847149 
1159	 0.227819208294789 
1160	 0.228030909000674 
1161	 0.228243746415841 
1162	 0.228441443521878 
1163	 0.228623876619089 
1164	 0.2288171129319 
1165	 0.229001188325241 
1166	 0.229192649135276 
1167	 0.229380554336038 
1168	 0.229598539421372 
1169	 0.229795656550075 
1170	 0.229986502640527 
1171	 0.230171130253681 
1172	 0.230354906305355 
1173	 0.230533061021712 
1174	 0.230694184162064 
1175	 0.230873966432624 
1176	 0.231075253489802 
1177	 0.231246249486084 
1178	 0.231405645146114 
1179	 0.231571119918993 
1180	 0.231723115770873 
1181	 0.231873370251469 
1182	 0.232026411340803 
1183	 0.232186842290882 
1184	 0.232337509770793 
1185	 0.232467455238552 
1186	 0.232625349762739 
1187	 0.232806972478759 
1188	 0.232959402917493 
1189	 0.233110357607341 
1190	 0.233256357918817 
1191	 0.233386780416347 
1192	 0.233517555607302 
1193	 0.233641394291795 
1194	 0.233777763692816 
1195	 0.233920321627619 
1196	 0.234051248073073 
1197	 0.234187013248235 
1198	 0.234322068089445 
1199	 0.234452321669802 
1200	 0.234567391924211 
1201	 0.234689884851461 
1202	 0.234819090766333 
1203	 0.234943640589061 
1204	 0.235057597765291 
1205	 0.235182943362447 
1206	 0.235320758809722 
1207	 0.235446824728244 
1208	 0.235577196203135 
1209	 0.235693821925208 
1210	 0.235801350465288 
1211	 0.235903579662872 
1212	 0.235982845514469 
1213	 0.236081521237481 
1214	 0.236187298081316 
1215	 0.236291680661662 
1216	 0.236400280826897 
1217	 0.236530389514729 
1218	 0.236624470187582 
1219	 0.236702343463134 
1220	 0.23678231094786 
1221	 0.236836930607461 
1222	 0.236919710834618 
1223	 0.237015018995341 
1224	 0.237108603341034 
1225	 0.237222368487369 
1226	 0.237314927366824 
1227	 0.237394107515049 
1228	 0.237478973387162 
1229	 0.237564356301188 
1230	 0.237638897244137 
1231	 0.237698094953814 
1232	 0.237774842410991 
1233	 0.237855282818949 
1234	 0.237934430296359 
1235	 0.238007207999569 
1236	 0.238090830971081 
1237	 0.238168196640307 
1238	 0.238234032541783 
1239	 0.238298583141049 
1240	 0.238369848952564 
1241	 0.238435495440789 
1242	 0.238478502455387 
1243	 0.238542215359092 
1244	 0.238624937210236 
1245	 0.23869761952544 
1246	 0.238782159373368 
1247	 0.238848442960998 
1248	 0.238899316121589 
1249	 0.238944191237391 
1250	 0.239006931037725 
1251	 0.239083792080187 
1252	 0.239154925485964 
1253	 0.239256776679126 
1254	 0.239312821933095 
1255	 0.239335672990079 
1256	 0.239379412961679 
1257	 0.239414427757365 
1258	 0.239455494492411 
1259	 0.239510536641846 
1260	 0.239551418990106 
1261	 0.239580767682765 
1262	 0.239615068600561 
1263	 0.239647291351738 
1264	 0.239681254401929 
1265	 0.239712800214455 
1266	 0.239750290564776 
1267	 0.239792961714797 
1268	 0.239838074885807 
1269	 0.239871824296386 
1270	 0.239902696847469 
1271	 0.239935677779885 
1272	 0.239953975265727 
1273	 0.239994570196057 
1274	 0.240051038024589 
1275	 0.240104686102849 
1276	 0.240161765881924 
1277	 0.240223964167029 
1278	 0.240292868472392 
1279	 0.240357699410952 
1280	 0.240426985504435 
1281	 0.240496969729751 
1282	 0.240557448780951 
1283	 0.240631853081343 
1284	 0.240721855960907 
1285	 0.240797195795097 
1286	 0.240910415924091 
1287	 0.241011365457206 
1288	 0.241080543234296 
1289	 0.241136461045387 
1290	 0.241199115983716 
1291	 0.241229586557543 
1292	 0.241283881586995 
1293	 0.241362309829683 
1294	 0.241423212504706 
1295	 0.241474301644183 
1296	 0.241528809485075 
1297	 0.241591544790933 
1298	 0.241637477918784 
1299	 0.241670898935338 
1300	 0.241707548391718 
1301	 0.24173310897649 
1302	 0.241761759157028 
1303	 0.241796423370631 
1304	 0.241831337236522 
1305	 0.241829060323477 
1306	 0.241841962456331 
1307	 0.241852565374265 
1308	 0.241842030414041 
1309	 0.241849367453401 
1310	 0.241878772296601 
1311	 0.241872584018823 
1312	 0.241852081298096 
1313	 0.241833462367213 
1314	 0.241797318373542 
1315	 0.241772474730509 
1316	 0.241754211368827 
1317	 0.241731015645563 
1318	 0.241707137157219 
1319	 0.241676037736781 
1320	 0.241644041337158 
1321	 0.241608629894067 
1322	 0.241575348079925 
1323	 0.241519237957345 
1324	 0.241457919296426 
1325	 0.241419292454147 
1326	 0.241389241313947 
1327	 0.241363841588841 
1328	 0.241341816194068 
1329	 0.241316033912994 
1330	 0.241281052364017 
1331	 0.241237888649467 
1332	 0.241179206107184 
1333	 0.241115395304224 
1334	 0.241040055875808 
1335	 0.240933727384568 
1336	 0.240853256866603 
1337	 0.240771554721087 
1338	 0.240707171602438 
1339	 0.240668364002212 
1340	 0.240609829494793 
1341	 0.240548335419449 
1342	 0.240492816055988 
1343	 0.240426888460889 
1344	 0.240371744391527 
1345	 0.240330518913356 
1346	 0.240285297762645 
1347	 0.240227802097324 
1348	 0.240155516587195 
1349	 0.240074552019855 
1350	 0.239996191346952 
1351	 0.23992984686574 
1352	 0.239873877233549 
1353	 0.239810220897261 
1354	 0.239749840609994 
1355	 0.239689655343265 
1356	 0.239616156938089 
1357	 0.239560315110612 
1358	 0.239528559364269 
1359	 0.239475731837222 
1360	 0.23942185128265 
1361	 0.239361306279006 
1362	 0.239279098812444 
1363	 0.239213082657008 
1364	 0.239161813243881 
1365	 0.239096036131717 
1366	 0.2390276972936 
1367	 0.238962031876007 
1368	 0.238882099662697 
1369	 0.238797411635218 
1370	 0.238710309305776 
1371	 0.23859626527052 
1372	 0.23846904281415 
1373	 0.238329031174462 
1374	 0.238174990852589 
1375	 0.238020250433845 
1376	 0.23782236435757 
1377	 0.237608116940819 
1378	 0.23734924711752 
1379	 0.237036113668431 
1380	 0.236734314711706 
1381	 0.236406297172621 
1382	 0.236072720081196 
1383	 0.235764306490684 
1384	 0.23538789072824 
1385	 0.234989712645142 
1386	 0.234543158381802 
1387	 0.23403499477813 
1388	 0.233515910650692 
1389	 0.232972309153685 
1390	 0.232390630900545 
1391	 0.231794515952734 
1392	 0.231157580787467 
1393	 0.230463775527939 
1394	 0.229731558150992 
1395	 0.228951421445846 
1396	 0.228157376800062 
1397	 0.22735527119365 
1398	 0.226525995698475 
1399	 0.225705833515866 
1400	 0.224880024527476 
1401	 0.224049785952931 
1402	 0.223197934895095 
1403	 0.222393675859394 
1404	 0.221578404977914 
1405	 0.220828714662916 
1406	 0.22014371302614 
1407	 0.219445427590506 
1408	 0.218758353735948 
1409	 0.218110481957494 
1410	 0.217448058829195 
1411	 0.216868661165625 
1412	 0.216342387656971 
1413	 0.215875407137004 
1414	 0.215472094686749 
1415	 0.215081720860453 
1416	 0.214713638695307 
1417	 0.214390849609569 
1418	 0.214067967174533 
1419	 0.213777535966219 
1420	 0.213530580114605 
1421	 0.213281037167568 
1422	 0.21306796559887 
1423	 0.212866500466903 
1424	 0.212646744708193 
1425	 0.212421822454324 
1426	 0.212217336965871 
1427	 0.211989789723588 
1428	 0.21181669126993 
1429	 0.211684386892971 
1430	 0.211556122869659 
1431	 0.211460474234721 
1432	 0.211351828659573 
1433	 0.211244821389724 
1434	 0.211149909182009 
1435	 0.211045734265119 
1436	 0.210976019043075 
1437	 0.210933245177686 
1438	 0.210890560313334 
1439	 0.210868709556885 
1440	 0.210850130576892 
1441	 0.210815743059862 
1442	 0.210788102908017 
1443	 0.210742125400949 
1444	 0.210699222602647 
1445	 0.210688770660061 
1446	 0.210685786650083 
1447	 0.210703706787084 
1448	 0.210732575356494 
1449	 0.210724984580006 
1450	 0.210711836631968 
1451	 0.21071059261325 
1452	 0.210695433120758 
1453	 0.210709178427524 
1454	 0.210743320588623 
1455	 0.210779334921283 
1456	 0.210829317181386 
1457	 0.210874851546298 
1458	 0.210927172676633 
1459	 0.21097818738906 
1460	 0.211019186265921 
1461	 0.211084357592934 
1462	 0.211162247795852 
1463	 0.211240035549538 
1464	 0.211329351547574 
1465	 0.211428053410868 
1466	 0.211517231111921 
1467	 0.211636730748042 
1468	 0.211772025091099 
1469	 0.211927380260078 
1470	 0.212107028725422 
1471	 0.212304296414509 
1472	 0.212508686908537 
1473	 0.212718901369979 
1474	 0.212913029650053 
1475	 0.213129872646668 
1476	 0.213340126508194 
1477	 0.213555498663088 
1478	 0.213791831912938 
1479	 0.214005656123431 
1480	 0.214236148279983 
1481	 0.214477184799954 
1482	 0.214712535579056 
1483	 0.214957048731683 
1484	 0.215182756746733 
1485	 0.215392773849163 
1486	 0.215622576354429 
1487	 0.215844453467306 
1488	 0.216080970409993 
1489	 0.216339119067983 
1490	 0.21658716595852 
1491	 0.216841221603032 
1492	 0.217083631886605 
1493	 0.217326126698857 
1494	 0.21755920672306 
1495	 0.217773453307968 
1496	 0.217997861636015 
1497	 0.218231461125887 
1498	 0.218447023320388 
1499	 0.218656594381744 
1500	 0.218861366148725 
1501	 0.219045819831672 
1502	 0.219243104943135 
1503	 0.219446061569306 
1504	 0.219646106869577 
1505	 0.219854206913495 
1506	 0.220062640722813 
1507	 0.220269860928648 
1508	 0.220483940256945 
1509	 0.220691217708287 
1510	 0.220878812538232 
1511	 0.22104661216206 
1512	 0.221217044823767 
1513	 0.221386883198683 
1514	 0.22156268596877 
1515	 0.221742258713479 
1516	 0.22191686512804 
1517	 0.222096630009026 
1518	 0.222274169805279 
1519	 0.222452776203811 
1520	 0.222642294978166 
1521	 0.22281902520184 
1522	 0.222989229954523 
1523	 0.223155734952907 
1524	 0.22331014231316 
1525	 0.223475240164359 
1526	 0.223645737969982 
1527	 0.223808699009452 
1528	 0.223978421162104 
1529	 0.224137473826344 
1530	 0.224283844647033 
1531	 0.224430281972192 
1532	 0.224574706685133 
1533	 0.2247117859373 
1534	 0.224841870543539 
1535	 0.224972921118061 
1536	 0.225103295700399 
1537	 0.225226559105263 
1538	 0.225338767809044 
1539	 0.225462125117892 
1540	 0.225584920275854 
1541	 0.225711278002216 
1542	 0.2258521839422 
1543	 0.225979722919326 
1544	 0.226101818158898 
1545	 0.22621939760115 
1546	 0.2263296410558 
1547	 0.226438427053399 
1548	 0.226549517589395 
1549	 0.226656880474954 
1550	 0.226760419943874 
1551	 0.226879825551135 
1552	 0.226996657389282 
1553	 0.227103423015397 
1554	 0.227208341267386 
1555	 0.227291070042604 
1556	 0.227367708870757 
1557	 0.227444516060842 
1558	 0.227520256014151 
1559	 0.227620900506041 
1560	 0.227712812036714 
1561	 0.227818192490167 
1562	 0.227889772763673 
1563	 0.22793570662728 
1564	 0.22801467561129 
1565	 0.22808613267338 
1566	 0.228175226981276 
1567	 0.228305281507412 
1568	 0.228394197682514 
1569	 0.228465622424704 
1570	 0.228534262543751 
1571	 0.228587570666864 
1572	 0.228651562421355 
1573	 0.228713681645127 
1574	 0.228778380404192 
1575	 0.228848921994798 
1576	 0.228913375073711 
1577	 0.228978182071625 
1578	 0.229034348077594 
1579	 0.229074367676928 
1580	 0.229137304481433 
1581	 0.229204083895111 
1582	 0.229274921563667 
1583	 0.229376255498136 
1584	 0.229446647357337 
1585	 0.229499526511479 
1586	 0.229555499672927 
1587	 0.229597822165972 
1588	 0.229645326454312 
1589	 0.229701501684564 
1590	 0.229743687631364 
1591	 0.229778147367965 
1592	 0.229809634414671 
1593	 0.229817832969714 
1594	 0.229850698397687 
1595	 0.229900787791423 
1596	 0.229942234175309 
1597	 0.229991302986966 
1598	 0.230043068013696 
1599	 0.23009391024523 
1600	 0.230138357503379 
1601	 0.230190197113605 
1602	 0.230233362044237 
1603	 0.230256526536338 
1604	 0.230290353750841 
1605	 0.230330085269593 
1606	 0.230368071449158 
1607	 0.230408757819531 
1608	 0.230451461703986 
1609	 0.230488299223112 
1610	 0.230508597329906 
1611	 0.230523267999156 
1612	 0.230523185329817 
1613	 0.230514463226947 
1614	 0.230537404621914 
1615	 0.230574094575546 
1616	 0.230605283402402 
1617	 0.230655690778415 
1618	 0.230698413100409 
1619	 0.230718415571321 
1620	 0.230754050659061 
1621	 0.230786599622196 
1622	 0.230816250921216 
1623	 0.230838678006607 
1624	 0.23086965928168 
1625	 0.230877302905942 
1626	 0.23086114987111 
1627	 0.230864902472516 
1628	 0.230861284905906 
1629	 0.23087925972795 
1630	 0.230916705229942 
1631	 0.230940873499566 
1632	 0.23096984060477 
1633	 0.230996777922909 
1634	 0.231017019044758 
1635	 0.231041076035053 
1636	 0.23108302654164 
1637	 0.231085075859781 
1638	 0.231059879624739 
1639	 0.23105857911054 
1640	 0.231037813661008 
1641	 0.231044461495363 
1642	 0.231080344823016 
1643	 0.231102686814828 
1644	 0.231122772116182 
1645	 0.231150622593613 
1646	 0.231190813564918 
1647	 0.231213374067335 
1648	 0.231238167421128 
1649	 0.23124558949218 
1650	 0.231230635546581 
1651	 0.23122724431165 
1652	 0.231221279416872 
1653	 0.231213150690898 
1654	 0.231204055940266 
1655	 0.231199553895719 
1656	 0.231197946274937 
1657	 0.231185673687633 
1658	 0.231181308585518 
1659	 0.231153938700928 
1660	 0.231100240190368 
1661	 0.231062002555545 
1662	 0.231005816410243 
1663	 0.230985731929145 
1664	 0.230990316045047 
1665	 0.23098827105731 
1666	 0.231004621368613 
1667	 0.23101374777225 
1668	 0.231033429908985 
1669	 0.23101787639837 
1670	 0.230985891135732 
1671	 0.230957577376569 
1672	 0.230894068885819 
1673	 0.230860725329552 
1674	 0.230850059446344 
1675	 0.230833179270364 
1676	 0.230820282293979 
1677	 0.230803732381341 
1678	 0.230789160140016 
1679	 0.230773525688651 
1680	 0.230752615307219 
1681	 0.230737956903266 
1682	 0.230731222405742 
1683	 0.23071553027499 
1684	 0.230704454188299 
1685	 0.23067687080184 
1686	 0.230625498382025 
1687	 0.230599364960335 
1688	 0.230567895446763 
1689	 0.230555938436532 
1690	 0.230591728043295 
1691	 0.230572460695849 
1692	 0.230532355392981 
1693	 0.230493301148842 
1694	 0.230412202724532 
1695	 0.230369670692867 
1696	 0.230343871469406 
1697	 0.230327317662193 
1698	 0.230331361080324 
1699	 0.230325880025288 
1700	 0.230344964168838 
1701	 0.230320482696298 
1702	 0.23026319608736 
1703	 0.230224426553398 
1704	 0.230172421263214 
1705	 0.230121496632536 
1706	 0.230095703024829 
1707	 0.230028389535167 
1708	 0.229913687436758 
1709	 0.229842672887971 
1710	 0.229771501500363 
1711	 0.229713469701536 
1712	 0.229694287775753 
1713	 0.229640429478814 
1714	 0.229570513731444 
1715	 0.229505896613658 
1716	 0.229418023349789 
1717	 0.22936772269475 
1718	 0.229356031043424 
1719	 0.229296009072501 
1720	 0.229228994091228 
1721	 0.229166124081494 
1722	 0.229063312832562 
1723	 0.228995902743889 
1724	 0.228975208925176 
1725	 0.228912342884647 
1726	 0.228834794991743 
1727	 0.228748418317817 
1728	 0.228639764718854 
1729	 0.22854590584494 
1730	 0.228452069405289 
1731	 0.228359226294915 
1732	 0.228265515276031 
1733	 0.228182079029451 
1734	 0.228107528033172 
1735	 0.228018198860536 
1736	 0.227937821372808 
1737	 0.22783449237515 
1738	 0.227697882773774 
1739	 0.227599595994826 
1740	 0.227508379791612 
1741	 0.227423885460238 
1742	 0.227366389677447 
1743	 0.22728010717295 
1744	 0.227189504852209 
1745	 0.227075667407995 
1746	 0.226944331867567 
1747	 0.226783594090771 
1748	 0.226653733153013 
1749	 0.226550631701091 
1750	 0.226433699268168 
1751	 0.226352443328518 
1752	 0.226253335454694 
1753	 0.226128960613151 
1754	 0.226021672830366 
1755	 0.225901260979506 
1756	 0.225786598633438 
1757	 0.225673291002039 
1758	 0.225552179748817 
1759	 0.225422420381409 
1760	 0.225291041505113 
1761	 0.225189168223949 
1762	 0.225100327520375 
1763	 0.22502740154829 
1764	 0.224956568186572 
1765	 0.224864921303986 
1766	 0.224737729666744 
1767	 0.224587747707738 
1768	 0.224455085754061 
1769	 0.224327462891683 
1770	 0.224228724107707 
1771	 0.224173945257969 
1772	 0.224112956852368 
1773	 0.224036835556285 
1774	 0.223963813646011 
1775	 0.223895010530232 
1776	 0.223817303229381 
1777	 0.223735279548463 
1778	 0.223641094339698 
1779	 0.223524506498656 
1780	 0.223425171740435 
1781	 0.223349004452404 
1782	 0.223292404821561 
1783	 0.223250324684088 
1784	 0.223205744291678 
1785	 0.223174744307728 
1786	 0.223143915673721 
1787	 0.223121876934404 
1788	 0.22308591218081 
1789	 0.223040468368166 
1790	 0.223004521612814 
1791	 0.222972852883281 
1792	 0.222926409520689 
1793	 0.222876826646113 
1794	 0.222828306310539 
1795	 0.222750682405751 
1796	 0.222709857788655 
1797	 0.222695991086312 
1798	 0.222673982724866 
1799	 0.222674917860315 
1800	 0.222652768192475 
1801	 0.217207212354317 
1802	 0.217394925428329 
1803	 0.217577057016039 
1804	 0.217787979243703 
1805	 0.21802570664397 
1806	 0.218237023022476 
1807	 0.218478467786938 
1808	 0.218679810510459 
1809	 0.218873711298042 
1810	 0.219018733694971 
1811	 0.219131850719606 
1812	 0.219234975169816 
1813	 0.219312265505295 
1814	 0.219374108837404 
1815	 0.219442522430603 
1816	 0.219473054338741 
1817	 0.219497320663677 
1818	 0.219490397316457 
1819	 0.219506306232608 
1820	 0.219522624602609 
1821	 0.21953133439952 
1822	 0.219567084030076 
1823	 0.219579395463097 
1824	 0.219593421171625 
1825	 0.219632474715764 
1826	 0.2196646083791 
1827	 0.219681605660494 
1828	 0.21968565246853 
1829	 0.21969805632517 
1830	 0.219668816023471 
1831	 0.219605878095648 
1832	 0.219539072251328 
1833	 0.219455626167551 
1834	 0.219394979537536 
1835	 0.219331834243161 
1836	 0.219247473837906 
1837	 0.219204732333163 
1838	 0.219144301044496 
1839	 0.219089053159792 
1840	 0.219048138018267 
1841	 0.219014929125482 
1842	 0.218931273066366 
1843	 0.218851678380641 
1844	 0.218767332801687 
1845	 0.218675687703712 
1846	 0.218601680846282 
1847	 0.21851420960712 
1848	 0.218399203316234 
1849	 0.21828524788968 
1850	 0.218168348346326 
1851	 0.218051733484006 
1852	 0.217916998636505 
1853	 0.217764148113012 
1854	 0.217602484000784 
1855	 0.217402161605089 
1856	 0.217145293009772 
1857	 0.216892507943924 
1858	 0.21663631033278 
1859	 0.216339387077377 
1860	 0.216021579771616 
1861	 0.215701635032671 
1862	 0.215352667476267 
1863	 0.214930238997492 
1864	 0.214473886102091 
1865	 0.213990198429 
1866	 0.21341290970603 
1867	 0.212798297856929 
1868	 0.212169766811985 
1869	 0.211458766129098 
1870	 0.210724502287237 
1871	 0.209931866051724 
1872	 0.209101384250196 
1873	 0.208178190641775 
1874	 0.207224895564114 
1875	 0.20620538559822 
1876	 0.20511747179074 
1877	 0.20397978850305 
1878	 0.202727132220713 
1879	 0.201402175659653 
1880	 0.200000289511425 
1881	 0.198506968388602 
1882	 0.196924901449198 
1883	 0.195280302775906 
1884	 0.193505398414982 
1885	 0.19164651277871 
1886	 0.189731569361429 
1887	 0.187697880593584 
1888	 0.185629319709137 
1889	 0.183494129938253 
1890	 0.181301241642116 
1891	 0.179130400207707 
1892	 0.176928239122402 
1893	 0.174743481157909 
1894	 0.172555269326439 
1895	 0.170376477517822 
1896	 0.168192848922621 
1897	 0.166092374313116 
1898	 0.164013618796999 
1899	 0.161995151289896 
1900	 0.160092146371425 
1901	 0.158236182587968 
1902	 0.156491864365525 
1903	 0.154877378720416 
1904	 0.1533211555466 
1905	 0.15183809005505 
1906	 0.150452766070832 
1907	 0.149149454624499 
1908	 0.147903925101742 
1909	 0.14675742709209 
1910	 0.145697502767045 
1911	 0.144722808981946 
1912	 0.143825638199968 
1913	 0.14297819741267 
1914	 0.142202417726011 
1915	 0.141476506719845 
1916	 0.140796888018308 
1917	 0.140184874305638 
1918	 0.139660557107526 
1919	 0.139160208989852 
1920	 0.138697485916233 
1921	 0.138275851385536 
1922	 0.137900955532316 
1923	 0.137594212241724 
1924	 0.13732864123102 
1925	 0.137138400869494 
1926	 0.136969372971256 
1927	 0.136842272846928 
1928	 0.136735117570966 
1929	 0.136648572027264 
1930	 0.136617486215112 
1931	 0.136604504056072 
1932	 0.136616724989878 
1933	 0.136675964984679 
1934	 0.136747724807199 
1935	 0.136839813363178 
1936	 0.136938006594812 
1937	 0.137079057090835 
1938	 0.137257419036431 
1939	 0.137453173501122 
1940	 0.137687841392846 
1941	 0.13792665481063 
1942	 0.13816752908649 
1943	 0.138421288372557 
1944	 0.138687337045818 
1945	 0.138995044400658 
1946	 0.139303389702316 
1947	 0.139621601837121 
1948	 0.139962384004874 
1949	 0.140319487569289 
1950	 0.140685734914855 
1951	 0.141064427464713 
1952	 0.141486621887768 
1953	 0.141888977465363 
1954	 0.142311478951626 
1955	 0.142742701571978 
1956	 0.143179215395253 
1957	 0.143634365997198 
1958	 0.144115465596307 
1959	 0.144576410970624 
1960	 0.14504160875282 
1961	 0.145511421829094 
1962	 0.14595538093348 
1963	 0.146437081254524 
1964	 0.146943825294326 
1965	 0.147463377634101 
1966	 0.147994240398648 
1967	 0.148529219599591 
1968	 0.149050250111043 
1969	 0.149564600247577 
1970	 0.150080965511854 
1971	 0.150599271967679 
1972	 0.151104837344486 
1973	 0.15159216531627 
1974	 0.152098676834596 
1975	 0.152597700615279 
1976	 0.153108800209622 
1977	 0.15365825196502 
1978	 0.154209667855739 
1979	 0.154751053099626 
1980	 0.155294743894855 
1981	 0.155824495211693 
1982	 0.156332502198682 
1983	 0.1568584186663 
1984	 0.157376480079238 
1985	 0.157912224166779 
1986	 0.158480785250857 
1987	 0.159017145882729 
1988	 0.159537466813794 
1989	 0.160083965554259 
1990	 0.160593573325277 
1991	 0.161073776907819 
1992	 0.161586382226083 
1993	 0.162109483379197 
1994	 0.162625651950075 
1995	 0.163147805365679 
1996	 0.163675672799952 
1997	 0.164215170152344 
1998	 0.164731961263411 
1999	 0.165244285656209 
2000	 0.165757997079964 
2001	 0.166261859191357 
2002	 0.166749708476001 
2003	 0.167266360297132 
2004	 0.167772389369708 
2005	 0.168255539406948 
2006	 0.168722316859663 
2007	 0.169187829339146 
2008	 0.169617264212741 
2009	 0.170081770128922 
2010	 0.170567918885776 
2011	 0.171039897039225 
2012	 0.171525363383487 
2013	 0.172001116809846 
2014	 0.172468346348395 
2015	 0.172923067301462 
2016	 0.173377782379477 
2017	 0.173838413956887 
2018	 0.174298561987754 
2019	 0.174752599813161 
2020	 0.175215612058671 
2021	 0.175704968388704 
2022	 0.176152744488662 
2023	 0.176572836963113 
2024	 0.177011293235016 
2025	 0.177438442254746 
2026	 0.177863645874171 
2027	 0.17830754239946 
2028	 0.17873914149866 
2029	 0.179152975327753 
2030	 0.179544949799238 
2031	 0.179939520868026 
2032	 0.18032885565595 
2033	 0.180711048689398 
2034	 0.181087370150577 
2035	 0.181452947615098 
2036	 0.181797563716094 
2037	 0.1821584102312 
2038	 0.182522979143957 
2039	 0.182880043244265 
2040	 0.183249256353134 
2041	 0.183606373234406 
2042	 0.18393538344331 
2043	 0.184254500083739 
2044	 0.184587157209652 
2045	 0.184910133553764 
2046	 0.185250954618963 
2047	 0.185617079083091 
2048	 0.185958588998535 
2049	 0.186306669144309 
2050	 0.186628309503252 
2051	 0.186917158766138 
2052	 0.187222747188438 
2053	 0.187518220455358 
2054	 0.187819299700951 
2055	 0.18813485878161 
2056	 0.188444483616921 
2057	 0.18874573167806 
2058	 0.189037809510045 
2059	 0.189334198758549 
2060	 0.189636118360065 
2061	 0.18991805698831 
2062	 0.190193338548334 
2063	 0.190463136129552 
2064	 0.190707429892503 
2065	 0.190965972771926 
2066	 0.191232800855156 
2067	 0.191493578199072 
2068	 0.191737696264375 
2069	 0.192013761270468 
2070	 0.192277734837541 
2071	 0.192534729035324 
2072	 0.192807723631178 
2073	 0.193093316402206 
2074	 0.193372400840354 
2075	 0.193669950024542 
2076	 0.193938446635564 
2077	 0.194191708347048 
2078	 0.19444269781048 
2079	 0.194667288437665 
2080	 0.194910358041139 
2081	 0.195158514577759 
2082	 0.195410347428739 
2083	 0.195666079951582 
2084	 0.195933918750959 
2085	 0.196190908640492 
2086	 0.19645475602608 
2087	 0.196694896663367 
2088	 0.19691472691909 
2089	 0.197152310917359 
2090	 0.1973926470982 
2091	 0.197615526742818 
2092	 0.197833196305668 
2093	 0.198060068928263 
2094	 0.198268933982254 
2095	 0.19848999452532 
2096	 0.198739279426831 
2097	 0.198972934522038 
2098	 0.199191178607642 
2099	 0.199418178020401 
2100	 0.199639932080065 
2101	 0.199857349191458 
2102	 0.200079767283208 
2103	 0.200306479359804 
2104	 0.200523528263848 
2105	 0.20074187386045 
2106	 0.200952943284448 
2107	 0.201141958917637 
2108	 0.201355525247297 
2109	 0.201585446171739 
2110	 0.201804068997616 
2111	 0.202012294181086 
2112	 0.20224632175619 
2113	 0.202505646534737 
2114	 0.202739263516389 
2115	 0.20296942688303 
2116	 0.203217229474652 
2117	 0.203447658917107 
2118	 0.203646675579376 
2119	 0.20386520866471 
2120	 0.204112278142045 
2121	 0.20431865506013 
2122	 0.20449311413 
2123	 0.204685368831012 
2124	 0.204873319578304 
2125	 0.20505431724265 
2126	 0.205239693765222 
2127	 0.205420549822491 
2128	 0.205613760021339 
2129	 0.205765679000274 
2130	 0.205903457034979 
2131	 0.206019738840726 
2132	 0.206121790755145 
2133	 0.206176366879742 
2134	 0.20625806927811 
2135	 0.206342779578099 
2136	 0.206425168402339 
2137	 0.20651888610743 
2138	 0.206579383370722 
2139	 0.206627851908079 
2140	 0.206669047979823 
2141	 0.206663415746558 
2142	 0.206694351519328 
2143	 0.20676619875587 
2144	 0.206796344171339 
2145	 0.20681806192013 
2146	 0.206833963128892 
2147	 0.206820517529924 
2148	 0.206813288072583 
2149	 0.206775938243738 
2150	 0.206730958358624 
2151	 0.206676586734786 
2152	 0.206580551567836 
2153	 0.206518092371298 
2154	 0.206486754971116 
2155	 0.206417633918738 
2156	 0.206352035190956 
2157	 0.206249309058409 
2158	 0.206094847410949 
2159	 0.205966682289427 
2160	 0.20582970957593 
2161	 0.205693815091343 
2162	 0.205565909561934 
2163	 0.205438210124239 
2164	 0.205300986423371 
2165	 0.205172199287336 
2166	 0.205040754799029 
2167	 0.204925265566417 
2168	 0.204778504896614 
2169	 0.204617343807607 
2170	 0.204451582184882 
2171	 0.204263448869221 
2172	 0.20408951485262 
2173	 0.203912239145784 
2174	 0.203743678084294 
2175	 0.203586129314523 
2176	 0.203420333041726 
2177	 0.203271710596193 
2178	 0.203091838179813 
2179	 0.20288262122737 
2180	 0.202685372345028 
2181	 0.20246979727598 
2182	 0.202263760577023 
2183	 0.202071900823401 
2184	 0.201882967179768 
2185	 0.201675082314802 
2186	 0.201451394108809 
2187	 0.201245834746258 
2188	 0.20103320067983 
2189	 0.200832066871253 
2190	 0.200636724143866 
2191	 0.200460025599181 
2192	 0.200288651600586 
2193	 0.200132755382167 
2194	 0.199999357843698 
2195	 0.199873146633545 
2196	 0.199770655410113 
2197	 0.199649839503841 
2198	 0.199506914355461 
2199	 0.19940526917602 
2200	 0.199292256392102 
2201	 0.199223327602802 
2202	 0.199199242420067 
2203	 0.19922078543123 
2204	 0.19921938966929 
2205	 0.199225170462036 
2206	 0.199252729629656 
2207	 0.199292218961834 
2208	 0.199329604831859 
2209	 0.199393537533397 
2210	 0.199438353033229 
2211	 0.199468813703563 
2212	 0.199506042670795 
2213	 0.199543331080547 
2214	 0.199588393287398 
2215	 0.199635368064768 
2216	 0.199683967127394 
2217	 0.199734628713021 
2218	 0.199795568777857 
2219	 0.199877776271887 
2220	 0.19993082563677 
2221	 0.199988161126563 
2222	 0.200025892034641 
2223	 0.200013328290821 
2224	 0.200028788465968 
2225	 0.200059519199453 
2226	 0.200105813942979 
2227	 0.200137389037109 
2228	 0.200183461584181 
2229	 0.200210038698819 
2230	 0.200212423122253 
2231	 0.200230189241266 
2232	 0.200261235376543 
2233	 0.200277660080716 
2234	 0.200293864500024 
2235	 0.200291963275265 
2236	 0.200274401261261 
2237	 0.2002530098143 
2238	 0.200221865200146 
2239	 0.200186343767757 
2240	 0.200139575142184 
2241	 0.200096266026735 
2242	 0.200055447772208 
2243	 0.199999994446847 
2244	 0.199930416407549 
2245	 0.199873796310128 
2246	 0.199815654940753 
2247	 0.199728857689129 
2248	 0.199668024828314 
2249	 0.199629583602892 
2250	 0.199563606149243 
2251	 0.199485233637332 
2252	 0.199421154310873 
2253	 0.199351996950984 
2254	 0.199279244859996 
2255	 0.19921628456113 
2256	 0.199148306685663 
2257	 0.199064721731822 
2258	 0.198998147989112 
2259	 0.198930886661741 
2260	 0.198885299460785 
2261	 0.19886913409126 
2262	 0.1988274514791 
2263	 0.198786331482477 
2264	 0.198750312143597 
2265	 0.198677880551242 
2266	 0.1986499493792 
2267	 0.198674026973125 
2268	 0.198674635126858 
2269	 0.198701316481593 
2270	 0.198695599995783 
2271	 0.198644183100189 
2272	 0.198615862818647 
2273	 0.1985879084419 
2274	 0.19855261575412 
2275	 0.19850548403251 
2276	 0.198446209669272 
2277	 0.198418459798719 
2278	 0.198383130768515 
2279	 0.198363614122417 
2280	 0.198399420406623 
2281	 0.198382725188438 
2282	 0.198323066139423 
2283	 0.198307981956365 
2284	 0.198308032529796 
2285	 0.198279919880079 
2286	 0.198261773986298 
2287	 0.198234076918881 
2288	 0.198194124244197 
2289	 0.198134512885145 
2290	 0.198063213654183 
2291	 0.197994741855803 
2292	 0.197873034157117 
2293	 0.197802543156105 
2294	 0.197786819665895 
2295	 0.19774956929599 
2296	 0.197741821232627 
2297	 0.19769003317971 
2298	 0.197622515136771 
2299	 0.197523113591086 
2300	 0.197422374510079 
2301	 0.197360660906947 
2302	 0.197294143630978 
2303	 0.197234989522305 
2304	 0.197205259952753 
2305	 0.197145848919008 
2306	 0.19704579661923 
2307	 0.196931116954386 
2308	 0.196799700656456 
2309	 0.196594426797329 
2310	 0.196462080636734 
2311	 0.196373787182666 
2312	 0.196239502612635 
2313	 0.196109743380399 
2314	 0.195959293558948 
2315	 0.195758367668967 
2316	 0.195610890159518 
2317	 0.195479126940006 
2318	 0.195357318860691 
2319	 0.195289085311678 
2320	 0.195158667795042 
2321	 0.194997211291038 
2322	 0.194851324437205 
2323	 0.194661357593768 
2324	 0.194515370128398 
2325	 0.194413023148078 
2326	 0.19429621804229 
2327	 0.194189840141892 
2328	 0.194079954992841 
2329	 0.193956309268416 
2330	 0.193784616858799 
2331	 0.193626550206359 
2332	 0.193461110577661 
2333	 0.19329969658137 
2334	 0.193171071291033 
2335	 0.193017771223372 
2336	 0.192913313252822 
2337	 0.19281502090959 
2338	 0.192699727466887 
2339	 0.192611610532424 
2340	 0.192432624734307 
2341	 0.192202655061115 
2342	 0.191954129690001 
2343	 0.191740080424647 
2344	 0.19158690845784 
2345	 0.191398214387515 
2346	 0.191247414387242 
2347	 0.19108511574935 
2348	 0.190880895136319 
2349	 0.190696138965134 
2350	 0.190567749768579 
2351	 0.190373670408654 
2352	 0.190127425592565 
2353	 0.189897604155626 
2354	 0.189652395869362 
2355	 0.189410919832839 
2356	 0.189167008651241 
2357	 0.188926687853686 
2358	 0.188671666300487 
2359	 0.188444015109855 
2360	 0.188241706913041 
2361	 0.18803790439272 
2362	 0.187866344292776 
2363	 0.187662436374304 
2364	 0.187421025178949 
2365	 0.187197500710695 
2366	 0.186995967377867 
2367	 0.186748510283362 
2368	 0.186463946430452 
2369	 0.18622139687877 
2370	 0.185981515769821 
2371	 0.185716873069651 
2372	 0.185474246146101 
2373	 0.185260704062722 
2374	 0.184968058425758 
2375	 0.184637963193256 
2376	 0.184398487271358 
2377	 0.184124479056262 
2378	 0.183829638007522 
2379	 0.183609518794547 
2380	 0.183373268644271 
2381	 0.183133187821339 
2382	 0.18287408762815 
2383	 0.182569921092645 
2384	 0.182226454152292 
2385	 0.181860738497221 
2386	 0.181549775870829 
2387	 0.181226186808694 
2388	 0.18087022010343 
2389	 0.18054565678105 
2390	 0.180259773960761 
2391	 0.180027412473751 
2392	 0.179757141601558 
2393	 0.179460484462619 
2394	 0.179140056299347 
2395	 0.178753366594268 
2396	 0.178453157089408 
2397	 0.178148392563363 
2398	 0.177742029934236 
2399	 0.177422787573698 
2400	 0.177135967910834 
2401	 0.176746248124438 
2402	 0.176381759384402 
2403	 0.176072182161382 
2404	 0.175690050907242 
2405	 0.175361021684665 
2406	 0.175118850326127 
2407	 0.174824735746757 
2408	 0.174535576347485 
2409	 0.174159384742904 
2410	 0.17372106707279 
2411	 0.173308745523157 
2412	 0.172848842066604 
2413	 0.172528954295014 
2414	 0.172250651275734 
2415	 0.171923198171215 
2416	 0.171566170260808 
2417	 0.171135951086885 
2418	 0.170746610331421 
2419	 0.170365291399183 
2420	 0.169959432961862 
2421	 0.169589568211226 
2422	 0.16923528780258 
2423	 0.168832900677993 
2424	 0.168450708525614 
2425	 0.168126227723067 
2426	 0.167743184719283 
2427	 0.167340322523281 
2428	 0.166896971572771 
2429	 0.166356949951154 
2430	 0.165963758494753 
2431	 0.165654950719553 
2432	 0.165251003924653 
2433	 0.164885450259987 
2434	 0.164525782919052 
2435	 0.164054279448466 
2436	 0.16367827577272 
2437	 0.163434199332402 
2438	 0.163127023078632 
2439	 0.162811030089054 
2440	 0.162399243240521 
2441	 0.16197312562914 
2442	 0.16151879600737 
2443	 0.160929910455948 
2444	 0.160421167838228 
2445	 0.159878765224444 
2446	 0.159494409464674 
2447	 0.159229483890166 
2448	 0.158933828701819 
2449	 0.158820374215364 
2450	 0.15857795638618 
2451	 0.15817268573749 
2452	 0.157870618789804 
2453	 0.157653211053614 
2454	 0.15723938918302 
2455	 0.156754482155946 
2456	 0.156340917227322 
2457	 0.155776398143128 
2458	 0.155378572456296 
2459	 0.155135865064743 
2460	 0.15485255813412 
2461	 0.154596752095998 
2462	 0.154302981645045 
2463	 0.154099444623733 
2464	 0.153736862479015 
2465	 0.15320433782168 
2466	 0.152790769268792 
2467	 0.152309083016526 
2468	 0.151903784166059 
2469	 0.151658465721786 
2470	 0.151435185705536 
2471	 0.151130021080189 
2472	 0.15074391888487 
2473	 0.150373519186024 
2474	 0.150064367153071 
2475	 0.149695592158684 
2476	 0.14943446396367 
2477	 0.149082557643627 
2478	 0.148654612545352 
2479	 0.148462041729787 
2480	 0.148227942471252 
2481	 0.147829353370983 
2482	 0.14756295589753 
2483	 0.147118300191304 
2484	 0.146553475327438 
2485	 0.146378875735298 
2486	 0.146151789245055 
2487	 0.14579101358626 
2488	 0.145668311803476 
2489	 0.145458524409555 
2490	 0.14511093412799 
2491	 0.144813643451589 
2492	 0.144457999423433 
2493	 0.144225134080734 
2494	 0.144045182582679 
2495	 0.14379285813685 
2496	 0.14365304349615 
2497	 0.143305420646444 
2498	 0.142857215064542 
2499	 0.142772400498599 
2500	 0.142556868324543 
