Wavelength	mm2600001.asd
350	 3.72074167982041E-02 
351	 4.02412387961675E-02 
352	 3.84285182741233E-02 
353	 3.13172625835579E-02 
354	 2.88067510914288E-02 
355	 3.33199986914953E-02 
356	 3.75451963044252E-02 
357	 3.60714942446022E-02 
358	 3.98579903052561E-02 
359	 4.53105087293058E-02 
360	 4.44919348473066E-02 
361	 3.02621532007479E-02 
362	 2.97844521398798E-02 
363	 0.033475914695624 
364	 3.44029018024509E-02 
365	 3.74388483229516E-02 
366	 3.79789982858747E-02 
367	 3.63416174291413E-02 
368	 3.52818907847073E-02 
369	 4.19722246051546E-02 
370	 4.08492015942957E-02 
371	 3.49366703317124E-02 
372	 3.88324743726702E-02 
373	 4.10756642098269E-02 
374	 4.00922678069192E-02 
375	 3.79478318318798E-02 
376	 0.040803089084309 
377	 4.05563002287492E-02 
378	 4.04877910207524E-02 
379	 4.44181916254873E-02 
380	 4.34834124743904E-02 
381	 4.24255496831582E-02 
382	 4.32218210351858E-02 
383	 4.51586340728304E-02 
384	 4.61915547773051E-02 
385	 4.58185732235161E-02 
386	 4.47214426361131E-02 
387	 0.045207930574559 
388	 0.0462279305825 
389	 4.73169256819854E-02 
390	 4.79732261363086E-02 
391	 4.66245541927541E-02 
392	 4.66650388722841E-02 
393	 4.86634698192464E-02 
394	 5.05239910780091E-02 
395	 4.94191506947315E-02 
396	 0.049558024318482 
397	 5.26787641768864E-02 
398	 5.29725425594349E-02 
399	 5.15331588231699E-02 
400	 5.09480915657959E-02 
401	 5.32026639917652E-02 
402	 5.34209707219298E-02 
403	 5.28076852492169E-02 
404	 5.23310975186596E-02 
405	 5.22718522545718E-02 
406	 5.27646917509305E-02 
407	 5.34345016058485E-02 
408	 5.38583092284716E-02 
409	 5.36679849363367E-02 
410	 5.39084922914289E-02 
411	 5.44293194097797E-02 
412	 5.45624594723283E-02 
413	 5.43630312591108E-02 
414	 5.42936141631785E-02 
415	 5.47756704409389E-02 
416	 5.61873628088055E-02 
417	 5.60501513415313E-02 
418	 5.55269435785737E-02 
419	 5.59965429283562E-02 
420	 5.63960957380194E-02 
421	 5.61840818890208E-02 
422	 5.58181371921381E-02 
423	 5.62462176605903E-02 
424	 5.63635846913128E-02 
425	 5.61463921495916E-02 
426	 5.58707050855745E-02 
427	 5.61521853229108E-02 
428	 5.57138493647071E-02 
429	 5.51597257822113E-02 
430	 5.53566607266679E-02 
431	 5.52271190731865E-02 
432	 5.51223196344568E-02 
433	 5.51410628327153E-02 
434	 5.50893258913769E-02 
435	 5.54884638457826E-02 
436	 5.55730276240906E-02 
437	 5.50117482171387E-02 
438	 5.52303199407645E-02 
439	 5.55398425646236E-02 
440	 5.56115693117309E-02 
441	 5.54102236044824E-02 
442	 5.57900217466486E-02 
443	 0.056109211964316 
444	 5.60361514561187E-02 
445	 5.59051084598906E-02 
446	 5.59770658069385E-02 
447	 5.61990065834072E-02 
448	 5.64037875753076E-02 
449	 5.64263530005871E-02 
450	 0.056590311701464 
451	 0.056886311708838 
452	 5.70157145205832E-02 
453	 5.69109659377821E-02 
454	 5.68613478019485E-02 
455	 5.70121417177677E-02 
456	 5.70084395373568E-02 
457	 5.69671901925156E-02 
458	 5.69148305617478E-02 
459	 5.68605291051647E-02 
460	 5.69391180970003E-02 
461	 5.70605354985391E-02 
462	 5.70788869175687E-02 
463	 5.67905278082116E-02 
464	 5.68263955423136E-02 
465	 0.056973788806246 
466	 5.69317244688548E-02 
467	 5.70798012253639E-02 
468	 5.72831261757251E-02 
469	 5.73325176247581E-02 
470	 5.70273545590958E-02 
471	 5.71335575096443E-02 
472	 5.72354611843493E-02 
473	 5.70314671657656E-02 
474	 5.69634341743742E-02 
475	 5.69377009875738E-02 
476	 5.69763776303174E-02 
477	 5.71067707963858E-02 
478	 5.71100001840024E-02 
479	 5.71297071440597E-02 
480	 5.71768348476197E-02 
481	 5.70304984693175E-02 
482	 5.70165014884907E-02 
483	 5.71951046446321E-02 
484	 5.74521031791501E-02 
485	 5.73264393060946E-02 
486	 5.72062646212052E-02 
487	 5.71968973314513E-02 
488	 5.71514921799034E-02 
489	 5.70955683337341E-02 
490	 5.71019290434179E-02 
491	 5.71938984983637E-02 
492	 5.72716401105136E-02 
493	 5.72346551579369E-02 
494	 5.71275046232368E-02 
495	 5.70856621329645E-02 
496	 5.73279019986456E-02 
497	 5.74207757889434E-02 
498	 5.72742166038148E-02 
499	 5.73940304558793E-02 
500	 5.74557453253752E-02 
501	 5.73413205535535E-02 
502	 0.057100758351355 
503	 5.72497801115274E-02 
504	 5.72752114201837E-02 
505	 5.71470225813672E-02 
506	 5.72830641101901E-02 
507	 5.73409474963954E-02 
508	 5.73469527859206E-02 
509	 5.73679024363669E-02 
510	 5.73955442101785E-02 
511	 5.73161446949752E-02 
512	 5.72412056830554E-02 
513	 5.73584229743515E-02 
514	 5.73623946608596E-02 
515	 5.73305750667772E-02 
516	 5.73460280255927E-02 
517	 5.74269800486658E-02 
518	 5.75470321929139E-02 
519	 5.75586514851637E-02 
520	 5.73759061355913E-02 
521	 5.74021261835793E-02 
522	 5.75546783774734E-02 
523	 5.76669517150589E-02 
524	 5.75267030695184E-02 
525	 5.75284270442664E-02 
526	 5.75224972350607E-02 
527	 5.73867229061836E-02 
528	 5.74987932843409E-02 
529	 5.75746364244127E-02 
530	 5.75574050738875E-02 
531	 5.75491692683352E-02 
532	 5.76191021474296E-02 
533	 5.77101392494079E-02 
534	 5.77599148674156E-02 
535	 0.057722029047732 
536	 5.77491977219866E-02 
537	 5.78181133881214E-02 
538	 5.78414152289125E-02 
539	 5.78268144833423E-02 
540	 5.78448410474375E-02 
541	 5.79235836742485E-02 
542	 5.80315437498076E-02 
543	 5.80920704228197E-02 
544	 5.81161800892463E-02 
545	 5.81480805280949E-02 
546	 5.82501546843141E-02 
547	 5.83275755586313E-02 
548	 5.83759329682633E-02 
549	 0.058466028390472 
550	 5.85092105409634E-02 
551	 5.85482348772665E-02 
552	 5.86221286955748E-02 
553	 0.058704035973301 
554	 5.87357977415964E-02 
555	 5.87640789449481E-02 
556	 5.88816825959144E-02 
557	 0.059033049035164 
558	 5.92235486528059E-02 
559	 5.94266221865815E-02 
560	 5.95457372648908E-02 
561	 5.96631118805494E-02 
562	 5.98275911701942E-02 
563	 6.00585527660966E-02 
564	 6.02829811390332E-02 
565	 6.05128151256536E-02 
566	 6.07544601565735E-02 
567	 6.10025792700115E-02 
568	 6.12778491851092E-02 
569	 6.15614616312513E-02 
570	 6.18433773850486E-02 
571	 6.21744762068618E-02 
572	 6.25410836432737E-02 
573	 6.29222505471334E-02 
574	 6.32930897671451E-02 
575	 6.36456006695416E-02 
576	 6.40419494569966E-02 
577	 6.44959456835614E-02 
578	 6.48799917737815E-02 
579	 6.53621022742038E-02 
580	 6.59024637558372E-02 
581	 6.63934133232371E-02 
582	 6.69346453288685E-02 
583	 0.06748608351891 
584	 6.80314430186784E-02 
585	 6.86077028688094E-02 
586	 6.91925708174301E-02 
587	 6.97918548588091E-02 
588	 7.04212103616136E-02 
589	 7.11056221674255E-02 
590	 7.18242533022655E-02 
591	 7.25257719995083E-02 
592	 0.073140074019832 
593	 7.36782104522098E-02 
594	 7.42916196070274E-02 
595	 7.50386732597742E-02 
596	 0.075669009017194 
597	 7.62815737960983E-02 
598	 7.69155272366121E-02 
599	 7.75792129876419E-02 
600	 7.82682292171522E-02 
601	 7.88865609635129E-02 
602	 7.94123405996685E-02 
603	 7.99734682758527E-02 
604	 8.05300052498308E-02 
605	 8.10697164167967E-02 
606	 0.08159216225726 
607	 8.21273205386674E-02 
608	 8.26334505623756E-02 
609	 8.31027258193507E-02 
610	 8.35708397981052E-02 
611	 8.40111780747478E-02 
612	 8.44301922287052E-02 
613	 8.48288019154516E-02 
614	 8.51631764459294E-02 
615	 8.55039595201299E-02 
616	 8.58470873666462E-02 
617	 0.086139922755736 
618	 8.64582632942343E-02 
619	 8.67268334675817E-02 
620	 8.69243779571615E-02 
621	 8.71969500560453E-02 
622	 8.74181335520861E-02 
623	 8.76316344596315E-02 
624	 8.79177049074417E-02 
625	 8.81196701205416E-02 
626	 0.088304659714394 
627	 8.85082073851671E-02 
628	 8.87005160170234E-02 
629	 8.88393008292867E-02 
630	 8.90058730642237E-02 
631	 8.92560576863341E-02 
632	 0.089407285748108 
633	 8.95536243290882E-02 
634	 8.97159329923847E-02 
635	 8.98573938519287E-02 
636	 9.00881380680419E-02 
637	 9.03090840469968E-02 
638	 9.04474114027953E-02 
639	 9.05773858939341E-02 
640	 0.090738603813603 
641	 9.09148850366501E-02 
642	 9.10682244145418E-02 
643	 9.12408640963737E-02 
644	 9.14349695124795E-02 
645	 9.16371594456791E-02 
646	 9.18169792747271E-02 
647	 9.20047954282242E-02 
648	 9.21857922020484E-02 
649	 9.23507613431494E-02 
650	 9.25726946407524E-02 
651	 9.27677024034795E-02 
652	 9.29499756649455E-02 
653	 9.32140871241332E-02 
654	 9.34483051234814E-02 
655	 9.36451856091425E-02 
656	 9.38376471307759E-02 
657	 9.41087323068674E-02 
658	 9.43925666979281E-02 
659	 9.46586142260254E-02 
660	 9.49023042037756E-02 
661	 9.51852445081207E-02 
662	 9.54782163293468E-02 
663	 9.57504422721379E-02 
664	 9.59807437187151E-02 
665	 9.62306718361051E-02 
666	 9.65236020895275E-02 
667	 9.68536153845937E-02 
668	 9.71516206587716E-02 
669	 9.74830783138323E-02 
670	 9.78343453328054E-02 
671	 0.098128474542776 
672	 9.84171619626086E-02 
673	 9.87665117524033E-02 
674	 9.91765135969897E-02 
675	 9.94792830586057E-02 
676	 9.98458151980562E-02 
677	 0.100249262078577 
678	 0.100596293180646 
679	 0.100974273875541 
680	 0.101371472469385 
681	 0.101779173179041 
682	 0.102203793786514 
683	 0.102608550030511 
684	 0.102993816645477 
685	 0.103388786067882 
686	 0.1038895876121 
687	 0.104376763031813 
688	 0.104822997210966 
689	 0.10526914289311 
690	 0.105700470245371 
691	 0.106159997068827 
692	 0.106660687837334 
693	 0.10714619089585 
694	 0.107601109461875 
695	 0.108065971457437 
696	 0.108579191401667 
697	 0.109025299111528 
698	 0.109522827505022 
699	 0.110083971649325 
700	 0.11059737096536 
701	 0.11107946786342 
702	 0.111593640016339 
703	 0.112155417127523 
704	 0.112608605882914 
705	 0.113102332172205 
706	 0.113637475020536 
707	 0.11414431990084 
708	 0.114674880372334 
709	 0.115214404045296 
710	 0.115737377927768 
711	 0.116213133139162 
712	 0.11670566099971 
713	 0.117204131946445 
714	 0.117693252193768 
715	 0.118231004834654 
716	 0.118734381244004 
717	 0.119194571939953 
718	 0.119660586911593 
719	 0.120156281623972 
720	 0.120600533821514 
721	 0.120974186510885 
722	 0.12140761114702 
723	 0.121841836190258 
724	 0.122265537749867 
725	 0.122679830345991 
726	 0.12307824360302 
727	 0.123449979686772 
728	 0.12378202139173 
729	 0.124065595667922 
730	 0.124410017801673 
731	 0.124749576839702 
732	 0.125031896412186 
733	 0.125316572992722 
734	 0.125596282565131 
735	 0.125829912771444 
736	 0.125981271061756 
737	 0.12613386188636 
738	 0.12632202290179 
739	 0.126522955411079 
740	 0.126658884377662 
741	 0.126751920784492 
742	 0.126834476784779 
743	 0.126923894084742 
744	 0.126991734184485 
745	 0.12701514520124 
746	 0.127031553401288 
747	 0.127082616513664 
748	 0.127016490770797 
749	 0.126936503655299 
750	 0.126888729292961 
751	 0.126822274775292 
752	 0.126755379324893 
753	 0.126663331623971 
754	 0.12653051103483 
755	 0.126391494204534 
756	 0.126252857542811 
757	 0.126095798737419 
758	 0.125897144307969 
759	 0.125708793210029 
760	 0.125506778536399 
761	 0.125287281668706 
762	 0.12507976926479 
763	 0.124837412005069 
764	 0.124563637406652 
765	 0.124280877803983 
766	 0.124024311845577 
767	 0.123793216112085 
768	 0.123542060637493 
769	 0.12322246529397 
770	 0.122938491730361 
771	 0.122664628020038 
772	 0.122368703988844 
773	 0.122028196004098 
774	 0.121740136092987 
775	 0.121446474569974 
776	 0.121100333829155 
777	 0.120785838045308 
778	 0.120462332445082 
779	 0.120139377460229 
780	 0.119837453129864 
781	 0.119498238201161 
782	 0.119168969563021 
783	 0.118853821792947 
784	 0.118508210557821 
785	 0.118214710407327 
786	 0.117935945473846 
787	 0.117621320918966 
788	 0.117232866488414 
789	 0.11694267055936 
790	 0.116676148203974 
791	 0.116308105377863 
792	 0.115994873488572 
793	 0.11568181123959 
794	 0.115356651097199 
795	 0.115050257646038 
796	 0.114740503510139 
797	 0.114436779812333 
798	 0.114146845226473 
799	 0.113867033962959 
800	 0.11361075901414 
801	 0.113335683286806 
802	 0.113014019860138 
803	 0.11273849571983 
804	 0.112466873877497 
805	 0.112195665824768 
806	 0.111942505765834 
807	 0.111670550605329 
808	 0.111396553113097 
809	 0.111138483307581 
810	 0.110906082219014 
811	 0.11069007997821 
812	 0.110462307206301 
813	 0.110210848064323 
814	 0.109974775811544 
815	 0.109760059967366 
816	 0.109547542156651 
817	 0.109317040962221 
818	 0.109107258007844 
819	 0.108913607185789 
820	 0.108723534118637 
821	 0.1085239154265 
822	 0.108352142021393 
823	 0.108176930653377 
824	 0.107983241567061 
825	 0.107797956664493 
826	 0.107654838937903 
827	 0.107512377795623 
828	 0.107340491097223 
829	 0.107223632301957 
830	 0.107045738123125 
831	 0.106846616823971 
832	 0.106725322267054 
833	 0.10663120404697 
834	 0.106511283898715 
835	 0.106370779735318 
836	 0.106266807782679 
837	 0.106170671947038 
838	 0.106104881533263 
839	 0.10604445441585 
840	 0.105872460088827 
841	 0.105744732453545 
842	 0.105650607038419 
843	 0.105557891840884 
844	 0.105529624447794 
845	 0.105479853727524 
846	 0.10538867420528 
847	 0.105291207757499 
848	 0.105319375184249 
849	 0.105342309435334 
850	 0.105306273004751 
851	 0.105242432534445 
852	 0.105158157971701 
853	 0.105136236414919 
854	 0.105175789494522 
855	 0.105147039467419 
856	 0.105138862956203 
857	 0.105150235418378 
858	 0.105164444302836 
859	 0.105177810417181 
860	 0.105207259741991 
861	 0.105209414282087 
862	 0.105162148555605 
863	 0.10522353602251 
864	 0.105292745848481 
865	 0.105333119115843 
866	 0.105359061387021 
867	 0.105399960744239 
868	 0.105443890873735 
869	 0.105494671643079 
870	 0.105572502914541 
871	 0.105642026868947 
872	 0.105716876747776 
873	 0.105813171141373 
874	 0.105937056977234 
875	 0.105996891551511 
876	 0.106043506534645 
877	 0.106133903671618 
878	 0.106239696047631 
879	 0.106365901753331 
880	 0.106491931677786 
881	 0.106597834923781 
882	 0.106693667139073 
883	 0.106859807021745 
884	 0.107062287288204 
885	 0.107214883500767 
886	 0.107354355618739 
887	 0.107504201793471 
888	 0.107652036389582 
889	 0.107767444745456 
890	 0.107951853515586 
891	 0.108151350800938 
892	 0.108341194856305 
893	 0.10855650254254 
894	 0.108750340759155 
895	 0.10892250470636 
896	 0.109098054719515 
897	 0.109327110586808 
898	 0.109561982889999 
899	 0.109792707253247 
900	 0.110029377968537 
901	 0.110310978802378 
902	 0.110564286230125 
903	 0.110782269381713 
904	 0.110998949425322 
905	 0.111303719248565 
906	 0.111565907247907 
907	 0.111807731405834 
908	 0.112110803394461 
909	 0.11244191188928 
910	 0.112721398554272 
911	 0.112974378162792 
912	 0.113282975424825 
913	 0.113590309745665 
914	 0.113915358052815 
915	 0.114239810053266 
916	 0.114525457275372 
917	 0.114904542959939 
918	 0.115299948585438 
919	 0.115650256619569 
920	 0.115954919566514 
921	 0.116339407283687 
922	 0.116744440329067 
923	 0.117112230129076 
924	 0.117444387477981 
925	 0.117863957259501 
926	 0.118326383225435 
927	 0.11875534559169 
928	 0.119092893118312 
929	 0.119523460390037 
930	 0.120006355885338 
931	 0.120474095315539 
932	 0.120948535720068 
933	 0.121409323032674 
934	 0.121829431054963 
935	 0.122214653390744 
936	 0.122662930931038 
937	 0.123086439447877 
938	 0.123536147607498 
939	 0.124068111606689 
940	 0.124596993487438 
941	 0.125109474599428 
942	 0.125649968367205 
943	 0.126239796770725 
944	 0.126706998124146 
945	 0.127244090131538 
946	 0.127809277697383 
947	 0.128294858764067 
948	 0.128833735551899 
949	 0.129370992801738 
950	 0.129952553804357 
951	 0.130620661036451 
952	 0.131134586628321 
953	 0.131684604706311 
954	 0.132304752191393 
955	 0.132931369055491 
956	 0.133580305397639 
957	 0.134156690564976 
958	 0.134711436266721 
959	 0.135361618542485 
960	 0.136040214472566 
961	 0.136690723754054 
962	 0.137322687969497 
963	 0.137968822241132 
964	 0.138518244130702 
965	 0.139178018805166 
966	 0.139918717571926 
967	 0.140565484728915 
968	 0.141189270654597 
969	 0.1418644798271 
970	 0.142555895492972 
971	 0.143175427921337 
972	 0.143809412983691 
973	 0.144517336049045 
974	 0.145244404901551 
975	 0.145890837717429 
976	 0.146572367138945 
977	 0.147227076804463 
978	 0.147833912878829 
979	 0.148430776588104 
980	 0.149151548882229 
981	 0.150013537912788 
982	 0.150810074303139 
983	 0.151349289030887 
984	 0.152201723656459 
985	 0.153008125806914 
986	 0.153627506814815 
987	 0.154136600435049 
988	 0.154795961453648 
989	 0.15544660640497 
990	 0.156154676949319 
991	 0.15701783721744 
992	 0.157712360030641 
993	 0.158233944855144 
994	 0.158893631243428 
995	 0.159879111217278 
996	 0.160364448095729 
997	 0.160975125531194 
998	 0.16166348107981 
999	 0.16223825110139 
1000	 0.163054200215691 
1001	 0.164011491450169 
1002	 0.164563708147103 
1003	 0.165129899363746 
1004	 0.165717449883533 
1005	 0.166355389719861 
1006	 0.1669130948692 
1007	 0.167428219310693 
1008	 0.167982451816525 
1009	 0.168565051059422 
1010	 0.16909349978102 
1011	 0.169664860392677 
1012	 0.17024077368168 
1013	 0.170738075836188 
1014	 0.171276320357035 
1015	 0.1718790198999 
1016	 0.172457359380172 
1017	 0.172990087434949 
1018	 0.173497431589717 
1019	 0.173998608164425 
1020	 0.174461582158054 
1021	 0.174903915453789 
1022	 0.175384491292161 
1023	 0.175813022070243 
1024	 0.176160794194384 
1025	 0.176539233548278 
1026	 0.176937482976857 
1027	 0.177326538515832 
1028	 0.177760139316966 
1029	 0.178165210314305 
1030	 0.178554636393173 
1031	 0.178956669505791 
1032	 0.179362986998964 
1033	 0.179746269651492 
1034	 0.180135780735952 
1035	 0.180523074854468 
1036	 0.180890359514377 
1037	 0.181284375143106 
1038	 0.181681436915373 
1039	 0.182042682534686 
1040	 0.182398662656458 
1041	 0.182723408264984 
1042	 0.183040763831927 
1043	 0.183361780497884 
1044	 0.183681406305695 
1045	 0.183985998753749 
1046	 0.184309706314812 
1047	 0.184649507118158 
1048	 0.18499071051528 
1049	 0.185331293769445 
1050	 0.185712429449718 
1051	 0.186082364605589 
1052	 0.186451396274451 
1053	 0.186857909129794 
1054	 0.187175871911756 
1055	 0.187474298350862 
1056	 0.187798541497046 
1057	 0.188122436550893 
1058	 0.188437224797727 
1059	 0.188788567733596 
1060	 0.189181798693087 
1061	 0.189523641251844 
1062	 0.189846212567955 
1063	 0.190092085225815 
1064	 0.190383766881952 
1065	 0.190721879583289 
1066	 0.191031615341705 
1067	 0.191389823699786 
1068	 0.191692561609758 
1069	 0.191937302491426 
1070	 0.192260668033715 
1071	 0.192661235076713 
1072	 0.193003242886428 
1073	 0.193381466356556 
1074	 0.193699957328391 
1075	 0.193980478259638 
1076	 0.194184323683249 
1077	 0.194427663252796 
1078	 0.194673396336453 
1079	 0.194944920974784 
1080	 0.195255129295865 
1081	 0.195511767620453 
1082	 0.195785329645423 
1083	 0.196067798822164 
1084	 0.196333468205291 
1085	 0.196602966246608 
1086	 0.196919630552215 
1087	 0.197176333496689 
1088	 0.197370054542953 
1089	 0.197627791843077 
1090	 0.197915977253597 
1091	 0.198135817156313 
1092	 0.198389894347016 
1093	 0.19864852754132 
1094	 0.198845544775528 
1095	 0.199063806980794 
1096	 0.199301049225121 
1097	 0.199526360532483 
1098	 0.199740533352094 
1099	 0.199928846578587 
1100	 0.200153271278779 
1101	 0.200409024866561 
1102	 0.200624153827456 
1103	 0.200836849781807 
1104	 0.201041028409508 
1105	 0.201250691221817 
1106	 0.201461407923101 
1107	 0.201672351662021 
1108	 0.201928928336895 
1109	 0.202155013257183 
1110	 0.202319760244685 
1111	 0.202496577067197 
1112	 0.202651282804508 
1113	 0.202835946624069 
1114	 0.203024762404687 
1115	 0.203215156305931 
1116	 0.203434087574898 
1117	 0.20363882185409 
1118	 0.203844620806118 
1119	 0.204015292829751 
1120	 0.204202566459303 
1121	 0.204380732597506 
1122	 0.204514131182226 
1123	 0.204677162913012 
1124	 0.204852665257056 
1125	 0.205039363031 
1126	 0.205201180773676 
1127	 0.205374776182472 
1128	 0.2055316619903 
1129	 0.205661074335359 
1130	 0.205803329819745 
1131	 0.205949396641087 
1132	 0.206095099992096 
1133	 0.206227885812712 
1134	 0.206376871128893 
1135	 0.206537800186842 
1136	 0.206703176916042 
1137	 0.20687867076294 
1138	 0.207038839756402 
1139	 0.207178561821291 
1140	 0.207308017853332 
1141	 0.207427876129101 
1142	 0.207514686363957 
1143	 0.207626938181204 
1144	 0.207749369189092 
1145	 0.207857687751551 
1146	 0.207967244753503 
1147	 0.208077072996203 
1148	 0.208171248703233 
1149	 0.208274930407548 
1150	 0.208385603193771 
1151	 0.20850692222968 
1152	 0.208594579876876 
1153	 0.208706550219853 
1154	 0.20881318621422 
1155	 0.208899115186228 
1156	 0.209024143664935 
1157	 0.209184957968218 
1158	 0.209313933092516 
1159	 0.209463757557231 
1160	 0.209581207888323 
1161	 0.209652278343902 
1162	 0.209753035510573 
1163	 0.209859479933748 
1164	 0.209961572980026 
1165	 0.210063670651978 
1166	 0.210184112908745 
1167	 0.210290475494936 
1168	 0.210387407561583 
1169	 0.210488434082484 
1170	 0.21059066017885 
1171	 0.210695597707281 
1172	 0.210799450245168 
1173	 0.210902150959882 
1174	 0.211012127804284 
1175	 0.211113322405929 
1176	 0.211214034943367 
1177	 0.211302815821845 
1178	 0.211373550004803 
1179	 0.21145996048129 
1180	 0.211539329535893 
1181	 0.211630730492437 
1182	 0.211746729235213 
1183	 0.211853539629807 
1184	 0.211947469192544 
1185	 0.212034669679455 
1186	 0.212122526968677 
1187	 0.212200102498054 
1188	 0.212281041245695 
1189	 0.212363025596865 
1190	 0.212447123751873 
1191	 0.212528300061782 
1192	 0.212612548802008 
1193	 0.212697965270076 
1194	 0.212788697970199 
1195	 0.212901507357784 
1196	 0.212981869973478 
1197	 0.213038315697625 
1198	 0.213111620944252 
1199	 0.213182430906245 
1200	 0.213228649173155 
1201	 0.213305479991104 
1202	 0.213411250894787 
1203	 0.213497335435119 
1204	 0.213576049705305 
1205	 0.213663872326191 
1206	 0.21376337118334 
1207	 0.213844860746686 
1208	 0.21392960634508 
1209	 0.213998160226345 
1210	 0.214043814578016 
1211	 0.214095684871809 
1212	 0.214131110674011 
1213	 0.21418541290928 
1214	 0.214249163130381 
1215	 0.214314299812838 
1216	 0.214385450855351 
1217	 0.214474586780697 
1218	 0.214543166531675 
1219	 0.214603367371437 
1220	 0.214669493412126 
1221	 0.214732794290328 
1222	 0.214794878671424 
1223	 0.21486392466041 
1224	 0.214921216733216 
1225	 0.214959095690739 
1226	 0.215017387686775 
1227	 0.215090233475112 
1228	 0.215147970399898 
1229	 0.21520818415095 
1230	 0.215266457148211 
1231	 0.215312432570449 
1232	 0.215358439842899 
1233	 0.215404952557483 
1234	 0.215459535895059 
1235	 0.215504571575825 
1236	 0.215533191022961 
1237	 0.215585067098252 
1238	 0.215652667660945 
1239	 0.215704191985907 
1240	 0.215768148164849 
1241	 0.215810978438334 
1242	 0.215828523180054 
1243	 0.215857942693412 
1244	 0.215878195933293 
1245	 0.215910865102912 
1246	 0.215952336262166 
1247	 0.215993716375048 
1248	 0.216040463268415 
1249	 0.216089554346662 
1250	 0.216145298278063 
1251	 0.216190701169601 
1252	 0.216235870195969 
1253	 0.21628482067047 
1254	 0.216321086056143 
1255	 0.216348202378758 
1256	 0.216375677921146 
1257	 0.216395023703875 
1258	 0.216417964349529 
1259	 0.216441716914739 
1260	 0.216460087962136 
1261	 0.21647489044816 
1262	 0.21649115067953 
1263	 0.216503322864984 
1264	 0.216520105768727 
1265	 0.21653727619319 
1266	 0.21655852637834 
1267	 0.216591308201437 
1268	 0.21661114385506 
1269	 0.216628458395456 
1270	 0.216644680139504 
1271	 0.216662444418519 
1272	 0.216665301256002 
1273	 0.216691759187542 
1274	 0.216734890513055 
1275	 0.216768636576048 
1276	 0.216800423724383 
1277	 0.216851420012411 
1278	 0.216910147397039 
1279	 0.216968111301356 
1280	 0.217034779346723 
1281	 0.217110652994379 
1282	 0.217202954919328 
1283	 0.217273951295435 
1284	 0.21733897139274 
1285	 0.217414321764715 
1286	 0.217490595393291 
1287	 0.217554092705157 
1288	 0.217621318345982 
1289	 0.217706354119183 
1290	 0.217781912912893 
1291	 0.217839367803733 
1292	 0.217910100373327 
1293	 0.218006316474628 
1294	 0.218070067214759 
1295	 0.218106633615525 
1296	 0.2181626753995 
1297	 0.218217172496948 
1298	 0.218271325423503 
1299	 0.218339121180238 
1300	 0.218394722470963 
1301	 0.218440939290643 
1302	 0.218482740737586 
1303	 0.218518419274504 
1304	 0.218556255450392 
1305	 0.218580142720339 
1306	 0.218615083326301 
1307	 0.218637276078322 
1308	 0.218624063628774 
1309	 0.21861977343858 
1310	 0.218603717261256 
1311	 0.218582644995784 
1312	 0.218557723035662 
1313	 0.218534990348609 
1314	 0.218505720457899 
1315	 0.218470893648105 
1316	 0.21842518536417 
1317	 0.218400673824295 
1318	 0.218385809686027 
1319	 0.218357527298641 
1320	 0.218350859805765 
1321	 0.21831996859459 
1322	 0.2182578746277 
1323	 0.218209324809436 
1324	 0.218153595642349 
1325	 0.218082589887819 
1326	 0.218037427856153 
1327	 0.217970377891078 
1328	 0.217896467646003 
1329	 0.217860962476919 
1330	 0.217799560642039 
1331	 0.217726711282911 
1332	 0.21765090455589 
1333	 0.217576065017668 
1334	 0.217486168507411 
1335	 0.217363547889444 
1336	 0.217288814850223 
1337	 0.217227645877779 
1338	 0.217169652191211 
1339	 0.21716273435752 
1340	 0.217105312257218 
1341	 0.217011920571543 
1342	 0.216935347155386 
1343	 0.21684173241677 
1344	 0.216758193635598 
1345	 0.216700738586557 
1346	 0.216649953737886 
1347	 0.216605283563809 
1348	 0.216550706485266 
1349	 0.21646837006068 
1350	 0.21638277922286 
1351	 0.216300251463519 
1352	 0.216200151871307 
1353	 0.216117689940189 
1354	 0.216046242860268 
1355	 0.215975163932831 
1356	 0.21590418083547 
1357	 0.215838566164344 
1358	 0.215780964060981 
1359	 0.215722788704823 
1360	 0.215670678235116 
1361	 0.215610774478827 
1362	 0.215554117974813 
1363	 0.215490847751705 
1364	 0.215414006335634 
1365	 0.215345251758536 
1366	 0.215283200263855 
1367	 0.215206526953285 
1368	 0.215152230229826 
1369	 0.215085086610264 
1370	 0.214991342048494 
1371	 0.21490576960071 
1372	 0.2147744825198 
1373	 0.214623223082476 
1374	 0.214471177254105 
1375	 0.214302995228872 
1376	 0.214126450701925 
1377	 0.213958330079071 
1378	 0.213746086068877 
1379	 0.213502910744399 
1380	 0.21325861087718 
1381	 0.212987917106138 
1382	 0.212713369657749 
1383	 0.212447125713822 
1384	 0.212144465874563 
1385	 0.211837488075118 
1386	 0.211482009296652 
1387	 0.211083700764947 
1388	 0.210677629487868 
1389	 0.210252681507446 
1390	 0.209781347525427 
1391	 0.209307812264434 
1392	 0.208802663573307 
1393	 0.208233419458648 
1394	 0.207662239921117 
1395	 0.207061593470282 
1396	 0.206438876737388 
1397	 0.205829261873127 
1398	 0.205217788944747 
1399	 0.204592754274812 
1400	 0.203967785395003 
1401	 0.203328928539849 
1402	 0.202666344738932 
1403	 0.202028745740868 
1404	 0.201375586205272 
1405	 0.200766775799284 
1406	 0.200179816713593 
1407	 0.199608714328489 
1408	 0.199061178081121 
1409	 0.198536732890488 
1410	 0.198023203835867 
1411	 0.197543342576777 
1412	 0.19708633018437 
1413	 0.196664713349988 
1414	 0.196289504458964 
1415	 0.195926631144778 
1416	 0.19558298043381 
1417	 0.195265419406116 
1418	 0.194946297955432 
1419	 0.194654536965871 
1420	 0.194405464203808 
1421	 0.194181349125559 
1422	 0.193992267325293 
1423	 0.19380964175005 
1424	 0.19360674799232 
1425	 0.193397706905059 
1426	 0.193201412736526 
1427	 0.192981105926398 
1428	 0.192808731210257 
1429	 0.192667822980134 
1430	 0.192533572944893 
1431	 0.192426217407555 
1432	 0.192311104297943 
1433	 0.192200166973359 
1434	 0.192098396220075 
1435	 0.191986928476666 
1436	 0.191907460643804 
1437	 0.191858532858105 
1438	 0.191806015176368 
1439	 0.19177081619917 
1440	 0.191738206328695 
1441	 0.191692187211976 
1442	 0.191639667392776 
1443	 0.19159218183866 
1444	 0.191561746371768 
1445	 0.191553227257016 
1446	 0.191556220671724 
1447	 0.191552872842702 
1448	 0.191548437534549 
1449	 0.191532071681702 
1450	 0.191515343566016 
1451	 0.191509729099607 
1452	 0.191512062529387 
1453	 0.191514338415657 
1454	 0.191522182302563 
1455	 0.191529099973503 
1456	 0.191533925745378 
1457	 0.191548805517527 
1458	 0.191564657939851 
1459	 0.191592673346492 
1460	 0.191629041171007 
1461	 0.191675567842557 
1462	 0.191733992902642 
1463	 0.191796572994618 
1464	 0.191869394082173 
1465	 0.191944579262924 
1466	 0.192022778443844 
1467	 0.192108341085488 
1468	 0.192187206047707 
1469	 0.192292349641297 
1470	 0.192410651571663 
1471	 0.192545332374147 
1472	 0.192711538020781 
1473	 0.192890250991046 
1474	 0.193068281731004 
1475	 0.193249365695744 
1476	 0.193415360866804 
1477	 0.193587433917828 
1478	 0.193768038329971 
1479	 0.19394736620929 
1480	 0.194147912273442 
1481	 0.194350331186899 
1482	 0.194539000126489 
1483	 0.194729618379705 
1484	 0.194909979072235 
1485	 0.195070668244031 
1486	 0.19524457043226 
1487	 0.195418203033405 
1488	 0.195598650747866 
1489	 0.195781516598927 
1490	 0.195972302059731 
1491	 0.196181997003507 
1492	 0.196370614776528 
1493	 0.196552488484554 
1494	 0.196736546181853 
1495	 0.196902747742869 
1496	 0.197082992703962 
1497	 0.197279951334726 
1498	 0.197469196742981 
1499	 0.197666943626143 
1500	 0.19784607805836 
1501	 0.198010276569779 
1502	 0.198175447802757 
1503	 0.198326965276479 
1504	 0.198484714555381 
1505	 0.198646423709324 
1506	 0.19881038543089 
1507	 0.198978455871641 
1508	 0.199140648816553 
1509	 0.199286862943403 
1510	 0.199429208888236 
1511	 0.199562262712477 
1512	 0.199682418473645 
1513	 0.199812320504851 
1514	 0.199956041449218 
1515	 0.200096060017908 
1516	 0.200238364081458 
1517	 0.200378466025546 
1518	 0.200523384514106 
1519	 0.200655775482556 
1520	 0.200780198136113 
1521	 0.200909691476852 
1522	 0.201025058303737 
1523	 0.201165963093824 
1524	 0.201331350654748 
1525	 0.201467804296597 
1526	 0.201606327791207 
1527	 0.20174130048688 
1528	 0.201854898776434 
1529	 0.201978799097179 
1530	 0.202119474599946 
1531	 0.202238786074783 
1532	 0.202342638607343 
1533	 0.202447795109553 
1534	 0.202548769179149 
1535	 0.202643254897354 
1536	 0.202720879731454 
1537	 0.202819541652424 
1538	 0.202916597238212 
1539	 0.203027552015083 
1540	 0.203171567964782 
1541	 0.20329345166482 
1542	 0.203420523141226 
1543	 0.203525635151402 
1544	 0.203611978013441 
1545	 0.20369370470979 
1546	 0.203753440678446 
1547	 0.203817631221386 
1548	 0.203899659750461 
1549	 0.203981739246137 
1550	 0.204072897497431 
1551	 0.204173859657578 
1552	 0.204260328866355 
1553	 0.204335121743711 
1554	 0.204425517644296 
1555	 0.204510836853743 
1556	 0.204591453311302 
1557	 0.204677798319555 
1558	 0.204745806991171 
1559	 0.204810282025156 
1560	 0.20488027478036 
1561	 0.204956878868951 
1562	 0.20501075697525 
1563	 0.20505438219498 
1564	 0.205104927321196 
1565	 0.205135086545583 
1566	 0.205191543892066 
1567	 0.205269751786919 
1568	 0.205338843989103 
1569	 0.205411175734794 
1570	 0.205482138897088 
1571	 0.205565430589991 
1572	 0.205619528028979 
1573	 0.205656389074761 
1574	 0.20570170446065 
1575	 0.205730085675958 
1576	 0.205764609987598 
1577	 0.20580850817245 
1578	 0.205849295826429 
1579	 0.205870900628253 
1580	 0.20592357387712 
1581	 0.206001678349057 
1582	 0.206066816984123 
1583	 0.206151619458985 
1584	 0.206211617872554 
1585	 0.2062593028935 
1586	 0.206297383210547 
1587	 0.206316691217798 
1588	 0.206341607226366 
1589	 0.206351368022763 
1590	 0.20637413096161 
1591	 0.206409346676937 
1592	 0.206438117258042 
1593	 0.206461312678262 
1594	 0.206496846329082 
1595	 0.206544591422737 
1596	 0.206578353362411 
1597	 0.206619625626316 
1598	 0.206650276104858 
1599	 0.206665948570535 
1600	 0.206674993707004 
1601	 0.206663271731571 
1602	 0.206678064823131 
1603	 0.206692965796011 
1604	 0.206718734407714 
1605	 0.206772049857024 
1606	 0.2068224896791 
1607	 0.206877764348601 
1608	 0.206932359780926 
1609	 0.206986234897155 
1610	 0.207020584039636 
1611	 0.207017179717356 
1612	 0.207019209996052 
1613	 0.207020301267773 
1614	 0.207018125956934 
1615	 0.20703559365628 
1616	 0.207055578174611 
1617	 0.207067513943539 
1618	 0.207092595776157 
1619	 0.207133026131744 
1620	 0.207156014477571 
1621	 0.207171044935606 
1622	 0.207186252373424 
1623	 0.207191530750546 
1624	 0.207176192791109 
1625	 0.207175707108994 
1626	 0.207176075458355 
1627	 0.207188093447709 
1628	 0.207205371297701 
1629	 0.207222767972005 
1630	 0.207247800283949 
1631	 0.207276960377979 
1632	 0.207309528315959 
1633	 0.207334456139396 
1634	 0.207368746816364 
1635	 0.207388667983105 
1636	 0.207396703813668 
1637	 0.207399539257232 
1638	 0.207400744639937 
1639	 0.207390343262225 
1640	 0.207354599920387 
1641	 0.207350485590819 
1642	 0.207347547855024 
1643	 0.207364559993443 
1644	 0.207414973039473 
1645	 0.207436601464796 
1646	 0.207453774616262 
1647	 0.207475874812354 
1648	 0.207495970591293 
1649	 0.207503244540568 
1650	 0.207508124747943 
1651	 0.207515678611033 
1652	 0.207507014246669 
1653	 0.207509382853213 
1654	 0.207531605056672 
1655	 0.20753352312627 
1656	 0.20752804122541 
1657	 0.207510990576665 
1658	 0.207479389981979 
1659	 0.207455035839695 
1660	 0.207416670394868 
1661	 0.207396265226922 
1662	 0.207391226660687 
1663	 0.207377157390205 
1664	 0.207368770390392 
1665	 0.207350789276438 
1666	 0.207322767684721 
1667	 0.207302119113426 
1668	 0.207275285538883 
1669	 0.207262530688656 
1670	 0.207266945117513 
1671	 0.207254065321575 
1672	 0.207237140278667 
1673	 0.207226207565268 
1674	 0.207204806993541 
1675	 0.207195564073661 
1676	 0.207200885454869 
1677	 0.207200485725273 
1678	 0.207217350445764 
1679	 0.207192768929184 
1680	 0.207141438862717 
1681	 0.207106753329815 
1682	 0.207036939690005 
1683	 0.207007530514838 
1684	 0.207024354318753 
1685	 0.2070068142941 
1686	 0.206983981409129 
1687	 0.20696123542485 
1688	 0.206920116943353 
1689	 0.206896355814017 
1690	 0.206887609753903 
1691	 0.206869776926601 
1692	 0.206862894311438 
1693	 0.206829761236635 
1694	 0.206770958569095 
1695	 0.206734182733771 
1696	 0.206682645063598 
1697	 0.206659116335642 
1698	 0.20667232497887 
1699	 0.206659176091776 
1700	 0.206648376563052 
1701	 0.206626321508478 
1702	 0.206581206583571 
1703	 0.206558466432383 
1704	 0.206549360989828 
1705	 0.206521265808753 
1706	 0.206496379797276 
1707	 0.206462050593732 
1708	 0.20640391577965 
1709	 0.206366665232889 
1710	 0.206348179601267 
1711	 0.206305587379199 
1712	 0.20625706637844 
1713	 0.206204229882142 
1714	 0.206135225467469 
1715	 0.206070060944168 
1716	 0.206002110675724 
1717	 0.205942339962264 
1718	 0.205878580369883 
1719	 0.205823106244618 
1720	 0.205788705292253 
1721	 0.205730675743688 
1722	 0.205656761107033 
1723	 0.20560405661064 
1724	 0.205551766054382 
1725	 0.20549547834408 
1726	 0.205464336244982 
1727	 0.205392847810931 
1728	 0.205274982536579 
1729	 0.205209813505402 
1730	 0.205161368028397 
1731	 0.205095856296045 
1732	 0.205055121980187 
1733	 0.20499084085034 
1734	 0.204901384931913 
1735	 0.204804206071205 
1736	 0.204705860002294 
1737	 0.20460211457464 
1738	 0.204469768226989 
1739	 0.204365778913122 
1740	 0.204267217950225 
1741	 0.204197496175749 
1742	 0.204154593058655 
1743	 0.204090256504258 
1744	 0.204051725979025 
1745	 0.203963994623653 
1746	 0.203838595121908 
1747	 0.203726243653597 
1748	 0.203602923163001 
1749	 0.203495163004104 
1750	 0.203397512185567 
1751	 0.203282005642395 
1752	 0.203183549868693 
1753	 0.203088366671664 
1754	 0.202966589991712 
1755	 0.202871379249395 
1756	 0.202775237051835 
1757	 0.202675779777408 
1758	 0.202593361315473 
1759	 0.202494437979656 
1760	 0.202423721045696 
1761	 0.202377920845115 
1762	 0.202302961651204 
1763	 0.202228278813542 
1764	 0.202146389602142 
1765	 0.202011314548276 
1766	 0.201893660345472 
1767	 0.201821849994504 
1768	 0.201722500678862 
1769	 0.20162528333599 
1770	 0.201562091047782 
1771	 0.201478529269446 
1772	 0.20139292209618 
1773	 0.201331503945698 
1774	 0.201268200783742 
1775	 0.2011907442674 
1776	 0.201112115601586 
1777	 0.201038533364307 
1778	 0.200961583032118 
1779	 0.200881562754706 
1780	 0.20080042479585 
1781	 0.200760822467638 
1782	 0.200738804507662 
1783	 0.200741394680535 
1784	 0.200726468495178 
1785	 0.200709042640066 
1786	 0.20066337649275 
1787	 0.200581552034166 
1788	 0.200528249067163 
1789	 0.200479591698685 
1790	 0.200414871385613 
1791	 0.200353371178261 
1792	 0.200304571582556 
1793	 0.200231584082383 
1794	 0.200188526349645 
1795	 0.200182326460644 
1796	 0.200169401882146 
1797	 0.200161545947491 
1798	 0.200144069360892 
1799	 0.20014106937 
1800	 0.200123471670733 
1801	 0.195449349297249 
1802	 0.195639192127559 
1803	 0.195780169912339 
1804	 0.195980234464593 
1805	 0.19624876487015 
1806	 0.196476604434134 
1807	 0.19671228005637 
1808	 0.196898276109164 
1809	 0.19706694200206 
1810	 0.197193560229529 
1811	 0.197268053810149 
1812	 0.197342472226046 
1813	 0.197419077569361 
1814	 0.197490598343842 
1815	 0.197549296715095 
1816	 0.197590014425812 
1817	 0.197619450523122 
1818	 0.197618500320748 
1819	 0.197629982291491 
1820	 0.197629491125177 
1821	 0.197650151587005 
1822	 0.197684383227964 
1823	 0.197712337383031 
1824	 0.19773361734069 
1825	 0.197743926659897 
1826	 0.197757694260448 
1827	 0.197776158228648 
1828	 0.197771501649414 
1829	 0.197762077337547 
1830	 0.197748815852816 
1831	 0.197717779795291 
1832	 0.19767468384405 
1833	 0.197645526249479 
1834	 0.197628153136907 
1835	 0.197618508526533 
1836	 0.197598990601423 
1837	 0.197589598550183 
1838	 0.197575606711832 
1839	 0.197543905175881 
1840	 0.197496623152572 
1841	 0.197446686472596 
1842	 0.197378721385478 
1843	 0.197313546480603 
1844	 0.197255268776035 
1845	 0.197194117780744 
1846	 0.197125683804843 
1847	 0.197039503165711 
1848	 0.196962109511247 
1849	 0.19687900920397 
1850	 0.196782770561191 
1851	 0.196683213699169 
1852	 0.19658295409115 
1853	 0.196468586805085 
1854	 0.196339781589735 
1855	 0.196199054580329 
1856	 0.19603105045164 
1857	 0.195806026016567 
1858	 0.19556373071947 
1859	 0.195324519022665 
1860	 0.195060061347094 
1861	 0.194782970829377 
1862	 0.194503662471493 
1863	 0.194180662054737 
1864	 0.193800669611493 
1865	 0.19340088620834 
1866	 0.192969164532029 
1867	 0.192516520510898 
1868	 0.192016182561078 
1869	 0.19145112787605 
1870	 0.190854771802189 
1871	 0.190212283642215 
1872	 0.189512983448048 
1873	 0.188794515236869 
1874	 0.188054549571372 
1875	 0.18724271615368 
1876	 0.186387285854161 
1877	 0.185473575746581 
1878	 0.184484527128488 
1879	 0.183434051307682 
1880	 0.18230536254211 
1881	 0.181088335113092 
1882	 0.17982803231508 
1883	 0.178511667493717 
1884	 0.17710335757354 
1885	 0.175636406750618 
1886	 0.174109094727247 
1887	 0.172488521327486 
1888	 0.170804556190817 
1889	 0.169068960432491 
1890	 0.167283285228502 
1891	 0.165509223385922 
1892	 0.163687788253304 
1893	 0.161887815888706 
1894	 0.160081021972379 
1895	 0.158307360619741 
1896	 0.156515153915549 
1897	 0.154759053947914 
1898	 0.153033582712297 
1899	 0.151330461079655 
1900	 0.149692030683432 
1901	 0.148116881031734 
1902	 0.146626434345475 
1903	 0.145234282571301 
1904	 0.143890318911527 
1905	 0.142605933082298 
1906	 0.141404305626468 
1907	 0.1402673093731 
1908	 0.139218057360275 
1909	 0.138262585863495 
1910	 0.137369028478499 
1911	 0.136543142594293 
1912	 0.135769739691685 
1913	 0.135038698654766 
1914	 0.134357731384306 
1915	 0.133720864879117 
1916	 0.133126271102302 
1917	 0.132579666161298 
1918	 0.132097763982613 
1919	 0.131657138332114 
1920	 0.131257524991504 
1921	 0.130904998271604 
1922	 0.130580638282368 
1923	 0.130290234474015 
1924	 0.130031491500482 
1925	 0.12980636971603 
1926	 0.129618473060738 
1927	 0.129460787549426 
1928	 0.129346487928558 
1929	 0.12925311305923 
1930	 0.12919013165498 
1931	 0.129180930992456 
1932	 0.129163941587052 
1933	 0.129176654669257 
1934	 0.129238877472778 
1935	 0.129293453185139 
1936	 0.129338626908787 
1937	 0.129427416145489 
1938	 0.129541040236421 
1939	 0.129671545720855 
1940	 0.129833637315145 
1941	 0.130009378122216 
1942	 0.130176419600758 
1943	 0.130358675185195 
1944	 0.130561965213746 
1945	 0.13078530797686 
1946	 0.131021721591256 
1947	 0.131282988300727 
1948	 0.131556840299385 
1949	 0.131844930662905 
1950	 0.132137386882146 
1951	 0.132445739877562 
1952	 0.132775442094417 
1953	 0.133078179802168 
1954	 0.133395305496904 
1955	 0.13375932179994 
1956	 0.134105432192019 
1957	 0.134455528131569 
1958	 0.134818834263658 
1959	 0.135190795430566 
1960	 0.135559638476672 
1961	 0.135936189889324 
1962	 0.13632927513403 
1963	 0.136724797790474 
1964	 0.137113413872549 
1965	 0.137507388748747 
1966	 0.137941227284992 
1967	 0.138373772420714 
1968	 0.138817223853215 
1969	 0.139292834316607 
1970	 0.139732632817405 
1971	 0.140161459586528 
1972	 0.140597168771828 
1973	 0.141014612510285 
1974	 0.14144120847882 
1975	 0.141876924663843 
1976	 0.142316910431598 
1977	 0.142747297566091 
1978	 0.143163853034066 
1979	 0.143590594609833 
1980	 0.14402067887237 
1981	 0.14444228241851 
1982	 0.144846281520813 
1983	 0.145289836930234 
1984	 0.145744078354107 
1985	 0.146200750788819 
1986	 0.146704302385386 
1987	 0.14717126340396 
1988	 0.147612156515788 
1989	 0.148066606101856 
1990	 0.148500995404706 
1991	 0.148939430955662 
1992	 0.149386274329529 
1993	 0.149837632703976 
1994	 0.150280993981023 
1995	 0.150737551759261 
1996	 0.151170391945397 
1997	 0.151588716743578 
1998	 0.15200873187568 
1999	 0.152405528023532 
2000	 0.152823299945317 
2001	 0.153258255982388 
2002	 0.153672707042079 
2003	 0.154114174169167 
2004	 0.154550779662435 
2005	 0.154970913787692 
2006	 0.155384961692769 
2007	 0.155793209504538 
2008	 0.156185416338539 
2009	 0.156579257569454 
2010	 0.156974125644756 
2011	 0.157357845919268 
2012	 0.157720561919967 
2013	 0.158101563019895 
2014	 0.158488192054618 
2015	 0.158874360643913 
2016	 0.159249383671 
2017	 0.159635170120336 
2018	 0.160018230308813 
2019	 0.160394394246747 
2020	 0.160764121024495 
2021	 0.161147039841345 
2022	 0.161509247449804 
2023	 0.161836890555957 
2024	 0.162190491965003 
2025	 0.162560040474109 
2026	 0.162912625291668 
2027	 0.163255221413953 
2028	 0.16361809700664 
2029	 0.163968797019383 
2030	 0.164304290296585 
2031	 0.164651449607371 
2032	 0.165018643827399 
2033	 0.165354406956008 
2034	 0.165671131716622 
2035	 0.16599378362919 
2036	 0.166306139653675 
2037	 0.166618073040389 
2038	 0.166929301404683 
2039	 0.167241040036083 
2040	 0.167569521228817 
2041	 0.167859332632439 
2042	 0.168119121123298 
2043	 0.16841328567418 
2044	 0.168684145229587 
2045	 0.168916457793836 
2046	 0.169191862574085 
2047	 0.169491966625536 
2048	 0.169778819735462 
2049	 0.170085196982403 
2050	 0.17036717611388 
2051	 0.170649832110922 
2052	 0.170905479766404 
2053	 0.171117482324107 
2054	 0.171352986815572 
2055	 0.171580837402338 
2056	 0.171808834029552 
2057	 0.172050301118166 
2058	 0.172319436322941 
2059	 0.172564734800369 
2060	 0.172795832344342 
2061	 0.173043091985567 
2062	 0.173290318207859 
2063	 0.173544626631868 
2064	 0.173831519872613 
2065	 0.174077763687849 
2066	 0.174299912739218 
2067	 0.174529027766156 
2068	 0.174748364810416 
2069	 0.174949951777133 
2070	 0.175162597018681 
2071	 0.175379291871517 
2072	 0.175609541069202 
2073	 0.175841924571857 
2074	 0.176075160415277 
2075	 0.176336243066693 
2076	 0.176564679718814 
2077	 0.176767655649689 
2078	 0.176981433419751 
2079	 0.177192938114578 
2080	 0.177399795294671 
2081	 0.177602286040998 
2082	 0.177808795324907 
2083	 0.178007124000089 
2084	 0.178211686762503 
2085	 0.178425872630187 
2086	 0.178655257264399 
2087	 0.178868526507164 
2088	 0.179079250314352 
2089	 0.179293611019569 
2090	 0.179508519992481 
2091	 0.179712268427066 
2092	 0.179908465939087 
2093	 0.180117284409058 
2094	 0.180331946214708 
2095	 0.180529200170772 
2096	 0.180726127090761 
2097	 0.180924633500512 
2098	 0.181105583680069 
2099	 0.181283539623115 
2100	 0.18147875982992 
2101	 0.181692981836377 
2102	 0.181897763245918 
2103	 0.18210469920677 
2104	 0.18230926770865 
2105	 0.182519265611743 
2106	 0.182718352188788 
2107	 0.182914644651998 
2108	 0.183100268138081 
2109	 0.183259932372941 
2110	 0.183447801393048 
2111	 0.18364657726335 
2112	 0.183840483474631 
2113	 0.184058356186314 
2114	 0.184260332626183 
2115	 0.184448728545557 
2116	 0.18461096063076 
2117	 0.184805616879864 
2118	 0.185004011452135 
2119	 0.185204716033031 
2120	 0.185429603814445 
2121	 0.185630841312918 
2122	 0.185833151714902 
2123	 0.186008877977122 
2124	 0.186167712467498 
2125	 0.186317911832112 
2126	 0.186430827723938 
2127	 0.186563739962946 
2128	 0.186712769032675 
2129	 0.186841204973689 
2130	 0.186963357361326 
2131	 0.187086280961034 
2132	 0.187193130933761 
2133	 0.187285251949484 
2134	 0.187367827034932 
2135	 0.187440322116879 
2136	 0.187507709496925 
2137	 0.187557585971661 
2138	 0.187609861939638 
2139	 0.187663822037616 
2140	 0.187707878162643 
2141	 0.187750223397611 
2142	 0.187775010095096 
2143	 0.187779408777297 
2144	 0.187792700770264 
2145	 0.187814612730953 
2146	 0.187807598285068 
2147	 0.18778499598901 
2148	 0.187761638764041 
2149	 0.187732347760527 
2150	 0.187671871569702 
2151	 0.187635204213493 
2152	 0.187623181748667 
2153	 0.187579339118526 
2154	 0.187525375367628 
2155	 0.187461593943437 
2156	 0.187381820314682 
2157	 0.187300871258695 
2158	 0.187212710245101 
2159	 0.187119090765268 
2160	 0.187017902081005 
2161	 0.186912397798519 
2162	 0.186790012162451 
2163	 0.186681813130749 
2164	 0.186583311969732 
2165	 0.186478369469409 
2166	 0.186367194113845 
2167	 0.186258152389924 
2168	 0.186150236515035 
2169	 0.186034601180598 
2170	 0.185916953639104 
2171	 0.1858157390402 
2172	 0.185685480511535 
2173	 0.185517168515031 
2174	 0.185384622476435 
2175	 0.185261949480518 
2176	 0.18513158031947 
2177	 0.185020177961056 
2178	 0.18489273108623 
2179	 0.184755090904476 
2180	 0.184606309018406 
2181	 0.184434619302242 
2182	 0.184284464252825 
2183	 0.184134042440886 
2184	 0.183984215830958 
2185	 0.183842602147497 
2186	 0.183725284223643 
2187	 0.183585596267931 
2188	 0.183415050017398 
2189	 0.183299343242748 
2190	 0.183207031009255 
2191	 0.183114014202942 
2192	 0.183058245709819 
2193	 0.182981864907956 
2194	 0.182891134795398 
2195	 0.182809209638764 
2196	 0.182743359986562 
2197	 0.182658637868174 
2198	 0.182555696820229 
2199	 0.182466860807726 
2200	 0.182350909693895 
2201	 0.18227788078955 
2202	 0.182247426807999 
2203	 0.182210492819619 
2204	 0.182175081130689 
2205	 0.182153654512316 
2206	 0.182141178372638 
2207	 0.182125391085014 
2208	 0.182120102913761 
2209	 0.182146525793666 
2210	 0.182150964577676 
2211	 0.182134423988835 
2212	 0.182141980453491 
2213	 0.182152422347174 
2214	 0.182176187519203 
2215	 0.182233516601906 
2216	 0.18225871152918 
2217	 0.182267221569202 
2218	 0.18229133546275 
2219	 0.18229745804366 
2220	 0.182324528840657 
2221	 0.182370436456048 
2222	 0.182435932084143 
2223	 0.182483023824461 
2224	 0.182518197871261 
2225	 0.182557340601082 
2226	 0.182594812982291 
2227	 0.182615199909004 
2228	 0.182631888265214 
2229	 0.182639646460592 
2230	 0.182620031581412 
2231	 0.182627926759259 
2232	 0.182658817067183 
2233	 0.182660077734443 
2234	 0.182651639962904 
2235	 0.182645494946299 
2236	 0.182620553538596 
2237	 0.182601156609421 
2238	 0.182578912230295 
2239	 0.182579279778433 
2240	 0.18259735910228 
2241	 0.182598777070618 
2242	 0.182630286115591 
2243	 0.182625991512682 
2244	 0.182585412040038 
2245	 0.182544045237407 
2246	 0.182499777251716 
2247	 0.182412232565859 
2248	 0.182347364048408 
2249	 0.182281351542397 
2250	 0.182208031962885 
2251	 0.182129078253283 
2252	 0.182064652101484 
2253	 0.181987699197486 
2254	 0.181935441602962 
2255	 0.181906264174459 
2256	 0.181879304294525 
2257	 0.181878899826269 
2258	 0.181845884455462 
2259	 0.181791959674078 
2260	 0.181760980313744 
2261	 0.181709577668759 
2262	 0.181687472486536 
2263	 0.18172965275534 
2264	 0.18171940752946 
2265	 0.181671129994674 
2266	 0.181654972699696 
2267	 0.181611828331323 
2268	 0.181601014340356 
2269	 0.181625993395565 
2270	 0.18168431185405 
2271	 0.181691643769002 
2272	 0.181699846019033 
2273	 0.181673843565773 
2274	 0.181604903161323 
2275	 0.181546239496839 
2276	 0.181460330228312 
2277	 0.181413146016399 
2278	 0.181366986365604 
2279	 0.18134722223779 
2280	 0.181359737975109 
2281	 0.181372541635687 
2282	 0.181412973734409 
2283	 0.181417369743718 
2284	 0.181411495033305 
2285	 0.181410283646043 
2286	 0.181389950588601 
2287	 0.181378394359594 
2288	 0.181390221142003 
2289	 0.181377052285531 
2290	 0.181348430786121 
2291	 0.181313525036468 
2292	 0.181254955469763 
2293	 0.181214746502059 
2294	 0.181175842981645 
2295	 0.181138147728744 
2296	 0.18112099053367 
2297	 0.181089887112401 
2298	 0.181036038393005 
2299	 0.180954702613515 
2300	 0.180875996761283 
2301	 0.180834369156047 
2302	 0.180751980502296 
2303	 0.180676852028853 
2304	 0.180645950659174 
2305	 0.180569720124781 
2306	 0.180498439472441 
2307	 0.180461662069574 
2308	 0.180381400580369 
2309	 0.180238813034797 
2310	 0.180150680429073 
2311	 0.180097333931953 
2312	 0.180014589483749 
2313	 0.179924316738104 
2314	 0.179841316413806 
2315	 0.179737861447789 
2316	 0.179640129835659 
2317	 0.179568568636925 
2318	 0.179485199861559 
2319	 0.179379607316362 
2320	 0.17929984311831 
2321	 0.179252161230845 
2322	 0.179162659661213 
2323	 0.179059224378944 
2324	 0.178961430148859 
2325	 0.178837812975819 
2326	 0.178714736483209 
2327	 0.178600386812598 
2328	 0.178485026019639 
2329	 0.178322545151315 
2330	 0.178217712354122 
2331	 0.178140859237617 
2332	 0.178065619907523 
2333	 0.178035062902923 
2334	 0.177990655079917 
2335	 0.177959543949924 
2336	 0.17792520983315 
2337	 0.177834089413603 
2338	 0.177706458082439 
2339	 0.177545320529769 
2340	 0.177369810624341 
2341	 0.177227853370761 
2342	 0.177133187737224 
2343	 0.177043946885946 
2344	 0.176941093000107 
2345	 0.176810882154622 
2346	 0.176644315061907 
2347	 0.17652215882613 
2348	 0.176412330446822 
2349	 0.176261904859915 
2350	 0.176143969484623 
2351	 0.175974270596579 
2352	 0.175709346853243 
2353	 0.175514341664101 
2354	 0.175333901216612 
2355	 0.175169313286399 
2356	 0.175038245356371 
2357	 0.174887800843096 
2358	 0.174748847628837 
2359	 0.174593759613147 
2360	 0.174416401045437 
2361	 0.174262545289977 
2362	 0.174143291947365 
2363	 0.17396910511573 
2364	 0.173754185489041 
2365	 0.173577742503363 
2366	 0.173392246071664 
2367	 0.173194408722713 
2368	 0.173016288592755 
2369	 0.172816262312068 
2370	 0.17257569660565 
2371	 0.172368046154619 
2372	 0.172146185826303 
2373	 0.171987612906946 
2374	 0.171788023017024 
2375	 0.171525953081344 
2376	 0.171324513971241 
2377	 0.17105941575748 
2378	 0.170735225748248 
2379	 0.170477833296123 
2380	 0.170237348163166 
2381	 0.170032017308279 
2382	 0.169895654080123 
2383	 0.169713166553441 
2384	 0.169417317768059 
2385	 0.16913697830871 
2386	 0.168842017218777 
2387	 0.168549531120389 
2388	 0.168331472343233 
2389	 0.168065729824413 
2390	 0.167811135585579 
2391	 0.167598981665412 
2392	 0.167387834533456 
2393	 0.167122746260124 
2394	 0.166861463842697 
2395	 0.166661609541719 
2396	 0.166408312978696 
2397	 0.166211166692851 
2398	 0.16599085735785 
2399	 0.165686968881733 
2400	 0.16542268821508 
2401	 0.165139182935199 
2402	 0.164834775818771 
2403	 0.164569701101922 
2404	 0.164319638899523 
2405	 0.164006909118142 
2406	 0.163727705898792 
2407	 0.163458469635437 
2408	 0.163160847478547 
2409	 0.162885446512166 
2410	 0.162593290890897 
2411	 0.162305097999424 
2412	 0.162039555688586 
2413	 0.161791696234471 
2414	 0.161562454744788 
2415	 0.161372298160463 
2416	 0.161099324832839 
2417	 0.160731960319655 
2418	 0.160423642966971 
2419	 0.16010163937399 
2420	 0.159757372504507 
2421	 0.159434772570388 
2422	 0.159132591700616 
2423	 0.158797267658429 
2424	 0.15853764107625 
2425	 0.158366024428557 
2426	 0.15808417660489 
2427	 0.157793972800629 
2428	 0.157444203914255 
2429	 0.157002111549736 
2430	 0.156629394560208 
2431	 0.156229612412288 
2432	 0.155918818189279 
2433	 0.155668467854161 
2434	 0.155385102665977 
2435	 0.155180802533155 
2436	 0.154866237242427 
2437	 0.154492065504081 
2438	 0.154168833238721 
2439	 0.153779181460492 
2440	 0.15343944312703 
2441	 0.153124575923558 
2442	 0.152867567535973 
2443	 0.152672129165507 
2444	 0.152424485321436 
2445	 0.152264327996105 
2446	 0.151968927887244 
2447	 0.151533700144849 
2448	 0.151188738425455 
2449	 0.150824980864615 
2450	 0.15050412150121 
2451	 0.150205878609697 
2452	 0.149955317051443 
2453	 0.149806878701635 
2454	 0.149479968651389 
2455	 0.149069899752975 
2456	 0.148775581040519 
2457	 0.148418803262043 
2458	 0.14808554218221 
2459	 0.147856189041548 
2460	 0.147570589659351 
2461	 0.147275582537446 
2462	 0.146953043622462 
2463	 0.146579152983261 
2464	 0.146273637515348 
2465	 0.145977704541663 
2466	 0.145669997224676 
2467	 0.145395316184006 
2468	 0.145131894948494 
2469	 0.144784899997834 
2470	 0.144504653284675 
2471	 0.144402313854844 
2472	 0.144186950409411 
2473	 0.143944829589497 
2474	 0.143560972447224 
2475	 0.143205471289535 
2476	 0.142885367931562 
2477	 0.142486346088332 
2478	 0.142313166183281 
2479	 0.142127105544045 
2480	 0.141839601566858 
2481	 0.141455362132207 
2482	 0.14097187863753 
2483	 0.14058361303257 
2484	 0.140257021451523 
2485	 0.139974253015353 
2486	 0.139839344076457 
2487	 0.139768308241144 
2488	 0.139616868052759 
2489	 0.139454305924908 
2490	 0.139264586243196 
2491	 0.139030756260323 
2492	 0.138805275652471 
2493	 0.138793802677997 
2494	 0.13887293756171 
2495	 0.138674710232107 
2496	 0.138498851548854 
2497	 0.138335111038869 
2498	 0.137824987140523 
2499	 0.137325959257161 
2500	 0.136963611551546 
