Wavelength	mm2600000.asd
350	 3.70602239694739E-02 
351	 3.81455479848041E-02 
352	 4.04542657771087E-02 
353	 4.27250197312718E-02 
354	 3.87968589121282E-02 
355	 3.43339843513453E-02 
356	 0.03276695090131 
357	 3.50001842666531E-02 
358	 3.70249055477307E-02 
359	 3.67837701822643E-02 
360	 3.42440571759562E-02 
361	 3.10912165515562E-02 
362	 3.21337569766127E-02 
363	 3.60432056323707E-02 
364	 3.97368719687254E-02 
365	 3.88562991991575E-02 
366	 3.68675718978589E-02 
367	 3.79109171075018E-02 
368	 4.29581964475023E-02 
369	 4.11835817421845E-02 
370	 3.73829779424179E-02 
371	 3.56880707823081E-02 
372	 3.86947581225039E-02 
373	 4.15280537838779E-02 
374	 4.26620448580817E-02 
375	 4.20285493630763E-02 
376	 4.10240496098405E-02 
377	 3.91584006621389E-02 
378	 3.96223038341312E-02 
379	 4.42180348293781E-02 
380	 4.50133848845394E-02 
381	 4.41305191472181E-02 
382	 4.37648716690242E-02 
383	 0.045441858437182 
384	 4.53054633914954E-02 
385	 4.36271080414023E-02 
386	 4.22380986395235E-02 
387	 4.48442457647873E-02 
388	 4.64649040361522E-02 
389	 4.68917112292964E-02 
390	 0.047311776204073 
391	 4.76657998900096E-02 
392	 4.69209037112652E-02 
393	 4.69371255607935E-02 
394	 5.13255290248542E-02 
395	 5.11282755959771E-02 
396	 4.87873626575185E-02 
397	 4.80936238358161E-02 
398	 5.20589230890594E-02 
399	 5.29534265689894E-02 
400	 0.051995123636185 
401	 5.30291776373214E-02 
402	 5.40355248800271E-02 
403	 0.053647053800943 
404	 5.25704154227541E-02 
405	 5.33762496786543E-02 
406	 5.41245512338321E-02 
407	 5.49826350779672E-02 
408	 5.58942337493098E-02 
409	 5.50799049352345E-02 
410	 5.42641001100839E-02 
411	 5.39932127752955E-02 
412	 5.42297788572325E-02 
413	 5.54282786417701E-02 
414	 5.55177034998946E-02 
415	 0.054488258163275 
416	 5.51466602719406E-02 
417	 5.50522752921658E-02 
418	 5.49961914210335E-02 
419	 5.58078612047959E-02 
420	 5.57633298142722E-02 
421	 5.58304409047737E-02 
422	 5.62489965845241E-02 
423	 5.66794447413134E-02 
424	 5.61795236217377E-02 
425	 5.54262085670225E-02 
426	 5.50554289509677E-02 
427	 5.53094065140345E-02 
428	 5.52722625267727E-02 
429	 5.51570601044605E-02 
430	 5.53473697488053E-02 
431	 5.50641616140645E-02 
432	 5.47983383498204E-02 
433	 0.054703424225347 
434	 5.45713350840763E-02 
435	 5.51521591674522E-02 
436	 5.56377746406979E-02 
437	 5.54516475437064E-02 
438	 5.53979705278432E-02 
439	 5.51058279448692E-02 
440	 5.49038533654871E-02 
441	 5.53264589088865E-02 
442	 5.56583912442289E-02 
443	 0.055863062049898 
444	 5.59044065277131E-02 
445	 5.55968831338521E-02 
446	 0.055793935023647 
447	 5.62189264178693E-02 
448	 0.056371131149302 
449	 5.63361602030963E-02 
450	 5.64303785921487E-02 
451	 5.67026095567123E-02 
452	 5.69509806238714E-02 
453	 5.68068718364521E-02 
454	 5.65758385179784E-02 
455	 5.65272272544949E-02 
456	 0.056531688956724 
457	 0.056619217205414 
458	 5.67011774811429E-02 
459	 5.66791222766704E-02 
460	 5.68028114748538E-02 
461	 5.68450074889513E-02 
462	 5.68098114841572E-02 
463	 5.70811736733839E-02 
464	 5.73735865505821E-02 
465	 5.73833797943934E-02 
466	 5.70040657636387E-02 
467	 5.68479432945664E-02 
468	 5.69452432136036E-02 
469	 5.71080247197137E-02 
470	 0.057015229358418 
471	 5.70066767090367E-02 
472	 5.69218709655138E-02 
473	 5.67248541577544E-02 
474	 5.68921480216478E-02 
475	 5.69351925131844E-02 
476	 5.69019737012489E-02 
477	 0.057040945776557 
478	 5.72343148495592E-02 
479	 5.72910529025261E-02 
480	 5.71842132744315E-02 
481	 5.71080290788545E-02 
482	 5.72686532675472E-02 
483	 5.74498806335825E-02 
484	 5.74052742962182E-02 
485	 5.73029925353634E-02 
486	 0.057185185881897 
487	 5.70702962830074E-02 
488	 0.056964266337717 
489	 5.70033852905637E-02 
490	 5.71216880410841E-02 
491	 5.72364309630883E-02 
492	 0.057328553161093 
493	 5.73474155142927E-02 
494	 5.72981050064905E-02 
495	 5.72317009118996E-02 
496	 5.73092647067489E-02 
497	 5.72836759957877E-02 
498	 5.71471795652461E-02 
499	 5.73091381090568E-02 
500	 0.057300139772831 
501	 5.72377623127361E-02 
502	 5.73091167495126E-02 
503	 5.71882246075389E-02 
504	 5.71803227922852E-02 
505	 5.72544713379122E-02 
506	 0.057083760685547 
507	 5.71457695830095E-02 
508	 5.73233696788276E-02 
509	 5.74154401507365E-02 
510	 5.73081722617753E-02 
511	 5.72027247704647E-02 
512	 5.72025057185604E-02 
513	 5.73214028117151E-02 
514	 5.73028145450837E-02 
515	 5.73231298090336E-02 
516	 5.74423043093615E-02 
517	 5.74370407894758E-02 
518	 5.74325701874937E-02 
519	 5.74572503873959E-02 
520	 5.75086408963396E-02 
521	 5.75942461647965E-02 
522	 5.76314816779458E-02 
523	 5.75844951928945E-02 
524	 5.74727632282246E-02 
525	 5.74613777603434E-02 
526	 5.74371421942846E-02 
527	 5.73214320593315E-02 
528	 5.73529011891722E-02 
529	 5.74374036216134E-02 
530	 5.75011658025042E-02 
531	 5.74953566882868E-02 
532	 5.74905887649707E-02 
533	 5.75021104439262E-02 
534	 0.057536640189702 
535	 5.76030967807089E-02 
536	 5.77004939370287E-02 
537	 5.77919928638823E-02 
538	 5.78428881422829E-02 
539	 5.79491031449651E-02 
540	 5.79599924985378E-02 
541	 5.78843191401631E-02 
542	 0.057964668732774 
543	 5.79704517300676E-02 
544	 5.80036995251836E-02 
545	 5.81713179875518E-02 
546	 5.82413813578779E-02 
547	 0.058241946181183 
548	 0.058266012989483 
549	 5.84349070949205E-02 
550	 0.058408979731846 
551	 5.83886452833474E-02 
552	 5.85378139446295E-02 
553	 0.058681185765708 
554	 5.86875568132058E-02 
555	 0.058694984278564 
556	 5.89387766625175E-02 
557	 5.90889739528455E-02 
558	 5.91427604736584E-02 
559	 5.92062308436961E-02 
560	 5.95252279426119E-02 
561	 0.059684766947515 
562	 5.97546480533523E-02 
563	 5.99387623198843E-02 
564	 6.01550057129907E-02 
565	 6.04089278059143E-02 
566	 0.060671795474048 
567	 6.08759118608305E-02 
568	 6.11949771464653E-02 
569	 6.15347215041199E-02 
570	 6.18011576718351E-02 
571	 6.21233942400683E-02 
572	 6.24972003449532E-02 
573	 6.28950325469165E-02 
574	 6.32727345259934E-02 
575	 6.36037302628844E-02 
576	 6.39865758734074E-02 
577	 0.064452336191873 
578	 6.48278998440286E-02 
579	 6.53181427724981E-02 
580	 6.58657925406082E-02 
581	 6.63362012876518E-02 
582	 6.69096681982266E-02 
583	 6.74787138382059E-02 
584	 0.068000652239815 
585	 6.85605399273609E-02 
586	 0.0691603064747 
587	 6.97593647772782E-02 
588	 7.03382590198457E-02 
589	 7.10389468214754E-02 
590	 7.17528529127579E-02 
591	 0.072429998158351 
592	 7.30855507676004E-02 
593	 7.37209890375415E-02 
594	 7.43486178282753E-02 
595	 7.49741237699373E-02 
596	 7.55732692033241E-02 
597	 7.62513101006191E-02 
598	 7.69498201483409E-02 
599	 7.75441652339999E-02 
600	 7.81752416365419E-02 
601	 7.88167510560868E-02 
602	 7.94236086052235E-02 
603	 0.079948169917366 
604	 8.05249399045004E-02 
605	 8.11092926640388E-02 
606	 8.16168948528852E-02 
607	 8.21364547321083E-02 
608	 8.26078188186148E-02 
609	 8.30458394097586E-02 
610	 8.35572405179423E-02 
611	 8.39903982270527E-02 
612	 8.43989582682665E-02 
613	 8.48304334961753E-02 
614	 8.51345151079185E-02 
615	 8.54555706291978E-02 
616	 8.58074535602757E-02 
617	 8.61125003791376E-02 
618	 8.64096191031031E-02 
619	 8.66695506762998E-02 
620	 8.68912021471012E-02 
621	 8.71562169809506E-02 
622	 8.73867545494832E-02 
623	 8.75874554975566E-02 
624	 8.77961921574584E-02 
625	 8.80332611347167E-02 
626	 8.82453167849858E-02 
627	 8.84344793183404E-02 
628	 8.86832323089462E-02 
629	 8.88937269484426E-02 
630	 8.90437637241858E-02 
631	 0.089157491047037 
632	 8.93438579246199E-02 
633	 8.95180461418058E-02 
634	 8.96831859125991E-02 
635	 8.99088534183678E-02 
636	 9.00783243692867E-02 
637	 9.02082125968517E-02 
638	 9.03408977107334E-02 
639	 9.05229462603841E-02 
640	 0.090708663395613 
641	 0.090881001078478 
642	 0.091041234699355 
643	 9.12245178710348E-02 
644	 0.091405383113021 
645	 9.15811186815968E-02 
646	 9.17920273589698E-02 
647	 9.19438968425347E-02 
648	 9.21036343539354E-02 
649	 9.23486679912163E-02 
650	 9.25945453778229E-02 
651	 9.28089253383882E-02 
652	 9.30038563575063E-02 
653	 9.32259510491879E-02 
654	 9.34248766904129E-02 
655	 9.36296463980431E-02 
656	 9.38659890222356E-02 
657	 0.094115075250953 
658	 9.43859231492462E-02 
659	 0.094646147364878 
660	 0.094859888133757 
661	 9.51224113464542E-02 
662	 9.53907902278568E-02 
663	 9.56538610535682E-02 
664	 9.59667578547968E-02 
665	 9.62631606907916E-02 
666	 0.096535045713156 
667	 9.68067856211493E-02 
668	 9.71619022619835E-02 
669	 9.74898180157766E-02 
670	 9.77807026640535E-02 
671	 9.81093383716105E-02 
672	 9.84383826127309E-02 
673	 9.87709836976942E-02 
674	 9.91194273255473E-02 
675	 9.95107352299401E-02 
676	 9.98517901635511E-02 
677	 0.100178640461783 
678	 0.10057028751005 
679	 0.100958695803562 
680	 0.101353951117952 
681	 0.101763137409247 
682	 0.102181363124875 
683	 0.102589927304133 
684	 0.10298792182221 
685	 0.103386043713626 
686	 0.103812402488153 
687	 0.104275942073491 
688	 0.104760546740603 
689	 0.10523277655991 
690	 0.105689134699636 
691	 0.106144088058283 
692	 0.106614240955967 
693	 0.107120414670281 
694	 0.107591206670603 
695	 0.108039675187779 
696	 0.108507217160022 
697	 0.108990419581351 
698	 0.109492869707305 
699	 0.110026863228575 
700	 0.11060884581144 
701	 0.111106298553478 
702	 0.111576157409836 
703	 0.112081577763494 
704	 0.112577853996755 
705	 0.113086791024301 
706	 0.113613047055683 
707	 0.11414800559743 
708	 0.114661588061736 
709	 0.115175119893392 
710	 0.115701849199111 
711	 0.116238057444643 
712	 0.116718630835925 
713	 0.117184739882473 
714	 0.117688859616069 
715	 0.118202432733574 
716	 0.118687131764833 
717	 0.119143459016597 
718	 0.119604132177028 
719	 0.120118688314986 
720	 0.120583743218794 
721	 0.120964357241603 
722	 0.121399276450127 
723	 0.121852332530232 
724	 0.122278762628085 
725	 0.122648235952985 
726	 0.123033115954213 
727	 0.123404845746028 
728	 0.123750754094009 
729	 0.124079164842874 
730	 0.124430764452819 
731	 0.124741858240777 
732	 0.124989258058018 
733	 0.125293497930757 
734	 0.125582784555214 
735	 0.125815181221973 
736	 0.125976200030469 
737	 0.126141463281008 
738	 0.126297566500091 
739	 0.12644976362308 
740	 0.126628012622202 
741	 0.126748761277368 
742	 0.126837970207032 
743	 0.126925787537824 
744	 0.12699091820688 
745	 0.126974045459 
746	 0.126952966882018 
747	 0.127031755209139 
748	 0.126997882170789 
749	 0.126920604469282 
750	 0.1268538398877 
751	 0.126800464390106 
752	 0.126736896720912 
753	 0.126646773165013 
754	 0.126521754337034 
755	 0.126364357659772 
756	 0.126222546370284 
757	 0.126072205112142 
758	 0.125866361727923 
759	 0.125694482018679 
760	 0.125496735382807 
761	 0.125259330983189 
762	 0.125042097609969 
763	 0.124799122602606 
764	 0.12454642030017 
765	 0.124299358288244 
766	 0.124022246920068 
767	 0.123785580056803 
768	 0.123546798960352 
769	 0.123226409697882 
770	 0.122925663838107 
771	 0.122650223663296 
772	 0.122367553908064 
773	 0.122014569110007 
774	 0.121704312860139 
775	 0.121402211391849 
776	 0.121070708707493 
777	 0.12076217240203 
778	 0.120430355870738 
779	 0.120096493341794 
780	 0.119799450120454 
781	 0.119480237857605 
782	 0.119163600936539 
783	 0.118846054951886 
784	 0.118493511013473 
785	 0.118201638921252 
786	 0.117910490299123 
787	 0.117570335130564 
788	 0.117222872626368 
789	 0.116938511956191 
790	 0.116644731894272 
791	 0.116256256575095 
792	 0.115935254702226 
793	 0.115625256439437 
794	 0.115313471669136 
795	 0.115028877156313 
796	 0.114704171038226 
797	 0.11439712824762 
798	 0.114136706705967 
799	 0.113865580239472 
800	 0.113577949952399 
801	 0.113275675342466 
802	 0.112973531398513 
803	 0.112717858951884 
804	 0.112445523375362 
805	 0.112167036905083 
806	 0.111928280608623 
807	 0.111631992878182 
808	 0.111356027989628 
809	 0.111127059835944 
810	 0.110880901992808 
811	 0.110655887574903 
812	 0.110416786014319 
813	 0.11015125602106 
814	 0.109953005759299 
815	 0.109742491353316 
816	 0.109510592734909 
817	 0.109283593170612 
818	 0.10910273178464 
819	 0.108929473782576 
820	 0.108729079973828 
821	 0.108486495446389 
822	 0.108312521788545 
823	 0.108150237928522 
824	 0.107960118899071 
825	 0.107773574082775 
826	 0.107636111518498 
827	 0.107483164282495 
828	 0.107276450697463 
829	 0.107168423867567 
830	 0.107010793392783 
831	 0.106817952814692 
832	 0.10667858841554 
833	 0.106598964149279 
834	 0.106482551487893 
835	 0.106327107599267 
836	 0.106222985555299 
837	 0.106159349967066 
838	 0.106083591695309 
839	 0.105974954650898 
840	 0.10588071355649 
841	 0.105738692746796 
842	 0.105597761134733 
843	 0.105518132728836 
844	 0.105502926470914 
845	 0.105462337605952 
846	 0.105380183722497 
847	 0.105292606734853 
848	 0.10528657164248 
849	 0.105292867333075 
850	 0.105272648603558 
851	 0.105225936270181 
852	 0.105161299973457 
853	 0.105131399291072 
854	 0.105139773494824 
855	 0.105113617866695 
856	 0.105113301443369 
857	 0.105109564087164 
858	 0.105090133918133 
859	 0.10514345983963 
860	 0.10516678058313 
861	 0.1051652445831 
862	 0.105171243078444 
863	 0.105142313370292 
864	 0.105175382845627 
865	 0.105257472580714 
866	 0.105312881171468 
867	 0.105373702253963 
868	 0.105431780431437 
869	 0.105476465168719 
870	 0.105504335350766 
871	 0.105606308432682 
872	 0.105708222942775 
873	 0.105771780659378 
874	 0.105860980993147 
875	 0.105961310160896 
876	 0.106045408727374 
877	 0.106106084681502 
878	 0.106191938759977 
879	 0.106349570390288 
880	 0.106494653157476 
881	 0.106552748860531 
882	 0.106694169924138 
883	 0.106854173683096 
884	 0.10700331737227 
885	 0.107140457930458 
886	 0.107289382199279 
887	 0.10745893324571 
888	 0.10762428263363 
889	 0.107748966017388 
890	 0.107958109514916 
891	 0.108170259349585 
892	 0.108348129494954 
893	 0.10854209368334 
894	 0.108718087887754 
895	 0.108889934241083 
896	 0.109083239878454 
897	 0.109326910051653 
898	 0.109575245469978 
899	 0.109803708539099 
900	 0.110013723045851 
901	 0.110254832921825 
902	 0.110507404005329 
903	 0.11074928444649 
904	 0.110973404569683 
905	 0.111229061482819 
906	 0.111528846908569 
907	 0.111850905160436 
908	 0.112159199298768 
909	 0.112446490324143 
910	 0.112727944429226 
911	 0.112994792932227 
912	 0.113234016185855 
913	 0.113512477957239 
914	 0.113860848595154 
915	 0.114228624628132 
916	 0.114519978394192 
917	 0.114867999200619 
918	 0.115233659517069 
919	 0.115576454355708 
920	 0.115887538816995 
921	 0.116269595478786 
922	 0.116640958909188 
923	 0.116988327319997 
924	 0.11743734672026 
925	 0.117854422505946 
926	 0.118271375640531 
927	 0.118705981482767 
928	 0.119086439748161 
929	 0.119462709186937 
930	 0.119898802380639 
931	 0.120394783873642 
932	 0.120805867528996 
933	 0.121234824068813 
934	 0.121707770300173 
935	 0.122209618821837 
936	 0.122680006800835 
937	 0.123123376234751 
938	 0.123562073207672 
939	 0.124029389911991 
940	 0.124561319821075 
941	 0.125139635718349 
942	 0.125722573071181 
943	 0.126254436872776 
944	 0.126651158698772 
945	 0.12714193768822 
946	 0.127718379883818 
947	 0.128268073394731 
948	 0.128784472023648 
949	 0.129382276720019 
950	 0.13000364242086 
951	 0.130548127494963 
952	 0.131192717713055 
953	 0.131754179843966 
954	 0.132301198985285 
955	 0.132986758169123 
956	 0.13356475339894 
957	 0.134081086792753 
958	 0.134642477581116 
959	 0.135331195387992 
960	 0.135952138708549 
961	 0.136564709114638 
962	 0.137209346601719 
963	 0.137886854291293 
964	 0.138521040900572 
965	 0.13921839093626 
966	 0.139917181597649 
967	 0.140481649929075 
968	 0.141076943228455 
969	 0.141737143794256 
970	 0.142447411512254 
971	 0.143159564054728 
972	 0.143837336725437 
973	 0.144532128111342 
974	 0.145227087649869 
975	 0.145873374877739 
976	 0.146543797950304 
977	 0.147265294880735 
978	 0.147973805670975 
979	 0.148588423262175 
980	 0.14925187684915 
981	 0.150017488691141 
982	 0.150821118094708 
983	 0.15153923486172 
984	 0.152133253615054 
985	 0.152746847470341 
986	 0.153419617135135 
987	 0.154114603039383 
988	 0.154806621201827 
989	 0.155509879560178 
990	 0.156205011249049 
991	 0.156890415476054 
992	 0.157729508993729 
993	 0.15837631426775 
994	 0.158947939443661 
995	 0.159683415248143 
996	 0.160362501446353 
997	 0.160895066987381 
998	 0.161492160145237 
999	 0.16233646344014 
1000	 0.16308021613349 
1001	 0.164006523404419 
1002	 0.164651714656234 
1003	 0.165233886698729 
1004	 0.165822170435774 
1005	 0.166404683344491 
1006	 0.166997767561706 
1007	 0.167572256511727 
1008	 0.168201830049859 
1009	 0.168784538898302 
1010	 0.169339755290254 
1011	 0.169844129670153 
1012	 0.170317770647241 
1013	 0.170858917755776 
1014	 0.171397036179778 
1015	 0.171916083618074 
1016	 0.172424353674584 
1017	 0.172925549548327 
1018	 0.173409356636367 
1019	 0.173863398107779 
1020	 0.17430881753086 
1021	 0.174787949815105 
1022	 0.175223711336564 
1023	 0.175651277177834 
1024	 0.176100023607924 
1025	 0.176502560754524 
1026	 0.17688460459038 
1027	 0.177279499347655 
1028	 0.17772186367616 
1029	 0.178174306830545 
1030	 0.178596873424327 
1031	 0.179024363934657 
1032	 0.179466950455207 
1033	 0.179863669148144 
1034	 0.180223203697628 
1035	 0.180629047051795 
1036	 0.180999889748491 
1037	 0.181305121906094 
1038	 0.181658381971601 
1039	 0.1820134964619 
1040	 0.182317352073394 
1041	 0.182686379137544 
1042	 0.183074793058688 
1043	 0.183413410272558 
1044	 0.183752441566504 
1045	 0.18411084359084 
1046	 0.184429848457382 
1047	 0.184716868937504 
1048	 0.185048820887379 
1049	 0.185398532847209 
1050	 0.185746273018404 
1051	 0.186098110071027 
1052	 0.186439978761441 
1053	 0.186739137079387 
1054	 0.187064148351905 
1055	 0.187431274627777 
1056	 0.187792629274912 
1057	 0.188130509043483 
1058	 0.188465230997513 
1059	 0.188802827852085 
1060	 0.189129739223216 
1061	 0.189419000407968 
1062	 0.189743528857848 
1063	 0.190120693735951 
1064	 0.190471995388355 
1065	 0.190824706866831 
1066	 0.191163580478664 
1067	 0.19146792261874 
1068	 0.191771698931063 
1069	 0.192088278912203 
1070	 0.192421323857995 
1071	 0.192814053605493 
1072	 0.193137718792219 
1073	 0.193437201478837 
1074	 0.193725410982093 
1075	 0.193984354820326 
1076	 0.194211396370727 
1077	 0.194468327886546 
1078	 0.194709398799647 
1079	 0.194964331506047 
1080	 0.195257715944993 
1081	 0.195539891904917 
1082	 0.195853992911095 
1083	 0.196144522540518 
1084	 0.196428727148089 
1085	 0.196691582586455 
1086	 0.19694437473638 
1087	 0.197182211930683 
1088	 0.197382980258197 
1089	 0.19762483850782 
1090	 0.197894157116007 
1091	 0.19813044840304 
1092	 0.198378729897922 
1093	 0.198641555503499 
1094	 0.198852321468237 
1095	 0.199070865167095 
1096	 0.199319418667173 
1097	 0.199534726798267 
1098	 0.199754676564913 
1099	 0.199985929817956 
1100	 0.200200231753895 
1101	 0.200391437152931 
1102	 0.200594884827283 
1103	 0.200804449669112 
1104	 0.20099295964524 
1105	 0.201192766174462 
1106	 0.201402755620824 
1107	 0.201589293249527 
1108	 0.201800859335758 
1109	 0.202021988031205 
1110	 0.202212226906769 
1111	 0.20240880610267 
1112	 0.202611126497132 
1113	 0.202801379140203 
1114	 0.202972685056498 
1115	 0.203165843496066 
1116	 0.203374844507446 
1117	 0.203564535220902 
1118	 0.203751912802056 
1119	 0.203936288368213 
1120	 0.204124955396199 
1121	 0.204285935501769 
1122	 0.204434207119937 
1123	 0.204613520479965 
1124	 0.204801527341011 
1125	 0.205000817505486 
1126	 0.205181220427173 
1127	 0.20537669753511 
1128	 0.205551312651368 
1129	 0.205697741364145 
1130	 0.205854711037435 
1131	 0.206017844380033 
1132	 0.206172354041451 
1133	 0.20631208684476 
1134	 0.206463824891656 
1135	 0.206623008609856 
1136	 0.206780998580323 
1137	 0.206940888529545 
1138	 0.207074043242592 
1139	 0.2072035395818 
1140	 0.207316303033179 
1141	 0.207435213834319 
1142	 0.207554106620673 
1143	 0.207665822907244 
1144	 0.207760642909226 
1145	 0.207873595571382 
1146	 0.207993622982889 
1147	 0.208105631231066 
1148	 0.208226172671523 
1149	 0.20834492010022 
1150	 0.208461351472285 
1151	 0.208569454667003 
1152	 0.208680999637389 
1153	 0.208779652285925 
1154	 0.208876176447512 
1155	 0.208951785067555 
1156	 0.209055669084032 
1157	 0.209171254075791 
1158	 0.209282469531339 
1159	 0.209414121538082 
1160	 0.209523129211055 
1161	 0.20961489131928 
1162	 0.209713064141316 
1163	 0.209794552753434 
1164	 0.209894230384982 
1165	 0.209995733606068 
1166	 0.210125554956284 
1167	 0.210238288063695 
1168	 0.210353072855134 
1169	 0.210467073572625 
1170	 0.210573481028341 
1171	 0.210685749248468 
1172	 0.210816062844478 
1173	 0.210916653879211 
1174	 0.210995918834302 
1175	 0.211091206970538 
1176	 0.211177785177097 
1177	 0.211268475237038 
1178	 0.211370000280894 
1179	 0.211469719129807 
1180	 0.211561411066875 
1181	 0.211660409401776 
1182	 0.211782315229064 
1183	 0.211884649329586 
1184	 0.21197012277884 
1185	 0.212040935166607 
1186	 0.212122245049844 
1187	 0.2121894332835 
1188	 0.212264417808093 
1189	 0.212343462322369 
1190	 0.212433260731867 
1191	 0.21252752551151 
1192	 0.212616080733057 
1193	 0.212718771809214 
1194	 0.212811926378235 
1195	 0.212895326489526 
1196	 0.212975105531709 
1197	 0.213051572705071 
1198	 0.213130468063975 
1199	 0.213207295336868 
1200	 0.213272867647307 
1201	 0.213352940313818 
1202	 0.213446299432522 
1203	 0.213525106186936 
1204	 0.213598746085863 
1205	 0.213677923827693 
1206	 0.213754641711565 
1207	 0.213831786283815 
1208	 0.213919051858969 
1209	 0.213993639470756 
1210	 0.214063965164764 
1211	 0.214125725579867 
1212	 0.214170751323738 
1213	 0.214226670486211 
1214	 0.214277135415401 
1215	 0.214334435497868 
1216	 0.214397408196021 
1217	 0.214475499490164 
1218	 0.214535597512354 
1219	 0.214588549277612 
1220	 0.214649514380497 
1221	 0.214709614167228 
1222	 0.214766214643669 
1223	 0.214829694435332 
1224	 0.214884583339313 
1225	 0.214921155997055 
1226	 0.214975473518804 
1227	 0.215037998716979 
1228	 0.215100004524331 
1229	 0.215175427266163 
1230	 0.215239722487339 
1231	 0.215306087777626 
1232	 0.215359472707187 
1233	 0.21540436886421 
1234	 0.215436416277426 
1235	 0.215479158476669 
1236	 0.215520960047987 
1237	 0.215552167469743 
1238	 0.215581300489948 
1239	 0.215614253459955 
1240	 0.21562371175964 
1241	 0.215664154087207 
1242	 0.215736731818125 
1243	 0.215788994772779 
1244	 0.215850241192301 
1245	 0.215899616513051 
1246	 0.215919851057612 
1247	 0.215964530159724 
1248	 0.216020043990966 
1249	 0.216079313776329 
1250	 0.216138607856791 
1251	 0.216189686765568 
1252	 0.216224878316627 
1253	 0.216231741092357 
1254	 0.216260571723192 
1255	 0.21629598504437 
1256	 0.216319418199872 
1257	 0.216345680036693 
1258	 0.216364399612306 
1259	 0.216362377048527 
1260	 0.216376064663101 
1261	 0.216397750371072 
1262	 0.216416233263901 
1263	 0.216445472908193 
1264	 0.216462555901005 
1265	 0.216457237690701 
1266	 0.216473793117855 
1267	 0.216493369919147 
1268	 0.21652029805405 
1269	 0.216555527550588 
1270	 0.216618367076959 
1271	 0.21665210110332 
1272	 0.216671792873104 
1273	 0.216701889212422 
1274	 0.216724494733666 
1275	 0.216759914177751 
1276	 0.216806455790074 
1277	 0.216851046815751 
1278	 0.216891023652392 
1279	 0.216945459767856 
1280	 0.217015164802356 
1281	 0.21707752885804 
1282	 0.217149175737089 
1283	 0.217212962315372 
1284	 0.217261790271506 
1285	 0.217320358095417 
1286	 0.217382162577557 
1287	 0.217462612203503 
1288	 0.217539626844855 
1289	 0.217624257117406 
1290	 0.217707040333568 
1291	 0.217794829771113 
1292	 0.217874100738202 
1293	 0.217951157609282 
1294	 0.218028287297938 
1295	 0.218109221640104 
1296	 0.218173399900304 
1297	 0.218232237378131 
1298	 0.218287334899762 
1299	 0.218323337260791 
1300	 0.218364467657711 
1301	 0.218420980935195 
1302	 0.218453939674176 
1303	 0.21847908146706 
1304	 0.218480238222208 
1305	 0.218477199407132 
1306	 0.218498079873244 
1307	 0.218525225338589 
1308	 0.218546672731615 
1309	 0.218563113514851 
1310	 0.218580250154201 
1311	 0.218578109981692 
1312	 0.218569821915776 
1313	 0.21854955535399 
1314	 0.218510373312451 
1315	 0.218476048432108 
1316	 0.218430706324355 
1317	 0.218395287104158 
1318	 0.218363472999189 
1319	 0.218328872914166 
1320	 0.218297361983253 
1321	 0.218261656133582 
1322	 0.218229264155668 
1323	 0.218184225961753 
1324	 0.21813742069874 
1325	 0.218091615462158 
1326	 0.21802548306997 
1327	 0.217970470998225 
1328	 0.217906033929138 
1329	 0.217832429054048 
1330	 0.217760236185962 
1331	 0.217687766790258 
1332	 0.2176044714256 
1333	 0.21751111869935 
1334	 0.21742838692382 
1335	 0.217336678930594 
1336	 0.217263330557863 
1337	 0.217207783464584 
1338	 0.217141546027098 
1339	 0.217078799208662 
1340	 0.217015334336721 
1341	 0.216944499617292 
1342	 0.216881062367707 
1343	 0.216825892632698 
1344	 0.216769766053422 
1345	 0.216696255086831 
1346	 0.216626819088919 
1347	 0.216566260428889 
1348	 0.216482638912374 
1349	 0.21638695123333 
1350	 0.216301683801825 
1351	 0.216226961442445 
1352	 0.216147031014722 
1353	 0.216078443047659 
1354	 0.216038631841948 
1355	 0.215973782361087 
1356	 0.215888583792921 
1357	 0.215814414457587 
1358	 0.215740103873357 
1359	 0.215673204969315 
1360	 0.21561249024006 
1361	 0.215554261279899 
1362	 0.215504123197481 
1363	 0.215443948896916 
1364	 0.215387920107374 
1365	 0.215320359618951 
1366	 0.21524047347197 
1367	 0.215160793211005 
1368	 0.215092604711232 
1369	 0.215015660162558 
1370	 0.214938645221817 
1371	 0.214860951140635 
1372	 0.214735115786975 
1373	 0.214597507942359 
1374	 0.214453303163245 
1375	 0.214292908800106 
1376	 0.214115310016607 
1377	 0.213937110024205 
1378	 0.213723743062118 
1379	 0.213473698776457 
1380	 0.213227929971778 
1381	 0.212967636482 
1382	 0.212696273858746 
1383	 0.212430910328968 
1384	 0.212129313397689 
1385	 0.211818876293288 
1386	 0.211467628204533 
1387	 0.211082217257771 
1388	 0.210675226398009 
1389	 0.210242744967432 
1390	 0.209770298602166 
1391	 0.209291706425292 
1392	 0.208786162290661 
1393	 0.208238519298647 
1394	 0.207672565892259 
1395	 0.207057364231737 
1396	 0.206435218373557 
1397	 0.205826410823373 
1398	 0.205211701460589 
1399	 0.204586904126443 
1400	 0.203973462291437 
1401	 0.203338102946777 
1402	 0.202666849637438 
1403	 0.202032850886984 
1404	 0.201397211756115 
1405	 0.200788286920818 
1406	 0.200196785883566 
1407	 0.199620149422496 
1408	 0.19905715985923 
1409	 0.198520133583046 
1410	 0.19798294072175 
1411	 0.197504928444835 
1412	 0.197066562935542 
1413	 0.196655068802121 
1414	 0.19629978116597 
1415	 0.195958018604954 
1416	 0.195630804681262 
1417	 0.195318014767396 
1418	 0.194993086363431 
1419	 0.194703451898948 
1420	 0.194455090401951 
1421	 0.194212599324325 
1422	 0.194010594063606 
1423	 0.193824730158129 
1424	 0.193615569526421 
1425	 0.193390664096631 
1426	 0.193189735718173 
1427	 0.192976215822683 
1428	 0.192803331510484 
1429	 0.192655322895783 
1430	 0.192523235745191 
1431	 0.19242729982229 
1432	 0.192314057257187 
1433	 0.192207775119386 
1434	 0.192106454656952 
1435	 0.191987382912358 
1436	 0.19190342500648 
1437	 0.191847613545136 
1438	 0.191789482085274 
1439	 0.191749049638328 
1440	 0.191709054230158 
1441	 0.191663491292155 
1442	 0.191619517877612 
1443	 0.191581780536914 
1444	 0.191554430415022 
1445	 0.191538238022445 
1446	 0.191522047621023 
1447	 0.191525841800577 
1448	 0.191531782691538 
1449	 0.191518126074478 
1450	 0.191501532901501 
1451	 0.191488784521932 
1452	 0.191459440501059 
1453	 0.191456460995732 
1454	 0.191472298066898 
1455	 0.191482737757874 
1456	 0.191496127424358 
1457	 0.191516957279476 
1458	 0.191537759499842 
1459	 0.191573176505764 
1460	 0.19162026027644 
1461	 0.191671189540254 
1462	 0.191734661564552 
1463	 0.191793715797603 
1464	 0.191851965672265 
1465	 0.191923420920491 
1466	 0.191997424775352 
1467	 0.192079917682745 
1468	 0.192162785553184 
1469	 0.192269177219237 
1470	 0.192381966360015 
1471	 0.192520585831952 
1472	 0.192697251011528 
1473	 0.192876304177544 
1474	 0.193043836008255 
1475	 0.193209454112189 
1476	 0.19335429360582 
1477	 0.193515205167012 
1478	 0.193693052799293 
1479	 0.19387617151456 
1480	 0.194088101693026 
1481	 0.194302023934434 
1482	 0.194495047095256 
1483	 0.194690265080067 
1484	 0.194865736249846 
1485	 0.195007608575426 
1486	 0.195180514334962 
1487	 0.195352830815675 
1488	 0.195543991335168 
1489	 0.195762412103021 
1490	 0.195956574075835 
1491	 0.19615762925057 
1492	 0.196342466494286 
1493	 0.196497729581577 
1494	 0.19668086148545 
1495	 0.196870223597906 
1496	 0.197061028761897 
1497	 0.197280744764365 
1498	 0.197465581082204 
1499	 0.197630046765507 
1500	 0.197797721380002 
1501	 0.197947865958562 
1502	 0.19810597123456 
1503	 0.198267499234376 
1504	 0.198424646327123 
1505	 0.198599862975002 
1506	 0.198769483097435 
1507	 0.198935595359551 
1508	 0.199091148564792 
1509	 0.199241565037595 
1510	 0.199381720735081 
1511	 0.199513518258844 
1512	 0.199666967416417 
1513	 0.199799769880165 
1514	 0.199922207982012 
1515	 0.200064507239247 
1516	 0.200209556321707 
1517	 0.200354095189794 
1518	 0.200512261528893 
1519	 0.200644783942501 
1520	 0.200763505814548 
1521	 0.200889240963552 
1522	 0.200994803468011 
1523	 0.201129450390703 
1524	 0.201287578535762 
1525	 0.201425424963503 
1526	 0.201571212203696 
1527	 0.20170518484037 
1528	 0.201825961425463 
1529	 0.201944656462621 
1530	 0.2020605941168 
1531	 0.202172951189528 
1532	 0.202272725278985 
1533	 0.202378057695233 
1534	 0.202489497779425 
1535	 0.202593243739675 
1536	 0.202691744576608 
1537	 0.202791463553808 
1538	 0.202882043786094 
1539	 0.202982575406663 
1540	 0.203087219603922 
1541	 0.203197446622542 
1542	 0.203323194680505 
1543	 0.203432504891148 
1544	 0.203544658141437 
1545	 0.203644065743764 
1546	 0.20373219192388 
1547	 0.20380954316755 
1548	 0.203879110791443 
1549	 0.203940819689245 
1550	 0.204005612313301 
1551	 0.204096155460504 
1552	 0.204193491950801 
1553	 0.204296619616043 
1554	 0.204401219295425 
1555	 0.204480534037353 
1556	 0.204553429888689 
1557	 0.204608174574142 
1558	 0.204660130348625 
1559	 0.204726652854113 
1560	 0.204781527655931 
1561	 0.204836648630812 
1562	 0.204891301712187 
1563	 0.204935827889217 
1564	 0.204992079123492 
1565	 0.20505670548642 
1566	 0.205117412396705 
1567	 0.205179192964007 
1568	 0.205241943228616 
1569	 0.205307021193058 
1570	 0.205369132930115 
1571	 0.205429565832417 
1572	 0.205490150457208 
1573	 0.205554845220822 
1574	 0.205607522359071 
1575	 0.205654737927342 
1576	 0.205703188645554 
1577	 0.205738167512768 
1578	 0.205785222060497 
1579	 0.205843388546903 
1580	 0.20589415874692 
1581	 0.205940832679449 
1582	 0.205992409485756 
1583	 0.206049224166736 
1584	 0.206098732533301 
1585	 0.206153256555875 
1586	 0.206196180781762 
1587	 0.206220846672818 
1588	 0.206255223981592 
1589	 0.206289715448981 
1590	 0.206326117717011 
1591	 0.206372226632956 
1592	 0.206408927063608 
1593	 0.20644492130575 
1594	 0.206469597183859 
1595	 0.206476380027486 
1596	 0.206495104956801 
1597	 0.206511657698601 
1598	 0.206531431768783 
1599	 0.206562088098993 
1600	 0.206588586529259 
1601	 0.206607881829721 
1602	 0.206633650430137 
1603	 0.206659911161787 
1604	 0.206693887027842 
1605	 0.206737226571423 
1606	 0.206779421126523 
1607	 0.206831351355149 
1608	 0.206878911230118 
1609	 0.206910812703992 
1610	 0.206924223729878 
1611	 0.206934302946909 
1612	 0.20694524181168 
1613	 0.206960743293315 
1614	 0.207001589792992 
1615	 0.207027946337793 
1616	 0.207031491733467 
1617	 0.207044097859272 
1618	 0.207047669468944 
1619	 0.207065848752858 
1620	 0.2070935443912 
1621	 0.207109375119607 
1622	 0.207122643812397 
1623	 0.207138856354517 
1624	 0.207150980126274 
1625	 0.207167121202341 
1626	 0.207189311590153 
1627	 0.207202211888646 
1628	 0.207209370381586 
1629	 0.207220716324578 
1630	 0.207229939709424 
1631	 0.207245131584943 
1632	 0.20726379709358 
1633	 0.20728381097621 
1634	 0.207314948961011 
1635	 0.207318336249224 
1636	 0.207307594045492 
1637	 0.207307988755625 
1638	 0.207296418420203 
1639	 0.20729088681636 
1640	 0.207295862755517 
1641	 0.207298562154659 
1642	 0.20728801350136 
1643	 0.207298830845859 
1644	 0.207327801609419 
1645	 0.207349437051387 
1646	 0.207374267128352 
1647	 0.207401294865396 
1648	 0.207437467156136 
1649	 0.207454458208682 
1650	 0.207467607028307 
1651	 0.207473710123577 
1652	 0.207464579948147 
1653	 0.207456998223512 
1654	 0.207445066602474 
1655	 0.207438198004067 
1656	 0.207429693187269 
1657	 0.207417427859924 
1658	 0.20740921543502 
1659	 0.207397077352911 
1660	 0.207377594905403 
1661	 0.207357968655757 
1662	 0.207340598685999 
1663	 0.207319108283478 
1664	 0.207284729475699 
1665	 0.207267177808734 
1666	 0.20725652910444 
1667	 0.207248336729415 
1668	 0.20726034307403 
1669	 0.207244865675835 
1670	 0.207212532615361 
1671	 0.207192605196226 
1672	 0.207163358712745 
1673	 0.207139949656575 
1674	 0.207127501927218 
1675	 0.207112649105841 
1676	 0.207093379915391 
1677	 0.207076388303023 
1678	 0.207067206477961 
1679	 0.207051841858564 
1680	 0.207033052080604 
1681	 0.20701017114875 
1682	 0.206987617034988 
1683	 0.206958576025377 
1684	 0.206912853656925 
1685	 0.206887292972497 
1686	 0.206871370326627 
1687	 0.206848790558562 
1688	 0.206825186836431 
1689	 0.206818587638054 
1690	 0.206825846900028 
1691	 0.206811534499399 
1692	 0.206806921525259 
1693	 0.206788879077217 
1694	 0.206740971434766 
1695	 0.206706295738749 
1696	 0.206670518083416 
1697	 0.206654436742474 
1698	 0.206652739910103 
1699	 0.206634462307467 
1700	 0.20663222928541 
1701	 0.206608214169047 
1702	 0.206555030161639 
1703	 0.206515097042498 
1704	 0.20648028753925 
1705	 0.206441205896074 
1706	 0.206393482053361 
1707	 0.206352858434495 
1708	 0.206321311027562 
1709	 0.206274845788245 
1710	 0.20622319127029 
1711	 0.206178262929805 
1712	 0.206126513201441 
1713	 0.206071966042562 
1714	 0.20602358883375 
1715	 0.205966191339293 
1716	 0.205903628230203 
1717	 0.205834560674207 
1718	 0.205751741698747 
1719	 0.205688902497589 
1720	 0.205622367693011 
1721	 0.205568967911366 
1722	 0.205539020669947 
1723	 0.2055014219569 
1724	 0.205467519750047 
1725	 0.205421075051482 
1726	 0.205375720532298 
1727	 0.205320076062002 
1728	 0.20524805027649 
1729	 0.205181102876476 
1730	 0.205113685232127 
1731	 0.205045641438526 
1732	 0.204977669949496 
1733	 0.204902057414143 
1734	 0.204825641625366 
1735	 0.204743114515705 
1736	 0.204655425024925 
1737	 0.204559944753052 
1738	 0.20445231987551 
1739	 0.204350309132311 
1740	 0.204237337493188 
1741	 0.204145808011927 
1742	 0.204069708237168 
1743	 0.20399850169552 
1744	 0.203947513990685 
1745	 0.203852030595704 
1746	 0.203745329256448 
1747	 0.203618669415145 
1748	 0.203488036864771 
1749	 0.203402413491043 
1750	 0.20330398031559 
1751	 0.203199445988122 
1752	 0.203118285021527 
1753	 0.203017477228674 
1754	 0.202915293920432 
1755	 0.202816145047642 
1756	 0.202697198350022 
1757	 0.20258352905518 
1758	 0.202484903669074 
1759	 0.202405586504122 
1760	 0.202339509833514 
1761	 0.202283157480356 
1762	 0.202220389153407 
1763	 0.202119998161632 
1764	 0.202025255102432 
1765	 0.201946997261547 
1766	 0.201835753989835 
1767	 0.201724049815789 
1768	 0.201639346364619 
1769	 0.201535409393219 
1770	 0.201440877942422 
1771	 0.201383805549654 
1772	 0.201314287743977 
1773	 0.20123530559276 
1774	 0.20117399479114 
1775	 0.20111141793694 
1776	 0.201028748284561 
1777	 0.200956978465376 
1778	 0.200893425160511 
1779	 0.200813462877557 
1780	 0.200755471599057 
1781	 0.200716739231544 
1782	 0.200673526216713 
1783	 0.200655629721081 
1784	 0.200621480229329 
1785	 0.200579021680682 
1786	 0.200529588775633 
1787	 0.200465286230144 
1788	 0.200414636518257 
1789	 0.200369385413948 
1790	 0.200320332787455 
1791	 0.200273143459333 
1792	 0.200227975417346 
1793	 0.200162393849529 
1794	 0.200139473275743 
1795	 0.200167423548525 
1796	 0.20013961969037 
1797	 0.200101062407954 
1798	 0.200064751827801 
1799	 0.1999891067795 
1800	 0.199958536926767 
1801	 0.195324024364197 
1802	 0.195478784187116 
1803	 0.195660922938133 
1804	 0.19587453010166 
1805	 0.196105417436234 
1806	 0.196316176836046 
1807	 0.196523036648467 
1808	 0.196710208022891 
1809	 0.196912612416816 
1810	 0.197042995071298 
1811	 0.19713123451817 
1812	 0.197208519824041 
1813	 0.197251981846875 
1814	 0.197282507464173 
1815	 0.197335547841415 
1816	 0.197390959100927 
1817	 0.197424177029771 
1818	 0.197435610859881 
1819	 0.197458636093849 
1820	 0.197469712904875 
1821	 0.197485808595694 
1822	 0.197556886576778 
1823	 0.197608242774952 
1824	 0.197664269381844 
1825	 0.197712684941283 
1826	 0.197736725712935 
1827	 0.197755180783962 
1828	 0.19775742918843 
1829	 0.197757923652722 
1830	 0.197744113535703 
1831	 0.197703867855322 
1832	 0.197673755533062 
1833	 0.197630327249938 
1834	 0.197567348109413 
1835	 0.197529286836123 
1836	 0.197481665414165 
1837	 0.197429038397474 
1838	 0.197414995524551 
1839	 0.19739277870038 
1840	 0.197377928571971 
1841	 0.197332061627289 
1842	 0.197299017458705 
1843	 0.197252468825101 
1844	 0.197193435047061 
1845	 0.197122532192113 
1846	 0.197035466216899 
1847	 0.196932964184074 
1848	 0.196802719232421 
1849	 0.196702936934512 
1850	 0.196613006329827 
1851	 0.196544670954269 
1852	 0.196468888012619 
1853	 0.196391975328444 
1854	 0.196263998467007 
1855	 0.196105436054032 
1856	 0.19593068399889 
1857	 0.195715832127303 
1858	 0.195502108993732 
1859	 0.195268839061808 
1860	 0.195003959813796 
1861	 0.194715285852059 
1862	 0.194406468198665 
1863	 0.19405591854153 
1864	 0.193685172291992 
1865	 0.193277549001696 
1866	 0.192855886896363 
1867	 0.192404842823913 
1868	 0.191890298625797 
1869	 0.191351050752088 
1870	 0.19076975250483 
1871	 0.190134291763506 
1872	 0.189453544417246 
1873	 0.188738174747941 
1874	 0.187972689072692 
1875	 0.18713744746837 
1876	 0.186274290827846 
1877	 0.185377622713796 
1878	 0.184380358086369 
1879	 0.183321207923436 
1880	 0.182195991049979 
1881	 0.180975196759501 
1882	 0.179713515968321 
1883	 0.178404203987885 
1884	 0.177023701050429 
1885	 0.1755729132437 
1886	 0.174045548988419 
1887	 0.172430837775336 
1888	 0.170768165440071 
1889	 0.169031459788266 
1890	 0.167248834320803 
1891	 0.165475302551467 
1892	 0.163631823367481 
1893	 0.161839017804494 
1894	 0.160062383037804 
1895	 0.158307449343118 
1896	 0.15651492673061 
1897	 0.154774665119814 
1898	 0.153025181827046 
1899	 0.151303981577609 
1900	 0.149681400205411 
1901	 0.148104750302776 
1902	 0.146603096007288 
1903	 0.145172030497096 
1904	 0.1438203059997 
1905	 0.142529173530851 
1906	 0.141335827235543 
1907	 0.140227025073835 
1908	 0.139201566342862 
1909	 0.138250299307904 
1910	 0.137349240265525 
1911	 0.136510218233969 
1912	 0.135739974076405 
1913	 0.135010720878583 
1914	 0.134336220589262 
1915	 0.133705889277459 
1916	 0.133130908664302 
1917	 0.132582141709363 
1918	 0.13207858402511 
1919	 0.131611770344911 
1920	 0.131203782584818 
1921	 0.130844215079421 
1922	 0.130520207011374 
1923	 0.130232494168279 
1924	 0.129972562609958 
1925	 0.129729238102699 
1926	 0.129536880257011 
1927	 0.129380568945753 
1928	 0.129274938522304 
1929	 0.129197001876951 
1930	 0.129146841557514 
1931	 0.129118674036164 
1932	 0.129093548896538 
1933	 0.129102030926756 
1934	 0.129144812806111 
1935	 0.129197052565882 
1936	 0.129266836290365 
1937	 0.129361242033839 
1938	 0.129473373115699 
1939	 0.129608572163444 
1940	 0.129771926241268 
1941	 0.129950691497867 
1942	 0.130151689357842 
1943	 0.130347038857118 
1944	 0.130546810976369 
1945	 0.130785547156966 
1946	 0.131024700016657 
1947	 0.131265513274374 
1948	 0.13153463592632 
1949	 0.13183295285865 
1950	 0.132123162328252 
1951	 0.132422878271081 
1952	 0.132743120420105 
1953	 0.133040570174975 
1954	 0.133351955303166 
1955	 0.133711553086097 
1956	 0.134075498818183 
1957	 0.1344389068993 
1958	 0.134825645981805 
1959	 0.135203985980466 
1960	 0.135563150326687 
1961	 0.135950046492913 
1962	 0.136362597331574 
1963	 0.136768963709913 
1964	 0.13717673794759 
1965	 0.137596906719086 
1966	 0.138023950744718 
1967	 0.13845268853281 
1968	 0.138886977248257 
1969	 0.139341803981155 
1970	 0.13977362907323 
1971	 0.140198933064599 
1972	 0.140622901925864 
1973	 0.141031203191437 
1974	 0.141449769707902 
1975	 0.141870721155235 
1976	 0.142295867831231 
1977	 0.142715693995941 
1978	 0.143146311884384 
1979	 0.14357377381911 
1980	 0.143996586931674 
1981	 0.144428191851079 
1982	 0.144858481889465 
1983	 0.145301014551956 
1984	 0.145758251169663 
1985	 0.146211273212535 
1986	 0.146680610173784 
1987	 0.147132286890525 
1988	 0.14757760692088 
1989	 0.148013893564139 
1990	 0.148437179021145 
1991	 0.148883167809545 
1992	 0.149309481452917 
1993	 0.14972572769583 
1994	 0.150147655765034 
1995	 0.150556819868231 
1996	 0.150979666366658 
1997	 0.15142077036446 
1998	 0.151854692348297 
1999	 0.15228935795338 
2000	 0.15272273496506 
2001	 0.153165696786375 
2002	 0.153581487128865 
2003	 0.154015164339435 
2004	 0.154436192987022 
2005	 0.154844746848569 
2006	 0.155248172961758 
2007	 0.155643349180076 
2008	 0.156002170074313 
2009	 0.156399209744224 
2010	 0.15682081421069 
2011	 0.15721742051115 
2012	 0.157634374045314 
2013	 0.158025705885383 
2014	 0.158380883785872 
2015	 0.158736313715302 
2016	 0.159121757009168 
2017	 0.159497264299895 
2018	 0.159878815250689 
2019	 0.160285835457859 
2020	 0.160666730768273 
2021	 0.16103549937523 
2022	 0.161396922094595 
2023	 0.161741013084261 
2024	 0.162092510653014 
2025	 0.16243073104842 
2026	 0.16278356737265 
2027	 0.163148627487379 
2028	 0.163520254248498 
2029	 0.163877521260126 
2030	 0.164238293529839 
2031	 0.16458369981737 
2032	 0.164917503352781 
2033	 0.165247570543961 
2034	 0.165570744400892 
2035	 0.165885620577427 
2036	 0.166188156505587 
2037	 0.166492798451232 
2038	 0.166795672680788 
2039	 0.167091822099244 
2040	 0.167381917394923 
2041	 0.167672383714745 
2042	 0.167963757597323 
2043	 0.168243678995302 
2044	 0.168524033332016 
2045	 0.168802091020114 
2046	 0.169085705494815 
2047	 0.169369393823285 
2048	 0.169647993603067 
2049	 0.16994618743032 
2050	 0.170211531728236 
2051	 0.17043837365507 
2052	 0.170687993033791 
2053	 0.170933864146217 
2054	 0.171180666784572 
2055	 0.171428897314335 
2056	 0.171701945727693 
2057	 0.171951484494544 
2058	 0.172186468174964 
2059	 0.172428983762025 
2060	 0.172669950655411 
2061	 0.172911677220168 
2062	 0.173155731603682 
2063	 0.173397694345147 
2064	 0.17364337024477 
2065	 0.173878710863616 
2066	 0.174104267895395 
2067	 0.174334167314786 
2068	 0.174551668935239 
2069	 0.174787995912209 
2070	 0.17501314159543 
2071	 0.175233715561902 
2072	 0.175472502129428 
2073	 0.175713517310904 
2074	 0.175960496702788 
2075	 0.176245307566583 
2076	 0.176481183408317 
2077	 0.176699866919047 
2078	 0.176907014654035 
2079	 0.177056452724395 
2080	 0.177258103904487 
2081	 0.177485217165031 
2082	 0.177702432635026 
2083	 0.177930094098951 
2084	 0.178184551785617 
2085	 0.178403829928734 
2086	 0.178601556865715 
2087	 0.178803506015495 
2088	 0.178997397994435 
2089	 0.179195533869651 
2090	 0.179382215854339 
2091	 0.179583881287345 
2092	 0.179799908788359 
2093	 0.180006216428387 
2094	 0.180227150584556 
2095	 0.18042637356474 
2096	 0.180601553412465 
2097	 0.18078658770481 
2098	 0.18095634977177 
2099	 0.181136746280772 
2100	 0.181334645012081 
2101	 0.181554812353328 
2102	 0.181755492346706 
2103	 0.181954768922441 
2104	 0.182166042652232 
2105	 0.182379434175683 
2106	 0.182585867768858 
2107	 0.182813603482525 
2108	 0.183015141306108 
2109	 0.183184012723715 
2110	 0.183370113133963 
2111	 0.183552637755407 
2112	 0.183741507771094 
2113	 0.183929387885852 
2114	 0.184140023787396 
2115	 0.184331462385848 
2116	 0.184522768007351 
2117	 0.184709374940494 
2118	 0.184877007144185 
2119	 0.185075381328911 
2120	 0.185296006569474 
2121	 0.185493798579161 
2122	 0.185722618881025 
2123	 0.185893778877137 
2124	 0.18600254286592 
2125	 0.186148146639438 
2126	 0.186288131232173 
2127	 0.186423181189768 
2128	 0.18658451589 
2129	 0.186719120096992 
2130	 0.1868259992942 
2131	 0.186926022603257 
2132	 0.18703118846295 
2133	 0.18713873710226 
2134	 0.18722862174102 
2135	 0.187309515721204 
2136	 0.18738967103503 
2137	 0.187466229816607 
2138	 0.18751991959363 
2139	 0.187577761311073 
2140	 0.187603841920719 
2141	 0.187571533665711 
2142	 0.187578067591293 
2143	 0.187589907567484 
2144	 0.187597024948359 
2145	 0.187638278962678 
2146	 0.187643758749731 
2147	 0.18762318311716 
2148	 0.187592430475141 
2149	 0.187560988118122 
2150	 0.187509986818719 
2151	 0.187472532087932 
2152	 0.187439722194747 
2153	 0.187403906688233 
2154	 0.187374160530799 
2155	 0.18732559722254 
2156	 0.187286762676496 
2157	 0.187209713629573 
2158	 0.187091940560116 
2159	 0.186989521628406 
2160	 0.186871377539768 
2161	 0.186752331220299 
2162	 0.186629324430593 
2163	 0.186518694062603 
2164	 0.186411733538078 
2165	 0.186295269246361 
2166	 0.186188481383397 
2167	 0.186102564443873 
2168	 0.185992651528863 
2169	 0.185868167464885 
2170	 0.185751263334396 
2171	 0.185631480041234 
2172	 0.185511706831553 
2173	 0.185403032356298 
2174	 0.185270653587611 
2175	 0.185115984777102 
2176	 0.184977385842497 
2177	 0.18482798971621 
2178	 0.184689424246717 
2179	 0.184568332847416 
2180	 0.184442771364974 
2181	 0.184335313871344 
2182	 0.184197343401599 
2183	 0.184032896364793 
2184	 0.183874792545202 
2185	 0.183732811183277 
2186	 0.183571976791037 
2187	 0.183441196017586 
2188	 0.183348470013636 
2189	 0.183239040573534 
2190	 0.18312855031112 
2191	 0.183017117703178 
2192	 0.182908875880612 
2193	 0.182801634057466 
2194	 0.182682233866795 
2195	 0.182582243203766 
2196	 0.182490699708709 
2197	 0.182410792466211 
2198	 0.182353051494213 
2199	 0.182285749215302 
2200	 0.182218587230503 
2201	 0.182162478927174 
2202	 0.182102850787459 
2203	 0.182052351681135 
2204	 0.182015550070031 
2205	 0.181986865374598 
2206	 0.181979917569843 
2207	 0.182001756889841 
2208	 0.181997145109994 
2209	 0.182002795566911 
2210	 0.182000072698273 
2211	 0.181963336800351 
2212	 0.181964701437428 
2213	 0.181987378461449 
2214	 0.18201688756956 
2215	 0.1820803038874 
2216	 0.182111164865729 
2217	 0.182123419871415 
2218	 0.182148757660172 
2219	 0.182152103744011 
2220	 0.182183702403768 
2221	 0.18224915333586 
2222	 0.18231457165695 
2223	 0.182352861846346 
2224	 0.182386465840551 
2225	 0.182406461983374 
2226	 0.182396977091506 
2227	 0.182408600999397 
2228	 0.182427603147016 
2229	 0.182431379395053 
2230	 0.182431231140703 
2231	 0.182422329438774 
2232	 0.182391199076203 
2233	 0.182390126147288 
2234	 0.182411162023887 
2235	 0.182407403519004 
2236	 0.182404204590767 
2237	 0.182399404149132 
2238	 0.18236785946059 
2239	 0.18235384073266 
2240	 0.182368058804379 
2241	 0.182360847583391 
2242	 0.182346110246644 
2243	 0.182325449846222 
2244	 0.182300203473959 
2245	 0.182257954717961 
2246	 0.182226417518702 
2247	 0.182182794023664 
2248	 0.18212276356094 
2249	 0.18204447414953 
2250	 0.181990639935963 
2251	 0.181926051076988 
2252	 0.181874931681999 
2253	 0.181846419559688 
2254	 0.181804240098913 
2255	 0.18176172524466 
2256	 0.181711288252814 
2257	 0.181649533295865 
2258	 0.181611641676593 
2259	 0.181558644486115 
2260	 0.181540828992046 
2261	 0.18158452163744 
2262	 0.181574375431186 
2263	 0.181555630797321 
2264	 0.181535270119233 
2265	 0.181471960766299 
2266	 0.181438773122474 
2267	 0.181434485290331 
2268	 0.181415006473174 
2269	 0.181382081789518 
2270	 0.181375927805338 
2271	 0.181360677285566 
2272	 0.181356085735898 
2273	 0.181362636988437 
2274	 0.181317976254474 
2275	 0.181290436778497 
2276	 0.181241103023397 
2277	 0.18121837376868 
2278	 0.181213802335543 
2279	 0.181201132837586 
2280	 0.181199563412332 
2281	 0.181180702922829 
2282	 0.18113757399465 
2283	 0.181127901046372 
2284	 0.181131705188335 
2285	 0.181124304423661 
2286	 0.181144009579939 
2287	 0.181128575500117 
2288	 0.181064716892545 
2289	 0.181046267931822 
2290	 0.181042073571538 
2291	 0.181038736052834 
2292	 0.181083548801241 
2293	 0.181080540681669 
2294	 0.181047291330158 
2295	 0.181002259314642 
2296	 0.180929664974894 
2297	 0.180847593295049 
2298	 0.180781301537946 
2299	 0.180735124991079 
2300	 0.180686332611682 
2301	 0.180634933750147 
2302	 0.180561284895822 
2303	 0.180523737299355 
2304	 0.18050528507748 
2305	 0.180461857708714 
2306	 0.180387331223911 
2307	 0.180282371365722 
2308	 0.180194709760724 
2309	 0.180077055355237 
2310	 0.179997539855054 
2311	 0.179954157338022 
2312	 0.179882511379018 
2313	 0.179806429587428 
2314	 0.179719523608791 
2315	 0.179625071000785 
2316	 0.179531668093031 
2317	 0.179433422123539 
2318	 0.179330712681811 
2319	 0.179217564124511 
2320	 0.179112889116686 
2321	 0.17901472427098 
2322	 0.178905649354296 
2323	 0.178768108963276 
2324	 0.178681635896582 
2325	 0.17862995515181 
2326	 0.178546067758475 
2327	 0.178475473040749 
2328	 0.178421329570475 
2329	 0.178307624917913 
2330	 0.178218475835734 
2331	 0.178116008127645 
2332	 0.178019097001456 
2333	 0.177927644278865 
2334	 0.177829151384883 
2335	 0.177791318951914 
2336	 0.177758398952569 
2337	 0.177690581207586 
2338	 0.177571589002785 
2339	 0.177439568357369 
2340	 0.177260251000988 
2341	 0.177113118576583 
2342	 0.177014303492804 
2343	 0.176866789794458 
2344	 0.176783200975107 
2345	 0.176664588431024 
2346	 0.176526240858432 
2347	 0.176385916460406 
2348	 0.176237696638913 
2349	 0.176082428426236 
2350	 0.175921165255522 
2351	 0.175749604029066 
2352	 0.175584326628116 
2353	 0.175403814445848 
2354	 0.175192262396541 
2355	 0.17500045675136 
2356	 0.174800807402496 
2357	 0.174621208259444 
2358	 0.174454275200721 
2359	 0.174306643751822 
2360	 0.174185680479924 
2361	 0.174044398175154 
2362	 0.173925980948964 
2363	 0.173760926445267 
2364	 0.173572877246653 
2365	 0.173369040314202 
2366	 0.173095631667772 
2367	 0.172893600737068 
2368	 0.17272987697214 
2369	 0.1725468060358 
2370	 0.172391391744115 
2371	 0.172236203798696 
2372	 0.172036846252763 
2373	 0.171791346056077 
2374	 0.171568807765988 
2375	 0.171314725923685 
2376	 0.171040149990235 
2377	 0.170780929678842 
2378	 0.170555165080998 
2379	 0.170325123281602 
2380	 0.170149482982316 
2381	 0.169998322226349 
2382	 0.169769753834398 
2383	 0.169564221038361 
2384	 0.169273605781546 
2385	 0.168982272494325 
2386	 0.168765669247137 
2387	 0.168495487759611 
2388	 0.168262965830409 
2389	 0.168011837830632 
2390	 0.167705038415602 
2391	 0.167423522859123 
2392	 0.167176501152351 
2393	 0.16698218918842 
2394	 0.166751711903311 
2395	 0.166506565202377 
2396	 0.166232780350258 
2397	 0.165895256723979 
2398	 0.165592743693967 
2399	 0.165278885930533 
2400	 0.165062624911757 
2401	 0.164873694768819 
2402	 0.164652273107335 
2403	 0.164517704511628 
2404	 0.164317558288466 
2405	 0.164032581315436 
2406	 0.163710864291754 
2407	 0.1633806998851 
2408	 0.163031871443 
2409	 0.162697827305118 
2410	 0.16245093165896 
2411	 0.16219200519706 
2412	 0.161852735476383 
2413	 0.161494935359869 
2414	 0.16117230612298 
2415	 0.160797468983521 
2416	 0.160498546759138 
2417	 0.160321488633761 
2418	 0.160091953700643 
2419	 0.159857148640368 
2420	 0.159630839819537 
2421	 0.15942874562457 
2422	 0.159160198048579 
2423	 0.158860931573772 
2424	 0.158551386596214 
2425	 0.158171524852162 
2426	 0.157795896124894 
2427	 0.157452221714146 
2428	 0.15706009414748 
2429	 0.156608877417972 
2430	 0.156239561708874 
2431	 0.15585638371592 
2432	 0.155504089675386 
2433	 0.155210212494633 
2434	 0.154942656358554 
2435	 0.154720160492637 
2436	 0.154458784244959 
2437	 0.154229217316812 
2438	 0.153970334885433 
2439	 0.153679225988249 
2440	 0.153320680111384 
2441	 0.152904653673673 
2442	 0.15259830578392 
2443	 0.15224497859768 
2444	 0.151969773991177 
2445	 0.151858554425553 
2446	 0.151615748790038 
2447	 0.151358743474996 
2448	 0.151083830635226 
2449	 0.150723949884368 
2450	 0.150391740924715 
2451	 0.15000799983271 
2452	 0.1496667229267 
2453	 0.149390029862295 
2454	 0.149133049362704 
2455	 0.148972132669367 
2456	 0.148694918669988 
2457	 0.148295815138554 
2458	 0.148040017152996 
2459	 0.147778496699975 
2460	 0.147496384711267 
2461	 0.147365469892899 
2462	 0.147060324218466 
2463	 0.146651950154997 
2464	 0.14628749403997 
2465	 0.145841775119385 
2466	 0.145535718624237 
2467	 0.145278472112247 
2468	 0.144908892612974 
2469	 0.144519780418092 
2470	 0.144110561988672 
2471	 0.143870874082606 
2472	 0.143688696043286 
2473	 0.143498121838147 
2474	 0.143259883595296 
2475	 0.14292255864285 
2476	 0.142587502751526 
2477	 0.142252448028924 
2478	 0.141947423151826 
2479	 0.141684819428962 
2480	 0.141417691529179 
2481	 0.141237583916122 
2482	 0.141004550077151 
2483	 0.14073463190353 
2484	 0.140516041352207 
2485	 0.140167228757956 
2486	 0.139816147128126 
2487	 0.139685793732272 
2488	 0.139380223165989 
2489	 0.13885547169974 
2490	 0.13865937875668 
2491	 0.138353762701018 
2492	 0.138018991093986 
2493	 0.138062408948891 
2494	 0.137942842100059 
2495	 0.137754467568549 
2496	 0.137593522355734 
2497	 0.137246933739703 
2498	 0.136975472940111 
2499	 0.136681604319515 
2500	 0.136478978222452 
