Wavelength	mm2600007.asd
350	 3.94588307480737E-02 
351	 3.70278714200255E-02 
352	 0.030895061298851 
353	 2.39566376596708E-02 
354	 2.28325882158372E-02 
355	 3.18070077181236E-02 
356	 4.02284573484781E-02 
357	 3.91408394879225E-02 
358	 3.90880967946665E-02 
359	 3.75517651058562E-02 
360	 3.48939227886183E-02 
361	 0.033404882471974 
362	 3.24605439715033E-02 
363	 3.20644903219969E-02 
364	 3.22761319815396E-02 
365	 3.31763370540892E-02 
366	 3.39690298469081E-02 
367	 3.72083656787642E-02 
368	 4.31351562126588E-02 
369	 3.95990549666408E-02 
370	 3.69804187252168E-02 
371	 3.84813116630175E-02 
372	 4.14850278245675E-02 
373	 4.25584576972038E-02 
374	 4.21238967107316E-02 
375	 4.12262694191598E-02 
376	 4.10677607413099E-02 
377	 3.72202687235613E-02 
378	 3.74185859555079E-02 
379	 4.69300417672338E-02 
380	 4.56371105948803E-02 
381	 4.15962885831408E-02 
382	 4.05086657950192E-02 
383	 0.044550636657753 
384	 0.045987411902605 
385	 0.045190336647287 
386	 4.38942704307983E-02 
387	 4.37479409525297E-02 
388	 4.53247359509821E-02 
389	 4.68219598428168E-02 
390	 4.64495935709101E-02 
391	 0.0463629639919 
392	 4.75237115702226E-02 
393	 0.04910109051902 
394	 0.049008910334266 
395	 4.90679364995224E-02 
396	 5.02945085706091E-02 
397	 5.22393386964904E-02 
398	 5.16484432100462E-02 
399	 5.07949380590519E-02 
400	 5.11913307830694E-02 
401	 5.33463887943722E-02 
402	 5.42526750958562E-02 
403	 5.43670099819049E-02 
404	 5.42807267452618E-02 
405	 5.44476816894015E-02 
406	 5.49493914382212E-02 
407	 5.57807766769396E-02 
408	 5.65038129217666E-02 
409	 5.56087124363448E-02 
410	 5.44107413917693E-02 
411	 0.053902250920631 
412	 5.46404908015098E-02 
413	 5.56123936507085E-02 
414	 5.62066843880456E-02 
415	 5.62842298301199E-02 
416	 5.62119553422994E-02 
417	 5.59781932904347E-02 
418	 5.58413110494159E-02 
419	 5.60481198530225E-02 
420	 5.67457627365022E-02 
421	 5.69906878694049E-02 
422	 5.68519848303696E-02 
423	 5.69976856672961E-02 
424	 5.68810044654214E-02 
425	 0.056655541412021 
426	 5.64737421348592E-02 
427	 5.63380397689063E-02 
428	 5.60591913233777E-02 
429	 5.60022492953254E-02 
430	 5.64447815276179E-02 
431	 5.63971607409113E-02 
432	 5.59009814133238E-02 
433	 5.55273318594346E-02 
434	 5.61997260965263E-02 
435	 5.61607648115431E-02 
436	 5.58332157824791E-02 
437	 0.055785758976213 
438	 5.57506826114756E-02 
439	 5.60885996447478E-02 
440	 5.65154562527416E-02 
441	 5.65461706712041E-02 
442	 5.69567488518198E-02 
443	 0.057132359941502 
444	 5.68836714259082E-02 
445	 5.68249399813318E-02 
446	 5.72081169020155E-02 
447	 5.74226855109335E-02 
448	 5.69672583741794E-02 
449	 5.68708764707528E-02 
450	 5.73700159302014E-02 
451	 5.79578368110473E-02 
452	 0.057623719591841 
453	 0.057486317043586 
454	 5.75967153967298E-02 
455	 5.77899055479282E-02 
456	 5.78833759089807E-02 
457	 5.78569858334957E-02 
458	 5.77714630636877E-02 
459	 5.77365547967545E-02 
460	 5.78632874809002E-02 
461	 5.78736870792755E-02 
462	 5.77849537906494E-02 
463	 5.80747647619543E-02 
464	 5.82121679074713E-02 
465	 5.82399569528574E-02 
466	 5.82966359914712E-02 
467	 5.82201058106178E-02 
468	 0.058106286415831 
469	 5.80174102569781E-02 
470	 5.79816766690359E-02 
471	 5.80592921675665E-02 
472	 5.79538558293564E-02 
473	 5.76440539903898E-02 
474	 5.79278882408591E-02 
475	 5.79805492700084E-02 
476	 5.78251097025185E-02 
477	 5.78309163910832E-02 
478	 5.79537097462645E-02 
479	 5.80242429122602E-02 
480	 5.79992568360013E-02 
481	 0.058025376835247 
482	 5.79794510728114E-02 
483	 5.80106667370671E-02 
484	 5.82105609652567E-02 
485	 5.81555623276524E-02 
486	 5.80159421921062E-02 
487	 5.79524017245495E-02 
488	 5.80849232264173E-02 
489	 5.82345936067343E-02 
490	 0.058283993086425 
491	 5.82167594580663E-02 
492	 5.82199679072134E-02 
493	 5.81851666997793E-02 
494	 5.81841158238085E-02 
495	 5.83299412290744E-02 
496	 0.058421971260072 
497	 5.82970945199903E-02 
498	 5.80517887148082E-02 
499	 5.81535451225512E-02 
500	 5.81745614930581E-02 
501	 5.81587449015305E-02 
502	 5.82335380731899E-02 
503	 5.82730803164613E-02 
504	 5.82191759575592E-02 
505	 5.81966649102095E-02 
506	 5.84618632294314E-02 
507	 5.84544800014611E-02 
508	 5.83704251858385E-02 
509	 5.84129771111831E-02 
510	 5.83916209929456E-02 
511	 5.83666337519791E-02 
512	 5.83303796197941E-02 
513	 5.82639004949605E-02 
514	 5.83766296620279E-02 
515	 0.058451578148304 
516	 5.84039936783132E-02 
517	 5.84579066234918E-02 
518	 5.84267247422765E-02 
519	 5.83650295321498E-02 
520	 5.83821410100123E-02 
521	 5.84385919449317E-02 
522	 5.85293467615912E-02 
523	 5.86132850038306E-02 
524	 5.86126424802882E-02 
525	 0.058453035306185 
526	 5.83353079061844E-02 
527	 5.83992546533733E-02 
528	 5.83923325177623E-02 
529	 5.84571096369496E-02 
530	 5.85535305926049E-02 
531	 0.058542430564262 
532	 5.86359872925098E-02 
533	 0.058693633745377 
534	 5.86628438099004E-02 
535	 5.87961716597434E-02 
536	 0.058788987853625 
537	 0.058733553074548 
538	 5.88319478705688E-02 
539	 5.88900023151524E-02 
540	 5.89013482136332E-02 
541	 5.89101103876398E-02 
542	 0.059007733627256 
543	 0.059031211188132 
544	 5.90471712092208E-02 
545	 5.91412374193664E-02 
546	 5.92123538867731E-02 
547	 5.92479055681035E-02 
548	 5.92829241110023E-02 
549	 0.059382316690974 
550	 5.94012751379236E-02 
551	 5.94556486614537E-02 
552	 5.96070851752363E-02 
553	 5.96508305702557E-02 
554	 5.96865792194934E-02 
555	 5.97846883619124E-02 
556	 5.99772100317085E-02 
557	 6.00819549418538E-02 
558	 6.01641786620724E-02 
559	 6.02826386344497E-02 
560	 6.04352802499587E-02 
561	 6.05773364562121E-02 
562	 6.07196019344481E-02 
563	 0.060900305997961 
564	 0.061193582160704 
565	 6.14326412570836E-02 
566	 6.16104173359324E-02 
567	 6.19094597739849E-02 
568	 6.22335738921746E-02 
569	 6.25499271067891E-02 
570	 6.28406257878537E-02 
571	 6.30798642916994E-02 
572	 6.33871318165213E-02 
573	 6.37603346142216E-02 
574	 6.41135411942104E-02 
575	 6.44957722200755E-02 
576	 0.064926896880764 
577	 6.53843734508093E-02 
578	 0.065746544686508 
579	 6.62059273094205E-02 
580	 6.67215847939659E-02 
581	 6.71846631173697E-02 
582	 6.77868364230642E-02 
583	 6.83592811605324E-02 
584	 6.88637079864024E-02 
585	 6.94941848498384E-02 
586	 7.00634615021068E-02 
587	 7.06405840618288E-02 
588	 7.13196165535119E-02 
589	 7.19709753910577E-02 
590	 7.26242713239273E-02 
591	 7.32819262068599E-02 
592	 7.39208139468198E-02 
593	 7.45567386143439E-02 
594	 7.51858209567473E-02 
595	 7.58182495933539E-02 
596	 7.65237410208526E-02 
597	 7.71835077310165E-02 
598	 0.077793324876356 
599	 7.84142106805937E-02 
600	 7.90578114733188E-02 
601	 7.96671520818104E-02 
602	 8.02233990886464E-02 
603	 8.07942149022248E-02 
604	 8.13377275701508E-02 
605	 8.18710116087909E-02 
606	 8.24187616355133E-02 
607	 8.29305242445504E-02 
608	 8.34446938710086E-02 
609	 8.39594026220535E-02 
610	 8.44233085101923E-02 
611	 8.48685893623186E-02 
612	 8.52780472335601E-02 
613	 0.085645066516444 
614	 8.60481192383283E-02 
615	 0.086379781930614 
616	 8.66459196709139E-02 
617	 0.086930780778307 
618	 8.72517188022848E-02 
619	 8.75402453115097E-02 
620	 8.77720953853311E-02 
621	 8.80508139416385E-02 
622	 8.82813925455144E-02 
623	 8.84817244510221E-02 
624	 8.87061610273683E-02 
625	 8.89251799576756E-02 
626	 0.089126016229298 
627	 8.93230442495535E-02 
628	 0.089565102783641 
629	 8.97229477034658E-02 
630	 8.98856420557876E-02 
631	 0.090135479920409 
632	 9.02779551282315E-02 
633	 9.04265139771386E-02 
634	 9.06037824029245E-02 
635	 0.090757013418229 
636	 9.09419155886754E-02 
637	 9.11404794438327E-02 
638	 9.13159860815669E-02 
639	 9.14085937034797E-02 
640	 9.15399292524886E-02 
641	 9.17146776123288E-02 
642	 9.18898848216695E-02 
643	 9.21307110374727E-02 
644	 9.23442692929914E-02 
645	 9.25066881176279E-02 
646	 9.27151194800056E-02 
647	 9.28643104507998E-02 
648	 9.30064465939901E-02 
649	 9.32150143509955E-02 
650	 9.34563699740457E-02 
651	 9.36587186620837E-02 
652	 0.093838508955138 
653	 9.40861277186782E-02 
654	 9.43759861965188E-02 
655	 9.46052895953035E-02 
656	 9.47460005040485E-02 
657	 9.49851916357258E-02 
658	 9.52522418260846E-02 
659	 9.55099373684166E-02 
660	 9.57423850897877E-02 
661	 9.59957861000167E-02 
662	 9.63021286169477E-02 
663	 9.66410197850992E-02 
664	 9.69212216476714E-02 
665	 9.71657430280328E-02 
666	 9.74094265987882E-02 
667	 9.76881051265844E-02 
668	 9.80173917303842E-02 
669	 0.098358800089253 
670	 9.86882232937545E-02 
671	 9.89964966775626E-02 
672	 9.92822959053072E-02 
673	 9.96256723533635E-02 
674	 0.100049240117987 
675	 0.100412613219137 
676	 0.10076696151409 
677	 0.101128734839772 
678	 0.101500446473215 
679	 0.101867819919225 
680	 0.102262991305357 
681	 0.102678341457227 
682	 0.103050340496264 
683	 0.103456834630356 
684	 0.10388461814225 
685	 0.104309304685951 
686	 0.104758091779503 
687	 0.105233763374594 
688	 0.105704598795076 
689	 0.106123679491157 
690	 0.106572848074422 
691	 0.107049584204721 
692	 0.107533599006601 
693	 0.107994685670062 
694	 0.108479209336998 
695	 0.108968033004019 
696	 0.109432314887987 
697	 0.109923797417127 
698	 0.11044693651822 
699	 0.110985675357505 
700	 0.111505438165596 
701	 0.111976830551883 
702	 0.112474421150678 
703	 0.113030872191041 
704	 0.113493718223489 
705	 0.11398388465909 
706	 0.114503934327546 
707	 0.115001987884656 
708	 0.115530723412343 
709	 0.11608607370674 
710	 0.116634059883769 
711	 0.117107631661354 
712	 0.117591798881393 
713	 0.118092989534193 
714	 0.118598138580232 
715	 0.119112655080475 
716	 0.119606052337974 
717	 0.120077364329289 
718	 0.1205491203973 
719	 0.121041410619186 
720	 0.12149716870985 
721	 0.121899799986561 
722	 0.122331274919303 
723	 0.122787270078664 
724	 0.123221864260538 
725	 0.12359213437605 
726	 0.123955650199635 
727	 0.124316484592113 
728	 0.124658605567081 
729	 0.124955510554532 
730	 0.125308630464959 
731	 0.125651292005403 
732	 0.125932905333789 
733	 0.12621865715926 
734	 0.126471593715883 
735	 0.126686177395055 
736	 0.126872818275362 
737	 0.127056111891604 
738	 0.127220676600478 
739	 0.127378709206113 
740	 0.127571384167058 
741	 0.127670160326735 
742	 0.12770173728261 
743	 0.127735466559126 
744	 0.127868385057691 
745	 0.127912016631111 
746	 0.127904261554525 
747	 0.127960930269707 
748	 0.127901606225961 
749	 0.127814339450209 
750	 0.127758380550916 
751	 0.127727374404937 
752	 0.127650629373633 
753	 0.127534577391936 
754	 0.127404869966489 
755	 0.127283774150547 
756	 0.127135972437968 
757	 0.126953010071108 
758	 0.126749069730985 
759	 0.126585236287715 
760	 0.126398180582706 
761	 0.126162122081741 
762	 0.125913434522165 
763	 0.12566708913788 
764	 0.125424284225403 
765	 0.125175376418729 
766	 0.124884619827623 
767	 0.124655293239753 
768	 0.124435249309817 
769	 0.124117811475766 
770	 0.123825149851594 
771	 0.123563013281 
772	 0.12329000402057 
773	 0.122926726889328 
774	 0.122613596007793 
775	 0.122306257561119 
776	 0.121963592079614 
777	 0.121679377822884 
778	 0.121343399771739 
779	 0.120987154672972 
780	 0.120689144123685 
781	 0.120376515499804 
782	 0.120047539475764 
783	 0.119702941706705 
784	 0.11934431770495 
785	 0.1190296185255 
786	 0.118742291764719 
787	 0.118448005782375 
788	 0.118101330892058 
789	 0.11782121622895 
790	 0.11753070948086 
791	 0.117132006908138 
792	 0.116835916241698 
793	 0.116527295033781 
794	 0.116196461341316 
795	 0.115927390840322 
796	 0.115593178702871 
797	 0.115252709673139 
798	 0.11495641780321 
799	 0.114685577750031 
800	 0.114431529854807 
801	 0.114157710729871 
802	 0.113847581521203 
803	 0.113587802064055 
804	 0.11332950414389 
805	 0.113062244434479 
806	 0.11279907925219 
807	 0.112510902667728 
808	 0.11224843341213 
809	 0.112019166291181 
810	 0.111764335810581 
811	 0.111497390236247 
812	 0.111243397129279 
813	 0.111022487085074 
814	 0.110839067834728 
815	 0.110626350479819 
816	 0.110384374622021 
817	 0.110148936988501 
818	 0.109965422940992 
819	 0.109778846885103 
820	 0.109568291012648 
821	 0.109352105288065 
822	 0.109179848583273 
823	 0.108987106481731 
824	 0.108772494732425 
825	 0.10866502917445 
826	 0.108513360689077 
827	 0.10833120980724 
828	 0.108166852211762 
829	 0.108025304901037 
830	 0.107858731193556 
831	 0.107687902554343 
832	 0.107556219911013 
833	 0.107417672796941 
834	 0.107288362057223 
835	 0.107170612838688 
836	 0.107054118787469 
837	 0.106998010984903 
838	 0.106947605892503 
839	 0.106855421988542 
840	 0.106719123431099 
841	 0.106585191328573 
842	 0.106488606306445 
843	 0.106437574520485 
844	 0.10637851136035 
845	 0.106327749936685 
846	 0.106265787600254 
847	 0.106178059915024 
848	 0.106169736931609 
849	 0.106131252737559 
850	 0.106061494888647 
851	 0.106049741856091 
852	 0.105983597796103 
853	 0.10593761883746 
854	 0.105948102137359 
855	 0.105958571133627 
856	 0.105948313162381 
857	 0.105948349827181 
858	 0.105973898376173 
859	 0.105962775664781 
860	 0.105965702969185 
861	 0.105977315275055 
862	 0.105977705573829 
863	 0.105968649868275 
864	 0.106027329497771 
865	 0.106106952568404 
866	 0.106109763550739 
867	 0.106170701262317 
868	 0.106250836743096 
869	 0.106305431863631 
870	 0.106312644592208 
871	 0.106412033727115 
872	 0.106526102371568 
873	 0.106601139210534 
874	 0.106682415002053 
875	 0.106801225840133 
876	 0.106874381768849 
877	 0.106877212962764 
878	 0.107011798084571 
879	 0.107172048745242 
880	 0.107294504980106 
881	 0.107365863387419 
882	 0.107512208687354 
883	 0.107670132062941 
884	 0.107817223687292 
885	 0.107965201381642 
886	 0.108172544934311 
887	 0.108331915688521 
888	 0.108441135901183 
889	 0.108592912675442 
890	 0.10877484235046 
891	 0.108956337286341 
892	 0.109144782351846 
893	 0.109390252081187 
894	 0.10953750530779 
895	 0.109702287265394 
896	 0.109939515249457 
897	 0.11009923096466 
898	 0.110327279813656 
899	 0.110587873370054 
900	 0.110819298937289 
901	 0.111017830276282 
902	 0.111279389461426 
903	 0.111529162544076 
904	 0.11170208285607 
905	 0.11200598256693 
906	 0.112306799613529 
907	 0.112590006655612 
908	 0.112896982959855 
909	 0.113230593653779 
910	 0.113489825037222 
911	 0.11370640072179 
912	 0.113992572664949 
913	 0.114337202579571 
914	 0.114664960552506 
915	 0.114961424113953 
916	 0.115277102480114 
917	 0.115661934817085 
918	 0.116063228730287 
919	 0.116416923158812 
920	 0.116681289551281 
921	 0.117060189864887 
922	 0.1174281978444 
923	 0.117743529868856 
924	 0.118164561713156 
925	 0.1186199975198 
926	 0.119073394857951 
927	 0.119498272273274 
928	 0.119876658379549 
929	 0.120271378198404 
930	 0.12072253214981 
931	 0.121218083795576 
932	 0.121655613054098 
933	 0.122058980276517 
934	 0.122484167248572 
935	 0.122959679382361 
936	 0.123406455790391 
937	 0.123839370497383 
938	 0.124279103462232 
939	 0.124756919017996 
940	 0.125325287396245 
941	 0.125902148112454 
942	 0.126456061390474 
943	 0.126981349033924 
944	 0.127473160047743 
945	 0.127932587167703 
946	 0.128443969310737 
947	 0.129054469169305 
948	 0.129486478367634 
949	 0.130062377607277 
950	 0.13073654339986 
951	 0.131299162660318 
952	 0.131804728048252 
953	 0.132368467635992 
954	 0.133013742615433 
955	 0.133686585230978 
956	 0.13428069256678 
957	 0.134845807485306 
958	 0.135423415546912 
959	 0.136042208911509 
960	 0.136741629422382 
961	 0.137344975826824 
962	 0.137913998659653 
963	 0.138600805684141 
964	 0.139049208025261 
965	 0.139762410576203 
966	 0.140616214801773 
967	 0.141150804999803 
968	 0.141831873302737 
969	 0.14251849172079 
970	 0.1432027657426 
971	 0.143953791811673 
972	 0.144588612766002 
973	 0.145265650725314 
974	 0.145944643716441 
975	 0.146502444680553 
976	 0.147250162529879 
977	 0.148015319467891 
978	 0.148711770463437 
979	 0.149344339949408 
980	 0.149906652099535 
981	 0.150708718180338 
982	 0.151527128862068 
983	 0.15198015900312 
984	 0.152749946598687 
985	 0.153451085864155 
986	 0.15407824274581 
987	 0.154829841271743 
988	 0.155605715927423 
989	 0.156190005209672 
990	 0.156717768504094 
991	 0.157441478687189 
992	 0.158231494137905 
993	 0.15895381258711 
994	 0.159591237355928 
995	 0.160202348711891 
996	 0.160865035101833 
997	 0.161588667481839 
998	 0.162287033599523 
999	 0.162918332198862 
1000	 0.163718687832461 
1001	 0.164614542849135 
1002	 0.165234204553425 
1003	 0.165853688056763 
1004	 0.166466396338837 
1005	 0.167112370935914 
1006	 0.167710283027603 
1007	 0.168288793411249 
1008	 0.16884586402729 
1009	 0.169340664110292 
1010	 0.169835799058911 
1011	 0.170368737203785 
1012	 0.170965394852699 
1013	 0.171568225069383 
1014	 0.172098820099944 
1015	 0.172609361191493 
1016	 0.173071644639196 
1017	 0.173558610543932 
1018	 0.174024204083621 
1019	 0.174594574607529 
1020	 0.175155320605438 
1021	 0.17561337622419 
1022	 0.176057289669924 
1023	 0.176484198269577 
1024	 0.176843788022169 
1025	 0.177241533722277 
1026	 0.177670819123452 
1027	 0.178052082105489 
1028	 0.178438117188529 
1029	 0.178874151484802 
1030	 0.17929932142399 
1031	 0.179681103717392 
1032	 0.18003668483688 
1033	 0.180407242844951 
1034	 0.180791281356925 
1035	 0.181164834413846 
1036	 0.181590381358165 
1037	 0.182035183229888 
1038	 0.182394301352488 
1039	 0.182711067629445 
1040	 0.183038549534468 
1041	 0.183360744017644 
1042	 0.183702816726721 
1043	 0.184045709744561 
1044	 0.184394543425464 
1045	 0.184762088561067 
1046	 0.185113389738619 
1047	 0.185425331611347 
1048	 0.185779203824988 
1049	 0.186133870549538 
1050	 0.186447698912533 
1051	 0.186783726235726 
1052	 0.187118984594415 
1053	 0.187409129523705 
1054	 0.187713933998856 
1055	 0.188083056095882 
1056	 0.188422388323731 
1057	 0.188746807122907 
1058	 0.189072434286654 
1059	 0.189429722017836 
1060	 0.189773737088968 
1061	 0.190117834506952 
1062	 0.190517817327813 
1063	 0.190863478579725 
1064	 0.191167029297708 
1065	 0.191511474896332 
1066	 0.191825056322603 
1067	 0.192132318319544 
1068	 0.192474251128892 
1069	 0.192767215598568 
1070	 0.193080449391205 
1071	 0.193427963463378 
1072	 0.193748919223266 
1073	 0.194046559115049 
1074	 0.194360508583948 
1075	 0.194690689954516 
1076	 0.194967851325155 
1077	 0.19523510459927 
1078	 0.195514763611436 
1079	 0.195799818148576 
1080	 0.196085228996094 
1081	 0.19635906995808 
1082	 0.196643652135157 
1083	 0.196936789441368 
1084	 0.197224364210369 
1085	 0.197490706168389 
1086	 0.197791914642139 
1087	 0.198038898007748 
1088	 0.198227587353514 
1089	 0.198424308603492 
1090	 0.198650157515549 
1091	 0.198867522098585 
1092	 0.199104629752914 
1093	 0.199357044732367 
1094	 0.199606840137451 
1095	 0.199852619664051 
1096	 0.20010309170548 
1097	 0.200343306630005 
1098	 0.200576745294543 
1099	 0.200820540070686 
1100	 0.201032841661629 
1101	 0.2011991195764 
1102	 0.201406458296092 
1103	 0.201618694865198 
1104	 0.201827519484478 
1105	 0.202060081549836 
1106	 0.202318861181165 
1107	 0.20252837520065 
1108	 0.202715298552508 
1109	 0.202936166746709 
1110	 0.203122835023084 
1111	 0.203305589924593 
1112	 0.203495063324955 
1113	 0.203671080010357 
1114	 0.203811604613232 
1115	 0.203988474630194 
1116	 0.204181868644439 
1117	 0.204371279296183 
1118	 0.204586762663869 
1119	 0.204759139334929 
1120	 0.204932329468867 
1121	 0.205106052356183 
1122	 0.20525273958684 
1123	 0.205442893303405 
1124	 0.205628018397078 
1125	 0.205824999177285 
1126	 0.206011512820367 
1127	 0.20620763762702 
1128	 0.206376006130034 
1129	 0.206525620939366 
1130	 0.206679503442424 
1131	 0.206818661269294 
1132	 0.206970128428407 
1133	 0.207132903508718 
1134	 0.20728736496782 
1135	 0.207439551690988 
1136	 0.207589742332009 
1137	 0.207742779104519 
1138	 0.20789096207769 
1139	 0.208024443506957 
1140	 0.208150685983202 
1141	 0.208277232592321 
1142	 0.208392914145479 
1143	 0.208505093526393 
1144	 0.208626569452817 
1145	 0.208725408041661 
1146	 0.208784086383881 
1147	 0.20888215257694 
1148	 0.208989510129861 
1149	 0.209102686754223 
1150	 0.209244758372027 
1151	 0.209381077735126 
1152	 0.209496098136897 
1153	 0.209580142967734 
1154	 0.209681590694913 
1155	 0.209768191202926 
1156	 0.209877623855882 
1157	 0.210004013504087 
1158	 0.210122567172083 
1159	 0.210254847099313 
1160	 0.21036766372756 
1161	 0.210469969535734 
1162	 0.21057188642199 
1163	 0.210646627888204 
1164	 0.210749420634437 
1165	 0.210864565286774 
1166	 0.21099141599513 
1167	 0.211104889226779 
1168	 0.211234376454955 
1169	 0.21134977824642 
1170	 0.211449433587593 
1171	 0.211556310895853 
1172	 0.211675419358732 
1173	 0.211776628179564 
1174	 0.211863008256024 
1175	 0.21195594443085 
1176	 0.212038315329275 
1177	 0.212131963899224 
1178	 0.212237448650115 
1179	 0.212337162590925 
1180	 0.21244356665537 
1181	 0.212541454275552 
1182	 0.212634710835832 
1183	 0.212721999527186 
1184	 0.212805195256732 
1185	 0.212883944572681 
1186	 0.212960332008355 
1187	 0.213019178594724 
1188	 0.213106797224329 
1189	 0.21320561964428 
1190	 0.213303636720221 
1191	 0.213436843391484 
1192	 0.213527901400089 
1193	 0.213584925027553 
1194	 0.213662392708977 
1195	 0.213725888432591 
1196	 0.213801002620693 
1197	 0.213901632095738 
1198	 0.213989105098591 
1199	 0.214072213453523 
1200	 0.214151797019742 
1201	 0.214223703479339 
1202	 0.21429179710171 
1203	 0.214351520210015 
1204	 0.214387684597625 
1205	 0.214457295739327 
1206	 0.214539601522471 
1207	 0.214614725150073 
1208	 0.214719506119066 
1209	 0.214791666953945 
1210	 0.214823130310412 
1211	 0.214886674436344 
1212	 0.214954961998098 
1213	 0.215025655169778 
1214	 0.215130881518082 
1215	 0.215208604846632 
1216	 0.215274077883034 
1217	 0.21531950651456 
1218	 0.21538277848795 
1219	 0.215439735543886 
1220	 0.215499485024673 
1221	 0.21557165146062 
1222	 0.215632914620373 
1223	 0.215687015220473 
1224	 0.215737965255006 
1225	 0.215784126697621 
1226	 0.215834662649027 
1227	 0.215877377842684 
1228	 0.215927292893 
1229	 0.21598594507446 
1230	 0.216044012890953 
1231	 0.216106182011494 
1232	 0.216164054766884 
1233	 0.216220810995384 
1234	 0.216279294617379 
1235	 0.216332186449476 
1236	 0.21637838312227 
1237	 0.216430899064675 
1238	 0.216483597851339 
1239	 0.216537760898755 
1240	 0.216603877951776 
1241	 0.216648489127286 
1242	 0.216678859753503 
1243	 0.216718096452526 
1244	 0.216746524199893 
1245	 0.216781732765034 
1246	 0.216823287628393 
1247	 0.216867250352675 
1248	 0.216907826448861 
1249	 0.216960067422209 
1250	 0.217008208858268 
1251	 0.217059048897777 
1252	 0.217095365817519 
1253	 0.217116923743063 
1254	 0.217149256693925 
1255	 0.217185306733833 
1256	 0.217207457956702 
1257	 0.217231883987402 
1258	 0.217243113180939 
1259	 0.217220643643588 
1260	 0.217231555177835 
1261	 0.217253538749016 
1262	 0.21727590226286 
1263	 0.217323908668146 
1264	 0.217354415031799 
1265	 0.217373337481328 
1266	 0.217395602796284 
1267	 0.21742868730333 
1268	 0.217435896258431 
1269	 0.217436420634738 
1270	 0.217416036862066 
1271	 0.217433589457245 
1272	 0.217445656609357 
1273	 0.217484350454301 
1274	 0.217573555919095 
1275	 0.217625071703383 
1276	 0.217662933047113 
1277	 0.217708982443859 
1278	 0.217745357339265 
1279	 0.21779452775367 
1280	 0.217847113184594 
1281	 0.217911860046292 
1282	 0.217989378374897 
1283	 0.218067879146811 
1284	 0.218165106310445 
1285	 0.218249354948769 
1286	 0.218329927324569 
1287	 0.21839389963987 
1288	 0.218463492567291 
1289	 0.218524582699705 
1290	 0.218595479911019 
1291	 0.218673271740053 
1292	 0.218743715907788 
1293	 0.218813226739865 
1294	 0.218880625721484 
1295	 0.218945945570622 
1296	 0.219007317337082 
1297	 0.219061646178309 
1298	 0.219123316961599 
1299	 0.219187951642926 
1300	 0.219247971324383 
1301	 0.219321517167927 
1302	 0.219374864110046 
1303	 0.219425617305434 
1304	 0.219446125049189 
1305	 0.219456812622413 
1306	 0.219469104566512 
1307	 0.219457257809583 
1308	 0.219454782611533 
1309	 0.219440825990889 
1310	 0.219414766548956 
1311	 0.219393664768396 
1312	 0.219368549166873 
1313	 0.219346927822875 
1314	 0.219326901787206 
1315	 0.219307153331374 
1316	 0.219295527310883 
1317	 0.219270720600965 
1318	 0.219239038054788 
1319	 0.21920819502825 
1320	 0.219176130182009 
1321	 0.219133674539518 
1322	 0.219088879407929 
1323	 0.219035389270707 
1324	 0.218981156014587 
1325	 0.218916764467502 
1326	 0.218854972687845 
1327	 0.218813585436483 
1328	 0.218763145302074 
1329	 0.21868740704865 
1330	 0.218614987628982 
1331	 0.218533745750541 
1332	 0.2184536473784 
1333	 0.218379734229061 
1334	 0.218287428456835 
1335	 0.218168453419355 
1336	 0.218083709754599 
1337	 0.217992571205244 
1338	 0.217923960678178 
1339	 0.217902454398485 
1340	 0.21784860521919 
1341	 0.217796048415708 
1342	 0.217727729234981 
1343	 0.217631706548052 
1344	 0.217548544328311 
1345	 0.217491833395606 
1346	 0.217415441678971 
1347	 0.217350179845473 
1348	 0.2172855985584 
1349	 0.217197605914165 
1350	 0.217128415145938 
1351	 0.217054514184397 
1352	 0.216989800029909 
1353	 0.216917148390497 
1354	 0.216837678987063 
1355	 0.21675719236494 
1356	 0.216672452252102 
1357	 0.21659312002859 
1358	 0.216511211399002 
1359	 0.216438090971559 
1360	 0.216370679351579 
1361	 0.216307319828329 
1362	 0.21626221658003 
1363	 0.216193981551734 
1364	 0.21611035314443 
1365	 0.216039033824297 
1366	 0.21596145872532 
1367	 0.215883588789912 
1368	 0.215825919335855 
1369	 0.215765512571022 
1370	 0.215686030516556 
1371	 0.215599164070517 
1372	 0.215483671152346 
1373	 0.215344402931669 
1374	 0.215197800433311 
1375	 0.215032148229756 
1376	 0.214851727168225 
1377	 0.214673814885625 
1378	 0.214449780391584 
1379	 0.214185733680613 
1380	 0.213925442771852 
1381	 0.213634160392879 
1382	 0.213346710095128 
1383	 0.213075979745368 
1384	 0.212760614294061 
1385	 0.212432906240513 
1386	 0.212075988537602 
1387	 0.211694299762907 
1388	 0.211281730604148 
1389	 0.210844249996108 
1390	 0.210371555060154 
1391	 0.209879452274534 
1392	 0.209356377072562 
1393	 0.208808344081179 
1394	 0.208233715105392 
1395	 0.207608427667195 
1396	 0.206975239760857 
1397	 0.206355110014009 
1398	 0.205727410019486 
1399	 0.205091817264821 
1400	 0.204464946742785 
1401	 0.203825167519761 
1402	 0.203160718601124 
1403	 0.202520291636936 
1404	 0.201874854962081 
1405	 0.201257190853077 
1406	 0.200647169135534 
1407	 0.200060080357614 
1408	 0.199491983634879 
1409	 0.198951262061533 
1410	 0.198424295829546 
1411	 0.197934774683168 
1412	 0.197471122506244 
1413	 0.197038413029392 
1414	 0.196668419922615 
1415	 0.196326011121466 
1416	 0.195999610778131 
1417	 0.19570295374654 
1418	 0.19539542834019 
1419	 0.1950966027967 
1420	 0.19483829248273 
1421	 0.194605145024888 
1422	 0.194397062673033 
1423	 0.194185930115648 
1424	 0.193968956033275 
1425	 0.193742966702539 
1426	 0.193542871606191 
1427	 0.193337285024101 
1428	 0.193169334757631 
1429	 0.193033980314096 
1430	 0.192900960464505 
1431	 0.192790035678789 
1432	 0.192677194848571 
1433	 0.192567088939772 
1434	 0.192471304498854 
1435	 0.192375957150838 
1436	 0.192303401100991 
1437	 0.192259818812673 
1438	 0.192210190781015 
1439	 0.19217400583578 
1440	 0.192136143452184 
1441	 0.192083411491099 
1442	 0.192034462942407 
1443	 0.19198563349631 
1444	 0.191953597286355 
1445	 0.191963447987682 
1446	 0.191965361565496 
1447	 0.191969998604162 
1448	 0.191976077585425 
1449	 0.19194455576553 
1450	 0.191922685470791 
1451	 0.19191581721374 
1452	 0.191909924888027 
1453	 0.191916241499805 
1454	 0.191946443649406 
1455	 0.191963049717796 
1456	 0.191979386955781 
1457	 0.191999511057108 
1458	 0.192016662472723 
1459	 0.19203922236384 
1460	 0.192050678145766 
1461	 0.192095374097822 
1462	 0.192163009085959 
1463	 0.192227963119479 
1464	 0.192322934386516 
1465	 0.19240221843964 
1466	 0.192455487788701 
1467	 0.192536275190743 
1468	 0.192612015350881 
1469	 0.192722322580894 
1470	 0.192860478043077 
1471	 0.193018724068983 
1472	 0.193194809718871 
1473	 0.193386879126963 
1474	 0.193555307472548 
1475	 0.193740513571647 
1476	 0.193917393398191 
1477	 0.194066943135545 
1478	 0.194249065015896 
1479	 0.19443256893562 
1480	 0.194612969265523 
1481	 0.194813680965519 
1482	 0.195013288330224 
1483	 0.195218812626938 
1484	 0.195408197220923 
1485	 0.195600533559571 
1486	 0.195787859793714 
1487	 0.195952069022659 
1488	 0.196141107087874 
1489	 0.196349971163338 
1490	 0.196538827389582 
1491	 0.19672744678148 
1492	 0.196912592086448 
1493	 0.197080291122621 
1494	 0.197268489157576 
1495	 0.197473155434171 
1496	 0.197660569236173 
1497	 0.197846857741204 
1498	 0.198033471740768 
1499	 0.198220938164268 
1500	 0.19839399697165 
1501	 0.198562991880421 
1502	 0.198725297168195 
1503	 0.198870570379142 
1504	 0.199009930251538 
1505	 0.199169814284621 
1506	 0.199331330414627 
1507	 0.199499451720483 
1508	 0.199676661127756 
1509	 0.199843429774875 
1510	 0.200009809233032 
1511	 0.200149811113355 
1512	 0.20027217955843 
1513	 0.200406683744819 
1514	 0.200551215844625 
1515	 0.200701144466514 
1516	 0.200863413470525 
1517	 0.201018758434845 
1518	 0.201167586605658 
1519	 0.201317051804801 
1520	 0.201473520364231 
1521	 0.201612521808659 
1522	 0.201738109745501 
1523	 0.201872465054194 
1524	 0.202005752533007 
1525	 0.202137323712167 
1526	 0.202275668512652 
1527	 0.20239964509228 
1528	 0.202507561202261 
1529	 0.202625830887958 
1530	 0.202740757431767 
1531	 0.202861067225031 
1532	 0.202990784011395 
1533	 0.203111921060946 
1534	 0.203235225389883 
1535	 0.203348259454547 
1536	 0.203449201206063 
1537	 0.203557779233252 
1538	 0.203665046005525 
1539	 0.203770794474218 
1540	 0.203880074156946 
1541	 0.203985978555996 
1542	 0.204087057243363 
1543	 0.204187246201456 
1544	 0.204289630082921 
1545	 0.204386220487569 
1546	 0.204478518292666 
1547	 0.204567994088772 
1548	 0.204653957188489 
1549	 0.204739703474316 
1550	 0.204817714636592 
1551	 0.204893701916701 
1552	 0.204974518045013 
1553	 0.205062247488175 
1554	 0.20516084822879 
1555	 0.205255316094897 
1556	 0.205331427732464 
1557	 0.20539605099542 
1558	 0.205465821508768 
1559	 0.205535425520427 
1560	 0.205594795572512 
1561	 0.205657525098688 
1562	 0.205711492847743 
1563	 0.205741250582269 
1564	 0.205802902106357 
1565	 0.205884666506052 
1566	 0.205946944469592 
1567	 0.206011004837443 
1568	 0.206077111713592 
1569	 0.206130773687951 
1570	 0.206196272808657 
1571	 0.206279865825126 
1572	 0.20634566553655 
1573	 0.206403719836569 
1574	 0.206463394921201 
1575	 0.20652603745532 
1576	 0.206572996216352 
1577	 0.206609530583646 
1578	 0.206643886018784 
1579	 0.206658141022897 
1580	 0.206692942945902 
1581	 0.206728954171502 
1582	 0.206783795916132 
1583	 0.206867010843987 
1584	 0.206926533725895 
1585	 0.20698851904461 
1586	 0.207043869538093 
1587	 0.207089241253933 
1588	 0.207127028187091 
1589	 0.207159286973805 
1590	 0.207193154763596 
1591	 0.207214238055284 
1592	 0.207239092449585 
1593	 0.207269502965875 
1594	 0.207298000114139 
1595	 0.207322960795787 
1596	 0.207348279574857 
1597	 0.207380745899768 
1598	 0.207403550553839 
1599	 0.207415063035336 
1600	 0.207434492299342 
1601	 0.207444858452589 
1602	 0.207470130930786 
1603	 0.20750620044569 
1604	 0.207545555409309 
1605	 0.207602889658952 
1606	 0.207648261293229 
1607	 0.207686575084239 
1608	 0.207733633189216 
1609	 0.20777582674697 
1610	 0.207820048951263 
1611	 0.207842758764296 
1612	 0.207862261755022 
1613	 0.207874757943023 
1614	 0.207875094829632 
1615	 0.2078815358997 
1616	 0.207885851500448 
1617	 0.207885963025753 
1618	 0.207887648980798 
1619	 0.207920507065244 
1620	 0.207948598617708 
1621	 0.207963708762508 
1622	 0.207976280715418 
1623	 0.207995102400478 
1624	 0.208009464326677 
1625	 0.208012736906514 
1626	 0.20801676048433 
1627	 0.208024489594022 
1628	 0.208011796595866 
1629	 0.208024889643949 
1630	 0.208061753290383 
1631	 0.208090640456923 
1632	 0.208124700794493 
1633	 0.208144139031717 
1634	 0.20816159757059 
1635	 0.208178473998284 
1636	 0.208187521000935 
1637	 0.208191911341751 
1638	 0.208196420138855 
1639	 0.208200448757121 
1640	 0.208193216555233 
1641	 0.208192068159268 
1642	 0.208192573559561 
1643	 0.208206523576716 
1644	 0.208227475215021 
1645	 0.20823860785436 
1646	 0.208263359767995 
1647	 0.208272044440194 
1648	 0.208252769922943 
1649	 0.20826570650273 
1650	 0.208295534967024 
1651	 0.208314529782345 
1652	 0.208349664395514 
1653	 0.208359140578689 
1654	 0.208352982308694 
1655	 0.208344323994409 
1656	 0.208325268714259 
1657	 0.208303479471259 
1658	 0.208274269946755 
1659	 0.208244629753181 
1660	 0.208203189893814 
1661	 0.208178021859618 
1662	 0.208156459515252 
1663	 0.208141214614696 
1664	 0.20814433691481 
1665	 0.208130000685423 
1666	 0.208108053822475 
1667	 0.2080921184366 
1668	 0.208072024959031 
1669	 0.208053752266462 
1670	 0.208036696339445 
1671	 0.208027628466178 
1672	 0.208023902836684 
1673	 0.208012874341062 
1674	 0.208004756687978 
1675	 0.207999358597132 
1676	 0.207987821636083 
1677	 0.207979232477844 
1678	 0.207987017223633 
1679	 0.207973439257421 
1680	 0.207946299931581 
1681	 0.207918479355289 
1682	 0.207875982997709 
1683	 0.207847126188913 
1684	 0.207820493269798 
1685	 0.20779608024512 
1686	 0.207780195853802 
1687	 0.207761814664196 
1688	 0.207736451473441 
1689	 0.207725611813587 
1690	 0.20772874324182 
1691	 0.207717918727683 
1692	 0.207717211636525 
1693	 0.207697164770597 
1694	 0.207653161631784 
1695	 0.20762444292225 
1696	 0.207590891802971 
1697	 0.207566996117018 
1698	 0.207554818389694 
1699	 0.207536491676021 
1700	 0.207523687358188 
1701	 0.207498543874676 
1702	 0.207466769776 
1703	 0.207436557166947 
1704	 0.207407327328532 
1705	 0.20735908013589 
1706	 0.207295279914501 
1707	 0.207244296065864 
1708	 0.207182541774452 
1709	 0.207132337684673 
1710	 0.207098119486509 
1711	 0.207057668873985 
1712	 0.207017430980959 
1713	 0.206967776075737 
1714	 0.206919039384201 
1715	 0.206865434850865 
1716	 0.2067991964659 
1717	 0.206737038647127 
1718	 0.206672967448962 
1719	 0.206618069167986 
1720	 0.2065652616509 
1721	 0.206513345207132 
1722	 0.206474489221088 
1723	 0.206418261500958 
1724	 0.206350973768049 
1725	 0.206290387677695 
1726	 0.20622662842455 
1727	 0.206162015499769 
1728	 0.206097323057285 
1729	 0.206032197962515 
1730	 0.205968715559184 
1731	 0.205901906587239 
1732	 0.205833235649288 
1733	 0.205764517715889 
1734	 0.205700869609565 
1735	 0.20560755733148 
1736	 0.205499209747855 
1737	 0.205403677490979 
1738	 0.20528299077746 
1739	 0.205194359411981 
1740	 0.205138911098215 
1741	 0.205056810775739 
1742	 0.204971480334002 
1743	 0.204884384411078 
1744	 0.204789765022344 
1745	 0.204691758083541 
1746	 0.204599316482841 
1747	 0.204462149769823 
1748	 0.204337873033914 
1749	 0.204246377555559 
1750	 0.204141478542485 
1751	 0.204055318708589 
1752	 0.2039797976026 
1753	 0.203864443832265 
1754	 0.203751812406035 
1755	 0.20368167651557 
1756	 0.203609286335314 
1757	 0.203509992686871 
1758	 0.20342582139884 
1759	 0.203324057841828 
1760	 0.203221447512147 
1761	 0.20317511111517 
1762	 0.203106324245985 
1763	 0.203018727472581 
1764	 0.202924300189264 
1765	 0.202789179924723 
1766	 0.20266316970409 
1767	 0.20255784255898 
1768	 0.202458258770294 
1769	 0.202375044826259 
1770	 0.202331178320897 
1771	 0.202275443606968 
1772	 0.202193003367598 
1773	 0.202134157579002 
1774	 0.202062868882998 
1775	 0.202015498961972 
1776	 0.201974015560512 
1777	 0.201881323288113 
1778	 0.201807713950035 
1779	 0.201727670052608 
1780	 0.201648607626528 
1781	 0.201615687749709 
1782	 0.201575887078484 
1783	 0.201525306691777 
1784	 0.201493855458182 
1785	 0.2014855926774 
1786	 0.201451590124712 
1787	 0.201416479056119 
1788	 0.201383653178742 
1789	 0.201334381416605 
1790	 0.201294766027859 
1791	 0.20127680190533 
1792	 0.201228989716945 
1793	 0.201144477911816 
1794	 0.201095361094291 
1795	 0.201037167864965 
1796	 0.201013995180078 
1797	 0.201052581498785 
1798	 0.201041775925159 
1799	 0.201024471928211 
1800	 0.200996923645233 
1801	 0.196106476839011 
1802	 0.196296200074742 
1803	 0.196542375063717 
1804	 0.196791358597375 
1805	 0.197021304264488 
1806	 0.197235905251201 
1807	 0.197423606353446 
1808	 0.197588829858814 
1809	 0.197733568110312 
1810	 0.197858812567058 
1811	 0.197960081342063 
1812	 0.19805635094261 
1813	 0.198120462914991 
1814	 0.198152320633985 
1815	 0.198195972395546 
1816	 0.198211137297648 
1817	 0.198229561473921 
1818	 0.198242973797458 
1819	 0.198265486102355 
1820	 0.198279199718788 
1821	 0.198309054429369 
1822	 0.198337250411775 
1823	 0.198347345151151 
1824	 0.198382699260784 
1825	 0.198398135427118 
1826	 0.198402360455877 
1827	 0.198426456174408 
1828	 0.198444092445002 
1829	 0.198465140342116 
1830	 0.198460443026928 
1831	 0.198448885512567 
1832	 0.198429561000914 
1833	 0.198407856395453 
1834	 0.198354841396102 
1835	 0.198304795564826 
1836	 0.198265860679366 
1837	 0.198224273061295 
1838	 0.198176901661194 
1839	 0.198129853936478 
1840	 0.198096506684912 
1841	 0.19806221330183 
1842	 0.197987753549731 
1843	 0.197937252941049 
1844	 0.197903303041235 
1845	 0.19783946308385 
1846	 0.197809946602366 
1847	 0.197758838920251 
1848	 0.19766454806726 
1849	 0.197571222217483 
1850	 0.197470375681597 
1851	 0.19734393220543 
1852	 0.197222013888047 
1853	 0.197123645204116 
1854	 0.197009079101085 
1855	 0.196884270083975 
1856	 0.19670586451376 
1857	 0.196475536578088 
1858	 0.196256476386714 
1859	 0.19600196517318 
1860	 0.195712836614237 
1861	 0.195400793186851 
1862	 0.195075170385531 
1863	 0.194695419319801 
1864	 0.19429437052092 
1865	 0.193877517853063 
1866	 0.193420464212916 
1867	 0.192941648064854 
1868	 0.192426740674624 
1869	 0.191868018079903 
1870	 0.191270491450113 
1871	 0.190623275083198 
1872	 0.189927911370446 
1873	 0.189193236467487 
1874	 0.188417362884682 
1875	 0.187594037008852 
1876	 0.186718901302528 
1877	 0.18576584834737 
1878	 0.184749113161904 
1879	 0.183668976568784 
1880	 0.182504421085545 
1881	 0.181252742877335 
1882	 0.179956377705763 
1883	 0.178595662237375 
1884	 0.177136206905177 
1885	 0.175654297137316 
1886	 0.174111092373712 
1887	 0.172446217725005 
1888	 0.170728198329892 
1889	 0.168953075282644 
1890	 0.167121707019004 
1891	 0.165304020215737 
1892	 0.163444140421653 
1893	 0.161620598333268 
1894	 0.159801331502382 
1895	 0.157990204018234 
1896	 0.156167240234284 
1897	 0.154405439600314 
1898	 0.152643648268188 
1899	 0.150911660070269 
1900	 0.149283871937432 
1901	 0.147699958269534 
1902	 0.146198293026519 
1903	 0.144783131433214 
1904	 0.143440943344017 
1905	 0.14215688311743 
1906	 0.140975150698707 
1907	 0.139885663099616 
1908	 0.138855199157086 
1909	 0.137901262019435 
1910	 0.136989794378497 
1911	 0.136139697001522 
1912	 0.135369819063163 
1913	 0.134643995464091 
1914	 0.133990703386288 
1915	 0.133366144823037 
1916	 0.132788588662764 
1917	 0.132241285375283 
1918	 0.131752540676321 
1919	 0.131312506204509 
1920	 0.130921138028019 
1921	 0.130558575860931 
1922	 0.130204843894815 
1923	 0.129902005762863 
1924	 0.129651777197781 
1925	 0.129459755445896 
1926	 0.129283444148924 
1927	 0.12915580448305 
1928	 0.129051472416651 
1929	 0.128946752642858 
1930	 0.128870483757077 
1931	 0.128839780226861 
1932	 0.128833225024346 
1933	 0.128855506153984 
1934	 0.128916017612829 
1935	 0.128983016342572 
1936	 0.129062901168224 
1937	 0.129166204732857 
1938	 0.129295656962122 
1939	 0.129429851344696 
1940	 0.129566950347364 
1941	 0.12974849933545 
1942	 0.12994578790108 
1943	 0.130153225327007 
1944	 0.13039565028111 
1945	 0.13064443315646 
1946	 0.130904631869645 
1947	 0.131183706270396 
1948	 0.131459546737793 
1949	 0.1317317680105 
1950	 0.132029707895452 
1951	 0.132350249487223 
1952	 0.132648256319038 
1953	 0.132966246282554 
1954	 0.133326009264956 
1955	 0.133660219965743 
1956	 0.13400628316642 
1957	 0.134369451660236 
1958	 0.134747082710339 
1959	 0.135129727285225 
1960	 0.135525176744394 
1961	 0.13592949007037 
1962	 0.136351111813825 
1963	 0.13676585392599 
1964	 0.13718089553137 
1965	 0.137613715302044 
1966	 0.138026826862968 
1967	 0.138455347639415 
1968	 0.1388864881616 
1969	 0.139316580485886 
1970	 0.139760760952019 
1971	 0.140228773167598 
1972	 0.140675379221695 
1973	 0.141127955072381 
1974	 0.141567577345414 
1975	 0.141996853437899 
1976	 0.142406686841922 
1977	 0.142825598046241 
1978	 0.143261102620488 
1979	 0.143691483929474 
1980	 0.144135435312802 
1981	 0.144576748711843 
1982	 0.145014876051865 
1983	 0.14546777264574 
1984	 0.145929703455509 
1985	 0.146392644717257 
1986	 0.146878089912562 
1987	 0.147343311396311 
1988	 0.14779168980492 
1989	 0.148257566639717 
1990	 0.148720165220073 
1991	 0.14916039880804 
1992	 0.149609516317 
1993	 0.15006821695527 
1994	 0.150508317639074 
1995	 0.150936624561703 
1996	 0.151367885740598 
1997	 0.151788244709687 
1998	 0.152215402420752 
1999	 0.152647367009922 
2000	 0.153075699806988 
2001	 0.153508545776107 
2002	 0.153930578917544 
2003	 0.154363878021036 
2004	 0.15478417183388 
2005	 0.155194020416385 
2006	 0.155601634355106 
2007	 0.155999545563502 
2008	 0.156370237872287 
2009	 0.156761903381761 
2010	 0.157162673408496 
2011	 0.157555746191398 
2012	 0.157956843136705 
2013	 0.15834650730975 
2014	 0.158719118249587 
2015	 0.159102864762378 
2016	 0.159490154533969 
2017	 0.159866116922593 
2018	 0.160249320421795 
2019	 0.160641507439804 
2020	 0.161022088284414 
2021	 0.161410600081438 
2022	 0.161774228449035 
2023	 0.162112327111827 
2024	 0.162464804912746 
2025	 0.162797927831341 
2026	 0.163146627522406 
2027	 0.163508669684298 
2028	 0.16388160233175 
2029	 0.16424593904904 
2030	 0.164610828164223 
2031	 0.164974530666706 
2032	 0.16534463366351 
2033	 0.165697958888008 
2034	 0.166047975607563 
2035	 0.166387698336324 
2036	 0.166720128357103 
2037	 0.167036236868925 
2038	 0.167338923477453 
2039	 0.167636294571162 
2040	 0.167919643827 
2041	 0.168191383221641 
2042	 0.168466438404578 
2043	 0.168740649982002 
2044	 0.169023589592881 
2045	 0.169307221833463 
2046	 0.169596424804969 
2047	 0.16989706994982 
2048	 0.170192919540432 
2049	 0.170497915836927 
2050	 0.170784233373304 
2051	 0.17107356008309 
2052	 0.171343274031243 
2053	 0.171570925195654 
2054	 0.17182639516363 
2055	 0.172099947541517 
2056	 0.172348743943363 
2057	 0.172602630558829 
2058	 0.172875253746613 
2059	 0.173123668912506 
2060	 0.173341187233777 
2061	 0.173581820202131 
2062	 0.173829791554053 
2063	 0.174073726393168 
2064	 0.17432535848441 
2065	 0.174569868448305 
2066	 0.174818401738829 
2067	 0.175048352970709 
2068	 0.17526241023293 
2069	 0.175479699902449 
2070	 0.175694329763676 
2071	 0.175885561171496 
2072	 0.176114838379641 
2073	 0.176372069334496 
2074	 0.176603423745098 
2075	 0.176842324361283 
2076	 0.177072908303636 
2077	 0.177277961065382 
2078	 0.17750262298798 
2079	 0.177741398401951 
2080	 0.17797450062028 
2081	 0.178215855222278 
2082	 0.178447942208124 
2083	 0.178675108830523 
2084	 0.178899269853587 
2085	 0.179122705814559 
2086	 0.179348747063672 
2087	 0.179547784086982 
2088	 0.179735925939537 
2089	 0.179920648824264 
2090	 0.180071114724638 
2091	 0.18025081219988 
2092	 0.180441813884534 
2093	 0.180637142430893 
2094	 0.180843057181528 
2095	 0.181048086060121 
2096	 0.181265812709072 
2097	 0.181471874115355 
2098	 0.181676711615069 
2099	 0.181870210069621 
2100	 0.18207189983617 
2101	 0.182269568960817 
2102	 0.182470618349845 
2103	 0.182674636510584 
2104	 0.182883800173955 
2105	 0.183098264019418 
2106	 0.183304025428295 
2107	 0.1835206838149 
2108	 0.183717212349865 
2109	 0.183887810903878 
2110	 0.184075194214995 
2111	 0.184255877546026 
2112	 0.184447217270785 
2113	 0.184659955074576 
2114	 0.184861372931515 
2115	 0.185054583937698 
2116	 0.185244958752149 
2117	 0.185433526262867 
2118	 0.185605723182268 
2119	 0.185796910156559 
2120	 0.186004619311233 
2121	 0.18619657287156 
2122	 0.186392007382191 
2123	 0.186576269565961 
2124	 0.18675452939357 
2125	 0.186917122914424 
2126	 0.187065391696742 
2127	 0.187214993117057 
2128	 0.18735542086542 
2129	 0.187488993732072 
2130	 0.187623178644391 
2131	 0.187752081401658 
2132	 0.18786053543251 
2133	 0.187952844063545 
2134	 0.188035642274368 
2135	 0.188099153675373 
2136	 0.188169598704491 
2137	 0.188233112412876 
2138	 0.188293374136768 
2139	 0.18835575340562 
2140	 0.188406004998892 
2141	 0.188454957376659 
2142	 0.188483487262466 
2143	 0.188499039443545 
2144	 0.188505362758806 
2145	 0.188486816984155 
2146	 0.188471744750042 
2147	 0.188451316787049 
2148	 0.188429501678294 
2149	 0.188404130066084 
2150	 0.188376316107978 
2151	 0.188343945499448 
2152	 0.188305166598078 
2153	 0.188269909904852 
2154	 0.188243772747768 
2155	 0.188192053169425 
2156	 0.188141409096318 
2157	 0.188064286961518 
2158	 0.187950581213041 
2159	 0.187845848700988 
2160	 0.187732283724906 
2161	 0.187613814696192 
2162	 0.187478456792861 
2163	 0.187362268008447 
2164	 0.187258247182272 
2165	 0.187142841689794 
2166	 0.187027071206296 
2167	 0.186923648468884 
2168	 0.186807280520175 
2169	 0.186672865237657 
2170	 0.186550339523703 
2171	 0.186437038884602 
2172	 0.186316153936574 
2173	 0.186191499403646 
2174	 0.186063718541224 
2175	 0.185931769784899 
2176	 0.185801742326423 
2177	 0.185671395911213 
2178	 0.185537808840681 
2179	 0.185405478843762 
2180	 0.185268873622319 
2181	 0.185126818059482 
2182	 0.184983577220578 
2183	 0.184833040844911 
2184	 0.184686767710047 
2185	 0.184550027660203 
2186	 0.18441520010341 
2187	 0.184283577641895 
2188	 0.184157462875539 
2189	 0.1840402170758 
2190	 0.183926687031205 
2191	 0.183816265483776 
2192	 0.183730791321877 
2193	 0.183619686682638 
2194	 0.183474439235842 
2195	 0.183369637684294 
2196	 0.183267774338165 
2197	 0.183182477434799 
2198	 0.183139136107252 
2199	 0.183082759273976 
2200	 0.18301763862601 
2201	 0.182966810943338 
2202	 0.182922632228372 
2203	 0.182884767067701 
2204	 0.182858083665654 
2205	 0.182846550977324 
2206	 0.182833034502104 
2207	 0.182833004198462 
2208	 0.182814975025324 
2209	 0.182776734749648 
2210	 0.182776430955787 
2211	 0.182788887823526 
2212	 0.182797283543995 
2213	 0.182822870222928 
2214	 0.182856580984103 
2215	 0.182890733602682 
2216	 0.182921929234967 
2217	 0.182964911699874 
2218	 0.183014889064469 
2219	 0.183072933224133 
2220	 0.183111910431577 
2221	 0.183162409502306 
2222	 0.18319445033582 
2223	 0.183207003230268 
2224	 0.183212440372731 
2225	 0.183219623504524 
2226	 0.18323431137053 
2227	 0.183232574274766 
2228	 0.183213250402503 
2229	 0.183202436592191 
2230	 0.183195881514773 
2231	 0.183171544015761 
2232	 0.18313112178362 
2233	 0.183111600973798 
2234	 0.183087818615822 
2235	 0.183071799290459 
2236	 0.183078970507038 
2237	 0.183069234670679 
2238	 0.183034433679234 
2239	 0.183027776419168 
2240	 0.183039328483533 
2241	 0.183047220223586 
2242	 0.183090341466114 
2243	 0.18309347522464 
2244	 0.183072004844143 
2245	 0.183045147355885 
2246	 0.182997512899421 
2247	 0.182944603851744 
2248	 0.182893466849422 
2249	 0.182847933595295 
2250	 0.182777866828189 
2251	 0.18268192716661 
2252	 0.182623211217204 
2253	 0.182565484928638 
2254	 0.182507895656887 
2255	 0.182476140844585 
2256	 0.182428495984074 
2257	 0.182358248061924 
2258	 0.182319760750767 
2259	 0.182304737448378 
2260	 0.182273927870354 
2261	 0.182239153011333 
2262	 0.182214310457916 
2263	 0.182175390938265 
2264	 0.182168420387083 
2265	 0.182215537398469 
2266	 0.182217368300301 
2267	 0.182203711881915 
2268	 0.182202236394655 
2269	 0.182183070977396 
2270	 0.182158742065971 
2271	 0.182182115571648 
2272	 0.182186068801394 
2273	 0.18216176085257 
2274	 0.182135468686226 
2275	 0.182084677656013 
2276	 0.181995975797684 
2277	 0.181945016484765 
2278	 0.181878247974464 
2279	 0.181851171752582 
2280	 0.181862535513767 
2281	 0.181864654817881 
2282	 0.181883479271928 
2283	 0.181898242364248 
2284	 0.181918146268102 
2285	 0.18192937862651 
2286	 0.181953883530091 
2287	 0.181945744996867 
2288	 0.181925321066784 
2289	 0.1818882877123 
2290	 0.181798065900439 
2291	 0.181750168594024 
2292	 0.181716174779844 
2293	 0.18167900489752 
2294	 0.181669517162805 
2295	 0.181640733187934 
2296	 0.181600299010439 
2297	 0.181549420199289 
2298	 0.181507250403359 
2299	 0.181458046306771 
2300	 0.181426313500556 
2301	 0.181376119353065 
2302	 0.181296464813082 
2303	 0.181240152478362 
2304	 0.181206930888182 
2305	 0.181190531822407 
2306	 0.181135802688226 
2307	 0.181099982961739 
2308	 0.180998635751377 
2309	 0.180803250447316 
2310	 0.180698054179643 
2311	 0.180613163089313 
2312	 0.180531071919981 
2313	 0.180494399013851 
2314	 0.180428425571351 
2315	 0.180367025080782 
2316	 0.180253141784083 
2317	 0.180102481835017 
2318	 0.179972723067514 
2319	 0.179775931057558 
2320	 0.179648565297135 
2321	 0.179592446234851 
2322	 0.179507755522966 
2323	 0.179449661398272 
2324	 0.179370926449445 
2325	 0.179251830951365 
2326	 0.179166411761235 
2327	 0.179118603910323 
2328	 0.179011276814147 
2329	 0.178897194413282 
2330	 0.178851186514219 
2331	 0.17878111797639 
2332	 0.178688556172692 
2333	 0.178609713686324 
2334	 0.178493319110618 
2335	 0.178405088327219 
2336	 0.178322057079987 
2337	 0.178204248655148 
2338	 0.178161848812424 
2339	 0.178134191462218 
2340	 0.178025009876034 
2341	 0.177895451932707 
2342	 0.177753628378504 
2343	 0.177571784291279 
2344	 0.177376072469453 
2345	 0.177207508637897 
2346	 0.177084912972598 
2347	 0.176944607177738 
2348	 0.176780389298693 
2349	 0.176654210640004 
2350	 0.176599261307788 
2351	 0.176437230557994 
2352	 0.176216514489498 
2353	 0.176021509609134 
2354	 0.175758021801875 
2355	 0.175578153611615 
2356	 0.17548875527411 
2357	 0.175323772334994 
2358	 0.175119802931664 
2359	 0.174957041755248 
2360	 0.17480821300568 
2361	 0.174641041742696 
2362	 0.174501477259015 
2363	 0.174345296613776 
2364	 0.174130143036278 
2365	 0.173933950415653 
2366	 0.173780979102421 
2367	 0.173585906067022 
2368	 0.173366528114916 
2369	 0.173140171399553 
2370	 0.172862006202215 
2371	 0.172664060314028 
2372	 0.172482416607165 
2373	 0.172253377436173 
2374	 0.172097290763734 
2375	 0.171903623058823 
2376	 0.171647040270412 
2377	 0.171419873082292 
2378	 0.171125533525818 
2379	 0.170871338796061 
2380	 0.170716154371888 
2381	 0.170596999899352 
2382	 0.17051742757298 
2383	 0.170316226946721 
2384	 0.170028956571569 
2385	 0.169717321269326 
2386	 0.169336067950323 
2387	 0.169026016914057 
2388	 0.168718340991666 
2389	 0.168337071232403 
2390	 0.168070668465537 
2391	 0.167834653388919 
2392	 0.167565283900777 
2393	 0.167360290493078 
2394	 0.167118087354428 
2395	 0.166869769164623 
2396	 0.166623886542022 
2397	 0.166366066545258 
2398	 0.166167358666793 
2399	 0.165936046015781 
2400	 0.165728527290429 
2401	 0.165525060864457 
2402	 0.165157482477046 
2403	 0.164821369865775 
2404	 0.164541425850217 
2405	 0.16418919234784 
2406	 0.163970150562041 
2407	 0.163769420566368 
2408	 0.163486488381326 
2409	 0.163270053922003 
2410	 0.163035889748937 
2411	 0.162757078378555 
2412	 0.162390114579748 
2413	 0.16202997281214 
2414	 0.161724329015608 
2415	 0.161389470534167 
2416	 0.161108198266521 
2417	 0.160945756965654 
2418	 0.160667351789848 
2419	 0.160343926779156 
2420	 0.160073452472915 
2421	 0.159777375645011 
2422	 0.159524665421513 
2423	 0.159377087906914 
2424	 0.159042042928839 
2425	 0.158564695390274 
2426	 0.158209598627138 
2427	 0.157820450819051 
2428	 0.157490837386269 
2429	 0.157316093957837 
2430	 0.156985784255218 
2431	 0.156549462487293 
2432	 0.156133787382891 
2433	 0.155677175488595 
2434	 0.155292499141718 
2435	 0.154892712840765 
2436	 0.154559613000782 
2437	 0.15432604215293 
2438	 0.15399628101444 
2439	 0.153684975809556 
2440	 0.15338515651976 
2441	 0.153026361674619 
2442	 0.152653292009154 
2443	 0.152294332978686 
2444	 0.151987182041091 
2445	 0.151650291488178 
2446	 0.151345919351305 
2447	 0.151127568774865 
2448	 0.150816204353454 
2449	 0.150434358509546 
2450	 0.150142157454283 
2451	 0.149870305098742 
2452	 0.149598767510299 
2453	 0.149401663380155 
2454	 0.149115460919918 
2455	 0.148770427241513 
2456	 0.148495235391796 
2457	 0.148250519152751 
2458	 0.147909339697577 
2459	 0.147494569388903 
2460	 0.147204266496393 
2461	 0.146871679554306 
2462	 0.146595406314347 
2463	 0.146563413459235 
2464	 0.146348206344781 
2465	 0.145983759689785 
2466	 0.145675829326323 
2467	 0.145279864331742 
2468	 0.144939860944842 
2469	 0.144674955835921 
2470	 0.14451243350082 
2471	 0.144301205453841 
2472	 0.144120087168692 
2473	 0.143885550330971 
2474	 0.143570293238574 
2475	 0.143274298318234 
2476	 0.143024716115692 
2477	 0.142779725172501 
2478	 0.142407217889951 
2479	 0.142145758033914 
2480	 0.141862639195 
2481	 0.141564039876154 
2482	 0.141383397631365 
2483	 0.140997535415769 
2484	 0.140643356384621 
2485	 0.140301314688333 
2486	 0.13995295904814 
2487	 0.139675811496903 
2488	 0.139334984873744 
2489	 0.139238778137323 
2490	 0.139266725685275 
2491	 0.139126055227939 
2492	 0.138804494926524 
2493	 0.138268264956528 
2494	 0.137806323771812 
2495	 0.137524612754649 
2496	 0.137418445160468 
2497	 0.137496426344907 
2498	 0.137380427776992 
2499	 0.137225584811144 
2500	 0.137097928919524 
