Wavelength	mm2700007.asd
350	 0.06876615519749 
351	 7.00229559684972E-02 
352	 6.25973111241156E-02 
353	 5.50505079849015E-02 
354	 6.18611346239793E-02 
355	 6.79730562287453E-02 
356	 6.99203880313408E-02 
357	 6.89138350400767E-02 
358	 6.98449762118317E-02 
359	 6.48513430908519E-02 
360	 6.01679429759069E-02 
361	 6.82715121646517E-02 
362	 6.38539151664628E-02 
363	 6.23703982347083E-02 
364	 7.04731850751958E-02 
365	 7.43787437197684E-02 
366	 7.04096976669565E-02 
367	 6.76574721225947E-02 
368	 7.32899919586169E-02 
369	 7.19543967042165E-02 
370	 7.16523630645518E-02 
371	 7.29209170956992E-02 
372	 7.13474641885647E-02 
373	 7.22329971895003E-02 
374	 7.34226286816805E-02 
375	 7.37718448737542E-02 
376	 7.55636498881624E-02 
377	 7.71985954093269E-02 
378	 7.74080712408639E-02 
379	 7.63893802202829E-02 
380	 8.05359103388326E-02 
381	 7.97728800086425E-02 
382	 7.62052836700305E-02 
383	 8.01858697939724E-02 
384	 8.02809138851281E-02 
385	 7.91945387657202E-02 
386	 7.98768026865376E-02 
387	 8.19173058663905E-02 
388	 8.33880985260876E-02 
389	 8.35782633578421E-02 
390	 8.25313771368991E-02 
391	 8.11087456653296E-02 
392	 8.12741622071904E-02 
393	 8.29977003503866E-02 
394	 8.44908955665927E-02 
395	 8.37467701231321E-02 
396	 8.27163775812676E-02 
397	 8.33729606964646E-02 
398	 8.68846788570037E-02 
399	 0.086549065716798 
400	 8.55078690288345E-02 
401	 8.85601026833708E-02 
402	 8.74511603540368E-02 
403	 8.60085824073342E-02 
404	 8.58784343109869E-02 
405	 8.57516312176327E-02 
406	 8.63203519787026E-02 
407	 8.69317742994923E-02 
408	 0.086901650052546 
409	 8.58438295450998E-02 
410	 8.59453188435431E-02 
411	 8.71600283176206E-02 
412	 8.82791467236424E-02 
413	 8.85705895360799E-02 
414	 0.087558403831613 
415	 8.61694020459991E-02 
416	 8.69779699111859E-02 
417	 8.77043775155723E-02 
418	 0.088048363725838 
419	 8.82051757128315E-02 
420	 8.82715026378672E-02 
421	 8.82198403579915E-02 
422	 8.81669966252307E-02 
423	 8.82820138745103E-02 
424	 8.82614456707023E-02 
425	 8.81099962108858E-02 
426	 8.78733975722332E-02 
427	 8.75541345621545E-02 
428	 8.74923197487111E-02 
429	 0.087620452727085 
430	 0.087738398136913 
431	 8.78070749192459E-02 
432	 8.75910725094178E-02 
433	 8.73007754763532E-02 
434	 8.75260019946181E-02 
435	 8.73540444835014E-02 
436	 8.73028125779441E-02 
437	 8.76494491707328E-02 
438	 8.72430897404576E-02 
439	 8.72043737492141E-02 
440	 8.76724900348054E-02 
441	 0.088219528469281 
442	 8.82364463194661E-02 
443	 8.81543107864806E-02 
444	 8.81259638650825E-02 
445	 8.77069684368424E-02 
446	 0.087379016573315 
447	 8.74551096112045E-02 
448	 8.79262918444951E-02 
449	 8.77079605947247E-02 
450	 0.08775226959742 
451	 8.80582906589651E-02 
452	 8.78237778624423E-02 
453	 8.77828079538865E-02 
454	 0.087831197126892 
455	 8.78049582220556E-02 
456	 8.77606692150156E-02 
457	 8.76972151197968E-02 
458	 8.75900980287212E-02 
459	 8.74546146151417E-02 
460	 8.77448423476144E-02 
461	 8.75421963717112E-02 
462	 8.68539300728005E-02 
463	 8.71262013204761E-02 
464	 8.74224544627722E-02 
465	 8.76373800508999E-02 
466	 8.78272978451274E-02 
467	 8.78109007168722E-02 
468	 0.087571804105965 
469	 8.72342691182448E-02 
470	 0.087026126012534 
471	 8.69998121691729E-02 
472	 8.70669614847252E-02 
473	 8.70935211004543E-02 
474	 8.68562541271651E-02 
475	 8.69744144596702E-02 
476	 8.72159100753767E-02 
477	 8.70844270513926E-02 
478	 8.71916532630519E-02 
479	 8.72813757489537E-02 
480	 8.72461431931025E-02 
481	 8.72918946068753E-02 
482	 8.70460956466838E-02 
483	 8.69046418338603E-02 
484	 8.72072649168558E-02 
485	 8.72163428971858E-02 
486	 8.70560921230778E-02 
487	 8.68735873998113E-02 
488	 8.68146212389843E-02 
489	 8.69813159139721E-02 
490	 8.70752424555086E-02 
491	 8.69368766296608E-02 
492	 0.08688692687425 
493	 8.70433144269096E-02 
494	 8.71860063155522E-02 
495	 8.70210626369758E-02 
496	 8.71274207808543E-02 
497	 8.71104653301747E-02 
498	 8.68899072177508E-02 
499	 8.69892571915036E-02 
500	 8.69554501213409E-02 
501	 8.68824612597687E-02 
502	 8.69603638743541E-02 
503	 8.71087493255029E-02 
504	 8.69984180784858E-02 
505	 8.67368010592425E-02 
506	 8.68069946386633E-02 
507	 8.69095584855674E-02 
508	 0.086988255207455 
509	 8.70142262504886E-02 
510	 8.68960381408216E-02 
511	 8.67762873033587E-02 
512	 8.67627319159789E-02 
513	 0.086893291227454 
514	 8.67705639423244E-02 
515	 8.67788020913236E-02 
516	 8.70245991816205E-02 
517	 8.69952252773089E-02 
518	 8.69954527702948E-02 
519	 0.086976930495855 
520	 0.086865324975097 
521	 0.087050683174185 
522	 8.71132329175567E-02 
523	 8.69820984853209E-02 
524	 8.69905197158226E-02 
525	 0.087097013475567 
526	 8.71197270240076E-02 
527	 0.086983965800656 
528	 8.70655832963466E-02 
529	 8.71267620613106E-02 
530	 8.71021532165882E-02 
531	 8.70565408354317E-02 
532	 8.71507504592767E-02 
533	 8.72521231589373E-02 
534	 8.72628587120601E-02 
535	 8.72382387876722E-02 
536	 8.72272982055016E-02 
537	 8.72748289467084E-02 
538	 8.73927275773364E-02 
539	 8.74273764786193E-02 
540	 8.74236358288189E-02 
541	 8.74543649555517E-02 
542	 8.76096453460289E-02 
543	 8.76495385546288E-02 
544	 8.76572797582151E-02 
545	 8.77537869681533E-02 
546	 8.78274082206232E-02 
547	 8.78784403303602E-02 
548	 8.79114352041679E-02 
549	 8.79342918751685E-02 
550	 8.79837276915222E-02 
551	 0.088063574457935 
552	 8.81686779142117E-02 
553	 8.82990606995214E-02 
554	 0.088383889635048 
555	 8.84682556206352E-02 
556	 8.86426073314179E-02 
557	 8.87903510657066E-02 
558	 8.89581338528633E-02 
559	 8.91822323772518E-02 
560	 8.94554092791858E-02 
561	 8.96894819355666E-02 
562	 8.99181738600308E-02 
563	 9.01987632378561E-02 
564	 9.04542134684689E-02 
565	 9.07051929516779E-02 
566	 0.090939598633761 
567	 9.11052196842239E-02 
568	 9.13527159241338E-02 
569	 9.17015486252288E-02 
570	 9.21381658762058E-02 
571	 9.26818308353341E-02 
572	 9.31884309903515E-02 
573	 9.36265072025978E-02 
574	 9.40538600788072E-02 
575	 9.45252026005583E-02 
576	 0.09508131979758 
577	 0.095714813561104 
578	 9.63363428858229E-02 
579	 9.68972224562693E-02 
580	 9.74194720956564E-02 
581	 9.79544648362658E-02 
582	 9.84571431258397E-02 
583	 9.90257643531378E-02 
584	 9.97252979789421E-02 
585	 0.100563985194297 
586	 0.101484757142248 
587	 0.102404463143853 
588	 0.103286651163109 
589	 0.104328803202592 
590	 0.105352712482709 
591	 0.106287720156185 
592	 0.10717996189445 
593	 0.108088332276446 
594	 0.108944091067707 
595	 0.109690258899522 
596	 0.110367302191131 
597	 0.111008841057892 
598	 0.111658038882748 
599	 0.112367890767892 
600	 0.113229212448126 
601	 0.114071359058483 
602	 0.114827355964023 
603	 0.115675149872827 
604	 0.116499041413088 
605	 0.117324649822447 
606	 0.118198020422207 
607	 0.119008252123907 
608	 0.119779604630831 
609	 0.120530503364589 
610	 0.121263881248636 
611	 0.121923631305831 
612	 0.122513823574782 
613	 0.123049673088351 
614	 0.123529588673973 
615	 0.123971748849078 
616	 0.124418983423346 
617	 0.124918081694913 
618	 0.125387590016841 
619	 0.125815892010191 
620	 0.126211790783122 
621	 0.12660227324095 
622	 0.126946751770232 
623	 0.12727418400632 
624	 0.127627043191658 
625	 0.12792697388634 
626	 0.128229830130869 
627	 0.128548765372247 
628	 0.128826020324123 
629	 0.12914039401154 
630	 0.129448250938178 
631	 0.12970140964763 
632	 0.129962404703965 
633	 0.130255501040787 
634	 0.130539838705009 
635	 0.130733842954983 
636	 0.130976474290925 
637	 0.131282397608937 
638	 0.13160529518334 
639	 0.13180469510442 
640	 0.132012119153279 
641	 0.132257976910417 
642	 0.132523504521589 
643	 0.132801793115363 
644	 0.133049402611539 
645	 0.133269879379082 
646	 0.133537531957043 
647	 0.133808795688868 
648	 0.134066362104725 
649	 0.13432074146768 
650	 0.134676094010042 
651	 0.134974093629104 
652	 0.135201788901084 
653	 0.135478931431436 
654	 0.135831975011428 
655	 0.136180264886968 
656	 0.136476373399458 
657	 0.136809110713122 
658	 0.137126951954939 
659	 0.137447803922239 
660	 0.137811072304681 
661	 0.13816880657788 
662	 0.138477455914219 
663	 0.138772911311045 
664	 0.139204422669247 
665	 0.139607974826016 
666	 0.13996424333326 
667	 0.140310661679939 
668	 0.140728611129569 
669	 0.141154683699597 
670	 0.141572498580677 
671	 0.142005855653437 
672	 0.142422069937287 
673	 0.142861544306625 
674	 0.14333916454925 
675	 0.143781322471438 
676	 0.1442082754371 
677	 0.144666854695169 
678	 0.145196229669551 
679	 0.145681261146282 
680	 0.146181258310199 
681	 0.146726934197546 
682	 0.147292688535917 
683	 0.147820425604138 
684	 0.148311372136852 
685	 0.148802047412488 
686	 0.149386897342216 
687	 0.149977679272485 
688	 0.150541939111873 
689	 0.151092213608351 
690	 0.15164886378286 
691	 0.152237617263068 
692	 0.152851012963831 
693	 0.153412620075369 
694	 0.154020808462967 
695	 0.154659942103628 
696	 0.155277712357281 
697	 0.155864583710671 
698	 0.156479054429751 
699	 0.157122870242562 
700	 0.157735003222696 
701	 0.158345862038975 
702	 0.158960793935214 
703	 0.159584214489198 
704	 0.160240431309737 
705	 0.160834921685002 
706	 0.161414826825693 
707	 0.16207912303851 
708	 0.162681852342415 
709	 0.163317254310766 
710	 0.163997045415272 
711	 0.164580883006717 
712	 0.165161443563682 
713	 0.16574645193546 
714	 0.166334429833453 
715	 0.166981502976806 
716	 0.167593652048426 
717	 0.168139969030105 
718	 0.168649960192548 
719	 0.169247220572395 
720	 0.169813460996744 
721	 0.170293277410425 
722	 0.17082354906193 
723	 0.171368186406879 
724	 0.171868271815252 
725	 0.172284457560963 
726	 0.172720996646404 
727	 0.173180034845925 
728	 0.173630844310801 
729	 0.174020705751936 
730	 0.174378664103518 
731	 0.174727790519344 
732	 0.175079902423074 
733	 0.175428335920139 
734	 0.175733105099696 
735	 0.17598144517556 
736	 0.176186240909791 
737	 0.176427619377782 
738	 0.176622143417697 
739	 0.176771781937033 
740	 0.17697932224305 
741	 0.177104717062926 
742	 0.177214180692154 
743	 0.177361121434252 
744	 0.1774444781832 
745	 0.177487516946315 
746	 0.177500655036769 
747	 0.177494394533045 
748	 0.177512621061061 
749	 0.177466227992979 
750	 0.177358449374702 
751	 0.177314327196451 
752	 0.177257072701334 
753	 0.177139582173728 
754	 0.176961205392877 
755	 0.17683103424319 
756	 0.176726314558312 
757	 0.176579886947867 
758	 0.176332791757919 
759	 0.176175277392696 
760	 0.175965472301594 
761	 0.175663366045568 
762	 0.175393579614318 
763	 0.175147667121609 
764	 0.174887367968435 
765	 0.174586340502578 
766	 0.174272398466939 
767	 0.174017344506178 
768	 0.173763514508661 
769	 0.173409924791404 
770	 0.17306758650791 
771	 0.172746084414198 
772	 0.172418064077095 
773	 0.172026883703532 
774	 0.171667763035324 
775	 0.171327496937089 
776	 0.170968585245265 
777	 0.170553427480242 
778	 0.170160490835529 
779	 0.169814069756236 
780	 0.169496429811287 
781	 0.169118463766257 
782	 0.168733817801269 
783	 0.168359937547921 
784	 0.167966617030694 
785	 0.167585532078 
786	 0.167234113684179 
787	 0.166897723416434 
788	 0.16648510293523 
789	 0.16614656716772 
790	 0.16581037754906 
791	 0.165375975432401 
792	 0.165064281665486 
793	 0.164743355113214 
794	 0.16435926709595 
795	 0.163947767151026 
796	 0.163564685831504 
797	 0.163242834632927 
798	 0.162958773920709 
799	 0.16260013947005 
800	 0.162258749278082 
801	 0.161903407846805 
802	 0.161513168187909 
803	 0.161251123729989 
804	 0.161000222326524 
805	 0.160696100289637 
806	 0.160330183291627 
807	 0.160002829429176 
808	 0.159695530115748 
809	 0.159394216345851 
810	 0.159107916268209 
811	 0.158813031193123 
812	 0.158512511399524 
813	 0.158224176849079 
814	 0.15798937093135 
815	 0.157761740449264 
816	 0.157515874330458 
817	 0.157245386302382 
818	 0.156978208361756 
819	 0.15678800681466 
820	 0.15661810611596 
821	 0.156321755184521 
822	 0.156080568121576 
823	 0.155852952239533 
824	 0.155616061013041 
825	 0.155431162281772 
826	 0.155294153688778 
827	 0.155148454833397 
828	 0.154951260187346 
829	 0.154755703447293 
830	 0.154500035014392 
831	 0.154282512598962 
832	 0.154229548020068 
833	 0.154155632012726 
834	 0.153982005259299 
835	 0.153762870955876 
836	 0.153655627357587 
837	 0.153557283587299 
838	 0.153481095719151 
839	 0.153401404772377 
840	 0.153198120183228 
841	 0.153030036890491 
842	 0.152927773466924 
843	 0.152869659611715 
844	 0.152799678836464 
845	 0.152748776755768 
846	 0.152680669753689 
847	 0.15256871073223 
848	 0.15261993965835 
849	 0.152629154328428 
850	 0.152543756619168 
851	 0.152462541466132 
852	 0.152362922853105 
853	 0.152340230325292 
854	 0.152381913682766 
855	 0.152307224537012 
856	 0.152290899188347 
857	 0.152338771403944 
858	 0.152410589693364 
859	 0.152461174746232 
860	 0.152482909672621 
861	 0.152484719937974 
862	 0.152479035457457 
863	 0.152440795189686 
864	 0.152502067008202 
865	 0.152607620573414 
866	 0.152618560815323 
867	 0.152717587653955 
868	 0.152794917732152 
869	 0.152824593697026 
870	 0.152891421742114 
871	 0.153024280553686 
872	 0.153161761922376 
873	 0.15327085974972 
874	 0.153390904380673 
875	 0.153508687276701 
876	 0.153616316956334 
877	 0.1537199666684 
878	 0.153855580620659 
879	 0.154040935517196 
880	 0.15422773881766 
881	 0.154368284562215 
882	 0.154523327017962 
883	 0.154694695987232 
884	 0.15484557505898 
885	 0.154946477019865 
886	 0.155144211637423 
887	 0.155338349163738 
888	 0.155497410442651 
889	 0.155671528231045 
890	 0.15593740189209 
891	 0.156221340319295 
892	 0.156456190314413 
893	 0.156620904940148 
894	 0.156861487955575 
895	 0.157154984236908 
896	 0.157444888308778 
897	 0.157683125018499 
898	 0.157995192057383 
899	 0.158310511837881 
900	 0.158558620533392 
901	 0.158808145040332 
902	 0.159109946893993 
903	 0.159381015059241 
904	 0.159578411410381 
905	 0.159997170816422 
906	 0.160377354237413 
907	 0.160716253445652 
908	 0.161117174727673 
909	 0.16151364094771 
910	 0.1618614013361 
911	 0.162196153101155 
912	 0.162585224709653 
913	 0.162927657009937 
914	 0.163291447208125 
915	 0.163692188232263 
916	 0.164088800481181 
917	 0.164486583820614 
918	 0.164909054944842 
919	 0.165349530046034 
920	 0.165769681173266 
921	 0.166259527241997 
922	 0.16671474996441 
923	 0.167108181834209 
924	 0.167568857328781 
925	 0.16805831389276 
926	 0.168556984294801 
927	 0.169030586956451 
928	 0.169416473520826 
929	 0.169928300134043 
930	 0.170527404026148 
931	 0.171089462125567 
932	 0.171460852184538 
933	 0.172009896559038 
934	 0.17263097435178 
935	 0.173163763449511 
936	 0.173733976850626 
937	 0.174256350813033 
938	 0.174752532857131 
939	 0.175307241777667 
940	 0.17609991732755 
941	 0.176731902397682 
942	 0.177283576374843 
943	 0.177941848816006 
944	 0.178463707180354 
945	 0.178990652752627 
946	 0.179571810622268 
947	 0.180205127527819 
948	 0.18090183597194 
949	 0.181530887395839 
950	 0.182148328396297 
951	 0.182878148896886 
952	 0.183659217282011 
953	 0.184288583923759 
954	 0.184862014643012 
955	 0.185598884827965 
956	 0.186373296349623 
957	 0.18707313109641 
958	 0.187728639412637 
959	 0.188440884743291 
960	 0.189159326615105 
961	 0.189841853565946 
962	 0.190575355189028 
963	 0.19144602187339 
964	 0.192060296911603 
965	 0.192698394846318 
966	 0.193486028136093 
967	 0.194361564553596 
968	 0.195082551178851 
969	 0.195729396704652 
970	 0.196406097606296 
971	 0.19717945285785 
972	 0.197938689929324 
973	 0.19871918774385 
974	 0.199522886419186 
975	 0.200324552124163 
976	 0.201144600923719 
977	 0.201797255231043 
978	 0.202387252592445 
979	 0.203162284646448 
980	 0.203988993943079 
981	 0.204801264565389 
982	 0.205586467125954 
983	 0.206354335892215 
984	 0.207016062625646 
985	 0.207768216810681 
986	 0.208624721359023 
987	 0.209467174552458 
988	 0.21018251854131 
989	 0.210847193055919 
990	 0.211601370941013 
991	 0.212509136595232 
992	 0.213227531208513 
993	 0.213779315429321 
994	 0.214416673198869 
995	 0.215317559489642 
996	 0.215988656602751 
997	 0.216705945183387 
998	 0.217473369434119 
999	 0.218188444722083 
1000	 0.218792731928857 
1001	 0.216805438879643 
1002	 0.217429219037429 
1003	 0.21810843538932 
1004	 0.218742410008032 
1005	 0.219304489862674 
1006	 0.219898282833186 
1007	 0.220510279413596 
1008	 0.221097285934982 
1009	 0.221634766443275 
1010	 0.222213667799784 
1011	 0.222778213848046 
1012	 0.22330585064976 
1013	 0.223892345892679 
1014	 0.22442971164605 
1015	 0.224959639465388 
1016	 0.225558305422359 
1017	 0.226092119189234 
1018	 0.226600997576344 
1019	 0.227112083547495 
1020	 0.2276105748617 
1021	 0.228074251531317 
1022	 0.228535200043126 
1023	 0.22894836492034 
1024	 0.229344629255731 
1025	 0.229751406712237 
1026	 0.230198539778745 
1027	 0.230709114493269 
1028	 0.231177648594722 
1029	 0.231564001912857 
1030	 0.231945532546344 
1031	 0.232330409972903 
1032	 0.232687599815166 
1033	 0.233069521121772 
1034	 0.233517782130022 
1035	 0.233913024644792 
1036	 0.234287269170632 
1037	 0.234708639727041 
1038	 0.235070819206155 
1039	 0.235437786317873 
1040	 0.235826255517128 
1041	 0.236196731689769 
1042	 0.236613419687964 
1043	 0.237004651396675 
1044	 0.237366004806458 
1045	 0.237699360299397 
1046	 0.238071640611003 
1047	 0.238422864822944 
1048	 0.238793180090025 
1049	 0.239241170411655 
1050	 0.239647716762985 
1051	 0.240009558534217 
1052	 0.240360928078336 
1053	 0.240675187872249 
1054	 0.241003113566363 
1055	 0.241379389321207 
1056	 0.241750740217759 
1057	 0.24211389658415 
1058	 0.242498479983086 
1059	 0.24285990090651 
1060	 0.243189118734533 
1061	 0.243543226053646 
1062	 0.243892129823078 
1063	 0.244228835424305 
1064	 0.244612100701032 
1065	 0.244937655078475 
1066	 0.245262971625504 
1067	 0.245648393707375 
1068	 0.245963999383478 
1069	 0.246275897707325 
1070	 0.246596295136549 
1071	 0.246911727467901 
1072	 0.247228755118017 
1073	 0.247542017372744 
1074	 0.247857310325016 
1075	 0.248186289698344 
1076	 0.248504265052806 
1077	 0.24876399883668 
1078	 0.249045017953084 
1079	 0.24933965299714 
1080	 0.249610286900017 
1081	 0.249895605950383 
1082	 0.250172465103122 
1083	 0.250447815468895 
1084	 0.250699583340958 
1085	 0.250972767913563 
1086	 0.251286770448204 
1087	 0.251540979149698 
1088	 0.251787167445538 
1089	 0.251982419225688 
1090	 0.252135773850238 
1091	 0.252359754227099 
1092	 0.252600426598007 
1093	 0.252827475389009 
1094	 0.253087060612755 
1095	 0.253313968280023 
1096	 0.253521546482589 
1097	 0.253724101157803 
1098	 0.253929285102439 
1099	 0.2541263581996 
1100	 0.254326979480299 
1101	 0.254525686656444 
1102	 0.254740511215711 
1103	 0.254981456392396 
1104	 0.255176664307328 
1105	 0.25536423024932 
1106	 0.25554621910357 
1107	 0.255724219694434 
1108	 0.255913708371232 
1109	 0.256107113863447 
1110	 0.256304097221341 
1111	 0.256493588110206 
1112	 0.256673147684281 
1113	 0.256844440052516 
1114	 0.257012130984843 
1115	 0.257186765727602 
1116	 0.257341229268534 
1117	 0.257509922964174 
1118	 0.257697034573058 
1119	 0.257883747297381 
1120	 0.258044192017061 
1121	 0.258214112395616 
1122	 0.258370977632899 
1123	 0.258537036710012 
1124	 0.258720084299809 
1125	 0.25892516546192 
1126	 0.259100545644192 
1127	 0.259282362027012 
1128	 0.259448911674584 
1129	 0.259583155482565 
1130	 0.259744782257884 
1131	 0.259934884955638 
1132	 0.260085049766136 
1133	 0.260203628953377 
1134	 0.260351560999773 
1135	 0.260502351556729 
1136	 0.26064249903038 
1137	 0.260777536560879 
1138	 0.260944821509211 
1139	 0.261093668709804 
1140	 0.261217370198694 
1141	 0.261354042760297 
1142	 0.261508922480417 
1143	 0.261646116078271 
1144	 0.261778880952991 
1145	 0.261899385774118 
1146	 0.262010953934299 
1147	 0.262119763082411 
1148	 0.262210414211386 
1149	 0.262307321091176 
1150	 0.262394450760587 
1151	 0.262508710142908 
1152	 0.262619535944222 
1153	 0.262736185394019 
1154	 0.262850234321454 
1155	 0.262964469439235 
1156	 0.26309108042848 
1157	 0.26323541854996 
1158	 0.263345296598629 
1159	 0.263451484960953 
1160	 0.263560426568784 
1161	 0.263636005822466 
1162	 0.263732915335412 
1163	 0.263861990255675 
1164	 0.263968956490846 
1165	 0.264062032846226 
1166	 0.264162962163258 
1167	 0.264248882091962 
1168	 0.264324918106246 
1169	 0.264418266941835 
1170	 0.264514208746099 
1171	 0.264610672413352 
1172	 0.264724704983822 
1173	 0.264815069773145 
1174	 0.264882085121481 
1175	 0.26497397764871 
1176	 0.265076543207458 
1177	 0.265167321682726 
1178	 0.265260878928099 
1179	 0.265357560361816 
1180	 0.265454274353381 
1181	 0.265539324865838 
1182	 0.265627808876781 
1183	 0.26571014531758 
1184	 0.265789152243257 
1185	 0.265846669994375 
1186	 0.26592306796519 
1187	 0.266010214142637 
1188	 0.266095270771668 
1189	 0.266188209678288 
1190	 0.266266354112444 
1191	 0.26633859354126 
1192	 0.266414141662471 
1193	 0.266480799421613 
1194	 0.266550068201231 
1195	 0.266631548468567 
1196	 0.266699631784835 
1197	 0.266746579713235 
1198	 0.266810314326379 
1199	 0.266878596702815 
1200	 0.266943919412875 
1201	 0.267026160508244 
1202	 0.267124552948121 
1203	 0.267219415731643 
1204	 0.26732710794456 
1205	 0.267418080331258 
1206	 0.267503720095679 
1207	 0.267591360504124 
1208	 0.267679192564895 
1209	 0.267754035658493 
1210	 0.26782948092857 
1211	 0.26789421461956 
1212	 0.267928768744613 
1213	 0.267983563034523 
1214	 0.268048119584243 
1215	 0.268108882865871 
1216	 0.268171898452782 
1217	 0.268245603591064 
1218	 0.268306296476762 
1219	 0.268360693301951 
1220	 0.268413570130208 
1221	 0.268458307577773 
1222	 0.268513555736803 
1223	 0.268568135017092 
1224	 0.268627866318375 
1225	 0.268705917796021 
1226	 0.268764018796781 
1227	 0.26881062480339 
1228	 0.268862215607803 
1229	 0.268901475153524 
1230	 0.268950305621164 
1231	 0.269014929529078 
1232	 0.269068212040688 
1233	 0.269118149182566 
1234	 0.269160123812268 
1235	 0.269220368810837 
1236	 0.269289505500544 
1237	 0.269343965914941 
1238	 0.269408655900846 
1239	 0.269458107640388 
1240	 0.269475806844948 
1241	 0.269521787512001 
1242	 0.269585803353331 
1243	 0.269638156928869 
1244	 0.269696353473091 
1245	 0.269749058052016 
1246	 0.269790871452906 
1247	 0.269837508262442 
1248	 0.26988968675417 
1249	 0.269938337984525 
1250	 0.269974164810267 
1251	 0.270013731855443 
1252	 0.270050430218883 
1253	 0.270083555590876 
1254	 0.270108680552924 
1255	 0.270138072353048 
1256	 0.270149695816411 
1257	 0.270140360381186 
1258	 0.270142494451433 
1259	 0.270123814518357 
1260	 0.270139673328883 
1261	 0.270190158847134 
1262	 0.27021166097949 
1263	 0.270242781358262 
1264	 0.270265223639653 
1265	 0.270256406036386 
1266	 0.27026330592052 
1267	 0.270292618126943 
1268	 0.27029497612619 
1269	 0.270314626147853 
1270	 0.270332933893871 
1271	 0.270367979241683 
1272	 0.270411080627415 
1273	 0.2704650583358 
1274	 0.270535745761732 
1275	 0.270598835891909 
1276	 0.270656998585481 
1277	 0.270739391505792 
1278	 0.270829809788051 
1279	 0.270927884010427 
1280	 0.27105930207032 
1281	 0.271170732108678 
1282	 0.271270086108135 
1283	 0.271379270704684 
1284	 0.271487184347662 
1285	 0.271594939378027 
1286	 0.271729775715824 
1287	 0.271856992369244 
1288	 0.271976689328175 
1289	 0.272104962769024 
1290	 0.272207311198982 
1291	 0.272290084011782 
1292	 0.272376429135198 
1293	 0.272456775063536 
1294	 0.272528637909114 
1295	 0.272594932452603 
1296	 0.272652923395821 
1297	 0.272695551596116 
1298	 0.272742313668212 
1299	 0.272788900306387 
1300	 0.272829879069972 
1301	 0.272872178273737 
1302	 0.272901761360324 
1303	 0.27291363785176 
1304	 0.272935130235037 
1305	 0.272958279673438 
1306	 0.272974288544719 
1307	 0.272996420096899 
1308	 0.273015596868934 
1309	 0.273011275588078 
1310	 0.272985098234767 
1311	 0.272962465030592 
1312	 0.272937981707376 
1313	 0.272886916248394 
1314	 0.272816000688753 
1315	 0.272761929998647 
1316	 0.272685391420573 
1317	 0.272627487617074 
1318	 0.27258828621796 
1319	 0.272545969595434 
1320	 0.272508732411527 
1321	 0.272466379254912 
1322	 0.272427740477886 
1323	 0.27239269055106 
1324	 0.272333305081047 
1325	 0.272269834940608 
1326	 0.272213310689185 
1327	 0.272143351795396 
1328	 0.272081545240336 
1329	 0.272039804389719 
1330	 0.271981090907909 
1331	 0.271920841075995 
1332	 0.271856156328554 
1333	 0.271783938984639 
1334	 0.271711524349246 
1335	 0.27162509795872 
1336	 0.271561413823212 
1337	 0.271519522118842 
1338	 0.271453560427898 
1339	 0.271390156649236 
1340	 0.271324048565185 
1341	 0.271233758872765 
1342	 0.271154542662612 
1343	 0.271075967506019 
1344	 0.271015872108662 
1345	 0.270956621693323 
1346	 0.270901076346632 
1347	 0.270863224779273 
1348	 0.270833136093563 
1349	 0.270771929903707 
1350	 0.270712670343012 
1351	 0.270651734819262 
1352	 0.270583456332128 
1353	 0.270499283316786 
1354	 0.27041251080767 
1355	 0.27031668727786 
1356	 0.270193212189885 
1357	 0.270094697187822 
1358	 0.270004412136344 
1359	 0.269920602366076 
1360	 0.269831753905007 
1361	 0.269765888817783 
1362	 0.269722770422466 
1363	 0.269673080439856 
1364	 0.26963226396619 
1365	 0.269598441755446 
1366	 0.269561711901657 
1367	 0.269534760113026 
1368	 0.269526459445755 
1369	 0.26952597890925 
1370	 0.26950998556393 
1371	 0.269464088771805 
1372	 0.269388483367503 
1373	 0.269310388646365 
1374	 0.269229593189544 
1375	 0.269138743857768 
1376	 0.269042859545373 
1377	 0.268957134720334 
1378	 0.268831561654139 
1379	 0.268671379532587 
1380	 0.268531175347422 
1381	 0.268365855397088 
1382	 0.268222235898224 
1383	 0.268108315887884 
1384	 0.267972759548747 
1385	 0.267840355926012 
1386	 0.267696332843685 
1387	 0.267547926696789 
1388	 0.267380156042446 
1389	 0.267203462643732 
1390	 0.267000765659799 
1391	 0.266807018615524 
1392	 0.266589540685619 
1393	 0.266326402992298 
1394	 0.266059960621273 
1395	 0.265758827492765 
1396	 0.265446007215566 
1397	 0.265155408825632 
1398	 0.264884214239526 
1399	 0.264591849847284 
1400	 0.264294637951311 
1401	 0.263993022633833 
1402	 0.263674641490828 
1403	 0.263380261394942 
1404	 0.263086511533725 
1405	 0.262818547302753 
1406	 0.262566387436545 
1407	 0.262321407112458 
1408	 0.26210076746391 
1409	 0.261870733972185 
1410	 0.261637035996242 
1411	 0.261424793542329 
1412	 0.261220425805009 
1413	 0.261014794900477 
1414	 0.260851771482031 
1415	 0.260703002754937 
1416	 0.260544356183942 
1417	 0.260423115916742 
1418	 0.260319051209247 
1419	 0.26021064968174 
1420	 0.260135009941659 
1421	 0.260065232907645 
1422	 0.259986367564742 
1423	 0.259918004437743 
1424	 0.259835515375921 
1425	 0.259743764702888 
1426	 0.259658246378612 
1427	 0.259554978558623 
1428	 0.259484736189406 
1429	 0.25942623694314 
1430	 0.259386223229033 
1431	 0.259387372277997 
1432	 0.259355268154055 
1433	 0.259321045089089 
1434	 0.259282110795869 
1435	 0.25920320902082 
1436	 0.25917335343921 
1437	 0.259165241780456 
1438	 0.259167123561993 
1439	 0.259199061873079 
1440	 0.259239988483094 
1441	 0.259246351032053 
1442	 0.259257724384638 
1443	 0.259251996614558 
1444	 0.259226858230292 
1445	 0.259238265022704 
1446	 0.259268399897036 
1447	 0.259307776460877 
1448	 0.259345451544522 
1449	 0.259363024560345 
1450	 0.259374028692685 
1451	 0.259379086044706 
1452	 0.259358877766584 
1453	 0.259381483149417 
1454	 0.25941320713782 
1455	 0.259453663316598 
1456	 0.259531378388816 
1457	 0.259583081731101 
1458	 0.259622365201059 
1459	 0.259668544508705 
1460	 0.259701317205166 
1461	 0.259761169581342 
1462	 0.259844094353554 
1463	 0.259917383931103 
1464	 0.260013449682076 
1465	 0.260079978335994 
1466	 0.260119413219654 
1467	 0.260171363109344 
1468	 0.260205831154793 
1469	 0.260263567286089 
1470	 0.260335436091484 
1471	 0.260411349781901 
1472	 0.260510931922502 
1473	 0.260613325968001 
1474	 0.260693960711991 
1475	 0.260773877646414 
1476	 0.260840720166435 
1477	 0.260910562719078 
1478	 0.260998752881847 
1479	 0.261085197788526 
1480	 0.261186654486679 
1481	 0.26128115213718 
1482	 0.261373299976196 
1483	 0.261476541282695 
1484	 0.261560269398676 
1485	 0.261622219789194 
1486	 0.261701956082547 
1487	 0.261770513466782 
1488	 0.261859667755157 
1489	 0.261977386023124 
1490	 0.262076812035256 
1491	 0.262186255866025 
1492	 0.262268416275206 
1493	 0.262320748595824 
1494	 0.262393586129421 
1495	 0.262455128460821 
1496	 0.262536743430086 
1497	 0.262647440190971 
1498	 0.262735225779688 
1499	 0.262821900631435 
1500	 0.262902152982891 
1501	 0.262968702536515 
1502	 0.263037203422555 
1503	 0.263100993860192 
1504	 0.263166750880627 
1505	 0.263238736532717 
1506	 0.26332839840611 
1507	 0.263420093878928 
1508	 0.263509620322006 
1509	 0.263576889279844 
1510	 0.263616207848913 
1511	 0.263659607494988 
1512	 0.263696154562413 
1513	 0.263724173962944 
1514	 0.263789005474721 
1515	 0.263863751085314 
1516	 0.263926900091198 
1517	 0.2639869080008 
1518	 0.264052916198914 
1519	 0.264107007229697 
1520	 0.264148726313119 
1521	 0.26419791811104 
1522	 0.264244204484054 
1523	 0.264297933203732 
1524	 0.264357187782968 
1525	 0.264403862556226 
1526	 0.264451365656733 
1527	 0.264504389080835 
1528	 0.264546281110234 
1529	 0.26459487001639 
1530	 0.264661159774714 
1531	 0.264710947238508 
1532	 0.264749759653222 
1533	 0.264791585237754 
1534	 0.26483191774083 
1535	 0.264866165972394 
1536	 0.264889526715404 
1537	 0.264929340781417 
1538	 0.264975541939361 
1539	 0.265014377551543 
1540	 0.265061781123201 
1541	 0.265106805592145 
1542	 0.265136161655328 
1543	 0.265178757347324 
1544	 0.265239771055865 
1545	 0.265287312049302 
1546	 0.26533265086853 
1547	 0.265379260570645 
1548	 0.265407574102398 
1549	 0.265420848448473 
1550	 0.265437983194273 
1551	 0.265479879422278 
1552	 0.265525423982524 
1553	 0.265587169229348 
1554	 0.265660595389183 
1555	 0.265703075683384 
1556	 0.265728459015305 
1557	 0.265734376035669 
1558	 0.265740592931511 
1559	 0.265753318797585 
1560	 0.265763884274595 
1561	 0.26579112073993 
1562	 0.265803601261493 
1563	 0.265792491331401 
1564	 0.265811687373104 
1565	 0.265852796977115 
1566	 0.26586957065821 
1567	 0.265892682054911 
1568	 0.265896513086241 
1569	 0.265868166940605 
1570	 0.265869671398994 
1571	 0.265884635210102 
1572	 0.265888411169528 
1573	 0.265894525450476 
1574	 0.265903558805941 
1575	 0.265901688643673 
1576	 0.265912468353015 
1577	 0.265943935165978 
1578	 0.265957566922092 
1579	 0.265954336410168 
1580	 0.265973331750521 
1581	 0.265998108448511 
1582	 0.266025466240162 
1583	 0.266081819935106 
1584	 0.266107282333005 
1585	 0.266116515225814 
1586	 0.266121206488178 
1587	 0.266100556158285 
1588	 0.2660989916365 
1589	 0.266105955408661 
1590	 0.266109694130758 
1591	 0.266120518465106 
1592	 0.266127942833043 
1593	 0.266125117956986 
1594	 0.266130069979889 
1595	 0.266143735115463 
1596	 0.266152967408142 
1597	 0.266171931074666 
1598	 0.26617506198207 
1599	 0.266172035682688 
1600	 0.266158867734399 
1601	 0.266119416480223 
1602	 0.266095783072389 
1603	 0.266055161364366 
1604	 0.266046599286781 
1605	 0.266068232273755 
1606	 0.266089837245225 
1607	 0.266127457926851 
1608	 0.26617747608944 
1609	 0.266224177315044 
1610	 0.26626307979939 
1611	 0.266275966641696 
1612	 0.266277756106484 
1613	 0.266254558357068 
1614	 0.266220475032983 
1615	 0.266213909852331 
1616	 0.266199488676068 
1617	 0.266183027519456 
1618	 0.266183420557148 
1619	 0.266191911431087 
1620	 0.266205060707275 
1621	 0.266213568338819 
1622	 0.266235032735428 
1623	 0.266241086525737 
1624	 0.266229279240802 
1625	 0.266240173626623 
1626	 0.266259544458945 
1627	 0.266270097199651 
1628	 0.266282880128987 
1629	 0.266304615172819 
1630	 0.266327486568092 
1631	 0.266347925834962 
1632	 0.266375458784665 
1633	 0.266404346747216 
1634	 0.266437514768021 
1635	 0.266442770701194 
1636	 0.266446024515273 
1637	 0.266440543333611 
1638	 0.266388543025436 
1639	 0.26639450130379 
1640	 0.26643615204437 
1641	 0.26645548657429 
1642	 0.26648328108153 
1643	 0.266516536756965 
1644	 0.266554060827169 
1645	 0.266567923514176 
1646	 0.266584885474934 
1647	 0.266591967132089 
1648	 0.266568054883524 
1649	 0.266559852734127 
1650	 0.266566851178931 
1651	 0.26655813290884 
1652	 0.266535538515024 
1653	 0.266519091904735 
1654	 0.266506463516256 
1655	 0.266484130383408 
1656	 0.266452158835168 
1657	 0.266429956455715 
1658	 0.266407366025819 
1659	 0.266383958890339 
1660	 0.266368973915082 
1661	 0.266344424132558 
1662	 0.26630229364967 
1663	 0.266285146082454 
1664	 0.266266890204834 
1665	 0.266276196910104 
1666	 0.266319157766456 
1667	 0.266344605801632 
1668	 0.266387168410232 
1669	 0.266408019158421 
1670	 0.266415004915599 
1671	 0.266418249945961 
1672	 0.266414928916885 
1673	 0.266403867463755 
1674	 0.266378772623151 
1675	 0.266362057784509 
1676	 0.266337414035917 
1677	 0.266326016634524 
1678	 0.266328128374137 
1679	 0.266319472259688 
1680	 0.266304753760939 
1681	 0.266305617992857 
1682	 0.266301073141028 
1683	 0.266318335787685 
1684	 0.266370996115838 
1685	 0.266394116314294 
1686	 0.266420715774738 
1687	 0.266428475523426 
1688	 0.266411586532605 
1689	 0.266401244783969 
1690	 0.266385405235451 
1691	 0.266368593950215 
1692	 0.266346411147783 
1693	 0.266332000229005 
1694	 0.266317989050401 
1695	 0.266305117821434 
1696	 0.266300924710992 
1697	 0.266288355259153 
1698	 0.266270078554441 
1699	 0.266254134370321 
1700	 0.266225636970644 
1701	 0.266222169678043 
1702	 0.266237113619375 
1703	 0.266242510653948 
1704	 0.266266685521211 
1705	 0.26626758774577 
1706	 0.266248519046569 
1707	 0.266232810463019 
1708	 0.266215315163116 
1709	 0.266191088291227 
1710	 0.266159401818536 
1711	 0.266134011580194 
1712	 0.266105978705141 
1713	 0.266074067085914 
1714	 0.266039416311837 
1715	 0.266012915221699 
1716	 0.265978531431536 
1717	 0.265961124231247 
1718	 0.265971303321403 
1719	 0.265952894257423 
1720	 0.265923940316676 
1721	 0.265906862149004 
1722	 0.265886749913327 
1723	 0.265858630273857 
1724	 0.265829026973209 
1725	 0.265809243189942 
1726	 0.265779343434015 
1727	 0.265759470025751 
1728	 0.265767682149187 
1729	 0.265748813284742 
1730	 0.265726357580367 
1731	 0.265676526215187 
1732	 0.265591927077527 
1733	 0.265544992075466 
1734	 0.265500222428523 
1735	 0.265437410646034 
1736	 0.265391362516795 
1737	 0.26533752392269 
1738	 0.265248753284815 
1739	 0.265191526547255 
1740	 0.265165701649411 
1741	 0.265113542726323 
1742	 0.26504756898107 
1743	 0.265001682177545 
1744	 0.264969311409868 
1745	 0.264907505569474 
1746	 0.264833452586693 
1747	 0.264770532870242 
1748	 0.264712028534343 
1749	 0.264695608716816 
1750	 0.264683532656232 
1751	 0.264633091129598 
1752	 0.264574719447957 
1753	 0.264506046157057 
1754	 0.264429996470826 
1755	 0.264369616155588 
1756	 0.264325299229183 
1757	 0.264270508546702 
1758	 0.264205081011539 
1759	 0.264163208082657 
1760	 0.264104738866299 
1761	 0.264033015291065 
1762	 0.263997299543664 
1763	 0.263963548183207 
1764	 0.263915640284814 
1765	 0.263866025353785 
1766	 0.26381525645415 
1767	 0.263756603538052 
1768	 0.263698555207132 
1769	 0.263678962406031 
1770	 0.263673811112774 
1771	 0.263638593073745 
1772	 0.263600196151725 
1773	 0.263583668783122 
1774	 0.263560053347828 
1775	 0.263526998426346 
1776	 0.263503135441721 
1777	 0.263448442116456 
1778	 0.263370019350283 
1779	 0.263316579625017 
1780	 0.263297367001953 
1781	 0.263296087795289 
1782	 0.263296802180544 
1783	 0.263295600059855 
1784	 0.263293673658462 
1785	 0.263294015074622 
1786	 0.263286597328853 
1787	 0.263282388189077 
1788	 0.263270565742339 
1789	 0.263234734297408 
1790	 0.263211090168422 
1791	 0.263206722031721 
1792	 0.263192396910965 
1793	 0.263172380395467 
1794	 0.263143424555668 
1795	 0.263093371690973 
1796	 0.263058314704772 
1797	 0.263021050022333 
1798	 0.263015069863267 
1799	 0.26305598031915 
1800	 0.263042474853366 
1801	 0.258378928446036 
1802	 0.258598101877439 
1803	 0.258818141362199 
1804	 0.259093980121108 
1805	 0.259396000204165 
1806	 0.259682885603793 
1807	 0.259944781186877 
1808	 0.260158493877981 
1809	 0.260328267464565 
1810	 0.260492079161326 
1811	 0.260602680031947 
1812	 0.260749748288769 
1813	 0.260917884737744 
1814	 0.261020162388221 
1815	 0.261123788667601 
1816	 0.261184523972209 
1817	 0.261239845752797 
1818	 0.261276219210112 
1819	 0.261316153346861 
1820	 0.261340405206192 
1821	 0.261360812336128 
1822	 0.26141909734536 
1823	 0.261442340551886 
1824	 0.261495022493785 
1825	 0.261555877362862 
1826	 0.261595034134863 
1827	 0.261639026876148 
1828	 0.261660536074979 
1829	 0.261664632332662 
1830	 0.261674784356656 
1831	 0.261676223735648 
1832	 0.261667166273682 
1833	 0.261659309434002 
1834	 0.261660248208051 
1835	 0.261686114358711 
1836	 0.261692634831237 
1837	 0.261707725126156 
1838	 0.261756540618133 
1839	 0.261788549394406 
1840	 0.261813114007113 
1841	 0.261840842506002 
1842	 0.261868380444944 
1843	 0.261883077304207 
1844	 0.261917802210195 
1845	 0.261942822494478 
1846	 0.261959413940424 
1847	 0.261968067276271 
1848	 0.261960017894847 
1849	 0.26196213339903 
1850	 0.261963139114987 
1851	 0.261969026964473 
1852	 0.261976991689181 
1853	 0.261984673188237 
1854	 0.261969410467727 
1855	 0.261960625044328 
1856	 0.261948894078205 
1857	 0.26190294431431 
1858	 0.261846466470486 
1859	 0.261781558994429 
1860	 0.261684055989576 
1861	 0.261559466563458 
1862	 0.261412529257867 
1863	 0.261249993552464 
1864	 0.261052057117023 
1865	 0.260837295689894 
1866	 0.260615473704334 
1867	 0.260381990604708 
1868	 0.260128448736203 
1869	 0.259850324522413 
1870	 0.259558097580595 
1871	 0.259251677054528 
1872	 0.258928774505593 
1873	 0.258590070740802 
1874	 0.258233327956218 
1875	 0.25787321980266 
1876	 0.257473197593675 
1877	 0.25702314181973 
1878	 0.256560528893737 
1879	 0.256052971845745 
1880	 0.255486247972592 
1881	 0.254878429769167 
1882	 0.254224635501326 
1883	 0.253517920468587 
1884	 0.252735981592375 
1885	 0.251962777337633 
1886	 0.251137497487321 
1887	 0.250231677362643 
1888	 0.249315843278394 
1889	 0.248319480331244 
1890	 0.247264115269317 
1891	 0.24621341370141 
1892	 0.245125950235219 
1893	 0.244030401284779 
1894	 0.242913436083167 
1895	 0.241807499296738 
1896	 0.240679586329822 
1897	 0.239585195521254 
1898	 0.238486406255848 
1899	 0.237389346792915 
1900	 0.236320269136607 
1901	 0.235266454686835 
1902	 0.234270825534792 
1903	 0.233326901241596 
1904	 0.232418354652001 
1905	 0.231546335823969 
1906	 0.230729777632705 
1907	 0.229956557919609 
1908	 0.229218282381314 
1909	 0.228540412940762 
1910	 0.227890048710662 
1911	 0.227248561586809 
1912	 0.226651209381093 
1913	 0.226086510662573 
1914	 0.225536010457988 
1915	 0.225040339252745 
1916	 0.224599742871126 
1917	 0.224175302322264 
1918	 0.223792524256505 
1919	 0.223467559943117 
1920	 0.223136206009612 
1921	 0.222838342692638 
1922	 0.222564177038025 
1923	 0.222284462058631 
1924	 0.222065795144201 
1925	 0.221888896933443 
1926	 0.221748883504342 
1927	 0.221648676623836 
1928	 0.22159704169235 
1929	 0.221549198860551 
1930	 0.221525924665646 
1931	 0.221529905840002 
1932	 0.22153002505484 
1933	 0.221558690873585 
1934	 0.221616757793284 
1935	 0.221670871149322 
1936	 0.221712350563384 
1937	 0.221800919774269 
1938	 0.221921529657631 
1939	 0.222041762407697 
1940	 0.222188594755424 
1941	 0.222346336977609 
1942	 0.222497094978944 
1943	 0.222650507389361 
1944	 0.222799122461109 
1945	 0.22297634066734 
1946	 0.223151870187711 
1947	 0.223313114133057 
1948	 0.223510160952064 
1949	 0.223735853347814 
1950	 0.223954309659212 
1951	 0.224175912323471 
1952	 0.224432171061631 
1953	 0.224673904942383 
1954	 0.224947560349112 
1955	 0.225255492688455 
1956	 0.225568278570032 
1957	 0.225884367175039 
1958	 0.22621169302884 
1959	 0.226541403228577 
1960	 0.226882010132999 
1961	 0.227216404188002 
1962	 0.22755212025848 
1963	 0.227895570372378 
1964	 0.228239064972827 
1965	 0.228585168314457 
1966	 0.22893362920306 
1967	 0.229282183324851 
1968	 0.229628617593356 
1969	 0.229957518759139 
1970	 0.230306662130832 
1971	 0.230672599004327 
1972	 0.231034972922895 
1973	 0.231410839869371 
1974	 0.231779582348216 
1975	 0.232164448248294 
1976	 0.232501396490308 
1977	 0.232845053181906 
1978	 0.233177459746072 
1979	 0.233522818200758 
1980	 0.233876690000248 
1981	 0.234203501832067 
1982	 0.234514310008243 
1983	 0.234849357941062 
1984	 0.235168781438769 
1985	 0.235504037607166 
1986	 0.235885678856072 
1987	 0.236228891436837 
1988	 0.236550389004234 
1989	 0.2368721658394 
1990	 0.237177465480708 
1991	 0.237485675577025 
1992	 0.2378023521828 
1993	 0.238116598209059 
1994	 0.238441113203627 
1995	 0.238784388598868 
1996	 0.239111133461228 
1997	 0.23944094265626 
1998	 0.239760182153684 
1999	 0.240058355578763 
2000	 0.240373157579605 
2001	 0.240700680159118 
2002	 0.241012445696698 
2003	 0.241327577826338 
2004	 0.241642108524799 
2005	 0.241942228446913 
2006	 0.242230167882973 
2007	 0.242513201223056 
2008	 0.242777984696115 
2009	 0.243055915905398 
2010	 0.243329781009295 
2011	 0.243607754518333 
2012	 0.243914307586918 
2013	 0.244191191783064 
2014	 0.244452589441437 
2015	 0.244697887931017 
2016	 0.244950746776324 
2017	 0.245210520005171 
2018	 0.245489447149638 
2019	 0.245796482004092 
2020	 0.246097598053295 
2021	 0.246414349267374 
2022	 0.246710441483863 
2023	 0.247008943870556 
2024	 0.247291460419134 
2025	 0.247557312366699 
2026	 0.247823780298744 
2027	 0.248080934509513 
2028	 0.248331564255682 
2029	 0.248599421208306 
2030	 0.24888281181091 
2031	 0.249127872257108 
2032	 0.249364318340484 
2033	 0.249604552291315 
2034	 0.249821884477315 
2035	 0.250042742224962 
2036	 0.250267741168712 
2037	 0.250500211718736 
2038	 0.25072686543403 
2039	 0.250949038589762 
2040	 0.251181311690203 
2041	 0.251419712899294 
2042	 0.251621416321502 
2043	 0.251822141715382 
2044	 0.252024519173751 
2045	 0.252224622070093 
2046	 0.252419700367652 
2047	 0.252615050880479 
2048	 0.252803211583028 
2049	 0.252998362787268 
2050	 0.253166133968357 
2051	 0.253312775139578 
2052	 0.253461010899075 
2053	 0.253565556898559 
2054	 0.253708594811717 
2055	 0.253883781096005 
2056	 0.254055205787731 
2057	 0.254203799384387 
2058	 0.254354339109898 
2059	 0.2545064826917 
2060	 0.254637605610593 
2061	 0.254775060858203 
2062	 0.254936220642223 
2063	 0.255072381508866 
2064	 0.255169685112713 
2065	 0.255298038934099 
2066	 0.255429905911938 
2067	 0.255574982256496 
2068	 0.255734224498349 
2069	 0.255907651029662 
2070	 0.256072171400355 
2071	 0.256247763749139 
2072	 0.256403387051412 
2073	 0.256546219990062 
2074	 0.256695925315133 
2075	 0.256841380436759 
2076	 0.256988512332474 
2077	 0.257135417798083 
2078	 0.257287564005998 
2079	 0.257440140015804 
2080	 0.257590258425281 
2081	 0.257749321106205 
2082	 0.257902118900393 
2083	 0.258048932725576 
2084	 0.258194737730893 
2085	 0.258337009009392 
2086	 0.258473840999956 
2087	 0.25862053359501 
2088	 0.258770578062881 
2089	 0.25891312511696 
2090	 0.25906297480131 
2091	 0.259198322305292 
2092	 0.259313711469697 
2093	 0.259444773344681 
2094	 0.259575584060537 
2095	 0.259712506325585 
2096	 0.259852881119281 
2097	 0.26000065707235 
2098	 0.260158203767497 
2099	 0.260315628642327 
2100	 0.260468411163903 
2101	 0.260625748854291 
2102	 0.260780742496491 
2103	 0.260924310377722 
2104	 0.261083651578959 
2105	 0.261254390329328 
2106	 0.261421046447408 
2107	 0.261588904172048 
2108	 0.2617619585526 
2109	 0.261937833434639 
2110	 0.262115473541399 
2111	 0.262324793518015 
2112	 0.262490051353205 
2113	 0.262628796250398 
2114	 0.262761547746507 
2115	 0.262903928745902 
2116	 0.263013318390139 
2117	 0.263169404073883 
2118	 0.263370980252993 
2119	 0.263531332260611 
2120	 0.263690787161405 
2121	 0.26383903012039 
2122	 0.263960879379274 
2123	 0.264099081348396 
2124	 0.264255010278835 
2125	 0.264383563848019 
2126	 0.264515691210867 
2127	 0.264620361985108 
2128	 0.264687423576694 
2129	 0.264758626942327 
2130	 0.26481187324707 
2131	 0.264865698891716 
2132	 0.264927700795879 
2133	 0.264998354547098 
2134	 0.26505232537673 
2135	 0.265106697487071 
2136	 0.26515031022195 
2137	 0.265185248042781 
2138	 0.265206314520745 
2139	 0.265225711930342 
2140	 0.265225954930715 
2141	 0.265208265782204 
2142	 0.265175242947388 
2143	 0.265124891318876 
2144	 0.265067512335189 
2145	 0.264994277248979 
2146	 0.264912818600628 
2147	 0.264825118981244 
2148	 0.264721295779316 
2149	 0.264620831751917 
2150	 0.26450027289386 
2151	 0.264407401243534 
2152	 0.264342404112999 
2153	 0.264235173989798 
2154	 0.264129821811324 
2155	 0.263998945710437 
2156	 0.263835508921993 
2157	 0.263663881890554 
2158	 0.263477776570318 
2159	 0.263288357213644 
2160	 0.263075453375165 
2161	 0.262868596976115 
2162	 0.262654937263037 
2163	 0.262451204642371 
2164	 0.262244570892233 
2165	 0.262049004536576 
2166	 0.261855699954593 
2167	 0.261680611635299 
2168	 0.26148255272283 
2169	 0.261271403399546 
2170	 0.261073122675849 
2171	 0.260863300559786 
2172	 0.260677881817565 
2173	 0.26051015221954 
2174	 0.260343477811532 
2175	 0.260198772110929 
2176	 0.260032453579141 
2177	 0.259876128070944 
2178	 0.259691044405043 
2179	 0.259463826642622 
2180	 0.259262389808253 
2181	 0.259063699644987 
2182	 0.258854409234817 
2183	 0.258631848549364 
2184	 0.258439886685116 
2185	 0.258260759704844 
2186	 0.25807253219872 
2187	 0.257919690032715 
2188	 0.257829159615556 
2189	 0.257678340874049 
2190	 0.257504128603855 
2191	 0.257347610173123 
2192	 0.25716538200385 
2193	 0.257016545330914 
2194	 0.256902129404073 
2195	 0.256774558975917 
2196	 0.256643908808068 
2197	 0.256528711528543 
2198	 0.256405577385769 
2199	 0.25631017103664 
2200	 0.256256804461314 
2201	 0.256185772435021 
2202	 0.256119995484822 
2203	 0.256054843501258 
2204	 0.255999192208326 
2205	 0.255929156101325 
2206	 0.255894812963905 
2207	 0.255890305579948 
2208	 0.255877803650565 
2209	 0.255881620737608 
2210	 0.255872754526999 
2211	 0.25586577181678 
2212	 0.255850277259526 
2213	 0.255811351072746 
2214	 0.255805141869435 
2215	 0.255832744242795 
2216	 0.255821517802423 
2217	 0.255789814289693 
2218	 0.255786491198608 
2219	 0.255747964717544 
2220	 0.255754525483464 
2221	 0.25580743108082 
2222	 0.25589064500766 
2223	 0.255936097562597 
2224	 0.255974156741316 
2225	 0.256023289052327 
2226	 0.25606556267277 
2227	 0.256106559354277 
2228	 0.256169693579221 
2229	 0.256196855182835 
2230	 0.256194854857167 
2231	 0.25619944089217 
2232	 0.256197016549893 
2233	 0.256188912623008 
2234	 0.256162064805915 
2235	 0.256161831159554 
2236	 0.256175805475609 
2237	 0.256173526896137 
2238	 0.256179656397543 
2239	 0.256180685108716 
2240	 0.256160590942734 
2241	 0.256153720622725 
2242	 0.256173603619444 
2243	 0.256167464545687 
2244	 0.256153224584663 
2245	 0.256121093469967 
2246	 0.256082643817318 
2247	 0.25604255136148 
2248	 0.256032601982777 
2249	 0.256041584119364 
2250	 0.256048843324038 
2251	 0.256084489543715 
2252	 0.256082812529196 
2253	 0.256063067188886 
2254	 0.256055202714761 
2255	 0.256034268341129 
2256	 0.256024433072197 
2257	 0.256018429990412 
2258	 0.256020441704022 
2259	 0.256028795305639 
2260	 0.256038555753759 
2261	 0.25606632424573 
2262	 0.256082030316577 
2263	 0.256109689927233 
2264	 0.256099432003472 
2265	 0.256041519695759 
2266	 0.25602412677004 
2267	 0.255977483860918 
2268	 0.255970696933687 
2269	 0.256011302768668 
2270	 0.256078683349829 
2271	 0.256110559457609 
2272	 0.256137371619978 
2273	 0.256127292569433 
2274	 0.256083364128892 
2275	 0.256051881506589 
2276	 0.256001008219366 
2277	 0.255975448883216 
2278	 0.255962928248057 
2279	 0.255930830162623 
2280	 0.255899746452419 
2281	 0.255874473982263 
2282	 0.255835905466355 
2283	 0.255815037514217 
2284	 0.255807417126118 
2285	 0.25579828547517 
2286	 0.255790029420691 
2287	 0.255785777851669 
2288	 0.255775459078643 
2289	 0.255800000150141 
2290	 0.255868862716083 
2291	 0.255895986058819 
2292	 0.255950173871664 
2293	 0.255953728524358 
2294	 0.255881558239592 
2295	 0.255833436470339 
2296	 0.255761952915288 
2297	 0.255721600502344 
2298	 0.25568796410836 
2299	 0.255678640572329 
2300	 0.255696977734388 
2301	 0.255709683722965 
2302	 0.255716397971249 
2303	 0.255714654179063 
2304	 0.255726892243427 
2305	 0.255728038179693 
2306	 0.255686266735033 
2307	 0.255630071832285 
2308	 0.255564572192671 
2309	 0.25542707205159 
2310	 0.255360765531943 
2311	 0.255320017022429 
2312	 0.255289524646447 
2313	 0.255308677913879 
2314	 0.255275421812707 
2315	 0.255238250127077 
2316	 0.255192367729327 
2317	 0.255128876046868 
2318	 0.255042090616311 
2319	 0.254913453538544 
2320	 0.254818663621071 
2321	 0.254714136823444 
2322	 0.254621185307792 
2323	 0.254564362079898 
2324	 0.254513298922387 
2325	 0.254435930115644 
2326	 0.254394309652236 
2327	 0.254397846904756 
2328	 0.254393622529906 
2329	 0.254371516489586 
2330	 0.254339488981225 
2331	 0.254351237125907 
2332	 0.254349206120819 
2333	 0.254334351753966 
2334	 0.254374211772879 
2335	 0.254363173193415 
2336	 0.254329406805705 
2337	 0.254306623803682 
2338	 0.254276848469176 
2339	 0.25424609578896 
2340	 0.254187091837996 
2341	 0.254198635330252 
2342	 0.254215285496099 
2343	 0.254163788916185 
2344	 0.254156654382182 
2345	 0.254087406162386 
2346	 0.253942972914053 
2347	 0.253829294088354 
2348	 0.253716504553869 
2349	 0.253582012035438 
2350	 0.253447693210661 
2351	 0.253291983539837 
2352	 0.253087786816401 
2353	 0.252922010849228 
2354	 0.252747792902461 
2355	 0.252615130372312 
2356	 0.252533556119665 
2357	 0.2524296368899 
2358	 0.252343878183851 
2359	 0.252231893301728 
2360	 0.252081163701378 
2361	 0.251976118237849 
2362	 0.251897870321318 
2363	 0.251787295252992 
2364	 0.251695142731563 
2365	 0.251590645660101 
2366	 0.251443841466508 
2367	 0.251334920405839 
2368	 0.251268806371516 
2369	 0.251146695604422 
2370	 0.250997753815848 
2371	 0.250857342521448 
2372	 0.2507024970465 
2373	 0.250531905946189 
2374	 0.250386668267995 
2375	 0.250212842079767 
2376	 0.250025320359947 
2377	 0.249829463681721 
2378	 0.249672622880413 
2379	 0.249567618511428 
2380	 0.249404759395751 
2381	 0.249275998357091 
2382	 0.2491533950148 
2383	 0.248965982427336 
2384	 0.248839927185455 
2385	 0.24871957900996 
2386	 0.248468378527727 
2387	 0.24820498000737 
2388	 0.247998565147467 
2389	 0.247780039459176 
2390	 0.247640932246961 
2391	 0.24753549340617 
2392	 0.247347355272463 
2393	 0.247138404922677 
2394	 0.246893381696446 
2395	 0.246696507878076 
2396	 0.246579934235397 
2397	 0.246495073494292 
2398	 0.246435346597312 
2399	 0.246260926280269 
2400	 0.246056678695576 
2401	 0.245774114216978 
2402	 0.245453819567472 
2403	 0.245306789590536 
2404	 0.245165029931379 
2405	 0.245047699674519 
2406	 0.244908915384989 
2407	 0.244635153102916 
2408	 0.244333624772951 
2409	 0.244008700253967 
2410	 0.243771060249127 
2411	 0.243622487570288 
2412	 0.243379534704857 
2413	 0.243159752966134 
2414	 0.243008851996681 
2415	 0.242765998537444 
2416	 0.242556172543052 
2417	 0.242448219762992 
2418	 0.242224491325131 
2419	 0.241925538864201 
2420	 0.241619835817119 
2421	 0.241241834803966 
2422	 0.240943028020343 
2423	 0.240635663817173 
2424	 0.240397003620254 
2425	 0.240280794031604 
2426	 0.240033186612874 
2427	 0.239715319303966 
2428	 0.239453918917868 
2429	 0.239159538531244 
2430	 0.238912249269959 
2431	 0.238803039144563 
2432	 0.238531241813142 
2433	 0.238138004451708 
2434	 0.237793331910522 
2435	 0.237328933302306 
2436	 0.237001216390642 
2437	 0.236781664441305 
2438	 0.236598419420885 
2439	 0.236544373920471 
2440	 0.236360810412178 
2441	 0.236180171715106 
2442	 0.235942291691288 
2443	 0.235561529294556 
2444	 0.235316636948139 
2445	 0.235125764597161 
2446	 0.234863179585562 
2447	 0.234642757332077 
2448	 0.234356392293325 
2449	 0.233918764236738 
2450	 0.233640630490393 
2451	 0.233523697681056 
2452	 0.233195838053618 
2453	 0.232845668527994 
2454	 0.232507231710461 
2455	 0.231985224042331 
2456	 0.231552194048027 
2457	 0.231160661423738 
2458	 0.230856419622046 
2459	 0.230609495902377 
2460	 0.230409334496187 
2461	 0.230435123689072 
2462	 0.230153166013905 
2463	 0.229660533719091 
2464	 0.229265685538664 
2465	 0.228688634063316 
2466	 0.228331304271285 
2467	 0.228162827210165 
2468	 0.227947998058186 
2469	 0.227858367024047 
2470	 0.227582543810027 
2471	 0.227265860725279 
2472	 0.227055030391684 
2473	 0.226822989766725 
2474	 0.22670072996264 
2475	 0.226748798985348 
2476	 0.226453334096794 
2477	 0.225964617943199 
2478	 0.225637943888955 
2479	 0.225160300642743 
2480	 0.224744186061664 
2481	 0.224641845982853 
2482	 0.224410605752337 
2483	 0.224041977768505 
2484	 0.223865458736022 
2485	 0.223665673264015 
2486	 0.22326806558376 
2487	 0.223058492808672 
2488	 0.222968251153743 
2489	 0.222640400828218 
2490	 0.222351822493299 
2491	 0.222056309417062 
2492	 0.221509059718954 
2493	 0.221130309475465 
2494	 0.221118111830887 
2495	 0.22115726478092 
2496	 0.221281935665156 
2497	 0.221502805828311 
2498	 0.221414547164052 
2499	 0.221250047623538 
2500	 0.221017562684859 
