Wavelength	mm2800013.asd
350	 5.12159416206055E-02 
351	 5.95530132409644E-02 
352	 0.05995692444605 
353	 4.99583492672517E-02 
354	 0.057214647593379 
355	 5.78319983881033E-02 
356	 5.52871903628452E-02 
357	 5.71220033019848E-02 
358	 5.86911860380073E-02 
359	 5.33014716012538E-02 
360	 0.049015580309956 
361	 5.98055236370986E-02 
362	 5.63706913587558E-02 
363	 0.053970733335179 
364	 5.89306450206955E-02 
365	 5.52428542277063E-02 
366	 5.21008551990662E-02 
367	 5.05988817725632E-02 
368	 5.12093475634251E-02 
369	 6.29869921523106E-02 
370	 6.15581028556778E-02 
371	 5.23095046663907E-02 
372	 5.89149782940172E-02 
373	 6.08733841816899E-02 
374	 5.98630209838959E-02 
375	 5.94576582667417E-02 
376	 6.18611699913414E-02 
377	 5.70723462607279E-02 
378	 5.37936396546524E-02 
379	 6.08413849003261E-02 
380	 6.27805675768388E-02 
381	 0.06168422085752 
382	 6.07834644707675E-02 
383	 6.30168638193167E-02 
384	 6.13331438681212E-02 
385	 6.08991741017181E-02 
386	 6.37520926926635E-02 
387	 6.23858367356616E-02 
388	 6.46278864031383E-02 
389	 6.56368605995352E-02 
390	 6.02216056773157E-02 
391	 6.10051240860689E-02 
392	 6.22127274535259E-02 
393	 6.28269048865663E-02 
394	 0.066118055231786 
395	 6.62545221497389E-02 
396	 6.51907680623631E-02 
397	 0.065147289570265 
398	 6.61995856027855E-02 
399	 6.66069687318859E-02 
400	 6.70251716556106E-02 
401	 6.84402830802852E-02 
402	 0.068418343861188 
403	 6.72484604456898E-02 
404	 6.62039885003901E-02 
405	 6.71840544977559E-02 
406	 6.85852462295035E-02 
407	 6.94002272209938E-02 
408	 0.069165564527416 
409	 6.81542202286739E-02 
410	 6.79649023601031E-02 
411	 6.84366201451467E-02 
412	 6.86905020441077E-02 
413	 6.96941675227713E-02 
414	 6.95545009541993E-02 
415	 0.068428977340674 
416	 0.069310823923695 
417	 6.97552842141646E-02 
418	 7.01433355913941E-02 
419	 7.09902577724656E-02 
420	 7.09344059621189E-02 
421	 7.03755920756692E-02 
422	 7.03351665852039E-02 
423	 7.18350660330968E-02 
424	 7.16117325970911E-02 
425	 7.09844242433182E-02 
426	 7.10950815815217E-02 
427	 7.17630917205798E-02 
428	 7.19036790468272E-02 
429	 7.15542305084492E-02 
430	 7.12595247882662E-02 
431	 7.19428890119876E-02 
432	 0.072348753892638 
433	 7.23973936382645E-02 
434	 7.31566146641622E-02 
435	 7.29903920554677E-02 
436	 7.26917349482698E-02 
437	 7.29155213872272E-02 
438	 0.072642998711375 
439	 0.072754248833274 
440	 7.31433267872028E-02 
441	 7.32827187141517E-02 
442	 7.35745519119717E-02 
443	 7.39057071913585E-02 
444	 7.40599006996427E-02 
445	 7.37125881551459E-02 
446	 7.36811618918652E-02 
447	 7.40016865424487E-02 
448	 7.43955718281114E-02 
449	 7.43306250836333E-02 
450	 0.074647527006292 
451	 7.52661215584826E-02 
452	 7.53431149671449E-02 
453	 7.54327144486129E-02 
454	 7.54512968780672E-02 
455	 7.53761905077452E-02 
456	 7.55844000845196E-02 
457	 7.60075408776649E-02 
458	 7.62676710864187E-02 
459	 7.60095662144204E-02 
460	 7.62073057254649E-02 
461	 7.64629637116043E-02 
462	 7.65883158905563E-02 
463	 7.68701662037454E-02 
464	 0.077024010236411 
465	 7.71078677584739E-02 
466	 7.72603874745113E-02 
467	 7.75492826488437E-02 
468	 7.77653968335955E-02 
469	 7.78210361551151E-02 
470	 7.77622022071103E-02 
471	 7.80229128572292E-02 
472	 7.82619154862041E-02 
473	 7.82733312400919E-02 
474	 7.84789515938418E-02 
475	 7.88023217663825E-02 
476	 7.90491275280245E-02 
477	 7.90440148826046E-02 
478	 7.92026330384462E-02 
479	 7.95071238414201E-02 
480	 7.97744784127014E-02 
481	 7.96448575691709E-02 
482	 7.98952759717757E-02 
483	 8.03101856895262E-02 
484	 8.04839713197182E-02 
485	 8.04431113200442E-02 
486	 8.05570977150562E-02 
487	 8.08354675197405E-02 
488	 0.080991007022975 
489	 8.11573304547336E-02 
490	 8.12000436447207E-02 
491	 8.11197925942874E-02 
492	 0.081355409236415 
493	 8.15703733926499E-02 
494	 8.17166972131767E-02 
495	 8.18813906879685E-02 
496	 8.20988722788171E-02 
497	 0.082282815391754 
498	 8.23971020234091E-02 
499	 8.24982196855057E-02 
500	 0.082524940951783 
501	 8.25353062203551E-02 
502	 8.26123920527216E-02 
503	 8.28013319286041E-02 
504	 8.29001674565849E-02 
505	 8.29517181708072E-02 
506	 8.32064807441437E-02 
507	 0.083277188526822 
508	 8.33429370026117E-02 
509	 8.35405098311106E-02 
510	 8.35930145234998E-02 
511	 8.36321135342924E-02 
512	 8.37000226235563E-02 
513	 8.37985770024228E-02 
514	 8.40329652746004E-02 
515	 8.40706997769388E-02 
516	 0.08392079003673 
517	 8.42704508078661E-02 
518	 8.43788871003542E-02 
519	 8.43860836205897E-02 
520	 8.46013510092553E-02 
521	 8.46103203387747E-02 
522	 8.46682895975087E-02 
523	 8.48393509043571E-02 
524	 8.49528277945862E-02 
525	 8.49704332159623E-02 
526	 8.49948151522429E-02 
527	 8.51133519726443E-02 
528	 8.52811780150113E-02 
529	 8.52511661388721E-02 
530	 8.51658770344876E-02 
531	 8.53794257328553E-02 
532	 8.54742710193536E-02 
533	 8.55522245880536E-02 
534	 0.085673424287194 
535	 8.56287578879263E-02 
536	 8.57334954531324E-02 
537	 8.59500781826953E-02 
538	 0.086098669426186 
539	 8.60832344448885E-02 
540	 8.61356851928693E-02 
541	 8.62942691004266E-02 
542	 8.63078176880084E-02 
543	 8.63623937052984E-02 
544	 8.64546286528918E-02 
545	 8.65431670839683E-02 
546	 8.66586312841309E-02 
547	 8.67014611067163E-02 
548	 8.66985581560743E-02 
549	 8.67774854982946E-02 
550	 8.68108578712035E-02 
551	 8.68498749866179E-02 
552	 8.69384644590983E-02 
553	 8.70252916568602E-02 
554	 8.70599765715876E-02 
555	 8.70823500854149E-02 
556	 8.71742397855172E-02 
557	 8.73105428104962E-02 
558	 8.74126722685345E-02 
559	 8.74793183025453E-02 
560	 8.76650454654791E-02 
561	 8.77174936062297E-02 
562	 8.77012462824454E-02 
563	 8.77706038273652E-02 
564	 8.79129518107497E-02 
565	 8.80077321409002E-02 
566	 8.80057363471376E-02 
567	 8.79468251640749E-02 
568	 8.79729639953908E-02 
569	 8.80705044595811E-02 
570	 0.088186709926928 
571	 8.82940785896105E-02 
572	 8.83950064842114E-02 
573	 8.84818033096726E-02 
574	 8.85374127708707E-02 
575	 8.84970887485631E-02 
576	 8.85416053154644E-02 
577	 8.87292938632383E-02 
578	 8.87742199357272E-02 
579	 8.87714227656323E-02 
580	 8.87281784947875E-02 
581	 8.86415063773118E-02 
582	 8.86340147672731E-02 
583	 8.86808146983615E-02 
584	 8.87588745958469E-02 
585	 8.88685439912239E-02 
586	 8.90424758119592E-02 
587	 8.92149750504035E-02 
588	 8.93375176960287E-02 
589	 8.95784280633879E-02 
590	 8.97511116914633E-02 
591	 8.98364804582088E-02 
592	 8.99715249626172E-02 
593	 9.00313353031573E-02 
594	 8.99715890310263E-02 
595	 8.98200962593277E-02 
596	 8.97435157690938E-02 
597	 8.96593052379842E-02 
598	 0.089566753168984 
599	 8.95105347547257E-02 
600	 8.95308463178442E-02 
601	 8.96372425475174E-02 
602	 8.97827404798928E-02 
603	 8.98255012566412E-02 
604	 0.089877910153214 
605	 8.99768456157777E-02 
606	 9.01203527199793E-02 
607	 9.02474737740529E-02 
608	 9.03480192911994E-02 
609	 9.04487024648638E-02 
610	 9.06112653240444E-02 
611	 9.06591854527668E-02 
612	 0.090675131984724 
613	 9.07413986266774E-02 
614	 9.07030659835519E-02 
615	 9.07012193496304E-02 
616	 9.07538753319702E-02 
617	 9.07946941572366E-02 
618	 9.08704694028383E-02 
619	 9.09510189623362E-02 
620	 9.10085504833664E-02 
621	 9.10396949147974E-02 
622	 9.10709325033841E-02 
623	 9.11184698498648E-02 
624	 9.11827029414218E-02 
625	 9.11891556778684E-02 
626	 9.12466464665161E-02 
627	 9.13542569888651E-02 
628	 9.13485115112333E-02 
629	 9.13967731368139E-02 
630	 9.14771205874382E-02 
631	 9.15277181544901E-02 
632	 9.15412215591209E-02 
633	 9.15662169754146E-02 
634	 9.16127549770955E-02 
635	 9.16570967294142E-02 
636	 9.16803401297384E-02 
637	 9.17446139098155E-02 
638	 9.18579801830656E-02 
639	 9.18525838671089E-02 
640	 9.19127262165624E-02 
641	 9.20215073149531E-02 
642	 9.20726889420454E-02 
643	 9.20490270999776E-02 
644	 0.092087142834158 
645	 9.22111570444692E-02 
646	 9.22633442389933E-02 
647	 0.0922841245581 
648	 9.23132094551147E-02 
649	 0.092377711172378 
650	 9.24393852899249E-02 
651	 9.24891599025026E-02 
652	 9.25225704698398E-02 
653	 9.25424110854738E-02 
654	 9.26119908000932E-02 
655	 9.26881711709831E-02 
656	 0.09273990043726 
657	 9.28225422880785E-02 
658	 9.28663106924189E-02 
659	 9.28955494307192E-02 
660	 9.29696435858602E-02 
661	 9.30470636297181E-02 
662	 9.30689891107039E-02 
663	 9.30652647632432E-02 
664	 0.093196776052938 
665	 9.32675752831767E-02 
666	 9.32910764086234E-02 
667	 9.33334285177282E-02 
668	 0.093411533987435 
669	 9.34573219300648E-02 
670	 9.34928268772663E-02 
671	 9.36052241582057E-02 
672	 9.36371598834728E-02 
673	 9.36682531438003E-02 
674	 9.37566701371367E-02 
675	 9.38142848897868E-02 
676	 9.38449418389139E-02 
677	 9.38678903243435E-02 
678	 9.39100012832717E-02 
679	 9.39727422658841E-02 
680	 9.40500016195176E-02 
681	 9.41201460642615E-02 
682	 9.41430142853832E-02 
683	 9.42041362368041E-02 
684	 0.09428407334874 
685	 9.43482975814151E-02 
686	 9.44200972820936E-02 
687	 9.44700518637135E-02 
688	 9.45066776848974E-02 
689	 9.45632293508977E-02 
690	 9.46196286832363E-02 
691	 9.46720054648093E-02 
692	 9.47204801455106E-02 
693	 9.47693519201008E-02 
694	 0.094811172065668 
695	 9.48383190547798E-02 
696	 9.48487503918737E-02 
697	 9.48604120574984E-02 
698	 9.49220661967705E-02 
699	 9.50152083525351E-02 
700	 9.50528104834876E-02 
701	 9.50700931004099E-02 
702	 9.50920479030207E-02 
703	 9.51336062953377E-02 
704	 9.51868159183895E-02 
705	 9.52408237082402E-02 
706	 9.52856064410048E-02 
707	 9.53156873305395E-02 
708	 0.095349812707128 
709	 9.54026192429309E-02 
710	 9.54643365830375E-02 
711	 9.54918066590865E-02 
712	 9.55204580938537E-02 
713	 9.55367995441014E-02 
714	 9.55351647117408E-02 
715	 9.55914643050391E-02 
716	 9.56443687471858E-02 
717	 9.56636516131413E-02 
718	 9.56544096504525E-02 
719	 9.57316111490595E-02 
720	 9.57723223620357E-02 
721	 9.57289832458396E-02 
722	 9.57663694056898E-02 
723	 0.095800712708728 
724	 9.58184866584587E-02 
725	 9.58296682287674E-02 
726	 9.58490222125198E-02 
727	 9.58476231868806E-02 
728	 9.58499544991713E-02 
729	 9.59228937302978E-02 
730	 9.59448275313091E-02 
731	 9.59153457120613E-02 
732	 9.58768062964897E-02 
733	 9.59182261448876E-02 
734	 9.59518845257555E-02 
735	 9.59518753503551E-02 
736	 0.09592989378284 
737	 9.59536391213922E-02 
738	 9.59886568905939E-02 
739	 9.60053973396449E-02 
740	 9.59906595981735E-02 
741	 9.59936097247705E-02 
742	 9.59790012053952E-02 
743	 0.09593981302197 
744	 9.60077926612409E-02 
745	 9.59969631438938E-02 
746	 9.59446883548606E-02 
747	 9.59737060467348E-02 
748	 9.59794422206806E-02 
749	 9.59523141191395E-02 
750	 9.59263983996078E-02 
751	 9.59749784203141E-02 
752	 9.59691926321105E-02 
753	 9.59398749709848E-02 
754	 9.59310534487072E-02 
755	 0.095903456112572 
756	 9.59202142449196E-02 
757	 9.59435331426212E-02 
758	 9.59038838624187E-02 
759	 9.59135639324399E-02 
760	 9.59412999601205E-02 
761	 9.59544440165471E-02 
762	 9.59373130206807E-02 
763	 9.59262695161811E-02 
764	 9.59270253087071E-02 
765	 9.59286455627612E-02 
766	 9.58905510963152E-02 
767	 9.58914695505523E-02 
768	 0.095916040264313 
769	 9.59065566884898E-02 
770	 9.58860288209637E-02 
771	 9.58614462598622E-02 
772	 9.58372945214828E-02 
773	 9.58161070400072E-02 
774	 0.095810264519313 
775	 9.58170878437336E-02 
776	 9.58239076694672E-02 
777	 9.58006127324202E-02 
778	 9.57783188538363E-02 
779	 9.57780703730895E-02 
780	 9.57978482690719E-02 
781	 9.57230093868109E-02 
782	 9.57038626306793E-02 
783	 9.57557131356818E-02 
784	 9.57351603391021E-02 
785	 9.57013464336921E-02 
786	 9.56946347691096E-02 
787	 9.57180224437032E-02 
788	 9.56877936959379E-02 
789	 9.57034615869973E-02 
790	 9.57118693052445E-02 
791	 9.56407766811181E-02 
792	 9.56361188872678E-02 
793	 9.56313796704674E-02 
794	 9.56159064439673E-02 
795	 9.56309660748966E-02 
796	 9.56187104666284E-02 
797	 9.55881061137547E-02 
798	 9.55617446239261E-02 
799	 9.55670084093809E-02 
800	 9.55661376683615E-02 
801	 9.55520148944141E-02 
802	 9.55305521968899E-02 
803	 0.095515546030995 
804	 9.55066443046991E-02 
805	 9.54927354057102E-02 
806	 9.54631475723386E-02 
807	 9.54687429008311E-02 
808	 9.54736091094304E-02 
809	 9.54584369220443E-02 
810	 9.54385564335469E-02 
811	 9.54170190217827E-02 
812	 9.53892442567551E-02 
813	 0.095363600042171 
814	 9.53897238797975E-02 
815	 9.54317503017373E-02 
816	 9.54286279704208E-02 
817	 9.53439628652795E-02 
818	 9.53168440486903E-02 
819	 9.53257394850534E-02 
820	 9.53251828718749E-02 
821	 9.52713760750467E-02 
822	 9.53050843605404E-02 
823	 9.53063851091649E-02 
824	 0.095233050289561 
825	 9.52323883997061E-02 
826	 9.52530352775039E-02 
827	 9.52596842204742E-02 
828	 9.52429031467707E-02 
829	 9.52742676350826E-02 
830	 9.52440143375935E-02 
831	 0.095182867830524 
832	 9.51819563952012E-02 
833	 9.52362308094256E-02 
834	 9.52407824484487E-02 
835	 9.51863499785816E-02 
836	 9.51608009864388E-02 
837	 9.51868975118401E-02 
838	 0.095215036734029 
839	 9.52079563571316E-02 
840	 0.095173331625304 
841	 9.51311103013757E-02 
842	 9.51204472245031E-02 
843	 0.095156621094442 
844	 9.51744832295069E-02 
845	 9.51732604876955E-02 
846	 9.51419449122891E-02 
847	 9.50900353237203E-02 
848	 0.095150098936577 
849	 9.52022620356411E-02 
850	 9.52076718048908E-02 
851	 9.52086863641732E-02 
852	 9.51654612199766E-02 
853	 9.51592273154638E-02 
854	 9.52028600368001E-02 
855	 0.095190475889937 
856	 9.52119589755535E-02 
857	 9.52395319422393E-02 
858	 0.095237380648658 
859	 9.52191628119233E-02 
860	 9.51973899933227E-02 
861	 9.51792313597494E-02 
862	 0.09516630015451 
863	 9.51465112303071E-02 
864	 9.51606090964326E-02 
865	 9.51876867756792E-02 
866	 9.51751387869407E-02 
867	 9.51427886981295E-02 
868	 9.51268943209913E-02 
869	 9.51324595701004E-02 
870	 9.51333944512939E-02 
871	 9.51618067835918E-02 
872	 9.52004435797858E-02 
873	 9.52220460847835E-02 
874	 9.51987252168611E-02 
875	 9.51698527877382E-02 
876	 9.51661090784743E-02 
877	 9.51930479041988E-02 
878	 9.51958230553811E-02 
879	 9.52598754748156E-02 
880	 9.53279711616599E-02 
881	 9.53222423828568E-02 
882	 9.53006121407495E-02 
883	 9.52910476802744E-02 
884	 9.53016717737699E-02 
885	 9.53300410340245E-02 
886	 9.53997903145059E-02 
887	 9.54537750544164E-02 
888	 9.54515973368117E-02 
889	 9.53914969946092E-02 
890	 9.54241113620989E-02 
891	 9.54406914228964E-02 
892	 9.54221859409818E-02 
893	 9.54944191437986E-02 
894	 9.55264743059146E-02 
895	 9.55367160124987E-02 
896	 9.55566276833546E-02 
897	 9.55861722210618E-02 
898	 9.56499429960068E-02 
899	 9.57015896745999E-02 
900	 9.57025750449487E-02 
901	 9.56792884710167E-02 
902	 9.57062467914283E-02 
903	 9.57439086496647E-02 
904	 9.57393098947781E-02 
905	 9.57546891920122E-02 
906	 9.57948810351277E-02 
907	 9.58592268659379E-02 
908	 9.59384502458103E-02 
909	 9.60097408407779E-02 
910	 0.096055889367549 
911	 9.60560415186126E-02 
912	 9.60075374163207E-02 
913	 9.60197531291777E-02 
914	 0.096097794968349 
915	 9.61786748788925E-02 
916	 9.61684678050393E-02 
917	 9.61622480981072E-02 
918	 9.62044486686442E-02 
919	 9.62774519240705E-02 
920	 9.63082894154786E-02 
921	 9.63575375966892E-02 
922	 9.64413781866954E-02 
923	 0.096514395382746 
924	 0.096466897489507 
925	 9.65131430714562E-02 
926	 9.65755464740545E-02 
927	 9.65924309375814E-02 
928	 9.66496922753978E-02 
929	 9.66799733487912E-02 
930	 9.67207466033979E-02 
931	 9.67841591433234E-02 
932	 9.67642928336568E-02 
933	 9.67775092339657E-02 
934	 9.68425119634608E-02 
935	 9.69503387761573E-02 
936	 9.71268527298253E-02 
937	 9.71000549009531E-02 
938	 9.70255792208462E-02 
939	 9.71210600010262E-02 
940	 9.72718569886989E-02 
941	 9.73683933746982E-02 
942	 0.097424164625986 
943	 9.74862266873188E-02 
944	 9.74943138147351E-02 
945	 9.75086375965907E-02 
946	 9.75485175051009E-02 
947	 9.76029544296554E-02 
948	 9.76328634680204E-02 
949	 9.76634929374193E-02 
950	 9.77320585435993E-02 
951	 9.78435426654959E-02 
952	 9.78380468620118E-02 
953	 0.097829591115013 
954	 9.79243168274572E-02 
955	 9.81418864963929E-02 
956	 9.81649531456132E-02 
957	 9.82169380424868E-02 
958	 9.82999338372428E-02 
959	 9.82950717020632E-02 
960	 9.83253851332505E-02 
961	 9.84171542980509E-02 
962	 9.85264671031365E-02 
963	 9.85775954328193E-02 
964	 9.85654688971571E-02 
965	 9.86653426470196E-02 
966	 9.87824489062374E-02 
967	 9.87094557576404E-02 
968	 9.87632214919015E-02 
969	 9.87999892538635E-02 
970	 9.87936831388228E-02 
971	 0.098818170165442 
972	 9.89026122451112E-02 
973	 9.88871726009714E-02 
974	 9.88749253738132E-02 
975	 9.90685101242602E-02 
976	 0.099113684274569 
977	 9.91981074371121E-02 
978	 9.92917043374327E-02 
979	 9.92619576731678E-02 
980	 9.93781609336165E-02 
981	 9.94420108917687E-02 
982	 9.94399616549042E-02 
983	 9.94879150617516E-02 
984	 0.099627207290852 
985	 9.96659245218212E-02 
986	 9.96190383282793E-02 
987	 9.96195620339199E-02 
988	 9.96856067082345E-02 
989	 9.97003878333179E-02 
990	 9.96797674988946E-02 
991	 9.97156788569535E-02 
992	 9.98702147045037E-02 
993	 0.100032209342403 
994	 0.100128714215302 
995	 0.100121730107824 
996	 9.99761628515656E-02 
997	 0.100033073958926 
998	 0.100123711254617 
999	 0.100033711495309 
1000	 0.100180109774977 
1001	 9.86963769651603E-02 
1002	 9.87446917656065E-02 
1003	 9.87684100440455E-02 
1004	 9.87920705031042E-02 
1005	 9.88089296363191E-02 
1006	 9.88117396430287E-02 
1007	 9.88107299406467E-02 
1008	 9.87660882117191E-02 
1009	 9.87647099923619E-02 
1010	 9.88051762525473E-02 
1011	 9.88322686572714E-02 
1012	 0.098889455429721 
1013	 9.88987166744316E-02 
1014	 9.88747374760831E-02 
1015	 9.88756985213103E-02 
1016	 9.88978055271859E-02 
1017	 9.89335753907138E-02 
1018	 9.90041004040008E-02 
1019	 9.90632878448314E-02 
1020	 9.90582910613602E-02 
1021	 9.90303871422885E-02 
1022	 9.90469900844571E-02 
1023	 9.90520966467761E-02 
1024	 9.90489984239521E-02 
1025	 0.099083623087637 
1026	 9.90638699510543E-02 
1027	 9.90308065920523E-02 
1028	 9.90437193977234E-02 
1029	 9.90142580272706E-02 
1030	 9.90225128570436E-02 
1031	 9.90403498801861E-02 
1032	 9.90779133589497E-02 
1033	 9.90442739879134E-02 
1034	 9.90303146586911E-02 
1035	 9.90324957942635E-02 
1036	 9.89908538778123E-02 
1037	 9.90008553383558E-02 
1038	 9.90593447827696E-02 
1039	 9.90659318649103E-02 
1040	 9.90613313315778E-02 
1041	 9.90678092926917E-02 
1042	 9.90538514261372E-02 
1043	 9.90677009470149E-02 
1044	 0.099075183887829 
1045	 9.90858366836062E-02 
1046	 9.90564821974445E-02 
1047	 9.90762312728218E-02 
1048	 9.91180392490379E-02 
1049	 0.099160637387605 
1050	 9.92660873020755E-02 
1051	 9.93260988779439E-02 
1052	 9.93322050495151E-02 
1053	 9.93466650417946E-02 
1054	 9.93290812053367E-02 
1055	 9.93321047612959E-02 
1056	 9.93667206551753E-02 
1057	 9.94193166703578E-02 
1058	 0.099521646189188 
1059	 9.95787146504919E-02 
1060	 9.96284398756347E-02 
1061	 9.96701034213202E-02 
1062	 9.97549918442995E-02 
1063	 0.099809921614135 
1064	 9.98739307087608E-02 
1065	 0.099949045612038 
1066	 9.99738370692836E-02 
1067	 9.99728626285086E-02 
1068	 9.99709561196106E-02 
1069	 0.100008725428373 
1070	 0.100045052807335 
1071	 0.100080792180838 
1072	 0.100112787010343 
1073	 0.100144603139384 
1074	 0.100190135233358 
1075	 0.100250096874248 
1076	 0.10028595016896 
1077	 0.100308386375643 
1078	 0.10031495872465 
1079	 0.100296585176147 
1080	 0.100277685817914 
1081	 0.100269160006135 
1082	 0.100302714591382 
1083	 0.100309367264859 
1084	 0.100300338247766 
1085	 0.100291737892138 
1086	 0.100261446890675 
1087	 0.100268203622474 
1088	 0.100297187799447 
1089	 0.100319612258066 
1090	 0.100323796298786 
1091	 0.100340422950375 
1092	 0.100305907669423 
1093	 0.100262606624643 
1094	 0.100290913206592 
1095	 0.100309193739807 
1096	 0.100309552946885 
1097	 0.100334039372782 
1098	 0.100337959902957 
1099	 0.100312131644937 
1100	 0.100297440148187 
1101	 0.100291869182669 
1102	 0.100278872037551 
1103	 0.100255379571573 
1104	 0.100241409148562 
1105	 0.100218170354972 
1106	 0.100195945807541 
1107	 0.100194796403316 
1108	 0.100186842620077 
1109	 0.100182622297202 
1110	 0.10017356250043 
1111	 0.100151288369784 
1112	 0.100100113153086 
1113	 0.100078463062544 
1114	 0.100054666713587 
1115	 0.100051224938701 
1116	 0.100069408404668 
1117	 0.100081025057968 
1118	 0.100107654007339 
1119	 0.100129342465638 
1120	 0.100118721613795 
1121	 0.100099975548159 
1122	 0.100059214295312 
1123	 0.100024529897446 
1124	 0.100020574021953 
1125	 0.100034701715479 
1126	 0.100053845697536 
1127	 0.100112083971451 
1128	 0.100120985117397 
1129	 0.10011059903038 
1130	 0.100105678132732 
1131	 0.100064849559244 
1132	 0.100060222617307 
1133	 0.100091495716366 
1134	 0.100100223437208 
1135	 0.100104603154013 
1136	 0.100119916617243 
1137	 0.100126847331488 
1138	 0.100110149645745 
1139	 0.10010522408485 
1140	 0.100108637835706 
1141	 0.100101982881799 
1142	 0.100087391977019 
1143	 0.100075350232291 
1144	 0.100053350803991 
1145	 0.100047011764216 
1146	 0.100052874090367 
1147	 0.10004937086544 
1148	 0.100045742229722 
1149	 0.100051151008618 
1150	 0.100056639024813 
1151	 0.100064344725771 
1152	 0.100064721550114 
1153	 0.100058713663979 
1154	 0.100055248417779 
1155	 0.100027489534437 
1156	 0.10002940118551 
1157	 0.10006430778372 
1158	 0.100065877123155 
1159	 0.100061999094573 
1160	 0.100054500026109 
1161	 0.100021000634372 
1162	 0.100007805694858 
1163	 0.100005779940301 
1164	 0.100003038099518 
1165	 0.100010819471269 
1166	 0.100012279225257 
1167	 0.100001784233611 
1168	 9.99876769412358E-02 
1169	 9.99838323540383E-02 
1170	 9.99763071088284E-02 
1171	 9.99744856127684E-02 
1172	 9.99852599181947E-02 
1173	 9.99909205484442E-02 
1174	 9.99923158010003E-02 
1175	 9.99980286224688E-02 
1176	 0.100003197034408 
1177	 0.100013961224887 
1178	 0.100041440269398 
1179	 0.100047680282219 
1180	 0.100039752415367 
1181	 0.100045073207684 
1182	 0.100048092566325 
1183	 0.100036958581205 
1184	 0.100049352067454 
1185	 0.100088210022689 
1186	 0.100101688243309 
1187	 0.100108517306745 
1188	 0.100118792907099 
1189	 0.100111635777224 
1190	 0.100132500714787 
1191	 0.10018151699638 
1192	 0.100204607177866 
1193	 0.100233113514149 
1194	 0.100251208669997 
1195	 0.100234808688694 
1196	 0.100244888990152 
1197	 0.100276081831076 
1198	 0.100295794236908 
1199	 0.100315480330661 
1200	 0.100342486831395 
1201	 0.100361280761293 
1202	 0.100365658284224 
1203	 0.100388034027849 
1204	 0.10042134696056 
1205	 0.100446801270745 
1206	 0.100478764982828 
1207	 0.100501452259727 
1208	 0.10050998981863 
1209	 0.100532367901974 
1210	 0.100568229336917 
1211	 0.100586705070424 
1212	 0.100602523974875 
1213	 0.100616790909758 
1214	 0.100600638787829 
1215	 0.100611674235447 
1216	 0.100635291687272 
1217	 0.100675782220242 
1218	 0.100709109722699 
1219	 0.100759611506598 
1220	 0.100792150017607 
1221	 0.100814426408674 
1222	 0.100840133902294 
1223	 0.100861951155252 
1224	 0.100886797166976 
1225	 0.100911218591751 
1226	 0.100937020724165 
1227	 0.100969047344022 
1228	 0.100993277605424 
1229	 0.101012515842519 
1230	 0.101033592666181 
1231	 0.101049063184553 
1232	 0.101067679369932 
1233	 0.101088213480026 
1234	 0.101116581875643 
1235	 0.101130903164873 
1236	 0.101134239098657 
1237	 0.101153944613155 
1238	 0.101173270238478 
1239	 0.1011953825426 
1240	 0.101232226763778 
1241	 0.101260580263223 
1242	 0.101287834163382 
1243	 0.10130585490469 
1244	 0.101317763694456 
1245	 0.101332868271989 
1246	 0.101328945123878 
1247	 0.101345409443644 
1248	 0.101378500571625 
1249	 0.101413956989603 
1250	 0.101440957009748 
1251	 0.101477177722907 
1252	 0.101500409951691 
1253	 0.101514159501296 
1254	 0.101525364366047 
1255	 0.101529136548771 
1256	 0.101539785396276 
1257	 0.101550573088164 
1258	 0.101557574707197 
1259	 0.101574186974428 
1260	 0.101574926529427 
1261	 0.101546968140246 
1262	 0.101545526024273 
1263	 0.101559328824957 
1264	 0.101561350461832 
1265	 0.101567519602925 
1266	 0.101578872303819 
1267	 0.101586061690425 
1268	 0.101580720687535 
1269	 0.101603371418923 
1270	 0.101651322755914 
1271	 0.101681696197997 
1272	 0.101708920546041 
1273	 0.101748581103833 
1274	 0.101794374428284 
1275	 0.101834426328333 
1276	 0.101874854581721 
1277	 0.1019292022605 
1278	 0.10198363231738 
1279	 0.102039682343648 
1280	 0.102114850466074 
1281	 0.102183934604719 
1282	 0.102245433965073 
1283	 0.102308099743657 
1284	 0.102370007321792 
1285	 0.102438311729062 
1286	 0.102512772001939 
1287	 0.102592085639185 
1288	 0.102664828468728 
1289	 0.102749714577027 
1290	 0.102815139597154 
1291	 0.102856211358342 
1292	 0.102921816128071 
1293	 0.102996543383863 
1294	 0.103063209288034 
1295	 0.103146851197257 
1296	 0.103206128764525 
1297	 0.103244896275319 
1298	 0.103288106631531 
1299	 0.103317001747597 
1300	 0.103354984608607 
1301	 0.103404250380198 
1302	 0.103441973533919 
1303	 0.103477115120726 
1304	 0.103509649228198 
1305	 0.103530478403598 
1306	 0.103548912997969 
1307	 0.103566855980934 
1308	 0.103579682825442 
1309	 0.103583950463685 
1310	 0.103579944895832 
1311	 0.103572208745339 
1312	 0.103552871515393 
1313	 0.103542925556713 
1314	 0.103536222232815 
1315	 0.103525545559859 
1316	 0.103516465599387 
1317	 0.103505371795375 
1318	 0.103488944627543 
1319	 0.103472313415294 
1320	 0.103450897338754 
1321	 0.103439212871555 
1322	 0.103434304139887 
1323	 0.103423155981929 
1324	 0.103417107010448 
1325	 0.103414498661864 
1326	 0.103409177090169 
1327	 0.103422558201116 
1328	 0.103416791224897 
1329	 0.103391606653193 
1330	 0.103374615928123 
1331	 0.10333379884938 
1332	 0.103321642846119 
1333	 0.1033333789824 
1334	 0.103330904380493 
1335	 0.103330318466676 
1336	 0.103323276875739 
1337	 0.103305526576303 
1338	 0.103299826932934 
1339	 0.103301759764714 
1340	 0.103298147071493 
1341	 0.103296616812623 
1342	 0.103295667293743 
1343	 0.103286531424834 
1344	 0.10328589282286 
1345	 0.103294240056524 
1346	 0.103299676971475 
1347	 0.103318063384649 
1348	 0.103317126031903 
1349	 0.103304435195106 
1350	 0.103299788533578 
1351	 0.103299197820184 
1352	 0.103297217480286 
1353	 0.103295680722225 
1354	 0.103307170795537 
1355	 0.103302409565594 
1356	 0.10327706441874 
1357	 0.103273891269649 
1358	 0.103276000782776 
1359	 0.103277823373771 
1360	 0.103288234038998 
1361	 0.103300400308008 
1362	 0.103321126390108 
1363	 0.103328819966096 
1364	 0.103327805679629 
1365	 0.103337185975476 
1366	 0.10333641066105 
1367	 0.10334447040488 
1368	 0.103389843135339 
1369	 0.103422743691142 
1370	 0.103427535987193 
1371	 0.103436737865047 
1372	 0.103435892859798 
1373	 0.103428410621639 
1374	 0.103424525117969 
1375	 0.103436046139136 
1376	 0.103424505157704 
1377	 0.103391599621638 
1378	 0.10337221184237 
1379	 0.103357060163641 
1380	 0.103335062951849 
1381	 0.103306537579878 
1382	 0.10328923050991 
1383	 0.103270589036612 
1384	 0.103255047816469 
1385	 0.103255324571257 
1386	 0.103244933279707 
1387	 0.103229304002552 
1388	 0.103208630529086 
1389	 0.103179773207592 
1390	 0.103158551059497 
1391	 0.103130450227061 
1392	 0.103102335763419 
1393	 0.103072064178105 
1394	 0.103045478577981 
1395	 0.103010936157891 
1396	 0.102978400960138 
1397	 0.102959466164813 
1398	 0.102950489861315 
1399	 0.102928451583132 
1400	 0.102922511259865 
1401	 0.102886338681962 
1402	 0.102819758497336 
1403	 0.102779111752168 
1404	 0.10272730793893 
1405	 0.102697988553013 
1406	 0.102695578479352 
1407	 0.102678211061104 
1408	 0.102667325385812 
1409	 0.102650808536181 
1410	 0.102619950499539 
1411	 0.102601293778811 
1412	 0.102581811696908 
1413	 0.102573522781345 
1414	 0.102583263411108 
1415	 0.102603410750135 
1416	 0.102623846395089 
1417	 0.102637375970118 
1418	 0.102630119837899 
1419	 0.10262929811133 
1420	 0.102637115866523 
1421	 0.102634082384657 
1422	 0.102654841728272 
1423	 0.102684619967084 
1424	 0.102698119643407 
1425	 0.102708150184016 
1426	 0.10272392944452 
1427	 0.102722508814955 
1428	 0.102743256059373 
1429	 0.102789009784251 
1430	 0.102814963166758 
1431	 0.10284234905251 
1432	 0.10286467346506 
1433	 0.102874990986926 
1434	 0.102888344997292 
1435	 0.102892707364522 
1436	 0.102915302339234 
1437	 0.102946847745453 
1438	 0.102978658721709 
1439	 0.103029530605288 
1440	 0.103069434659485 
1441	 0.103083009331695 
1442	 0.10309404621827 
1443	 0.103103772153699 
1444	 0.103109340816728 
1445	 0.10312965761899 
1446	 0.10315724085694 
1447	 0.103187223147683 
1448	 0.103229240649943 
1449	 0.103269313378423 
1450	 0.103306711717925 
1451	 0.103334402575696 
1452	 0.103344972079105 
1453	 0.103374690432053 
1454	 0.103406764044911 
1455	 0.103439662025143 
1456	 0.103490271665373 
1457	 0.103522025167357 
1458	 0.10354051944111 
1459	 0.103564288594614 
1460	 0.103577105148783 
1461	 0.103606903458132 
1462	 0.103652112218772 
1463	 0.103686527989347 
1464	 0.103727502090609 
1465	 0.103756465747631 
1466	 0.103771249854349 
1467	 0.103789653196174 
1468	 0.103803880106746 
1469	 0.10382697001454 
1470	 0.103853610082309 
1471	 0.103876200771964 
1472	 0.103919172181026 
1473	 0.103953181731746 
1474	 0.103967757377708 
1475	 0.103990703699612 
1476	 0.104009456873907 
1477	 0.104016525759578 
1478	 0.104033915824777 
1479	 0.104053026615669 
1480	 0.104070479820338 
1481	 0.104090012620082 
1482	 0.104109325910545 
1483	 0.104133490950022 
1484	 0.104155664272821 
1485	 0.104173635737095 
1486	 0.10419650246033 
1487	 0.104220376538019 
1488	 0.104251582821263 
1489	 0.104292996952121 
1490	 0.104318910280305 
1491	 0.104345503391384 
1492	 0.104367852909625 
1493	 0.104373993433027 
1494	 0.104393565986755 
1495	 0.104417466038173 
1496	 0.104442364544485 
1497	 0.104475249935425 
1498	 0.104501575639366 
1499	 0.104534001667802 
1500	 0.104552850388152 
1501	 0.104556945044688 
1502	 0.104565955251482 
1503	 0.104571654411509 
1504	 0.104573259915244 
1505	 0.104575456029081 
1506	 0.104583699504934 
1507	 0.10459161454233 
1508	 0.104610450696998 
1509	 0.104645789331489 
1510	 0.104667544641061 
1511	 0.104676416673554 
1512	 0.104693807253711 
1513	 0.104701684948029 
1514	 0.104711372296285 
1515	 0.104736493110747 
1516	 0.104759271185156 
1517	 0.104782145660734 
1518	 0.104814211895856 
1519	 0.104827659382089 
1520	 0.104828049784054 
1521	 0.104841381352559 
1522	 0.104847091171785 
1523	 0.104867323619132 
1524	 0.104907934573498 
1525	 0.104927213292367 
1526	 0.104940247464555 
1527	 0.104952143380511 
1528	 0.104956595069959 
1529	 0.104961696694154 
1530	 0.104959286155767 
1531	 0.104973718028092 
1532	 0.104992489217368 
1533	 0.105011923716483 
1534	 0.105050439193593 
1535	 0.105075716740378 
1536	 0.10509325389549 
1537	 0.105110032561335 
1538	 0.105120165277239 
1539	 0.105133457812806 
1540	 0.105138923647968 
1541	 0.105157077360278 
1542	 0.105191019707516 
1543	 0.105214694233332 
1544	 0.105246306320471 
1545	 0.105267465352416 
1546	 0.10527679625558 
1547	 0.105284019152557 
1548	 0.105288366319044 
1549	 0.105284706288243 
1550	 0.105289982616428 
1551	 0.105295265251665 
1552	 0.105301399890843 
1553	 0.105318823814041 
1554	 0.105333360237842 
1555	 0.105334294968709 
1556	 0.105344578990406 
1557	 0.105357985576008 
1558	 0.105362584280406 
1559	 0.105370743413994 
1560	 0.105378904994717 
1561	 0.105386263311681 
1562	 0.10538922428246 
1563	 0.105389117678334 
1564	 0.105401693786287 
1565	 0.105421479514517 
1566	 0.105424957696084 
1567	 0.105428294247058 
1568	 0.105432941264853 
1569	 0.105423877793957 
1570	 0.105419265593717 
1571	 0.105431525428929 
1572	 0.105425314600618 
1573	 0.105395694841652 
1574	 0.105388596171025 
1575	 0.105381843053594 
1576	 0.105388369841322 
1577	 0.105417003633584 
1578	 0.105427290596018 
1579	 0.105437558277933 
1580	 0.105444991605624 
1581	 0.105438752892376 
1582	 0.10544625628088 
1583	 0.105464874222824 
1584	 0.105475936961675 
1585	 0.105490689754808 
1586	 0.105495830497022 
1587	 0.105490368518048 
1588	 0.105491099070456 
1589	 0.105484547011859 
1590	 0.105488914261771 
1591	 0.105515334288297 
1592	 0.105516882795216 
1593	 0.105502005905447 
1594	 0.105500139921918 
1595	 0.105483324588958 
1596	 0.105480253693791 
1597	 0.105503008362429 
1598	 0.105514072297365 
1599	 0.10552935662739 
1600	 0.10553057302494 
1601	 0.105512784314803 
1602	 0.10550845650612 
1603	 0.105492686309568 
1604	 0.105492261429539 
1605	 0.105518210343388 
1606	 0.105530701144897 
1607	 0.105532802464703 
1608	 0.105556201466302 
1609	 0.105563046619955 
1610	 0.105571420657013 
1611	 0.105593425065313 
1612	 0.105593768562994 
1613	 0.105578203810064 
1614	 0.105565192243191 
1615	 0.10555690431341 
1616	 0.105558544378444 
1617	 0.10557388146377 
1618	 0.105608682999908 
1619	 0.105654758172338 
1620	 0.105674701901933 
1621	 0.10568926887248 
1622	 0.105703901288161 
1623	 0.105704915250155 
1624	 0.105682798906585 
1625	 0.105678582220501 
1626	 0.105677151472475 
1627	 0.10567376662782 
1628	 0.105668039687708 
1629	 0.105672209520283 
1630	 0.105678823758321 
1631	 0.105691632232003 
1632	 0.105717223540484 
1633	 0.105733214177045 
1634	 0.105753599857039 
1635	 0.105756281753726 
1636	 0.105748201517315 
1637	 0.105742201187294 
1638	 0.105723256989421 
1639	 0.105714707204327 
1640	 0.105709922047931 
1641	 0.105707902146719 
1642	 0.105708123053615 
1643	 0.105710394807806 
1644	 0.105716167459584 
1645	 0.105724694885867 
1646	 0.10573601466893 
1647	 0.105745489519511 
1648	 0.105760416547336 
1649	 0.105768780433947 
1650	 0.105767903864953 
1651	 0.105779264638251 
1652	 0.105800100563267 
1653	 0.105806814359956 
1654	 0.105812567305683 
1655	 0.105817981408531 
1656	 0.10581082424466 
1657	 0.105812982729328 
1658	 0.105829443014205 
1659	 0.105827757327157 
1660	 0.105817296863366 
1661	 0.105806906845536 
1662	 0.10578293405205 
1663	 0.105774065315692 
1664	 0.105762582125166 
1665	 0.105772621146902 
1666	 0.105802831620468 
1667	 0.105825386823024 
1668	 0.105865842623356 
1669	 0.105886925226436 
1670	 0.10589622816763 
1671	 0.105906149497626 
1672	 0.105914459163257 
1673	 0.105912001890741 
1674	 0.105900677276961 
1675	 0.105890734538335 
1676	 0.105871387261817 
1677	 0.105855998010269 
1678	 0.105834362880952 
1679	 0.105832290288597 
1680	 0.105833584391845 
1681	 0.105848081262442 
1682	 0.105899294436474 
1683	 0.10591121854603 
1684	 0.105906838944703 
1685	 0.105909942449233 
1686	 0.105892360124213 
1687	 0.105893490997018 
1688	 0.105908473674521 
1689	 0.105923070459681 
1690	 0.105945390904162 
1691	 0.105957949380438 
1692	 0.105969175565316 
1693	 0.105984782152769 
1694	 0.105994251085954 
1695	 0.106008457505794 
1696	 0.106029776195933 
1697	 0.106050260594391 
1698	 0.106072674991264 
1699	 0.106089066665735 
1700	 0.106110766252377 
1701	 0.106122357429975 
1702	 0.10611789828507 
1703	 0.106121215155975 
1704	 0.106124713857075 
1705	 0.106128771230032 
1706	 0.106136485360857 
1707	 0.10614150869897 
1708	 0.106151172186322 
1709	 0.106146214489625 
1710	 0.106129753987784 
1711	 0.10612043369298 
1712	 0.106100456499563 
1713	 0.106090273045881 
1714	 0.106094870979791 
1715	 0.10608646917903 
1716	 0.106063782871303 
1717	 0.106066563149732 
1718	 0.106077822838991 
1719	 0.106084612482524 
1720	 0.106110222078496 
1721	 0.106123532844959 
1722	 0.106121969061293 
1723	 0.106132431412405 
1724	 0.106155334937188 
1725	 0.106159124110642 
1726	 0.106158818199066 
1727	 0.106151512947783 
1728	 0.10612477946509 
1729	 0.106117147463815 
1730	 0.106120633670791 
1731	 0.106104253003464 
1732	 0.106085456703509 
1733	 0.106072087511926 
1734	 0.106039711540573 
1735	 0.106029697632464 
1736	 0.106041495849633 
1737	 0.106035761096616 
1738	 0.106021585494876 
1739	 0.106036283110694 
1740	 0.106068862482831 
1741	 0.106070725567486 
1742	 0.106081927359985 
1743	 0.10606981168856 
1744	 0.106017619326492 
1745	 0.105999633083056 
1746	 0.105995929654314 
1747	 0.105963580917606 
1748	 0.105963273223599 
1749	 0.105961391531652 
1750	 0.105948683217934 
1751	 0.105968040906939 
1752	 0.10597145801039 
1753	 0.105975695764383 
1754	 0.105996640700634 
1755	 0.105971365475213 
1756	 0.105937551481597 
1757	 0.105917574475403 
1758	 0.105894773159853 
1759	 0.105907336385386 
1760	 0.105921361963051 
1761	 0.105910082562105 
1762	 0.105896390306153 
1763	 0.105855195025372 
1764	 0.105817373048343 
1765	 0.105813292315577 
1766	 0.105794933783379 
1767	 0.105781870042716 
1768	 0.105798776784374 
1769	 0.105794702826082 
1770	 0.10580203361108 
1771	 0.105855111269433 
1772	 0.105858116181643 
1773	 0.105844087756865 
1774	 0.105855066696869 
1775	 0.105822855460618 
1776	 0.105804916929814 
1777	 0.105812884179826 
1778	 0.105806978469436 
1779	 0.10579509680108 
1780	 0.105789690192306 
1781	 0.105783712749253 
1782	 0.105747807599678 
1783	 0.105749671860963 
1784	 0.105752459040595 
1785	 0.105767974076249 
1786	 0.105783304935688 
1787	 0.10579590132886 
1788	 0.105795368317336 
1789	 0.105776762341696 
1790	 0.105790857310926 
1791	 0.105819925267451 
1792	 0.105848458128645 
1793	 0.1059142673075 
1794	 0.105943509150031 
1795	 0.105954408929115 
1796	 0.1059471584828 
1797	 0.105906614793631 
1798	 0.105896666622424 
1799	 0.105877100596975 
1800	 0.105875927667178 
1801	 0.103096693439353 
1802	 0.103219639431899 
1803	 0.103352924757553 
1804	 0.103463030173377 
1805	 0.103597563294608 
1806	 0.103749336936045 
1807	 0.103872335875413 
1808	 0.103984565900944 
1809	 0.104091127838263 
1810	 0.104184058637042 
1811	 0.104263443775674 
1812	 0.104330249934707 
1813	 0.104380623450255 
1814	 0.104430553688894 
1815	 0.104465378128275 
1816	 0.104481814180882 
1817	 0.10450747221071 
1818	 0.104544129556623 
1819	 0.10456417590019 
1820	 0.104570628834783 
1821	 0.10457838992991 
1822	 0.104609517970554 
1823	 0.104619275113099 
1824	 0.10464704508135 
1825	 0.104700158737731 
1826	 0.104745173542206 
1827	 0.104779004574764 
1828	 0.104804501063646 
1829	 0.104822947651349 
1830	 0.104842511852982 
1831	 0.1048560531132 
1832	 0.104857390947834 
1833	 0.104867379054445 
1834	 0.104901050526094 
1835	 0.104937906189841 
1836	 0.104984078847612 
1837	 0.105038704264633 
1838	 0.105061570468316 
1839	 0.105083641596863 
1840	 0.1050927748592 
1841	 0.105109964276116 
1842	 0.10511051603394 
1843	 0.105129992671285 
1844	 0.105162134692725 
1845	 0.105171472186451 
1846	 0.105212081706391 
1847	 0.105254736037246 
1848	 0.105276088526671 
1849	 0.105319765491701 
1850	 0.105351900031779 
1851	 0.105372288579895 
1852	 0.105393833992803 
1853	 0.105435657207314 
1854	 0.105447462440886 
1855	 0.105459398831264 
1856	 0.105466522401342 
1857	 0.105456439690956 
1858	 0.105471771418829 
1859	 0.105484985084388 
1860	 0.105484918779883 
1861	 0.105483856331255 
1862	 0.105474264520811 
1863	 0.105436026020738 
1864	 0.105408999431006 
1865	 0.105379833842862 
1866	 0.105327119036567 
1867	 0.105283602235465 
1868	 0.105249827221425 
1869	 0.105230976898024 
1870	 0.105236723490758 
1871	 0.105232849435742 
1872	 0.105245570207911 
1873	 0.105238084183801 
1874	 0.105209527127308 
1875	 0.105174278916726 
1876	 0.105143698579324 
1877	 0.105102142597238 
1878	 0.105057924377652 
1879	 0.105022369816024 
1880	 0.104970652084021 
1881	 0.10490931816295 
1882	 0.104844990881732 
1883	 0.104779466874591 
1884	 0.104680271198197 
1885	 0.104604823400181 
1886	 0.104527175402243 
1887	 0.10440568074754 
1888	 0.104296782581445 
1889	 0.104158834697828 
1890	 0.103989575116166 
1891	 0.103850277464438 
1892	 0.103738010938875 
1893	 0.103600846365602 
1894	 0.103456928341524 
1895	 0.103322727136059 
1896	 0.103189738660014 
1897	 0.103033718959204 
1898	 0.102878339050947 
1899	 0.102733913324705 
1900	 0.102578850633371 
1901	 0.1024065821713 
1902	 0.102251609146341 
1903	 0.102113330025868 
1904	 0.101970999312137 
1905	 0.10182602448792 
1906	 0.101694668942579 
1907	 0.101563142412186 
1908	 0.101433951414472 
1909	 0.101301309012755 
1910	 0.101179167264514 
1911	 0.101071482424679 
1912	 0.100972469653947 
1913	 0.100875859972257 
1914	 0.100794188016834 
1915	 0.100703903621055 
1916	 0.100614979728974 
1917	 0.100512901337424 
1918	 0.100419844858497 
1919	 0.100358665919952 
1920	 0.100307108803123 
1921	 0.100253332037508 
1922	 0.100220788993626 
1923	 0.100181538987184 
1924	 0.100138154766266 
1925	 0.100084528125806 
1926	 0.100061763312206 
1927	 0.100051006115604 
1928	 0.100032997533164 
1929	 0.100045964343609 
1930	 0.100040172775061 
1931	 0.100015229641001 
1932	 9.99963444372867E-02 
1933	 9.99650259704168E-02 
1934	 9.99484153769388E-02 
1935	 9.99479712108474E-02 
1936	 9.99646237033245E-02 
1937	 9.99765826578627E-02 
1938	 0.100011533175204 
1939	 0.10002637628608 
1940	 0.100030636429266 
1941	 0.100027086154678 
1942	 0.100032608495646 
1943	 0.100061639859358 
1944	 0.10009016822705 
1945	 0.100126093267165 
1946	 0.100149631481127 
1947	 0.100154118028372 
1948	 0.100174070284016 
1949	 0.100197576057555 
1950	 0.100225104789893 
1951	 0.100251990667696 
1952	 0.1003032221828 
1953	 0.100348071847527 
1954	 0.100381242306805 
1955	 0.100442787555157 
1956	 0.100488895273749 
1957	 0.100538758857429 
1958	 0.100593142654147 
1959	 0.100648155711991 
1960	 0.100699863544362 
1961	 0.100757444850966 
1962	 0.10082313917202 
1963	 0.100884669468904 
1964	 0.100947635059618 
1965	 0.101000000328992 
1966	 0.1010603063113 
1967	 0.10112561794768 
1968	 0.101187968788762 
1969	 0.101250399262135 
1970	 0.101312296938523 
1971	 0.101380296457394 
1972	 0.101433445286178 
1973	 0.101467283400741 
1974	 0.101527000063762 
1975	 0.101600183899678 
1976	 0.10165798975531 
1977	 0.101719157193145 
1978	 0.10177505053153 
1979	 0.10181068949688 
1980	 0.101852633981791 
1981	 0.1019060728845 
1982	 0.101981060006777 
1983	 0.102042664814863 
1984	 0.102091940614837 
1985	 0.102160351268029 
1986	 0.102240918376903 
1987	 0.102314653322219 
1988	 0.102400364024989 
1989	 0.102484943422177 
1990	 0.102544017175832 
1991	 0.102600299777965 
1992	 0.10266540501491 
1993	 0.102727843164197 
1994	 0.102795539245922 
1995	 0.10287975765198 
1996	 0.10294460536698 
1997	 0.102999523109366 
1998	 0.103058203629862 
1999	 0.103092528695904 
2000	 0.103154233046732 
2001	 0.103236077489815 
2002	 0.103318046580356 
2003	 0.103392845731933 
2004	 0.103480853956799 
2005	 0.103556684776067 
2006	 0.103618398044219 
2007	 0.103684457023914 
2008	 0.103751259032686 
2009	 0.103820606361497 
2010	 0.103890034130702 
2011	 0.103956923213571 
2012	 0.104018496908148 
2013	 0.104090898007557 
2014	 0.104171219579696 
2015	 0.104243635040118 
2016	 0.104306371095925 
2017	 0.104385106316819 
2018	 0.104462449546497 
2019	 0.104535659154938 
2020	 0.104601585188002 
2021	 0.104688927049837 
2022	 0.104744262967904 
2023	 0.104760600299161 
2024	 0.104797158227157 
2025	 0.104815327960805 
2026	 0.10485998957683 
2027	 0.104917246222627 
2028	 0.104997084221173 
2029	 0.105064366084045 
2030	 0.105151201839982 
2031	 0.105211384509345 
2032	 0.105252970950023 
2033	 0.105304990784161 
2034	 0.105345120917384 
2035	 0.105401302589325 
2036	 0.105477435312319 
2037	 0.105535090936086 
2038	 0.105600267330895 
2039	 0.105648263399899 
2040	 0.105676619842631 
2041	 0.105694665999348 
2042	 0.105734696238423 
2043	 0.105782761493107 
2044	 0.105829955658331 
2045	 0.105888677188577 
2046	 0.105949843130926 
2047	 0.106014510833957 
2048	 0.106071644376012 
2049	 0.106147384754368 
2050	 0.106194453545208 
2051	 0.106209908562045 
2052	 0.106240837629232 
2053	 0.106266934956991 
2054	 0.106294683502202 
2055	 0.1063367299133 
2056	 0.106363952033241 
2057	 0.10638654873463 
2058	 0.106391798273691 
2059	 0.10642426772027 
2060	 0.106464095609978 
2061	 0.106501642954986 
2062	 0.106555989015782 
2063	 0.10659969630629 
2064	 0.106636819152356 
2065	 0.106670572244023 
2066	 0.10670240805781 
2067	 0.106735678090692 
2068	 0.106754181714222 
2069	 0.106791732496786 
2070	 0.106823779799448 
2071	 0.106864170753492 
2072	 0.106892828270035 
2073	 0.10691647254318 
2074	 0.106937778243127 
2075	 0.106947348070993 
2076	 0.106973421872059 
2077	 0.107005821954273 
2078	 0.107036449701991 
2079	 0.107073373908348 
2080	 0.107111360137744 
2081	 0.107145923779949 
2082	 0.107185486657222 
2083	 0.107226653204071 
2084	 0.107281494373027 
2085	 0.107330164270034 
2086	 0.107382276202616 
2087	 0.107425217046462 
2088	 0.107473146708751 
2089	 0.107502022737047 
2090	 0.107509905848866 
2091	 0.107531687662925 
2092	 0.107539495536702 
2093	 0.107566687237469 
2094	 0.107616699077897 
2095	 0.107654104479508 
2096	 0.107695754399836 
2097	 0.107733722486408 
2098	 0.107779462523559 
2099	 0.107789495832133 
2100	 0.107824698051524 
2101	 0.107867539041958 
2102	 0.107901596513588 
2103	 0.107935396792055 
2104	 0.107971875263337 
2105	 0.10799695702511 
2106	 0.108040506675667 
2107	 0.108104398682945 
2108	 0.108153019675771 
2109	 0.108195887597593 
2110	 0.108249090205026 
2111	 0.108297077362102 
2112	 0.10835284087473 
2113	 0.108410760204708 
2114	 0.108498156198318 
2115	 0.108563373020342 
2116	 0.108633251840744 
2117	 0.108674755588817 
2118	 0.108688357118627 
2119	 0.108735618058109 
2120	 0.108775921939117 
2121	 0.108829725392318 
2122	 0.108927562518496 
2123	 0.108984074375906 
2124	 0.109024446672073 
2125	 0.109053973714285 
2126	 0.109057513735359 
2127	 0.109072522440183 
2128	 0.10907706318003 
2129	 0.109090457345585 
2130	 0.109123228979539 
2131	 0.10913829669787 
2132	 0.109151909264375 
2133	 0.109164626427041 
2134	 0.109170597237606 
2135	 0.109170907878916 
2136	 0.109162544842126 
2137	 0.109148859966204 
2138	 0.109130417159067 
2139	 0.109097520762141 
2140	 0.109070221978204 
2141	 0.109046183931482 
2142	 0.109013744149721 
2143	 0.108981318352829 
2144	 0.108940279186345 
2145	 0.108892780543831 
2146	 0.108838304240811 
2147	 0.1087669246632 
2148	 0.108695643300314 
2149	 0.10865118137077 
2150	 0.108618605685657 
2151	 0.10857726004303 
2152	 0.108571229476238 
2153	 0.108513576447326 
2154	 0.108401673743622 
2155	 0.108340410411274 
2156	 0.108297663138407 
2157	 0.108228547788506 
2158	 0.108177650666151 
2159	 0.108105759433662 
2160	 0.107986441515885 
2161	 0.107890878870939 
2162	 0.107807288194638 
2163	 0.10772539466167 
2164	 0.107647258254489 
2165	 0.107568725259965 
2166	 0.107491760518892 
2167	 0.107429555300298 
2168	 0.107330608038189 
2169	 0.107204844216802 
2170	 0.107108672321345 
2171	 0.106996848084495 
2172	 0.106910001439817 
2173	 0.106862173538632 
2174	 0.106790796098882 
2175	 0.106721109756475 
2176	 0.106636603503245 
2177	 0.106529982189267 
2178	 0.106441531981855 
2179	 0.106349115351992 
2180	 0.106262315257637 
2181	 0.106187875931653 
2182	 0.106120954772307 
2183	 0.106060953238285 
2184	 0.105989999891622 
2185	 0.105940413905778 
2186	 0.105910850158529 
2187	 0.105866739323555 
2188	 0.105835061331834 
2189	 0.105776142361724 
2190	 0.105694879068327 
2191	 0.105630323789712 
2192	 0.105547680266827 
2193	 0.105490712796897 
2194	 0.105474278809669 
2195	 0.105418518058492 
2196	 0.105336656348829 
2197	 0.105280256239183 
2198	 0.105211488767774 
2199	 0.105157664909014 
2200	 0.105134248226439 
2201	 0.105108332637879 
2202	 0.105086173411124 
2203	 0.105060815276903 
2204	 0.105030648173385 
2205	 0.104997385986357 
2206	 0.104982204396792 
2207	 0.104982056126371 
2208	 0.104941653737605 
2209	 0.10488509886176 
2210	 0.104858843218012 
2211	 0.104799343244812 
2212	 0.104786080666532 
2213	 0.104855765200226 
2214	 0.104856521191909 
2215	 0.104817698668397 
2216	 0.104805320592133 
2217	 0.104781290424992 
2218	 0.104764785453148 
2219	 0.104762708192792 
2220	 0.104768137921279 
2221	 0.104787746970058 
2222	 0.10478010054467 
2223	 0.104788992253825 
2224	 0.104806328979477 
2225	 0.104823565705397 
2226	 0.104831979794237 
2227	 0.10485266402768 
2228	 0.104904636474497 
2229	 0.104903639572955 
2230	 0.104866028775686 
2231	 0.104863510233784 
2232	 0.104841355161586 
2233	 0.104848539584938 
2234	 0.104906304103909 
2235	 0.104924829372326 
2236	 0.104940103357832 
2237	 0.104931096335222 
2238	 0.104886555717978 
2239	 0.104866373417242 
2240	 0.104827823743293 
2241	 0.104816138159842 
2242	 0.104836177995911 
2243	 0.104846549016013 
2244	 0.104857410408708 
2245	 0.104888078957955 
2246	 0.10489494779878 
2247	 0.104883330000063 
2248	 0.104898541308338 
2249	 0.10492006869166 
2250	 0.104929561002864 
2251	 0.104946825836443 
2252	 0.104964542098159 
2253	 0.104975226054819 
2254	 0.104977981404515 
2255	 0.104989449796618 
2256	 0.104993828786368 
2257	 0.104963050368104 
2258	 0.104966544435564 
2259	 0.104998177002066 
2260	 0.105016172633453 
2261	 0.105040133631864 
2262	 0.105065279784585 
2263	 0.105092765328818 
2264	 0.105111743104759 
2265	 0.105136164474214 
2266	 0.105146849096889 
2267	 0.105130222333942 
2268	 0.105127605469571 
2269	 0.105121276808502 
2270	 0.105125831265012 
2271	 0.105147330138425 
2272	 0.105191623945968 
2273	 0.105194290096129 
2274	 0.105174090952905 
2275	 0.105169740830859 
2276	 0.105136963778971 
2277	 0.105132132150223 
2278	 0.105151129470231 
2279	 0.105172232856442 
2280	 0.105192961607347 
2281	 0.105213605174909 
2282	 0.105264355782196 
2283	 0.105283998812599 
2284	 0.105269833595521 
2285	 0.105289954254586 
2286	 0.105316764980609 
2287	 0.105337633160195 
2288	 0.105378661664214 
2289	 0.105403553879096 
2290	 0.105419234677584 
2291	 0.105427372336098 
2292	 0.105425670473745 
2293	 0.10543109468854 
2294	 0.105414371022173 
2295	 0.105428143251673 
2296	 0.105493259749649 
2297	 0.10549202465998 
2298	 0.105515552764496 
2299	 0.105553939988898 
2300	 0.105550895657624 
2301	 0.105560490359421 
2302	 0.105566217614699 
2303	 0.10554101618447 
2304	 0.105528209742089 
2305	 0.105553657163606 
2306	 0.105567392350064 
2307	 0.105606040266875 
2308	 0.105613150879936 
2309	 0.10560651995983 
2310	 0.105588787045197 
2311	 0.105547530191045 
2312	 0.105531900292721 
2313	 0.105515439606362 
2314	 0.10549967539043 
2315	 0.105491904574643 
2316	 0.105494728060056 
2317	 0.105493169906738 
2318	 0.105510530754821 
2319	 0.105569428585006 
2320	 0.105591094775783 
2321	 0.105593540292297 
2322	 0.105609399339496 
2323	 0.105617993698232 
2324	 0.105621796654188 
2325	 0.105626257126231 
2326	 0.105635851964441 
2327	 0.105632871245236 
2328	 0.105659055203888 
2329	 0.105650036238732 
2330	 0.105651350716841 
2331	 0.105640193666382 
2332	 0.105616761068757 
2333	 0.10568082439776 
2334	 0.10574431128016 
2335	 0.105805858820305 
2336	 0.105894048313604 
2337	 0.10593229755822 
2338	 0.10596032691714 
2339	 0.106002020962085 
2340	 0.106002199922354 
2341	 0.105978634382551 
2342	 0.105979611660297 
2343	 0.105981841904223 
2344	 0.105957283905583 
2345	 0.105959794331167 
2346	 0.10600383076018 
2347	 0.106010615054097 
2348	 0.106013773584561 
2349	 0.105994967687922 
2350	 0.105937917486474 
2351	 0.105888547682707 
2352	 0.105818268819329 
2353	 0.105781122203036 
2354	 0.105765365526249 
2355	 0.10574081457634 
2356	 0.105709992219017 
2357	 0.105705201737258 
2358	 0.105741789092089 
2359	 0.105733678487864 
2360	 0.105722371720822 
2361	 0.105714932931205 
2362	 0.105661376480825 
2363	 0.105626159246173 
2364	 0.105611467082674 
2365	 0.105600055851502 
2366	 0.105580328505999 
2367	 0.105579678558554 
2368	 0.105621651482298 
2369	 0.10562737632784 
2370	 0.105626872761934 
2371	 0.105603637957158 
2372	 0.105590376492084 
2373	 0.105548589455567 
2374	 0.105457403001627 
2375	 0.10540182830071 
2376	 0.105340900942805 
2377	 0.105304586151277 
2378	 0.105331613672166 
2379	 0.105414976476404 
2380	 0.105461818607569 
2381	 0.105432770489626 
2382	 0.105419083353137 
2383	 0.105366366946016 
2384	 0.105306500295131 
2385	 0.105288312442587 
2386	 0.105304271726805 
2387	 0.105298567376439 
2388	 0.10525197648007 
2389	 0.105212722231128 
2390	 0.105120182929347 
2391	 0.105018660855307 
2392	 0.104940556156599 
2393	 0.104886386838006 
2394	 0.104930301876386 
2395	 0.104965775249509 
2396	 0.105005318713668 
2397	 0.105065508355174 
2398	 0.104999250887551 
2399	 0.104900912604113 
2400	 0.104857549423575 
2401	 0.104788248528683 
2402	 0.104663527169634 
2403	 0.104628025221853 
2404	 0.104592457849714 
2405	 0.10445676689721 
2406	 0.104426079427681 
2407	 0.104412984263749 
2408	 0.104318089407983 
2409	 0.10431099422022 
2410	 0.104373975837375 
2411	 0.10439756925861 
2412	 0.104394574705927 
2413	 0.104407742340529 
2414	 0.104384227753809 
2415	 0.104258915081698 
2416	 0.10419099386861 
2417	 0.104115416835102 
2418	 0.104137836524913 
2419	 0.104253441778562 
2420	 0.104305759802977 
2421	 0.104445998660841 
2422	 0.104422236005006 
2423	 0.10423210875705 
2424	 0.104110397249365 
2425	 0.103931941056517 
2426	 0.103826673555861 
2427	 0.103823550555075 
2428	 0.103753427789164 
2429	 0.103649018300693 
2430	 0.103575368012916 
2431	 0.103421945387867 
2432	 0.1033912414951 
2433	 0.103496137183082 
2434	 0.103493079711897 
2435	 0.103544451252902 
2436	 0.103496925567329 
2437	 0.103317708329573 
2438	 0.103240638558005 
2439	 0.10316880720559 
2440	 0.103107614061207 
2441	 0.103040597669397 
2442	 0.10301753825802 
2443	 0.103051971935218 
2444	 0.103067718902902 
2445	 0.103174021135101 
2446	 0.103143695538297 
2447	 0.10299856150993 
2448	 0.10287063130973 
2449	 0.102589585525209 
2450	 0.102549712224545 
2451	 0.102736660539681 
2452	 0.10273821340933 
2453	 0.102791367331226 
2454	 0.10275801459862 
2455	 0.102549473959964 
2456	 0.102390190126446 
2457	 0.102212342173192 
2458	 0.102076253216571 
2459	 0.101887889631987 
2460	 0.101862062121557 
2461	 0.102035511715678 
2462	 0.102074206634015 
2463	 0.102110611025557 
2464	 0.102087961722009 
2465	 0.10198232283963 
2466	 0.101897983503895 
2467	 0.101834161680409 
2468	 0.101764826952541 
2469	 0.101615903973678 
2470	 0.10147872239939 
2471	 0.101534978359829 
2472	 0.101512261070105 
2473	 0.10145060341156 
2474	 0.101525516589055 
2475	 0.101552082870998 
2476	 0.101671775231101 
2477	 0.101668250778672 
2478	 0.101445423611402 
2479	 0.101245723194618 
2480	 0.100900806133712 
2481	 0.100665296705193 
2482	 0.100584957024482 
2483	 0.100496576708067 
2484	 0.100436031937985 
2485	 0.100355371116656 
2486	 0.100405192596985 
2487	 0.100534974327345 
2488	 0.100645538467005 
2489	 0.100791097811731 
2490	 0.100711473769291 
2491	 0.10050320353706 
2492	 0.100339730829959 
2493	 0.100160972136163 
2494	 0.100270135072152 
2495	 0.100417798934645 
2496	 0.100286215476964 
2497	 0.100219354167348 
2498	 0.100221640955999 
2499	 0.100007887821146 
2500	 9.98090465920475E-02 
