Wavelength	mm2800012.asd
350	 4.38889673632656E-02 
351	 5.53045282068097E-02 
352	 5.45962525761349E-02 
353	 0.041724005247716 
354	 5.05894372480959E-02 
355	 5.51059915850072E-02 
356	 0.051826772945458 
357	 4.63690904131956E-02 
358	 5.41531557077292E-02 
359	 5.36656659642233E-02 
360	 4.84451230255342E-02 
361	 5.63005144499794E-02 
362	 6.00749724754855E-02 
363	 5.86716981911933E-02 
364	 5.50582630809315E-02 
365	 5.50678976633626E-02 
366	 5.34588034281422E-02 
367	 5.24010656041737E-02 
368	 0.05424239272001 
369	 5.42353259990464E-02 
370	 5.46810555424201E-02 
371	 5.57418823081333E-02 
372	 5.61634474909588E-02 
373	 5.78288261902286E-02 
374	 5.87068456938479E-02 
375	 5.83432013285114E-02 
376	 6.00584113568041E-02 
377	 5.72779375252356E-02 
378	 5.54203384461756E-02 
379	 0.059703183113249 
380	 5.84831993235121E-02 
381	 5.79471913130415E-02 
382	 5.97453463152548E-02 
383	 6.16039843158155E-02 
384	 0.06328166011269 
385	 6.18707791565107E-02 
386	 5.83935193641479E-02 
387	 6.21200573520767E-02 
388	 6.35032897349601E-02 
389	 6.24142854333289E-02 
390	 6.16740799538784E-02 
391	 6.27793043163199E-02 
392	 6.26551822849251E-02 
393	 6.22446884862451E-02 
394	 6.55237774770292E-02 
395	 6.64147353909171E-02 
396	 6.61215462616732E-02 
397	 6.61031985022898E-02 
398	 0.065420840610795 
399	 0.06671113863806 
400	 6.81703828805852E-02 
401	 6.71127913472648E-02 
402	 6.56341417003491E-02 
403	 6.53730378862673E-02 
404	 6.64029584189034E-02 
405	 0.067324929087607 
406	 6.84761823643602E-02 
407	 6.92524415820556E-02 
408	 6.91908782971397E-02 
409	 6.84121898878496E-02 
410	 6.76386305671611E-02 
411	 6.76192937629559E-02 
412	 6.87138302795599E-02 
413	 6.89238176195173E-02 
414	 6.84643259784409E-02 
415	 6.81143102768699E-02 
416	 6.90671419060406E-02 
417	 6.95564024272571E-02 
418	 0.06992574732253 
419	 7.06743929203496E-02 
420	 7.10226949494381E-02 
421	 7.08947285365457E-02 
422	 7.07763120119191E-02 
423	 7.13491561427743E-02 
424	 7.13239390624818E-02 
425	 7.13787985745411E-02 
426	 7.17988720292258E-02 
427	 7.16902413389881E-02 
428	 0.071735098311975 
429	 7.17602823308585E-02 
430	 7.15431203358313E-02 
431	 7.20513965852536E-02 
432	 7.22467721721899E-02 
433	 7.20226636719425E-02 
434	 7.22160336773473E-02 
435	 7.24448350547814E-02 
436	 7.28224462712454E-02 
437	 7.32955301765007E-02 
438	 7.30689195567795E-02 
439	 0.0732960771612 
440	 7.37223320325234E-02 
441	 7.35461702619278E-02 
442	 7.37763022447088E-02 
443	 7.40250042404828E-02 
444	 7.40639036245442E-02 
445	 0.074099553065543 
446	 7.43002347873637E-02 
447	 7.44797954458874E-02 
448	 7.44482845717623E-02 
449	 7.44388172422354E-02 
450	 7.47631399025081E-02 
451	 7.52400799666156E-02 
452	 7.53070852674208E-02 
453	 7.52812656028083E-02 
454	 7.51952839840523E-02 
455	 0.075168975987379 
456	 7.57081364285857E-02 
457	 7.60028031702465E-02 
458	 7.60801655812569E-02 
459	 7.62923635858028E-02 
460	 0.076248826501966 
461	 7.62830988589629E-02 
462	 7.65308022982676E-02 
463	 7.67681262196351E-02 
464	 7.70967768125708E-02 
465	 7.72985555501025E-02 
466	 7.72502597050602E-02 
467	 7.75389212340338E-02 
468	 7.77342285627166E-02 
469	 7.77581196415248E-02 
470	 7.78383985549723E-02 
471	 7.80297910607084E-02 
472	 0.078308052753855 
473	 7.85698352615958E-02 
474	 7.85388537915148E-02 
475	 0.078664645484664 
476	 0.078933171444219 
477	 7.91403425234406E-02 
478	 7.93631343718477E-02 
479	 7.95263551634384E-02 
480	 7.96098683020451E-02 
481	 7.96785040250433E-02 
482	 7.98608261055206E-02 
483	 8.01773768082522E-02 
484	 8.05475036923964E-02 
485	 8.06703260784695E-02 
486	 8.07169830510355E-02 
487	 8.07402966533945E-02 
488	 8.06982592577822E-02 
489	 0.080841928469353 
490	 8.10561264694186E-02 
491	 8.12335120511859E-02 
492	 8.14763791631403E-02 
493	 8.15562977554832E-02 
494	 8.15642614360134E-02 
495	 8.17381968708094E-02 
496	 8.21817999008657E-02 
497	 8.24197864794352E-02 
498	 8.23421977674463E-02 
499	 8.24454835531929E-02 
500	 8.25948370538167E-02 
501	 8.27593275047979E-02 
502	 8.29147728735779E-02 
503	 8.29788581489389E-02 
504	 8.30894312520754E-02 
505	 8.32377162952638E-02 
506	 8.32856512172991E-02 
507	 8.34160060515404E-02 
508	 8.35533112068156E-02 
509	 8.36185748471946E-02 
510	 8.36600398204733E-02 
511	 8.36451941027245E-02 
512	 8.36730783489814E-02 
513	 8.38697639908193E-02 
514	 8.39314414714298E-02 
515	 0.084030341569558 
516	 8.42686401230513E-02 
517	 8.45628140771136E-02 
518	 0.08461426417512 
519	 8.45849927850077E-02 
520	 8.47227662336048E-02 
521	 8.48108099969921E-02 
522	 8.49097317027747E-02 
523	 8.50211741347619E-02 
524	 8.50727861779179E-02 
525	 0.085146826847551 
526	 8.52192423196048E-02 
527	 0.085257342846001 
528	 8.52725662608528E-02 
529	 8.53092675696687E-02 
530	 8.54005193308182E-02 
531	 8.55563157658654E-02 
532	 8.56198440691026E-02 
533	 8.57015875749076E-02 
534	 8.58518905319692E-02 
535	 8.59182894994662E-02 
536	 8.59284724214178E-02 
537	 8.59538386013496E-02 
538	 8.60733218150009E-02 
539	 8.62723592020485E-02 
540	 8.63688789997468E-02 
541	 8.63420965224911E-02 
542	 8.63941390394053E-02 
543	 8.64888902454204E-02 
544	 8.66011489361545E-02 
545	 8.67062833141796E-02 
546	 8.67987754118706E-02 
547	 8.68609538650414E-02 
548	 8.68880024685371E-02 
549	 8.68900148444211E-02 
550	 8.69488627506155E-02 
551	 0.087012765629557 
552	 8.70498803517771E-02 
553	 8.71576633919141E-02 
554	 8.72088331497797E-02 
555	 8.72498418561133E-02 
556	 8.73946150817381E-02 
557	 8.74737198698283E-02 
558	 8.75220040299701E-02 
559	 8.76022889486086E-02 
560	 8.77988057705638E-02 
561	 8.78578486306558E-02 
562	 8.78574542824939E-02 
563	 8.79535161389923E-02 
564	 8.80241067757171E-02 
565	 8.80808813776632E-02 
566	 8.81178257989656E-02 
567	 8.81030569744686E-02 
568	 8.81481213242843E-02 
569	 8.82241267131909E-02 
570	 8.82977531516539E-02 
571	 8.84587977753714E-02 
572	 8.85579579003409E-02 
573	 8.85839871609924E-02 
574	 0.088625785802732 
575	 0.088675070913322 
576	 8.87602702680414E-02 
577	 8.88699405077903E-02 
578	 8.88914160768072E-02 
579	 0.088945452808167 
580	 8.89630660552684E-02 
581	 8.88406961379052E-02 
582	 8.88353102024066E-02 
583	 8.88179893506071E-02 
584	 8.87721796732075E-02 
585	 8.88854744415788E-02 
586	 8.91651937374738E-02 
587	 8.93981883474002E-02 
588	 0.089431317321462 
589	 8.96845437765357E-02 
590	 0.089914499178169 
591	 9.00284129885306E-02 
592	 9.00935966694479E-02 
593	 9.01299649473047E-02 
594	 0.09011275996698 
595	 9.00326135378094E-02 
596	 8.99462168017791E-02 
597	 8.98230180934769E-02 
598	 8.97074303223199E-02 
599	 8.96759897863117E-02 
600	 8.97074578862228E-02 
601	 8.97744345172597E-02 
602	 8.98530266043507E-02 
603	 8.99263504668903E-02 
604	 9.00164587804911E-02 
605	 9.01341781307149E-02 
606	 9.02747170891172E-02 
607	 9.03730847710775E-02 
608	 9.04885137964068E-02 
609	 9.06341080560093E-02 
610	 0.090762368206615 
611	 9.08321092971314E-02 
612	 9.08695462947404E-02 
613	 9.08989602116292E-02 
614	 9.08633922044944E-02 
615	 0.090860931424231 
616	 9.09078236010457E-02 
617	 9.09631160908964E-02 
618	 9.10672952820697E-02 
619	 9.11190129867962E-02 
620	 9.10858850509222E-02 
621	 9.11216747516243E-02 
622	 9.11763150501458E-02 
623	 9.12487618700666E-02 
624	 9.13413460581477E-02 
625	 0.091382439991087 
626	 9.13907993451948E-02 
627	 9.14049864703093E-02 
628	 9.14785447048143E-02 
629	 9.15377728019189E-02 
630	 0.091577020156706 
631	 9.16106430491415E-02 
632	 9.16485246411467E-02 
633	 9.16963258974259E-02 
634	 9.17526073528484E-02 
635	 9.18099393862931E-02 
636	 9.18631195587697E-02 
637	 0.091919023921837 
638	 9.19712204894557E-02 
639	 9.19652090708497E-02 
640	 9.20243691292805E-02 
641	 0.092106131649474 
642	 9.21144926952058E-02 
643	 9.22013955398012E-02 
644	 9.22797960070177E-02 
645	 9.23134670699521E-02 
646	 9.23719182778307E-02 
647	 9.24263912705033E-02 
648	 9.24669523804722E-02 
649	 0.092498754763644 
650	 9.25728989095265E-02 
651	 9.26204402638977E-02 
652	 9.26438630635504E-02 
653	 9.27067047599732E-02 
654	 9.27614351842923E-02 
655	 9.28088349795953E-02 
656	 9.28576933446522E-02 
657	 0.092914128759036 
658	 9.29776914831006E-02 
659	 9.30470562630417E-02 
660	 9.31170501011716E-02 
661	 9.31608546748184E-02 
662	 9.32119781840239E-02 
663	 9.32690153248359E-02 
664	 9.32693566580435E-02 
665	 9.33378149480497E-02 
666	 9.34416767302017E-02 
667	 0.093511114565961 
668	 9.35256394404816E-02 
669	 9.35798240961806E-02 
670	 9.36813354981887E-02 
671	 0.09376178244184 
672	 9.37966156927431E-02 
673	 9.38301870235246E-02 
674	 9.38911843915226E-02 
675	 9.39423584399683E-02 
676	 9.39748655892676E-02 
677	 9.39935881102461E-02 
678	 9.40141080777907E-02 
679	 0.094061714842192 
680	 9.41274976044682E-02 
681	 9.42033783054777E-02 
682	 9.42872970444164E-02 
683	 9.43617140149041E-02 
684	 0.094413307534417 
685	 9.44445452490043E-02 
686	 9.45014459494876E-02 
687	 9.45866699107122E-02 
688	 0.094660943442768 
689	 9.46675217468387E-02 
690	 9.47180143384065E-02 
691	 9.47552863624609E-02 
692	 0.094752521047642 
693	 9.47894854257168E-02 
694	 9.48782636114056E-02 
695	 9.49645536004411E-02 
696	 9.49846737182425E-02 
697	 9.49796631147705E-02 
698	 9.50100440314386E-02 
699	 9.50843558673908E-02 
700	 9.51557576724462E-02 
701	 9.52224976424799E-02 
702	 9.52678733915235E-02 
703	 9.52886987973596E-02 
704	 9.53218137224691E-02 
705	 9.53540058809483E-02 
706	 9.53925058761959E-02 
707	 9.54449843050002E-02 
708	 9.54339613348773E-02 
709	 9.54472794761336E-02 
710	 9.55170760335703E-02 
711	 9.55717790018755E-02 
712	 9.56074479576387E-02 
713	 9.56370631084722E-02 
714	 9.56708410731859E-02 
715	 9.56754638310313E-02 
716	 9.57110949088865E-02 
717	 9.57629787411176E-02 
718	 9.57704172329462E-02 
719	 9.58410909807289E-02 
720	 9.58815182595533E-02 
721	 9.58501862186795E-02 
722	 9.58569084758649E-02 
723	 9.59009177352191E-02 
724	 9.59331962637626E-02 
725	 9.59137014049722E-02 
726	 9.59530661867447E-02 
727	 9.59810501409212E-02 
728	 9.59838847532232E-02 
729	 9.60068338853803E-02 
730	 9.60421965688136E-02 
731	 9.60584298749966E-02 
732	 9.60417787837575E-02 
733	 9.60267090753254E-02 
734	 9.60415848046947E-02 
735	 9.60467725815609E-02 
736	 9.59982773819848E-02 
737	 9.60200471336193E-02 
738	 9.60438725457551E-02 
739	 9.60533409815822E-02 
740	 0.096100982837416 
741	 9.60992763761883E-02 
742	 9.60614129271232E-02 
743	 0.096029518023563 
744	 9.60651344530851E-02 
745	 9.60748184317369E-02 
746	 9.60680918308035E-02 
747	 9.60921921005214E-02 
748	 0.096079694339145 
749	 9.60473191364739E-02 
750	 9.60238087303864E-02 
751	 9.60412060189487E-02 
752	 9.60423145569731E-02 
753	 9.60248176700006E-02 
754	 9.60035382030955E-02 
755	 9.59979161223134E-02 
756	 0.096027713729541 
757	 9.60551363257108E-02 
758	 9.60264024545636E-02 
759	 9.60086945760473E-02 
760	 9.60051659880462E-02 
761	 9.60049606539315E-02 
762	 9.59883339452066E-02 
763	 9.59962806121971E-02 
764	 9.60018490602449E-02 
765	 9.59850602226274E-02 
766	 9.59957968786891E-02 
767	 9.60039795952096E-02 
768	 9.60016167826423E-02 
769	 9.59941198194705E-02 
770	 9.59987035704269E-02 
771	 9.59823531391229E-02 
772	 9.59352992148456E-02 
773	 9.58818262571431E-02 
774	 9.58971592852814E-02 
775	 9.59170671675872E-02 
776	 9.58867895435068E-02 
777	 9.58658275752448E-02 
778	 9.58763341974092E-02 
779	 9.58866718821382E-02 
780	 0.095854561365052 
781	 0.095851750921007 
782	 9.58557751211196E-02 
783	 0.09585128512358 
784	 9.58380119213092E-02 
785	 9.57985930846317E-02 
786	 0.095773218316811 
787	 9.57787993671541E-02 
788	 9.57465344099018E-02 
789	 9.57571957441002E-02 
790	 9.57701978594524E-02 
791	 9.57272276077723E-02 
792	 9.57348674868415E-02 
793	 0.095723228252214 
794	 9.56959875651642E-02 
795	 9.57180455277956E-02 
796	 9.56837522779701E-02 
797	 9.56541926217193E-02 
798	 9.56641546213821E-02 
799	 9.56527548394508E-02 
800	 9.56354801914841E-02 
801	 9.56207127281298E-02 
802	 9.56154839487151E-02 
803	 9.56305177340345E-02 
804	 9.56030233620328E-02 
805	 9.55527137141228E-02 
806	 9.55455984558202E-02 
807	 9.55507456457121E-02 
808	 9.55276311145728E-02 
809	 9.54787605961045E-02 
810	 9.54623179259771E-02 
811	 9.54777509543898E-02 
812	 9.54778308324673E-02 
813	 9.54386287627165E-02 
814	 0.095425144278141 
815	 9.54471510945928E-02 
816	 9.54628539756718E-02 
817	 9.54267369219632E-02 
818	 9.54048137271434E-02 
819	 9.54071896160664E-02 
820	 9.54072749575492E-02 
821	 9.53591815535187E-02 
822	 9.53477619835277E-02 
823	 9.53275427420501E-02 
824	 9.52895612509945E-02 
825	 9.53164040768209E-02 
826	 9.53186159148538E-02 
827	 9.53133903195574E-02 
828	 9.53253270533055E-02 
829	 9.53088470145338E-02 
830	 9.52499646521452E-02 
831	 9.51961026023838E-02 
832	 9.52149553535499E-02 
833	 9.53057977492724E-02 
834	 9.53154564509826E-02 
835	 9.52458124224623E-02 
836	 9.52466558073956E-02 
837	 9.52592478258536E-02 
838	 9.52743915566766E-02 
839	 9.52746357889119E-02 
840	 9.52184295935142E-02 
841	 9.51788613522465E-02 
842	 9.51768419884615E-02 
843	 9.52039600606597E-02 
844	 9.52181311129506E-02 
845	 9.52202140759662E-02 
846	 9.51972864631369E-02 
847	 9.51560098312053E-02 
848	 9.52380940741903E-02 
849	 9.52929991771604E-02 
850	 9.52751858014849E-02 
851	 9.52459383242293E-02 
852	 9.51998322876619E-02 
853	 9.51830598676116E-02 
854	 9.52148072732714E-02 
855	 9.52666462001669E-02 
856	 9.53018070259001E-02 
857	 9.53043873800799E-02 
858	 9.52792690425075E-02 
859	 9.52623721855756E-02 
860	 9.52457467280252E-02 
861	 9.52305436104534E-02 
862	 0.095217842198414 
863	 9.51995395931387E-02 
864	 9.51769861058376E-02 
865	 0.095172878253469 
866	 9.52058499250913E-02 
867	 9.51741455498063E-02 
868	 9.51648427676585E-02 
869	 9.51945360319687E-02 
870	 9.51950417688675E-02 
871	 9.52030798589809E-02 
872	 9.52166636985859E-02 
873	 0.095233792946101 
874	 9.52618125385734E-02 
875	 9.52360458352025E-02 
876	 0.095212856436391 
877	 9.52399255765062E-02 
878	 9.52593100683879E-02 
879	 9.52943068990361E-02 
880	 9.53153268444041E-02 
881	 9.52982292066664E-02 
882	 9.53050071552807E-02 
883	 9.53809525623887E-02 
884	 9.54393351531147E-02 
885	 9.53738849716893E-02 
886	 9.54334721390427E-02 
887	 9.54874228046435E-02 
888	 9.54734724733169E-02 
889	 9.54245475629733E-02 
890	 9.54415553179836E-02 
891	 9.54820317982051E-02 
892	 9.55167413695747E-02 
893	 9.55579114497068E-02 
894	 0.095570523653415 
895	 9.55774011719958E-02 
896	 9.56043664867672E-02 
897	 9.56608013392314E-02 
898	 9.56813257567902E-02 
899	 9.56670191561737E-02 
900	 9.56491634017445E-02 
901	 0.095681368150138 
902	 9.57434466206542E-02 
903	 9.57980558664439E-02 
904	 9.58155176331309E-02 
905	 9.58149787793903E-02 
906	 9.58597492933445E-02 
907	 9.59254369197923E-02 
908	 9.59612546846431E-02 
909	 9.60324232300597E-02 
910	 9.60601168513492E-02 
911	 9.60472705494569E-02 
912	 9.60536300584435E-02 
913	 0.096086393963015 
914	 0.096140466690932 
915	 9.61792347014405E-02 
916	 9.61562260148599E-02 
917	 9.61646825604551E-02 
918	 9.62198985077161E-02 
919	 9.62813869295619E-02 
920	 9.62731669514304E-02 
921	 9.63498104448385E-02 
922	 9.64334644623736E-02 
923	 9.64673685032907E-02 
924	 9.64878632213099E-02 
925	 9.65505494537511E-02 
926	 9.66301207488759E-02 
927	 9.66741487593334E-02 
928	 9.66205703544872E-02 
929	 9.66892362529076E-02 
930	 9.67649863068313E-02 
931	 9.67591705317559E-02 
932	 9.68556576369031E-02 
933	 9.68454595765946E-02 
934	 9.68501070736028E-02 
935	 9.69771024451838E-02 
936	 9.70095787414553E-02 
937	 9.70358445430649E-02 
938	 9.70769394817607E-02 
939	 9.71468695977451E-02 
940	 0.097314155894529 
941	 9.74058434256056E-02 
942	 9.74408335653259E-02 
943	 9.75031797012867E-02 
944	 9.75910742702429E-02 
945	 9.75952260551019E-02 
946	 9.75915920146991E-02 
947	 9.76763773143631E-02 
948	 9.76256705292989E-02 
949	 9.76170490760512E-02 
950	 0.097658518763932 
951	 9.76984538401352E-02 
952	 9.79097620314714E-02 
953	 9.79890967716697E-02 
954	 9.79704181235387E-02 
955	 9.80548710383221E-02 
956	 9.81393333284246E-02 
957	 9.82082731246447E-02 
958	 9.82207986199925E-02 
959	 9.81724290715607E-02 
960	 9.83344388059039E-02 
961	 9.84380752810184E-02 
962	 9.84308457415048E-02 
963	 9.84336516022375E-02 
964	 9.85133755839318E-02 
965	 9.86551992975912E-02 
966	 9.87522803655861E-02 
967	 9.87003225489562E-02 
968	 9.87247026776963E-02 
969	 9.87959162654947E-02 
970	 9.88705000331755E-02 
971	 9.89119811652674E-02 
972	 9.89056377218328E-02 
973	 9.89750106947266E-02 
974	 9.90640303127197E-02 
975	 9.90387428621653E-02 
976	 9.90916984857691E-02 
977	 9.92290123626611E-02 
978	 0.09932188288077 
979	 9.92413537767356E-02 
980	 9.93048678858848E-02 
981	 9.93084141997678E-02 
982	 9.92806406501313E-02 
983	 9.93811373931101E-02 
984	 9.95529462988832E-02 
985	 9.95803347606632E-02 
986	 0.099513509533893 
987	 9.95442251919492E-02 
988	 9.97024776513673E-02 
989	 9.97178511082567E-02 
990	 9.96463589848018E-02 
991	 0.099683533574695 
992	 0.099758453197349 
993	 9.98508807912531E-02 
994	 9.99586387016626E-02 
995	 0.100053185229336 
996	 9.99571928014507E-02 
997	 0.100010571612009 
998	 0.10007480622417 
999	 9.99627908513438E-02 
1000	 0.100037318892239 
1001	 9.86328643197429E-02 
1002	 9.86129329162964E-02 
1003	 0.098578624365377 
1004	 9.86121653663185E-02 
1005	 9.87273344404019E-02 
1006	 9.87589270715722E-02 
1007	 9.87863138830585E-02 
1008	 9.88223777049899E-02 
1009	 9.88000344258952E-02 
1010	 9.87159106676786E-02 
1011	 9.87537556242912E-02 
1012	 9.87925254223011E-02 
1013	 9.87912606595069E-02 
1014	 9.88540195929688E-02 
1015	 9.88587791721644E-02 
1016	 9.88813103901132E-02 
1017	 9.89171560778867E-02 
1018	 9.90118482681607E-02 
1019	 9.89745486654707E-02 
1020	 9.89388390599292E-02 
1021	 9.89895047276596E-02 
1022	 9.89694534229867E-02 
1023	 9.89895368467671E-02 
1024	 9.90147125685031E-02 
1025	 9.89529252866998E-02 
1026	 9.89729528187224E-02 
1027	 9.89612878085426E-02 
1028	 9.89562912908713E-02 
1029	 9.90100381718348E-02 
1030	 9.89967685940433E-02 
1031	 9.90098088730506E-02 
1032	 9.90513675402195E-02 
1033	 9.90866390203241E-02 
1034	 9.90880617982163E-02 
1035	 9.90964229932796E-02 
1036	 9.90710307815802E-02 
1037	 9.90464271524822E-02 
1038	 9.90205974840504E-02 
1039	 9.90039740622841E-02 
1040	 9.89969607171665E-02 
1041	 9.89903602691995E-02 
1042	 9.90311103596479E-02 
1043	 9.91119143271505E-02 
1044	 0.099139341161084 
1045	 9.91582468128575E-02 
1046	 9.91727108969298E-02 
1047	 9.91544005826852E-02 
1048	 0.099095712480656 
1049	 9.90987457035187E-02 
1050	 9.91374613153163E-02 
1051	 0.099200496754954 
1052	 9.92588025766466E-02 
1053	 0.099271801377187 
1054	 9.93185236350119E-02 
1055	 9.93845808699396E-02 
1056	 9.94275143754264E-02 
1057	 9.94792431709652E-02 
1058	 9.95756894941972E-02 
1059	 9.96271214028825E-02 
1060	 9.96420272972635E-02 
1061	 9.96604594588243E-02 
1062	 0.0997159071368 
1063	 9.97746993433065E-02 
1064	 9.98290822431208E-02 
1065	 9.99161559199213E-02 
1066	 9.99285035122819E-02 
1067	 9.98740346175647E-02 
1068	 9.98868697199599E-02 
1069	 9.98916085204621E-02 
1070	 9.99201786547519E-02 
1071	 0.100030925361551 
1072	 0.10008313521035 
1073	 0.100094882627178 
1074	 0.100125332197392 
1075	 0.100153853295004 
1076	 0.100169147302327 
1077	 0.100195421878433 
1078	 0.100235635619668 
1079	 0.100298708665391 
1080	 0.100347423487689 
1081	 0.100312222780308 
1082	 0.10028247717689 
1083	 0.100292429788243 
1084	 0.100287490498942 
1085	 0.100279715371086 
1086	 0.100323015654373 
1087	 0.10033721344387 
1088	 0.100312195429195 
1089	 0.100299982031605 
1090	 0.100298427349055 
1091	 0.100304596732486 
1092	 0.100315323368417 
1093	 0.100294998239699 
1094	 0.100273593053345 
1095	 0.100287356827987 
1096	 0.10027767058772 
1097	 0.100230304263496 
1098	 0.100212444765647 
1099	 0.100207295498052 
1100	 0.100198032437656 
1101	 0.100187903905245 
1102	 0.100201454133955 
1103	 0.100244541763069 
1104	 0.100260722470115 
1105	 0.10022877988367 
1106	 0.100183497618446 
1107	 0.100158195136824 
1108	 0.100130898768232 
1109	 0.100115450878324 
1110	 0.100123629911138 
1111	 0.100125870030972 
1112	 0.100103657753902 
1113	 0.100091666570597 
1114	 0.100102405585232 
1115	 0.100107516883913 
1116	 0.100099660979034 
1117	 0.100095299940362 
1118	 0.100105553181047 
1119	 0.100106309123327 
1120	 0.100086980961249 
1121	 0.100092972144439 
1122	 0.100095744741801 
1123	 0.100096244064196 
1124	 0.100106914383993 
1125	 0.100128295076948 
1126	 0.100126302678378 
1127	 0.100115234178275 
1128	 0.100121995830879 
1129	 0.100129914214062 
1130	 0.100128701799451 
1131	 0.100145560136842 
1132	 0.100140207775948 
1133	 0.100086717943227 
1134	 0.100075928427203 
1135	 0.100086894552557 
1136	 0.100098182024304 
1137	 0.100106787406354 
1138	 0.100122598425947 
1139	 0.100114620497796 
1140	 0.100070661412762 
1141	 0.100060087803729 
1142	 0.10005420337139 
1143	 0.100052762634827 
1144	 0.100073097851363 
1145	 0.100071846987771 
1146	 0.100055398906021 
1147	 0.100054905139535 
1148	 0.100056521832322 
1149	 0.100053365798438 
1150	 0.100060307671158 
1151	 0.10006243999547 
1152	 0.100054263807204 
1153	 0.100039378360839 
1154	 0.10002367882876 
1155	 0.100001180784747 
1156	 9.99955428259942E-02 
1157	 9.99874155703049E-02 
1158	 9.99882647121604E-02 
1159	 0.100014448553031 
1160	 0.100019322073341 
1161	 0.10001962329538 
1162	 0.100015951084763 
1163	 9.99950504635484E-02 
1164	 9.99859624271348E-02 
1165	 9.99780579894086E-02 
1166	 9.99752124236327E-02 
1167	 9.99701169611705E-02 
1168	 9.99682582435403E-02 
1169	 9.99739181325484E-02 
1170	 9.99841316578019E-02 
1171	 9.99887000836114E-02 
1172	 0.100000385200507 
1173	 0.100004959840773 
1174	 9.99911577511229E-02 
1175	 0.100000094090865 
1176	 0.100037926744583 
1177	 0.100043772999636 
1178	 0.100028851993004 
1179	 0.100035235779501 
1180	 0.100035752714865 
1181	 0.100036784337671 
1182	 0.100048442005404 
1183	 0.100074913377828 
1184	 0.10009384569526 
1185	 0.100098698504713 
1186	 0.100117170205609 
1187	 0.100159024111944 
1188	 0.100172560630967 
1189	 0.100166909903633 
1190	 0.100177459734387 
1191	 0.10018199251048 
1192	 0.100194131198486 
1193	 0.100221207821705 
1194	 0.100239278918161 
1195	 0.100253653246167 
1196	 0.10026872349527 
1197	 0.100281182419152 
1198	 0.100296606911074 
1199	 0.100312937797099 
1200	 0.100333405747065 
1201	 0.100341877960682 
1202	 0.100337703882223 
1203	 0.100359433260241 
1204	 0.100388544868999 
1205	 0.100410599925222 
1206	 0.100444170847752 
1207	 0.100478690608956 
1208	 0.100508692963958 
1209	 0.100534697304129 
1210	 0.100581106215269 
1211	 0.100603082798473 
1212	 0.100584966579011 
1213	 0.10059551002049 
1214	 0.100608366748418 
1215	 0.100629989622768 
1216	 0.100661960900745 
1217	 0.10071813471705 
1218	 0.10075311360479 
1219	 0.100789798598254 
1220	 0.100813809796977 
1221	 0.10082304950125 
1222	 0.100843583769062 
1223	 0.100859668519928 
1224	 0.100881742391714 
1225	 0.100917329654665 
1226	 0.100939907280787 
1227	 0.100956161005147 
1228	 0.1009736527511 
1229	 0.10098152044379 
1230	 0.100997634541062 
1231	 0.101022008580388 
1232	 0.101041461520852 
1233	 0.101060675273053 
1234	 0.101078936603141 
1235	 0.101106247128096 
1236	 0.101140966162568 
1237	 0.10116099130147 
1238	 0.101178079887217 
1239	 0.101202625102175 
1240	 0.101217260599777 
1241	 0.101238566492589 
1242	 0.101286603923648 
1243	 0.101304799821776 
1244	 0.10129351003743 
1245	 0.10130351851509 
1246	 0.101299438557406 
1247	 0.101317685291144 
1248	 0.101362745894224 
1249	 0.101410722842858 
1250	 0.101430212020035 
1251	 0.101459639953273 
1252	 0.101487979201021 
1253	 0.101506573007037 
1254	 0.101524101138271 
1255	 0.101552263041799 
1256	 0.10156880307012 
1257	 0.101568752576858 
1258	 0.101572383342839 
1259	 0.101579919155414 
1260	 0.101583423691532 
1261	 0.101574342555205 
1262	 0.10157439265389 
1263	 0.101582131336593 
1264	 0.101587061674098 
1265	 0.101593683817182 
1266	 0.101599730217694 
1267	 0.101606991634994 
1268	 0.101602330235032 
1269	 0.101617858629399 
1270	 0.101639733786477 
1271	 0.101661908699027 
1272	 0.101695446590501 
1273	 0.101725084528654 
1274	 0.101741532681187 
1275	 0.101786525320489 
1276	 0.101857984853227 
1277	 0.101909755183299 
1278	 0.101967995566995 
1279	 0.102023112065771 
1280	 0.102059556657715 
1281	 0.102109350752044 
1282	 0.102158460685503 
1283	 0.102228853201154 
1284	 0.102317029529924 
1285	 0.102407977133628 
1286	 0.102491819923775 
1287	 0.10257500159944 
1288	 0.102654104937826 
1289	 0.102710078556185 
1290	 0.102791341820028 
1291	 0.102900587111423 
1292	 0.102974466240857 
1293	 0.103033815231865 
1294	 0.103098156741917 
1295	 0.103150181669704 
1296	 0.103201798589302 
1297	 0.103262441541669 
1298	 0.103310376726218 
1299	 0.103346727689594 
1300	 0.103379328444565 
1301	 0.103393367359898 
1302	 0.103426636449238 
1303	 0.10347057072965 
1304	 0.103503954018641 
1305	 0.10354670957158 
1306	 0.103581804301058 
1307	 0.103578016095505 
1308	 0.103567230400422 
1309	 0.103573125259017 
1310	 0.103584417474719 
1311	 0.103576565358106 
1312	 0.103570948442204 
1313	 0.103564405719751 
1314	 0.103534936601503 
1315	 0.103522892952993 
1316	 0.103528559427501 
1317	 0.10352189281984 
1318	 0.103510352836196 
1319	 0.103499846138785 
1320	 0.103493092611478 
1321	 0.103479944410683 
1322	 0.103464590480821 
1323	 0.103439728085153 
1324	 0.103416577360691 
1325	 0.103400730410683 
1326	 0.103392561824675 
1327	 0.103384946383662 
1328	 0.103355723583073 
1329	 0.103317559352032 
1330	 0.103304261884401 
1331	 0.103288577201115 
1332	 0.103285748112168 
1333	 0.103317414460932 
1334	 0.10331900019846 
1335	 0.103303389339118 
1336	 0.103297984989371 
1337	 0.103285844786075 
1338	 0.10328530069852 
1339	 0.103305012016102 
1340	 0.10330201470394 
1341	 0.103285916104865 
1342	 0.103281185806561 
1343	 0.103271084233166 
1344	 0.103255363573942 
1345	 0.103272161019645 
1346	 0.103288471062448 
1347	 0.103295861814924 
1348	 0.103295595810651 
1349	 0.103280166910035 
1350	 0.103271390860567 
1351	 0.103266533975928 
1352	 0.103260878599131 
1353	 0.10326612034191 
1354	 0.103279584541039 
1355	 0.103289832684068 
1356	 0.103310272046338 
1357	 0.103317442054086 
1358	 0.103309057062107 
1359	 0.10332134571491 
1360	 0.103346963653062 
1361	 0.103357003778179 
1362	 0.103374206011608 
1363	 0.103383792633727 
1364	 0.103367642803346 
1365	 0.103367614844142 
1366	 0.103374844431221 
1367	 0.103384960176988 
1368	 0.103416120681504 
1369	 0.103439933537379 
1370	 0.103451148134123 
1371	 0.103468942694751 
1372	 0.103457297152389 
1373	 0.10344406888534 
1374	 0.103441735598961 
1375	 0.103448584174698 
1376	 0.103440659328582 
1377	 0.103436365680694 
1378	 0.10341784219164 
1379	 0.103374482677824 
1380	 0.103353729266547 
1381	 0.103337435051455 
1382	 0.103321906947672 
1383	 0.103325127077792 
1384	 0.103312059583302 
1385	 0.103288681643864 
1386	 0.103266285536565 
1387	 0.103230413776955 
1388	 0.103204693838007 
1389	 0.103181417177841 
1390	 0.103170144091734 
1391	 0.103147434716744 
1392	 0.103128898420333 
1393	 0.103104602256304 
1394	 0.103068280792223 
1395	 0.103025623994082 
1396	 0.102985914710203 
1397	 0.102959708523083 
1398	 0.102937725034997 
1399	 0.102912166232792 
1400	 0.102903268095505 
1401	 0.102877393707432 
1402	 0.102832238251441 
1403	 0.10280051357109 
1404	 0.102769631086407 
1405	 0.102746678753892 
1406	 0.102732635854278 
1407	 0.102712876824965 
1408	 0.102698018850096 
1409	 0.102678253047881 
1410	 0.102644924492783 
1411	 0.102628874383086 
1412	 0.102619327973657 
1413	 0.102613686389773 
1414	 0.102621289350275 
1415	 0.102625565806857 
1416	 0.102628304187598 
1417	 0.102631123134881 
1418	 0.102622271030119 
1419	 0.10262086243153 
1420	 0.102638098222142 
1421	 0.102662215130517 
1422	 0.102694487741284 
1423	 0.102718510945448 
1424	 0.102734513767405 
1425	 0.102735568648691 
1426	 0.102744369372941 
1427	 0.102749618625793 
1428	 0.10276448111955 
1429	 0.102776042931795 
1430	 0.102800107912489 
1431	 0.102843037647543 
1432	 0.102872354070386 
1433	 0.10290669921491 
1434	 0.102933658910631 
1435	 0.102947605454215 
1436	 0.102966517226164 
1437	 0.102979110781849 
1438	 0.102999926844451 
1439	 0.103023091722486 
1440	 0.103059244769965 
1441	 0.103076355903359 
1442	 0.103105703103308 
1443	 0.103131650811822 
1444	 0.103139942135189 
1445	 0.103171636282537 
1446	 0.103210797756303 
1447	 0.103243077166354 
1448	 0.103269466675502 
1449	 0.103275318592337 
1450	 0.103290002370039 
1451	 0.103309178077757 
1452	 0.103321911066787 
1453	 0.103351517203629 
1454	 0.103395594735605 
1455	 0.103434869427493 
1456	 0.103490122729956 
1457	 0.103524299463827 
1458	 0.10354447802514 
1459	 0.10357369383688 
1460	 0.103592320226793 
1461	 0.10362216495301 
1462	 0.103666277329842 
1463	 0.103706104814594 
1464	 0.103755655891966 
1465	 0.103782514962283 
1466	 0.103797124516703 
1467	 0.103812316046184 
1468	 0.103800419703924 
1469	 0.103814404607642 
1470	 0.103844609950116 
1471	 0.103874445361789 
1472	 0.103915602184811 
1473	 0.103949937125528 
1474	 0.103974074361094 
1475	 0.103999898575398 
1476	 0.104002876205522 
1477	 0.104013902970719 
1478	 0.104030657450529 
1479	 0.104040823085394 
1480	 0.10407506258094 
1481	 0.104100765044138 
1482	 0.104125134359421 
1483	 0.104149635866058 
1484	 0.104175150118694 
1485	 0.104198483992096 
1486	 0.104221298039116 
1487	 0.104241379383054 
1488	 0.104267604289758 
1489	 0.104299875722917 
1490	 0.104320033262392 
1491	 0.104337629185172 
1492	 0.104360209852862 
1493	 0.104376955658094 
1494	 0.104394984021416 
1495	 0.104418974436912 
1496	 0.104438765984337 
1497	 0.104452863216666 
1498	 0.104468613504892 
1499	 0.104487413286331 
1500	 0.104507140727808 
1501	 0.104524533519132 
1502	 0.104537708732277 
1503	 0.104551344452748 
1504	 0.104565530252172 
1505	 0.1045699579431 
1506	 0.10458901429464 
1507	 0.104622540958623 
1508	 0.104651369208456 
1509	 0.104668333851873 
1510	 0.104674470234095 
1511	 0.104679518986598 
1512	 0.104686880128297 
1513	 0.104691660384242 
1514	 0.104720685182902 
1515	 0.104756035372684 
1516	 0.104768689698266 
1517	 0.104790855651892 
1518	 0.104827397408261 
1519	 0.104847363679363 
1520	 0.10485590292235 
1521	 0.104869689757726 
1522	 0.104879688870087 
1523	 0.104892274163912 
1524	 0.104902935777114 
1525	 0.104917226202608 
1526	 0.104944860231988 
1527	 0.104950763714666 
1528	 0.104940780871183 
1529	 0.104944980100993 
1530	 0.104936049750836 
1531	 0.104946637635624 
1532	 0.104979128851866 
1533	 0.105001730901972 
1534	 0.105035602094002 
1535	 0.105051313238287 
1536	 0.105049993485611 
1537	 0.105063302426038 
1538	 0.10507067703738 
1539	 0.105084261919575 
1540	 0.105110229409098 
1541	 0.105135931347615 
1542	 0.10516387932957 
1543	 0.105186302415366 
1544	 0.105213183357286 
1545	 0.105237300198617 
1546	 0.105260317203409 
1547	 0.105271556756454 
1548	 0.105279584502998 
1549	 0.105278912180911 
1550	 0.10527781844893 
1551	 0.105277652481897 
1552	 0.105290686266438 
1553	 0.105311960420988 
1554	 0.105316797465009 
1555	 0.105326743586217 
1556	 0.105345636834181 
1557	 0.105348511164034 
1558	 0.10535082124745 
1559	 0.105369810637267 
1560	 0.105376028797515 
1561	 0.105371852125358 
1562	 0.10537693122632 
1563	 0.10538600578223 
1564	 0.105387248899478 
1565	 0.105385449412431 
1566	 0.10539597289865 
1567	 0.105408539321117 
1568	 0.105416099796551 
1569	 0.105436816079691 
1570	 0.10543641741282 
1571	 0.10542005824519 
1572	 0.105408363555205 
1573	 0.105383018410041 
1574	 0.105377890701893 
1575	 0.10538049240137 
1576	 0.105381237705484 
1577	 0.105393560106049 
1578	 0.105404747289551 
1579	 0.105412014790433 
1580	 0.105421505217782 
1581	 0.105435258121449 
1582	 0.105449619394915 
1583	 0.105472000037952 
1584	 0.105480219883436 
1585	 0.10548508737969 
1586	 0.105487133496469 
1587	 0.105467999196883 
1588	 0.105464001973402 
1589	 0.105474068878526 
1590	 0.105476370945484 
1591	 0.105479263028094 
1592	 0.105480017477258 
1593	 0.105469810177151 
1594	 0.105472481395016 
1595	 0.105489987524353 
1596	 0.105494091141196 
1597	 0.105492402442425 
1598	 0.105497058962122 
1599	 0.105501792892489 
1600	 0.10549943003938 
1601	 0.10549171011087 
1602	 0.105498121450797 
1603	 0.105505516302941 
1604	 0.105510898466534 
1605	 0.105538229578495 
1606	 0.105550152195322 
1607	 0.1055456473709 
1608	 0.105535041943575 
1609	 0.105549360014487 
1610	 0.105565422252553 
1611	 0.105575806401053 
1612	 0.105594845997309 
1613	 0.10559407495469 
1614	 0.105589617953164 
1615	 0.105595728488817 
1616	 0.105596881169724 
1617	 0.10559761270327 
1618	 0.105601820449465 
1619	 0.105620864880168 
1620	 0.105643007253305 
1621	 0.105655136211315 
1622	 0.105670344960047 
1623	 0.105683112070754 
1624	 0.105686119621142 
1625	 0.105691747308146 
1626	 0.105706630705789 
1627	 0.105704901985466 
1628	 0.105685837146904 
1629	 0.105686565940384 
1630	 0.105690855445103 
1631	 0.105695010383506 
1632	 0.105710208618349 
1633	 0.105712519007532 
1634	 0.105708469822701 
1635	 0.105701032445857 
1636	 0.105685889129411 
1637	 0.105681022483664 
1638	 0.105672345393868 
1639	 0.10567648269496 
1640	 0.10569352939215 
1641	 0.10570486795393 
1642	 0.105723146325898 
1643	 0.105729883499486 
1644	 0.105732666745794 
1645	 0.10573218095461 
1646	 0.105717117834484 
1647	 0.105722075713331 
1648	 0.105735246710219 
1649	 0.105746418496984 
1650	 0.105770935385644 
1651	 0.105782608165324 
1652	 0.105789851167757 
1653	 0.105788446202111 
1654	 0.105773521957208 
1655	 0.105775014970565 
1656	 0.105775640564368 
1657	 0.105779410282334 
1658	 0.105804254338765 
1659	 0.105803066734244 
1660	 0.10578095565317 
1661	 0.105774907652538 
1662	 0.105758314287728 
1663	 0.105763590921445 
1664	 0.105793936348152 
1665	 0.105805422713452 
1666	 0.105819705196501 
1667	 0.105828191745451 
1668	 0.105822439497678 
1669	 0.105827556201774 
1670	 0.105846252341241 
1671	 0.105844042483452 
1672	 0.105824272373916 
1673	 0.105825731551549 
1674	 0.105822118080817 
1675	 0.105830266411988 
1676	 0.105867813759242 
1677	 0.105880939772 
1678	 0.105884211475866 
1679	 0.105885675926736 
1680	 0.105868658958977 
1681	 0.105877081961888 
1682	 0.105903917414799 
1683	 0.105910919214831 
1684	 0.105917114692803 
1685	 0.105931208472918 
1686	 0.105939224377771 
1687	 0.105942875927094 
1688	 0.105958673296556 
1689	 0.105966657496611 
1690	 0.105955248931331 
1691	 0.1059528581884 
1692	 0.105952421707864 
1693	 0.10596557984614 
1694	 0.105987576279063 
1695	 0.106000647807271 
1696	 0.106021009665418 
1697	 0.106044403416438 
1698	 0.106057581950015 
1699	 0.106080781233881 
1700	 0.106130874044255 
1701	 0.106146508325983 
1702	 0.106143229746321 
1703	 0.106142290211364 
1704	 0.106118465313863 
1705	 0.10612118990472 
1706	 0.106148103225179 
1707	 0.106145153944127 
1708	 0.106125352889155 
1709	 0.106132477776098 
1710	 0.106141478490016 
1711	 0.10613990889654 
1712	 0.106160893472129 
1713	 0.106163858141219 
1714	 0.106133973763189 
1715	 0.106123210858783 
1716	 0.106124361822074 
1717	 0.106125622056188 
1718	 0.106127106590046 
1719	 0.106127041990794 
1720	 0.106132710910979 
1721	 0.106137539545139 
1722	 0.106134929248918 
1723	 0.106142189669057 
1724	 0.106162382899588 
1725	 0.106166311911307 
1726	 0.106167397381635 
1727	 0.106159774130429 
1728	 0.106133125814384 
1729	 0.106135964159262 
1730	 0.106157033849393 
1731	 0.106148917391173 
1732	 0.106146538578252 
1733	 0.106130249939034 
1734	 0.106077401734878 
1735	 0.106053190546354 
1736	 0.106043977504346 
1737	 0.10603357057979 
1738	 0.10602065755426 
1739	 0.106024050211237 
1740	 0.106048501638269 
1741	 0.106040987462081 
1742	 0.106026324338176 
1743	 0.106024247132662 
1744	 0.106009750262015 
1745	 0.106002483900411 
1746	 0.106010957534065 
1747	 0.106013283474619 
1748	 0.106001252727269 
1749	 0.105996551169802 
1750	 0.105991982187465 
1751	 0.105963061792379 
1752	 0.105947812652767 
1753	 0.10592827138149 
1754	 0.105883831685245 
1755	 0.105857319115809 
1756	 0.105832978901373 
1757	 0.10582463312444 
1758	 0.105845589370096 
1759	 0.105850247824795 
1760	 0.105850470123784 
1761	 0.105846576729896 
1762	 0.105830836448151 
1763	 0.105832648027276 
1764	 0.105829464174403 
1765	 0.105830556416835 
1766	 0.105846218298044 
1767	 0.105826065060765 
1768	 0.105805123510382 
1769	 0.105789471242691 
1770	 0.105771874473039 
1771	 0.105779240556231 
1772	 0.105774350575701 
1773	 0.105760253617908 
1774	 0.105747821100566 
1775	 0.105738203456694 
1776	 0.105745683011245 
1777	 0.105761925634625 
1778	 0.105759966198733 
1779	 0.105729720943467 
1780	 0.105724804307384 
1781	 0.105735095741194 
1782	 0.105719679121244 
1783	 0.105737857372477 
1784	 0.105733404669985 
1785	 0.105682147212935 
1786	 0.105693224203507 
1787	 0.105754326597507 
1788	 0.105768830503659 
1789	 0.105782234016819 
1790	 0.105799005739615 
1791	 0.105786681423279 
1792	 0.105782690935828 
1793	 0.105808257062149 
1794	 0.105824297745021 
1795	 0.105808000137762 
1796	 0.105824946021832 
1797	 0.105879697589361 
1798	 0.105889717150617 
1799	 0.105891960100921 
1800	 0.105887840362287 
1801	 0.103127180334891 
1802	 0.103215940308623 
1803	 0.103342166567717 
1804	 0.103488173054722 
1805	 0.103611145442223 
1806	 0.103758991468673 
1807	 0.103914126672583 
1808	 0.104025693249337 
1809	 0.104121076301218 
1810	 0.104209398790549 
1811	 0.104279524001384 
1812	 0.104311397518119 
1813	 0.104369176673746 
1814	 0.104416143819946 
1815	 0.10444870388844 
1816	 0.104497192492094 
1817	 0.104530749556012 
1818	 0.104551643106299 
1819	 0.104574605756129 
1820	 0.104589851667623 
1821	 0.104616415718008 
1822	 0.104643610620232 
1823	 0.104671281482977 
1824	 0.104704451214986 
1825	 0.104727885166898 
1826	 0.104747872707647 
1827	 0.10477945535597 
1828	 0.104803654601255 
1829	 0.104836066513845 
1830	 0.104843851372718 
1831	 0.104826400158748 
1832	 0.104827170151402 
1833	 0.104850093324881 
1834	 0.104877202449955 
1835	 0.104898666007765 
1836	 0.104916370670188 
1837	 0.104942812512327 
1838	 0.104970761150029 
1839	 0.104999430255436 
1840	 0.10504667608799 
1841	 0.105095093346771 
1842	 0.105116933471031 
1843	 0.105139598622228 
1844	 0.105176958598611 
1845	 0.10521313579794 
1846	 0.10522858664032 
1847	 0.105239071965934 
1848	 0.105243838309084 
1849	 0.105256473317695 
1850	 0.105285312951637 
1851	 0.105340470772385 
1852	 0.105375946684651 
1853	 0.105412277947992 
1854	 0.105446329998152 
1855	 0.1054578452618 
1856	 0.105481612866869 
1857	 0.105486589855676 
1858	 0.105498348618126 
1859	 0.105497987398505 
1860	 0.105488924307504 
1861	 0.105467623938273 
1862	 0.105463707556952 
1863	 0.10543696390486 
1864	 0.105424056922761 
1865	 0.105392718504461 
1866	 0.105367254983413 
1867	 0.105374609823794 
1868	 0.105340317081078 
1869	 0.105319640701622 
1870	 0.105305134604091 
1871	 0.105279102985418 
1872	 0.105225879132346 
1873	 0.105200464846581 
1874	 0.10518584493065 
1875	 0.105177149140331 
1876	 0.105171461347801 
1877	 0.105146253370888 
1878	 0.105113104639686 
1879	 0.105060650199605 
1880	 0.105001580138814 
1881	 0.104923726134341 
1882	 0.104862014019389 
1883	 0.104807013764909 
1884	 0.104730611261356 
1885	 0.104654755472036 
1886	 0.104569349580378 
1887	 0.104456315698055 
1888	 0.104325522240381 
1889	 0.104190193133547 
1890	 0.104046140039834 
1891	 0.103904329136054 
1892	 0.103756018113544 
1893	 0.103618064936298 
1894	 0.103491860898673 
1895	 0.103344268532077 
1896	 0.103198462715742 
1897	 0.103057409556294 
1898	 0.102902030633103 
1899	 0.102754003869808 
1900	 0.102621889613517 
1901	 0.10247550578847 
1902	 0.10232396886715 
1903	 0.102160847649148 
1904	 0.102022148311924 
1905	 0.101887624518745 
1906	 0.101748910395242 
1907	 0.101634828728873 
1908	 0.101518777152067 
1909	 0.101387894539696 
1910	 0.101252049779593 
1911	 0.101130942717756 
1912	 0.101028925356105 
1913	 0.100929623906238 
1914	 0.100843897569067 
1915	 0.100763271408174 
1916	 0.100698769822373 
1917	 0.100613668931912 
1918	 0.100530049818819 
1919	 0.100447234621709 
1920	 0.10036157746507 
1921	 0.100290509729954 
1922	 0.100254696829587 
1923	 0.100237912583894 
1924	 0.100211336344811 
1925	 0.100202359016581 
1926	 0.100173348408317 
1927	 0.100124539346323 
1928	 0.100092527240771 
1929	 0.100063909453074 
1930	 0.100050330658695 
1931	 0.100040336193541 
1932	 0.100020095162645 
1933	 0.100008770434308 
1934	 9.99977275496093E-02 
1935	 9.99888604635801E-02 
1936	 9.99813836475553E-02 
1937	 9.99880074678617E-02 
1938	 9.99981597154641E-02 
1939	 0.100018995457599 
1940	 0.100069952288189 
1941	 0.100105160038619 
1942	 0.100110856910599 
1943	 0.100100122855434 
1944	 0.100084826614018 
1945	 0.100082078825618 
1946	 0.100097659891167 
1947	 0.100136484699654 
1948	 0.100171951913452 
1949	 0.10023230600331 
1950	 0.100266810654827 
1951	 0.100277834930788 
1952	 0.100325877792266 
1953	 0.100365419859103 
1954	 0.100379928579505 
1955	 0.100427947461007 
1956	 0.100479900086462 
1957	 0.10053678349347 
1958	 0.100602999589687 
1959	 0.100662784498159 
1960	 0.100732033447416 
1961	 0.100790516644534 
1962	 0.100830242435172 
1963	 0.100885885945326 
1964	 0.10094923914423 
1965	 0.101010099760209 
1966	 0.101073550927015 
1967	 0.101133766063945 
1968	 0.101200921001625 
1969	 0.101269582190937 
1970	 0.101336110146534 
1971	 0.10141433369213 
1972	 0.101481930586749 
1973	 0.101538549339494 
1974	 0.101599095111074 
1975	 0.101663040916179 
1976	 0.101713129199722 
1977	 0.101776931174317 
1978	 0.101836879480352 
1979	 0.101879969206769 
1980	 0.101926826281403 
1981	 0.101988614163844 
1982	 0.102053488510226 
1983	 0.102122278894242 
1984	 0.10221890074427 
1985	 0.102291638234014 
1986	 0.10233957108956 
1987	 0.102403217488362 
1988	 0.102472757577321 
1989	 0.102541537734073 
1990	 0.102593734209194 
1991	 0.102655483333233 
1992	 0.102711377749683 
1993	 0.102746882040591 
1994	 0.102801962993261 
1995	 0.1028662446183 
1996	 0.102936008715121 
1997	 0.103023217760049 
1998	 0.103092398681499 
1999	 0.103164138374056 
2000	 0.103229447755143 
2001	 0.103282653339808 
2002	 0.103319280068944 
2003	 0.103390043133967 
2004	 0.103462560452231 
2005	 0.103532285219238 
2006	 0.103616160621911 
2007	 0.103685106096091 
2008	 0.10373987755138 
2009	 0.103802510694116 
2010	 0.10386137128564 
2011	 0.103928790503682 
2012	 0.104007387879842 
2013	 0.104076979850621 
2014	 0.104143475744192 
2015	 0.104212181774688 
2016	 0.104291489526869 
2017	 0.104365227707155 
2018	 0.104431045016344 
2019	 0.104499723016674 
2020	 0.104567851960058 
2021	 0.104615578344087 
2022	 0.104680254987243 
2023	 0.104765456073453 
2024	 0.104837429419388 
2025	 0.104908541460828 
2026	 0.104976998837234 
2027	 0.10504784480285 
2028	 0.105105075599574 
2029	 0.105158881508042 
2030	 0.105205172348492 
2031	 0.105252673140708 
2032	 0.105287345284301 
2033	 0.105340444707635 
2034	 0.105402262280054 
2035	 0.105461824992893 
2036	 0.105539352382971 
2037	 0.105595156469753 
2038	 0.105637328523747 
2039	 0.105680861734945 
2040	 0.105715962570488 
2041	 0.105748202977363 
2042	 0.105778222632046 
2043	 0.105824557601505 
2044	 0.105865372869135 
2045	 0.105901919774107 
2046	 0.105949602137793 
2047	 0.106001791161498 
2048	 0.106060559597192 
2049	 0.106147998112532 
2050	 0.106198803534346 
2051	 0.106243696685203 
2052	 0.106271442045439 
2053	 0.10625716559537 
2054	 0.106261975602884 
2055	 0.106254789184519 
2056	 0.106274470359025 
2057	 0.106290627454439 
2058	 0.106313357008081 
2059	 0.106341369274735 
2060	 0.106372510094606 
2061	 0.106410828958585 
2062	 0.106462450685364 
2063	 0.106505512842559 
2064	 0.106552842014486 
2065	 0.106598770245257 
2066	 0.106650504257257 
2067	 0.106685536721133 
2068	 0.106714715646599 
2069	 0.106731909272778 
2070	 0.106759776028981 
2071	 0.106774075273867 
2072	 0.106807387447345 
2073	 0.106862692179374 
2074	 0.1068963431564 
2075	 0.106924516012676 
2076	 0.106953458124898 
2077	 0.106965986257729 
2078	 0.106999157046175 
2079	 0.107044100443478 
2080	 0.107085973706633 
2081	 0.107141083254611 
2082	 0.10718896679301 
2083	 0.107229678888007 
2084	 0.107274206150212 
2085	 0.107319056706821 
2086	 0.10736476453238 
2087	 0.107409033530182 
2088	 0.107458313546177 
2089	 0.107496768368811 
2090	 0.107530882488726 
2091	 0.107559862333799 
2092	 0.107572143974812 
2093	 0.107600092486637 
2094	 0.107637604765164 
2095	 0.107665777226003 
2096	 0.107689913080886 
2097	 0.107724878544612 
2098	 0.107754248290755 
2099	 0.107792578029652 
2100	 0.107835183051191 
2101	 0.107897770316901 
2102	 0.107939117635164 
2103	 0.107972544184315 
2104	 0.108006801832693 
2105	 0.108028659478084 
2106	 0.108067469300287 
2107	 0.108116533724819 
2108	 0.108158518641969 
2109	 0.108204284658243 
2110	 0.108250863827845 
2111	 0.108279622169111 
2112	 0.108333665754778 
2113	 0.108412943362135 
2114	 0.108488928468443 
2115	 0.10854768452909 
2116	 0.108607020494475 
2117	 0.108667215276727 
2118	 0.108713729196087 
2119	 0.108761858821882 
2120	 0.108830852817616 
2121	 0.108868422092961 
2122	 0.108862466638369 
2123	 0.108896298160412 
2124	 0.108948543748749 
2125	 0.108982552932527 
2126	 0.109034332430029 
2127	 0.109066181062001 
2128	 0.109059440868542 
2129	 0.109073114082746 
2130	 0.109086509574504 
2131	 0.109117832823075 
2132	 0.109138170589577 
2133	 0.109175170754944 
2134	 0.109175295859062 
2135	 0.109153099758663 
2136	 0.109138230960941 
2137	 0.109097877641082 
2138	 0.109081743631594 
2139	 0.109094823342773 
2140	 0.109074587585946 
2141	 0.109036007415629 
2142	 0.109009212762715 
2143	 0.108972862496201 
2144	 0.108937159057741 
2145	 0.108918901534293 
2146	 0.108887409416184 
2147	 0.108867494649888 
2148	 0.108797885302576 
2149	 0.108726715632899 
2150	 0.108632200351641 
2151	 0.108564953241081 
2152	 0.108484752214331 
2153	 0.108421675634372 
2154	 0.108397893086431 
2155	 0.108335834254075 
2156	 0.108252339805571 
2157	 0.108175049617073 
2158	 0.108085347687437 
2159	 0.108003003475496 
2160	 0.10793455528108 
2161	 0.107849000776679 
2162	 0.107747392610968 
2163	 0.107655822213016 
2164	 0.10756348978409 
2165	 0.10746098471324 
2166	 0.10737449950004 
2167	 0.107307649552754 
2168	 0.10721973225439 
2169	 0.107118001709621 
2170	 0.107037424853287 
2171	 0.106960435158179 
2172	 0.106881292327768 
2173	 0.106814919529883 
2174	 0.106745573966604 
2175	 0.106670471403071 
2176	 0.106595216849383 
2177	 0.106525992636404 
2178	 0.106455426865479 
2179	 0.106376392382355 
2180	 0.106302220990927 
2181	 0.106241602517928 
2182	 0.106167878945565 
2183	 0.10607891626237 
2184	 0.105998445259002 
2185	 0.105927859290164 
2186	 0.105853458721089 
2187	 0.105797182887779 
2188	 0.105772866375903 
2189	 0.105714174319502 
2190	 0.105635563904883 
2191	 0.105580085605506 
2192	 0.105527479790461 
2193	 0.105466714768184 
2194	 0.105420378049944 
2195	 0.105367249268919 
2196	 0.105285646327101 
2197	 0.105227999291732 
2198	 0.105180868536372 
2199	 0.105145364634355 
2200	 0.105133230817816 
2201	 0.105110468084761 
2202	 0.105098328221742 
2203	 0.105082754519639 
2204	 0.10504849452902 
2205	 0.104989492051649 
2206	 0.104958010884603 
2207	 0.104929873624244 
2208	 0.104900076828874 
2209	 0.104889043348875 
2210	 0.104857363152547 
2211	 0.10479432035072 
2212	 0.104768256637324 
2213	 0.104754514752119 
2214	 0.104743954438916 
2215	 0.104755687575903 
2216	 0.10476162197332 
2217	 0.104776410106702 
2218	 0.104774109803234 
2219	 0.104762342417244 
2220	 0.104755713094195 
2221	 0.104738557352532 
2222	 0.104714164241331 
2223	 0.104731171154384 
2224	 0.104770651255076 
2225	 0.104768032991563 
2226	 0.10476091766278 
2227	 0.10475606836891 
2228	 0.104715190028645 
2229	 0.104713408359898 
2230	 0.104744256129717 
2231	 0.104754074669163 
2232	 0.104762693876608 
2233	 0.10477250145094 
2234	 0.104774221032674 
2235	 0.104793074704232 
2236	 0.104842404762203 
2237	 0.104848687165824 
2238	 0.104837858138683 
2239	 0.104830455296055 
2240	 0.104791378108522 
2241	 0.10476762461729 
2242	 0.104745576724084 
2243	 0.104742838036195 
2244	 0.104758269626296 
2245	 0.104758184240019 
2246	 0.10477322967267 
2247	 0.104819475040218 
2248	 0.104844752829866 
2249	 0.104864122256668 
2250	 0.104880123146558 
2251	 0.104895884599659 
2252	 0.10490081732333 
2253	 0.104888888719786 
2254	 0.104896703928335 
2255	 0.104913363682853 
2256	 0.104923393750628 
2257	 0.104926233411616 
2258	 0.10495382456419 
2259	 0.104996605054234 
2260	 0.105023892072326 
2261	 0.105079958501702 
2262	 0.105098971076219 
2263	 0.105078947389329 
2264	 0.105071722956908 
2265	 0.105047246525814 
2266	 0.105041233118771 
2267	 0.10504134629058 
2268	 0.105045063447015 
2269	 0.105055475358117 
2270	 0.105076703023573 
2271	 0.10511820442607 
2272	 0.105150265141568 
2273	 0.105161500710488 
2274	 0.105176909676932 
2275	 0.105174278437464 
2276	 0.105133063544214 
2277	 0.105134905445798 
2278	 0.105150881060651 
2279	 0.10515975539252 
2280	 0.105179978631348 
2281	 0.105192304211637 
2282	 0.1051947289438 
2283	 0.105217969020896 
2284	 0.105264678532646 
2285	 0.105288850992018 
2286	 0.10531054573441 
2287	 0.105321611398354 
2288	 0.105312801588766 
2289	 0.105310603111957 
2290	 0.105299660434658 
2291	 0.105308131136853 
2292	 0.10531849408801 
2293	 0.105339138695058 
2294	 0.105403642841738 
2295	 0.105429020012227 
2296	 0.105422061537144 
2297	 0.105441480284115 
2298	 0.105486898429815 
2299	 0.10547479025834 
2300	 0.10547426513397 
2301	 0.105506100978462 
2302	 0.105525860617874 
2303	 0.105558581447384 
2304	 0.10557675726575 
2305	 0.105599602166261 
2306	 0.105593097868127 
2307	 0.105518295170869 
2308	 0.105502139881896 
2309	 0.105509909850196 
2310	 0.105509940732394 
2311	 0.105530091771928 
2312	 0.105526404567015 
2313	 0.105510703818827 
2314	 0.105501524662364 
2315	 0.105458797780222 
2316	 0.105462458279942 
2317	 0.105502009097869 
2318	 0.105537530026035 
2319	 0.105619900311668 
2320	 0.105655046724609 
2321	 0.105664424702535 
2322	 0.105663500898786 
2323	 0.105611729468423 
2324	 0.105607737841975 
2325	 0.105649528241645 
2326	 0.105649019339561 
2327	 0.105645568673056 
2328	 0.105628314194573 
2329	 0.105601197539626 
2330	 0.105611047708919 
2331	 0.105699672219128 
2332	 0.105743619315138 
2333	 0.105760092763347 
2334	 0.105778533475008 
2335	 0.105776632153488 
2336	 0.105823870424438 
2337	 0.105868099971506 
2338	 0.105910550439917 
2339	 0.105936552214917 
2340	 0.105910987558557 
2341	 0.105893441116299 
2342	 0.105882638761381 
2343	 0.105885090662834 
2344	 0.105917154251574 
2345	 0.105938024708369 
2346	 0.105991167372394 
2347	 0.10599181775325 
2348	 0.105965755400035 
2349	 0.105929524737829 
2350	 0.1058606052469 
2351	 0.105796493309169 
2352	 0.105689288425995 
2353	 0.105656602163747 
2354	 0.105671542422913 
2355	 0.105656129851576 
2356	 0.105678861266333 
2357	 0.105681950491265 
2358	 0.105657354646637 
2359	 0.105625665858197 
2360	 0.105595130512924 
2361	 0.105570929877217 
2362	 0.105507881207867 
2363	 0.105500216419374 
2364	 0.105543854143941 
2365	 0.105551243646719 
2366	 0.105561469463251 
2367	 0.105576834055009 
2368	 0.105586803140842 
2369	 0.105605340276746 
2370	 0.105650013283049 
2371	 0.10567787100198 
2372	 0.105647849926607 
2373	 0.105569915708292 
2374	 0.105499255249935 
2375	 0.105421917984973 
2376	 0.105402831465441 
2377	 0.105406978431872 
2378	 0.105393943978818 
2379	 0.105404161156479 
2380	 0.105343053580734 
2381	 0.105254807883403 
2382	 0.105242581821091 
2383	 0.105201609017369 
2384	 0.105138187571297 
2385	 0.105171540110959 
2386	 0.105180614391866 
2387	 0.105123630601043 
2388	 0.105146171807791 
2389	 0.105180172168318 
2390	 0.105095531190827 
2391	 0.104984001499828 
2392	 0.104833726030921 
2393	 0.104604579069417 
2394	 0.10453729717564 
2395	 0.104550462510865 
2396	 0.104577496548898 
2397	 0.104686228547236 
2398	 0.104706862306551 
2399	 0.104680958268287 
2400	 0.104607600560366 
2401	 0.104503448631651 
2402	 0.104462268081723 
2403	 0.104397148799147 
2404	 0.104351359726828 
2405	 0.104362707668921 
2406	 0.104350616922673 
2407	 0.10426910704309 
2408	 0.104174112934287 
2409	 0.104109245749422 
2410	 0.104018286695696 
2411	 0.103943431293921 
2412	 0.103895677868039 
2413	 0.103795231065815 
2414	 0.103687158927891 
2415	 0.103680403340411 
2416	 0.103775271708083 
2417	 0.104059353673597 
2418	 0.104190344285653 
2419	 0.104393871933785 
2420	 0.104427792617559 
2421	 0.104229033831285 
2422	 0.104212373635788 
2423	 0.104240731385905 
2424	 0.104215281489743 
2425	 0.10429296943257 
2426	 0.104256369306184 
2427	 0.104112009792521 
2428	 0.103981971416002 
2429	 0.103753055167867 
2430	 0.103573884981562 
2431	 0.103358624727933 
2432	 0.10323249069189 
2433	 0.103276081508362 
2434	 0.103182512272596 
2435	 0.103041473114668 
2436	 0.102914280709795 
2437	 0.102637351383365 
2438	 0.102571125566535 
2439	 0.102703606814178 
2440	 0.102723975261007 
2441	 0.102783133689488 
2442	 0.102853700853601 
2443	 0.102858115585154 
2444	 0.102848427136678 
2445	 0.102925077140877 
2446	 0.102866196760932 
2447	 0.102688689116761 
2448	 0.102584010487856 
2449	 0.102449359451128 
2450	 0.102298115555668 
2451	 0.102132336769229 
2452	 0.102033150133416 
2453	 0.101902834637582 
2454	 0.101922166810935 
2455	 0.102161292363173 
2456	 0.102203039411184 
2457	 0.102178839540747 
2458	 0.10211312815891 
2459	 0.101905178202687 
2460	 0.101822592300552 
2461	 0.101856424716128 
2462	 0.101837700111907 
2463	 0.101846175015022 
2464	 0.101819752267012 
2465	 0.101702051656448 
2466	 0.101587966976312 
2467	 0.101536921669078 
2468	 0.101378849717238 
2469	 0.1010012302673 
2470	 0.100985684410797 
2471	 0.101044053539066 
2472	 0.100988845278462 
2473	 0.101025096632022 
2474	 0.101008050894227 
2475	 0.100798202607502 
2476	 0.10063713360761 
2477	 0.100671113205279 
2478	 0.100783989759075 
2479	 0.100722428733858 
2480	 0.100828963522671 
2481	 0.101148115061496 
2482	 0.10115801534548 
2483	 0.101191240171094 
2484	 0.101114055614501 
2485	 0.100877653661697 
2486	 0.100853561618247 
2487	 0.100851188247398 
2488	 0.101020817045777 
2489	 0.101051749665192 
2490	 0.100852140480888 
2491	 0.100848073706383 
2492	 0.100734010804567 
2493	 0.100709339868634 
2494	 0.100830569490036 
2495	 0.100791030701238 
2496	 0.100831956221854 
2497	 0.100792067588968 
2498	 0.100808664284988 
2499	 0.100825127869808 
2500	 0.10062872629102 
