Wavelength	LMW100004.asd
350	 9.11881781681948E-02 
351	 8.73275139074448E-02 
352	 7.69112166655509E-02 
353	 6.99445852621126E-02 
354	 7.44541022662996E-02 
355	 7.83564665423639E-02 
356	 7.89310973723044E-02 
357	 7.77235747219472E-02 
358	 8.22366233837774E-02 
359	 7.97413283829672E-02 
360	 7.24292636871553E-02 
361	 7.15419938418786E-02 
362	 0.072149597099104 
363	 7.48187738674222E-02 
364	 7.78264301989586E-02 
365	 0.07470221739607 
366	 7.38017509027117E-02 
367	 7.47584503740274E-02 
368	 7.55323671848893E-02 
369	 7.80945708724628E-02 
370	 7.86546167558478E-02 
371	 7.79127844956293E-02 
372	 7.93118017830124E-02 
373	 7.89596763034717E-02 
374	 7.96329422063943E-02 
375	 8.23209972157759E-02 
376	 8.36983279928403E-02 
377	 8.23022065435341E-02 
378	 8.05773538022702E-02 
379	 8.14030956890971E-02 
380	 0.08422800075322 
381	 8.37058914410361E-02 
382	 0.081918489702989 
383	 8.57056422358546E-02 
384	 8.63319967429102E-02 
385	 8.50677695835017E-02 
386	 8.45059510185752E-02 
387	 8.71241457952925E-02 
388	 8.79723763708794E-02 
389	 8.77190350408292E-02 
390	 8.83775784748322E-02 
391	 8.87498840126402E-02 
392	 9.02843458148796E-02 
393	 9.23132914971331E-02 
394	 9.25417560317331E-02 
395	 9.30486577212171E-02 
396	 9.41164404272734E-02 
397	 0.095425111422855 
398	 0.095971166174408 
399	 9.68947455115404E-02 
400	 9.82925666913897E-02 
401	 9.97198567796223E-02 
402	 0.100231665424132 
403	 0.100331186211841 
404	 0.100541883639331 
405	 0.101265702699585 
406	 0.102095530120924 
407	 0.102865409770294 
408	 0.103502780527367 
409	 0.104031873332958 
410	 0.104374276626744 
411	 0.105041338707091 
412	 0.106523900180893 
413	 0.10726250465531 
414	 0.107158522447891 
415	 0.106971247469113 
416	 0.108330604544989 
417	 0.109002859861224 
418	 0.109238477777871 
419	 0.109751381969065 
420	 0.110750795697234 
421	 0.110762970661543 
422	 0.110153417338477 
423	 0.110353269545163 
424	 0.110499421282222 
425	 0.110437380960994 
426	 0.110262846715015 
427	 0.110390230924301 
428	 0.110064040204359 
429	 0.109800349373665 
430	 0.110176749012498 
431	 0.109954981563035 
432	 0.109534775090954 
433	 0.109356346251603 
434	 0.10976483078013 
435	 0.109732854757879 
436	 0.109580350793382 
437	 0.10964827208314 
438	 0.109584298021398 
439	 0.109561665277696 
440	 0.109771903622711 
441	 0.1103257965739 
442	 0.110625656149266 
443	 0.110942468491438 
444	 0.111432661018888 
445	 0.111955925100521 
446	 0.112296415692086 
447	 0.11265363473947 
448	 0.113224924871336 
449	 0.113596529668082 
450	 0.114296648811936 
451	 0.115190025914416 
452	 0.115599581447494 
453	 0.115882640748911 
454	 0.116212772170329 
455	 0.116680210301541 
456	 0.117292782759515 
457	 0.117673853539385 
458	 0.117918190366711 
459	 0.118289799214761 
460	 0.118477170657327 
461	 0.118636056094619 
462	 0.11891611713452 
463	 0.119407096337916 
464	 0.119703724265682 
465	 0.119926225402707 
466	 0.120240187816579 
467	 0.120323656775645 
468	 0.120511110753018 
469	 0.120791935832614 
470	 0.120884058719488 
471	 0.120981882330821 
472	 0.12120684661185 
473	 0.121511833684738 
474	 0.121448491547279 
475	 0.121637634764922 
476	 0.121989332930653 
477	 0.12214803359532 
478	 0.122332583548745 
479	 0.122535308332508 
480	 0.122705464201736 
481	 0.122753816264771 
482	 0.122969964178483 
483	 0.123190025990222 
484	 0.123256588586854 
485	 0.123618334230513 
486	 0.123747828312687 
487	 0.123641320200736 
488	 0.123732213058632 
489	 0.12387033457033 
490	 0.123970622417329 
491	 0.124032226887016 
492	 0.124251088116912 
493	 0.124436236294004 
494	 0.124536383021794 
495	 0.124605772296523 
496	 0.124988369048464 
497	 0.125156286011021 
498	 0.124974628206851 
499	 0.124994736331625 
500	 0.125141052695286 
501	 0.125355841318806 
502	 0.125540277287599 
503	 0.125460622566897 
504	 0.125460084302082 
505	 0.125615975639424 
506	 0.125750521064287 
507	 0.125979636217504 
508	 0.126127034159179 
509	 0.126116860457982 
510	 0.126286494693712 
511	 0.1263739682631 
512	 0.126421177614382 
513	 0.126606849676292 
514	 0.126799570281022 
515	 0.126891797806509 
516	 0.126892292983256 
517	 0.126998729864078 
518	 0.127058962967459 
519	 0.127149163929864 
520	 0.12735427725226 
521	 0.127424309431138 
522	 0.127450314257219 
523	 0.127511696026744 
524	 0.127651649395714 
525	 0.127773757536656 
526	 0.127877673276092 
527	 0.1279759838098 
528	 0.1280436018605 
529	 0.128114650113611 
530	 0.128201495904198 
531	 0.128297654752983 
532	 0.128345232715317 
533	 0.128483125205892 
534	 0.12872802708094 
535	 0.12878459050824 
536	 0.128819410214001 
537	 0.128916812023947 
538	 0.129095709169317 
539	 0.129134921769655 
540	 0.129194745792029 
541	 0.129348753009943 
542	 0.129517104272437 
543	 0.129672768558444 
544	 0.129807200704913 
545	 0.129925749548173 
546	 0.130058374457987 
547	 0.130120344631265 
548	 0.130184877571445 
549	 0.130442497494665 
550	 0.130638227803788 
551	 0.130801963034929 
552	 0.130996376866242 
553	 0.131231872878455 
554	 0.131426837152829 
555	 0.131609918298219 
556	 0.131853478148422 
557	 0.132034235194464 
558	 0.132255241126851 
559	 0.132566106293739 
560	 0.132891903707375 
561	 0.13309454588359 
562	 0.133306550657168 
563	 0.133694516095095 
564	 0.134033041843178 
565	 0.134322148679432 
566	 0.134621393539109 
567	 0.135037918640135 
568	 0.135476711479127 
569	 0.135920464786109 
570	 0.136375747574289 
571	 0.13686101041337 
572	 0.137397892929722 
573	 0.137963721870463 
574	 0.138500201440598 
575	 0.138953041933527 
576	 0.139440577282884 
577	 0.140019078785253 
578	 0.140544674480886 
579	 0.141140560812023 
580	 0.141839617450153 
581	 0.142624950653793 
582	 0.143432117464214 
583	 0.144220204815066 
584	 0.144968221237826 
585	 0.145678951778436 
586	 0.146430373843257 
587	 0.147151936729692 
588	 0.147783549204357 
589	 0.148518491467397 
590	 0.14925317874219 
591	 0.14997279002259 
592	 0.150750787158792 
593	 0.151502408883609 
594	 0.152277987819218 
595	 0.153117437391863 
596	 0.15395862513968 
597	 0.154898568400724 
598	 0.155894191893989 
599	 0.156830979816058 
600	 0.157703505861844 
601	 0.15848579701878 
602	 0.159180309057231 
603	 0.159838890553246 
604	 0.160513136215313 
605	 0.16119844444868 
606	 0.161863374357807 
607	 0.162479491095968 
608	 0.163080188159693 
609	 0.163676703573693 
610	 0.164250922511727 
611	 0.164812151328926 
612	 0.165366545965088 
613	 0.165918312910563 
614	 0.166489733075329 
615	 0.166956741612236 
616	 0.167358172026091 
617	 0.16783231574622 
618	 0.168232144595999 
619	 0.168592704316101 
620	 0.168951759917414 
621	 0.169289260384736 
622	 0.169624915581071 
623	 0.169958172880372 
624	 0.170280537121015 
625	 0.170586164985752 
626	 0.170883587186607 
627	 0.171170206165627 
628	 0.171426387696014 
629	 0.171716537307879 
630	 0.171999470202865 
631	 0.172232552665734 
632	 0.172485075330093 
633	 0.172742589999087 
634	 0.172992190465468 
635	 0.173229021510367 
636	 0.173536864962032 
637	 0.173807860686916 
638	 0.173978758433197 
639	 0.174162527389717 
640	 0.174443341756355 
641	 0.174754508612423 
642	 0.174974324997163 
643	 0.175214057096856 
644	 0.175452547190892 
645	 0.175689539520104 
646	 0.175973257883531 
647	 0.176230133679359 
648	 0.176487538193354 
649	 0.1767783597546 
650	 0.177023752466781 
651	 0.177283110349354 
652	 0.177558214937438 
653	 0.177804443375294 
654	 0.17813402047738 
655	 0.178454723140922 
656	 0.178711552004401 
657	 0.179031123797323 
658	 0.179403499397113 
659	 0.179768829529019 
660	 0.180057503766169 
661	 0.180357003628265 
662	 0.180678151509339 
663	 0.181016567385563 
664	 0.181356689199632 
665	 0.181758523980497 
666	 0.182153538512889 
667	 0.182481262094235 
668	 0.182871957997363 
669	 0.183253229213689 
670	 0.183627659955537 
671	 0.18406020940556 
672	 0.184523626218925 
673	 0.184961875141775 
674	 0.185356127927691 
675	 0.185781838309866 
676	 0.186241121822287 
677	 0.186710256362023 
678	 0.187158907180682 
679	 0.187613266216282 
680	 0.188076770146833 
681	 0.188573330517663 
682	 0.189155827787343 
683	 0.189680792007617 
684	 0.190161608650774 
685	 0.190650121681162 
686	 0.191157818306615 
687	 0.191740948836199 
688	 0.192338446980708 
689	 0.192822442008315 
690	 0.193339316255801 
691	 0.193928289555747 
692	 0.194562852027228 
693	 0.195120455906549 
694	 0.195676050784786 
695	 0.196260008862402 
696	 0.196880188536481 
697	 0.197508502148902 
698	 0.198094266211405 
699	 0.198663051443773 
700	 0.199317174802122 
701	 0.19997138081626 
702	 0.200599270155536 
703	 0.201194584473234 
704	 0.201757779879938 
705	 0.202388575183644 
706	 0.203066843890557 
707	 0.203713206726889 
708	 0.204362525467776 
709	 0.204992226871082 
710	 0.205608894258373 
711	 0.206271184686387 
712	 0.206817240324379 
713	 0.207389967630808 
714	 0.208119484001325 
715	 0.20874599678362 
716	 0.209342537981978 
717	 0.209926309071717 
718	 0.210474101623371 
719	 0.21104729293769 
720	 0.211617529329768 
721	 0.212155057135795 
722	 0.212651993609118 
723	 0.213183913470927 
724	 0.213719405823094 
725	 0.214202065197123 
726	 0.214649348385147 
727	 0.21512216315397 
728	 0.21559655963395 
729	 0.215975073811164 
730	 0.216387862175921 
731	 0.21680607636499 
732	 0.217184705243954 
733	 0.217511442085011 
734	 0.21783149377929 
735	 0.218106307241637 
736	 0.218291404680048 
737	 0.218530237889082 
738	 0.218759744772343 
739	 0.218951657075025 
740	 0.219131926310324 
741	 0.21928215899287 
742	 0.21938878616467 
743	 0.219453536350848 
744	 0.219517543767731 
745	 0.219531277720397 
746	 0.219523631937874 
747	 0.219544642318146 
748	 0.219516913803255 
749	 0.219411302479097 
750	 0.21926740323496 
751	 0.219196901108205 
752	 0.21905502195163 
753	 0.218884565129046 
754	 0.218735043478386 
755	 0.218544440977584 
756	 0.218329033884695 
757	 0.2180994385656 
758	 0.217864355336398 
759	 0.217634055287461 
760	 0.217375859123284 
761	 0.217065713557982 
762	 0.216696754516857 
763	 0.216426108685431 
764	 0.216141038315021 
765	 0.215743122219826 
766	 0.215367685985655 
767	 0.215019784392321 
768	 0.214672176212203 
769	 0.214283089287633 
770	 0.213859800539921 
771	 0.213467682917705 
772	 0.21311055351358 
773	 0.212716219820663 
774	 0.212321721623575 
775	 0.21192060582426 
776	 0.211500251981768 
777	 0.211054026336775 
778	 0.21060047239714 
779	 0.210165878807988 
780	 0.209767583373624 
781	 0.209356869770632 
782	 0.208913909790193 
783	 0.208455226870226 
784	 0.208031151533975 
785	 0.207633946378532 
786	 0.207188666257682 
787	 0.206690714739035 
788	 0.206337916575371 
789	 0.205957424767783 
790	 0.205517749329496 
791	 0.205055831979562 
792	 0.204655880800589 
793	 0.204302224593575 
794	 0.203949519529152 
795	 0.203538795266865 
796	 0.203089909382045 
797	 0.202679893916132 
798	 0.2023240947471 
799	 0.201910308977266 
800	 0.201518483111729 
801	 0.201159533122555 
802	 0.200812793293147 
803	 0.20041919475653 
804	 0.200069714965329 
805	 0.199755226907268 
806	 0.199408918783228 
807	 0.199075245901128 
808	 0.198722449250045 
809	 0.198354409006812 
810	 0.198027913974647 
811	 0.1977353651658 
812	 0.197426544154269 
813	 0.197088166927426 
814	 0.196838730348098 
815	 0.196558701003634 
816	 0.196239636592157 
817	 0.195921402115068 
818	 0.195619421319376 
819	 0.195373512655113 
820	 0.195168818158965 
821	 0.194945214846522 
822	 0.194706803483976 
823	 0.194450958155305 
824	 0.194181308167979 
825	 0.193909890940729 
826	 0.193654462839579 
827	 0.19344405250659 
828	 0.193275286992064 
829	 0.193039780894874 
830	 0.192814358183899 
831	 0.19263588627662 
832	 0.192503992732354 
833	 0.192347891704911 
834	 0.192106440753749 
835	 0.191853311036646 
836	 0.191762569760621 
837	 0.191633390365781 
838	 0.191486871430999 
839	 0.191340625309937 
840	 0.191140682319964 
841	 0.191071578928788 
842	 0.191018771580016 
843	 0.190860432762708 
844	 0.190731621417597 
845	 0.190596412924513 
846	 0.190471365752621 
847	 0.190395371451529 
848	 0.190404411081787 
849	 0.190345305782899 
850	 0.190210638908311 
851	 0.190120565736186 
852	 0.190027391378689 
853	 0.189983528430225 
854	 0.189992438337834 
855	 0.189972383052705 
856	 0.189940025506388 
857	 0.189895044649488 
858	 0.189854016020045 
859	 0.189887016319787 
860	 0.189875543776707 
861	 0.189848462155132 
862	 0.189866441457148 
863	 0.189873118867003 
864	 0.189893986824033 
865	 0.189934547572524 
866	 0.189982851601706 
867	 0.19001344815519 
868	 0.190015497032522 
869	 0.19000992902806 
870	 0.190044901496565 
871	 0.190124616375447 
872	 0.190215477337188 
873	 0.190301474534567 
874	 0.190406323257253 
875	 0.190514924461647 
876	 0.190602450205361 
877	 0.190661843960569 
878	 0.190726359147731 
879	 0.190894507563414 
880	 0.191069758823489 
881	 0.191142744063065 
882	 0.191262898562164 
883	 0.191423935269613 
884	 0.191573384515319 
885	 0.191659986715039 
886	 0.191798143169983 
887	 0.191967801391722 
888	 0.192148701190932 
889	 0.192332841178041 
890	 0.192554778804826 
891	 0.192747835582554 
892	 0.192914437034641 
893	 0.193150213530862 
894	 0.193361236105579 
895	 0.193523779950757 
896	 0.193682293505447 
897	 0.193971196979299 
898	 0.194262070837005 
899	 0.194558131333413 
900	 0.194855527967283 
901	 0.195030524131925 
902	 0.195243594660571 
903	 0.195484637127814 
904	 0.195727253022248 
905	 0.196135931277465 
906	 0.196460282992201 
907	 0.196709772326607 
908	 0.197010755824176 
909	 0.1973463132161 
910	 0.197641610012338 
911	 0.197940466654209 
912	 0.198331252674317 
913	 0.198616706620603 
914	 0.19899858632689 
915	 0.1994376181587 
916	 0.199703488875362 
917	 0.200158778840179 
918	 0.200585345479191 
919	 0.200919784687366 
920	 0.201347637421052 
921	 0.201750765850725 
922	 0.202201324580278 
923	 0.202707032505499 
924	 0.203146207496508 
925	 0.203575607412778 
926	 0.204034801921754 
927	 0.204513360878282 
928	 0.204917556448154 
929	 0.20542326171879 
930	 0.205919472597787 
931	 0.20635932908377 
932	 0.20701869660607 
933	 0.207589201729569 
934	 0.208079775118395 
935	 0.208594700005561 
936	 0.209219127676404 
937	 0.209824118845694 
938	 0.210361467716483 
939	 0.21085417881171 
940	 0.21144713638968 
941	 0.212076892239026 
942	 0.212687995443508 
943	 0.213265307755248 
944	 0.213930493317414 
945	 0.214598695919537 
946	 0.21523482614608 
947	 0.215838434465633 
948	 0.216422138214008 
949	 0.217124382410176 
950	 0.217871305727918 
951	 0.218539099773594 
952	 0.219354885157945 
953	 0.220167367144341 
954	 0.220877331087294 
955	 0.221474850690606 
956	 0.222155053393069 
957	 0.222882889020403 
958	 0.223642685643934 
959	 0.224440371778774 
960	 0.225303254527916 
961	 0.226125983506574 
962	 0.226894720698553 
963	 0.227663220489165 
964	 0.228441488817933 
965	 0.22932952281896 
966	 0.230249838305236 
967	 0.231047092284888 
968	 0.231868027089412 
969	 0.232692200940687 
970	 0.233532834413239 
971	 0.234416284130065 
972	 0.235282934772801 
973	 0.236162917923536 
974	 0.237078099185554 
975	 0.238014972151041 
976	 0.238817066132725 
977	 0.239668406609267 
978	 0.240612685316511 
979	 0.241577290468349 
980	 0.242535036134247 
981	 0.243407753373134 
982	 0.244215631213052 
983	 0.245070892814398 
984	 0.246199368106855 
985	 0.247227195651147 
986	 0.248136387546014 
987	 0.249123333026784 
988	 0.250211801686376 
989	 0.251158566566681 
990	 0.252028149600979 
991	 0.25299079758075 
992	 0.253854722197553 
993	 0.254729204104611 
994	 0.255675407906283 
995	 0.256699937004006 
996	 0.257746733754591 
997	 0.258743706897308 
998	 0.259642478333129 
999	 0.260497573709122 
1000	 0.261637718303778 
1001	 0.264791341555585 
1002	 0.265795340554043 
1003	 0.266717753960035 
1004	 0.267646813626951 
1005	 0.268547998915007 
1006	 0.269440665835381 
1007	 0.270288100918011 
1008	 0.271242896096964 
1009	 0.272161702401055 
1010	 0.273041579014316 
1011	 0.273971479861887 
1012	 0.274823043067013 
1013	 0.275642361209622 
1014	 0.276467571183752 
1015	 0.277315837865567 
1016	 0.278148179121157 
1017	 0.278967862710626 
1018	 0.279773160580732 
1019	 0.280638855960005 
1020	 0.281471838754302 
1021	 0.282282225690002 
1022	 0.28311832999332 
1023	 0.28390009502301 
1024	 0.284655150278144 
1025	 0.285428121601398 
1026	 0.286179398459181 
1027	 0.286911212919568 
1028	 0.287677023292658 
1029	 0.288491504864058 
1030	 0.289283693905045 
1031	 0.290048605253878 
1032	 0.29081880673776 
1033	 0.291578049077896 
1034	 0.292297290463264 
1035	 0.293045238273537 
1036	 0.293821690582366 
1037	 0.294538359131806 
1038	 0.295215800510021 
1039	 0.295923846501312 
1040	 0.296634078102399 
1041	 0.297374092058072 
1042	 0.298196679524651 
1043	 0.298980063945013 
1044	 0.29970732209867 
1045	 0.300409875628396 
1046	 0.301108536444253 
1047	 0.301770806425869 
1048	 0.302454075250214 
1049	 0.303184478270496 
1050	 0.303931868878341 
1051	 0.304629156849563 
1052	 0.305270328044219 
1053	 0.305932064706907 
1054	 0.306595292781318 
1055	 0.307238225536584 
1056	 0.307902345459055 
1057	 0.308545568206692 
1058	 0.309164388035127 
1059	 0.309780436496 
1060	 0.310399767852153 
1061	 0.310978902259262 
1062	 0.311563444346948 
1063	 0.312183351413942 
1064	 0.312749400696877 
1065	 0.313348525796902 
1066	 0.313972425714219 
1067	 0.314528609371019 
1068	 0.315123771139245 
1069	 0.315732387983425 
1070	 0.316289490609233 
1071	 0.316804702713596 
1072	 0.317339673728692 
1073	 0.317838577016606 
1074	 0.318359391908329 
1075	 0.318912269429463 
1076	 0.31940404422852 
1077	 0.319902910601912 
1078	 0.320400344874169 
1079	 0.320842435940131 
1080	 0.321359886884817 
1081	 0.321908138022278 
1082	 0.32240741492947 
1083	 0.322916321231228 
1084	 0.323448096575858 
1085	 0.323953283802151 
1086	 0.324413069991443 
1087	 0.324918821744651 
1088	 0.325457846369349 
1089	 0.325946155588399 
1090	 0.326428063027339 
1091	 0.326957281586709 
1092	 0.327507036141527 
1093	 0.328024580634179 
1094	 0.328546087887264 
1095	 0.329046393240245 
1096	 0.329522292572501 
1097	 0.330060865247968 
1098	 0.330597007362746 
1099	 0.33117212688789 
1100	 0.331747516672725 
1101	 0.332316569134356 
1102	 0.332886149798066 
1103	 0.333487665380757 
1104	 0.334063368079626 
1105	 0.334598565777526 
1106	 0.335162585205838 
1107	 0.335728339562829 
1108	 0.336335617625285 
1109	 0.336967446006919 
1110	 0.337569505724486 
1111	 0.338163622454593 
1112	 0.338725463516793 
1113	 0.33932533110194 
1114	 0.339938040906804 
1115	 0.340552865577052 
1116	 0.341199735017591 
1117	 0.341819203671898 
1118	 0.342416305817853 
1119	 0.343023014613152 
1120	 0.34362117846169 
1121	 0.344235821954354 
1122	 0.344903647006876 
1123	 0.345527296526403 
1124	 0.346160907600408 
1125	 0.346814876272355 
1126	 0.347454545969322 
1127	 0.348077541713841 
1128	 0.348709944224552 
1129	 0.349347336045468 
1130	 0.349973558496511 
1131	 0.350577351166773 
1132	 0.351207794938566 
1133	 0.351874887406662 
1134	 0.352506827469341 
1135	 0.353127105574158 
1136	 0.353740601319859 
1137	 0.354387866464502 
1138	 0.354984107286439 
1139	 0.35558740394008 
1140	 0.356211814964652 
1141	 0.356816502698245 
1142	 0.357391933703634 
1143	 0.357973549685402 
1144	 0.35855372483889 
1145	 0.359140796867708 
1146	 0.359739783615221 
1147	 0.36030186542311 
1148	 0.360849342093468 
1149	 0.361408608941592 
1150	 0.361948046693126 
1151	 0.362474281775962 
1152	 0.363032210825695 
1153	 0.363596315389177 
1154	 0.364154184557172 
1155	 0.364715357588986 
1156	 0.365245966606465 
1157	 0.365770425751203 
1158	 0.366288994523363 
1159	 0.366785990018934 
1160	 0.367278199929744 
1161	 0.367786625338591 
1162	 0.368258145248935 
1163	 0.368676594858516 
1164	 0.369127007403768 
1165	 0.369581673611809 
1166	 0.370040346330002 
1167	 0.370475569382295 
1168	 0.37091978413632 
1169	 0.371329312246139 
1170	 0.371682905893335 
1171	 0.372087429476315 
1172	 0.372515626708759 
1173	 0.372916519409975 
1174	 0.373320455054046 
1175	 0.373725322575581 
1176	 0.374117598188995 
1177	 0.374502960717256 
1178	 0.374907571166622 
1179	 0.375283016831498 
1180	 0.375628550494954 
1181	 0.375976565040303 
1182	 0.376307853545915 
1183	 0.376648079408817 
1184	 0.376988459070478 
1185	 0.377338207953776 
1186	 0.377656372893486 
1187	 0.377963363531235 
1188	 0.378273311363255 
1189	 0.378561279546461 
1190	 0.378858583276377 
1191	 0.379176026795651 
1192	 0.379467398156754 
1193	 0.379748672842457 
1194	 0.380016968157009 
1195	 0.380262777409262 
1196	 0.380516423980859 
1197	 0.380750045693606 
1198	 0.381001441133125 
1199	 0.381261734298617 
1200	 0.381537899259046 
1201	 0.381799889421926 
1202	 0.38207500997671 
1203	 0.382322963061251 
1204	 0.382554851385349 
1205	 0.3827843486144 
1206	 0.382993777595166 
1207	 0.383218416896286 
1208	 0.383452597053719 
1209	 0.383672546562228 
1210	 0.383894199338998 
1211	 0.384107191887363 
1212	 0.384302201144795 
1213	 0.384502915536318 
1214	 0.384695910297496 
1215	 0.384901253636434 
1216	 0.385112226533058 
1217	 0.385336063444326 
1218	 0.385534490932743 
1219	 0.385730715077417 
1220	 0.385926053678062 
1221	 0.386102416529409 
1222	 0.386289360633042 
1223	 0.386491414050194 
1224	 0.386679276917066 
1225	 0.386859734593075 
1226	 0.387035606206918 
1227	 0.38720989783191 
1228	 0.387377051351694 
1229	 0.38752888959205 
1230	 0.387688991345883 
1231	 0.387853520402042 
1232	 0.388011486060408 
1233	 0.388167762609374 
1234	 0.388324472439337 
1235	 0.388481639381114 
1236	 0.388633763288668 
1237	 0.388788138612126 
1238	 0.388960268376982 
1239	 0.389098771686141 
1240	 0.389212178815609 
1241	 0.389341696097639 
1242	 0.389452545315104 
1243	 0.389582295664497 
1244	 0.389735103693876 
1245	 0.389877178797194 
1246	 0.390026329902429 
1247	 0.390162276962202 
1248	 0.390284452356093 
1249	 0.390416981896311 
1250	 0.390539481610755 
1251	 0.390646396179598 
1252	 0.390770289386991 
1253	 0.390898595130458 
1254	 0.391028288014005 
1255	 0.391176272855535 
1256	 0.39129449136305 
1257	 0.391401435406243 
1258	 0.391505966422271 
1259	 0.391582689523723 
1260	 0.391682867227786 
1261	 0.391789180434302 
1262	 0.391900725739434 
1263	 0.392030014249071 
1264	 0.392148165039718 
1265	 0.392269841797546 
1266	 0.39238656277059 
1267	 0.392497301032446 
1268	 0.392597188060567 
1269	 0.392713216041632 
1270	 0.392821143421658 
1271	 0.392967203076475 
1272	 0.39313406038701 
1273	 0.393306526646426 
1274	 0.393525900327984 
1275	 0.393690804192891 
1276	 0.393832835526863 
1277	 0.393985625898646 
1278	 0.394114549681531 
1279	 0.394255126565899 
1280	 0.394423378774686 
1281	 0.394561622810531 
1282	 0.394685919181775 
1283	 0.394799009849646 
1284	 0.394898729189377 
1285	 0.394992169674555 
1286	 0.395043249550104 
1287	 0.395095865845934 
1288	 0.395133527903031 
1289	 0.3951463119559 
1290	 0.395153985311705 
1291	 0.395156307482803 
1292	 0.395147957992338 
1293	 0.395129731076636 
1294	 0.395091013246593 
1295	 0.395036996145999 
1296	 0.394983055168851 
1297	 0.394905671718061 
1298	 0.394833309252685 
1299	 0.394770002838943 
1300	 0.394692494816242 
1301	 0.394607030948763 
1302	 0.394511472952055 
1303	 0.394399014465424 
1304	 0.394296402466104 
1305	 0.394189047324876 
1306	 0.39407462355239 
1307	 0.393974973377382 
1308	 0.393874955577525 
1309	 0.393780338171029 
1310	 0.393678994932046 
1311	 0.39360608741031 
1312	 0.393550656847089 
1313	 0.39349576431322 
1314	 0.393453699751129 
1315	 0.393419175098042 
1316	 0.393393956331457 
1317	 0.393364351463722 
1318	 0.393331328285334 
1319	 0.393321122052813 
1320	 0.393322707370743 
1321	 0.393324464451225 
1322	 0.393342355997303 
1323	 0.393363093637593 
1324	 0.393385074777307 
1325	 0.393397813659972 
1326	 0.393427933431743 
1327	 0.393489043651813 
1328	 0.393548926396951 
1329	 0.393621144580921 
1330	 0.393716650357981 
1331	 0.393842007725143 
1332	 0.39394954059748 
1333	 0.39406061587121 
1334	 0.394181953424564 
1335	 0.394297822441011 
1336	 0.394429084484218 
1337	 0.394591639547051 
1338	 0.394734325670661 
1339	 0.394871067561143 
1340	 0.395003513299276 
1341	 0.395127193231611 
1342	 0.395252524149401 
1343	 0.395364643095475 
1344	 0.395497597208851 
1345	 0.395643606711846 
1346	 0.395808131790151 
1347	 0.395990597500274 
1348	 0.396153772827847 
1349	 0.396284867106947 
1350	 0.396412472996518 
1351	 0.396548891531788 
1352	 0.396674860058501 
1353	 0.39680898397029 
1354	 0.396961303484284 
1355	 0.397095887336015 
1356	 0.397213484007757 
1357	 0.397347086002873 
1358	 0.39749028042039 
1359	 0.397621279170664 
1360	 0.397761297655552 
1361	 0.39787891763007 
1362	 0.397975061928417 
1363	 0.398079096567805 
1364	 0.398161729423376 
1365	 0.39826758516399 
1366	 0.398397648207585 
1367	 0.398510750113363 
1368	 0.398614153296738 
1369	 0.398733325484728 
1370	 0.398838717509291 
1371	 0.398939183847571 
1372	 0.39905410402449 
1373	 0.399161843594482 
1374	 0.399252238607264 
1375	 0.399330024473713 
1376	 0.399401828523174 
1377	 0.399460751341372 
1378	 0.399516524406969 
1379	 0.399573794781839 
1380	 0.39961133751895 
1381	 0.399637932630562 
1382	 0.399650434656405 
1383	 0.399645323132468 
1384	 0.399632879973371 
1385	 0.399611118021248 
1386	 0.399578201220749 
1387	 0.39954746438781 
1388	 0.399485394766584 
1389	 0.399407625263876 
1390	 0.399311686296754 
1391	 0.399161692324193 
1392	 0.398988215874195 
1393	 0.398817094082372 
1394	 0.398629942526155 
1395	 0.398442085815775 
1396	 0.398245059908003 
1397	 0.398028268835751 
1398	 0.397780887726188 
1399	 0.397544933834198 
1400	 0.397299293079941 
1401	 0.397064826522962 
1402	 0.396822983161627 
1403	 0.396597400687717 
1404	 0.39638484798811 
1405	 0.396176573836837 
1406	 0.395964410106353 
1407	 0.39578321920151 
1408	 0.395603300625853 
1409	 0.395461805294096 
1410	 0.395350843118753 
1411	 0.39526525037156 
1412	 0.395206668854857 
1413	 0.39517576355567 
1414	 0.395162544706857 
1415	 0.395171151457911 
1416	 0.395200806190524 
1417	 0.39524249373813 
1418	 0.395313646131913 
1419	 0.395400481052648 
1420	 0.395488319638143 
1421	 0.395567374976142 
1422	 0.395630459761792 
1423	 0.395670780621992 
1424	 0.395717813923362 
1425	 0.395769149544409 
1426	 0.395794514783012 
1427	 0.395804942759686 
1428	 0.395821464653752 
1429	 0.395818379246745 
1430	 0.39582033119497 
1431	 0.395838034362112 
1432	 0.395834310979829 
1433	 0.395804267273154 
1434	 0.395792105889635 
1435	 0.3957889324023 
1436	 0.395773965093376 
1437	 0.395757558921335 
1438	 0.395742448792977 
1439	 0.395719826385029 
1440	 0.395695825377018 
1441	 0.395679023873897 
1442	 0.39566469238225 
1443	 0.395650610017198 
1444	 0.395620704763481 
1445	 0.395589644511669 
1446	 0.395586049381371 
1447	 0.395586641514665 
1448	 0.395585119784299 
1449	 0.395591260871118 
1450	 0.395602926256254 
1451	 0.395613621498732 
1452	 0.395621654831233 
1453	 0.395637084076114 
1454	 0.395669191309514 
1455	 0.395667142969327 
1456	 0.39564823014852 
1457	 0.395642489933662 
1458	 0.395621293170288 
1459	 0.395611729505389 
1460	 0.395618731429732 
1461	 0.395614245772957 
1462	 0.39559776774897 
1463	 0.395593316247235 
1464	 0.395591630960988 
1465	 0.39560019809973 
1466	 0.395612808841609 
1467	 0.395633091957509 
1468	 0.395664202177459 
1469	 0.395696062837246 
1470	 0.395727495513807 
1471	 0.395777737237685 
1472	 0.395830595171278 
1473	 0.395888168454185 
1474	 0.395947520134821 
1475	 0.39600923222673 
1476	 0.396074572833815 
1477	 0.396143978888253 
1478	 0.396214141198975 
1479	 0.396278103156653 
1480	 0.396343539960517 
1481	 0.396417040054583 
1482	 0.396498383023499 
1483	 0.396600047014907 
1484	 0.396679003153175 
1485	 0.396748045901184 
1486	 0.396829778392034 
1487	 0.396906597169143 
1488	 0.396983842800989 
1489	 0.397073756498987 
1490	 0.397155836950371 
1491	 0.397236859552118 
1492	 0.397305999392827 
1493	 0.397362093404744 
1494	 0.397431948143564 
1495	 0.397495369128875 
1496	 0.397561948123291 
1497	 0.397648124669069 
1498	 0.397723087882978 
1499	 0.397785268429008 
1500	 0.397852329647658 
1501	 0.397925348132927 
1502	 0.397987650973986 
1503	 0.398041559877999 
1504	 0.398097035760819 
1505	 0.398158978980834 
1506	 0.398226039264817 
1507	 0.398291369416616 
1508	 0.398361658878884 
1509	 0.398424980761937 
1510	 0.398487009624976 
1511	 0.398558795186399 
1512	 0.398622993687815 
1513	 0.398680219178835 
1514	 0.398736190422252 
1515	 0.398776326739054 
1516	 0.39880934244966 
1517	 0.398862279628462 
1518	 0.398919998418244 
1519	 0.398974426317649 
1520	 0.399046249454503 
1521	 0.399103580391355 
1522	 0.399140670613195 
1523	 0.399192609033661 
1524	 0.399253723036531 
1525	 0.399310847058446 
1526	 0.399364600547957 
1527	 0.399429141107329 
1528	 0.399502594811734 
1529	 0.399569195312562 
1530	 0.399650086870365 
1531	 0.39970516965962 
1532	 0.399746644025773 
1533	 0.39977935451851 
1534	 0.399784098175432 
1535	 0.399807701381313 
1536	 0.399826245884404 
1537	 0.399858415938562 
1538	 0.399909780775274 
1539	 0.399957807730665 
1540	 0.400014488816484 
1541	 0.400060812751565 
1542	 0.400102271960849 
1543	 0.400141527315184 
1544	 0.400171415941808 
1545	 0.400211414145761 
1546	 0.400259218584221 
1547	 0.40029843932106 
1548	 0.40034824259633 
1549	 0.400393196892753 
1550	 0.400428605957227 
1551	 0.40047392416134 
1552	 0.400522016993983 
1553	 0.400562802486192 
1554	 0.400610127104391 
1555	 0.400662143309473 
1556	 0.400709420846437 
1557	 0.400748837026969 
1558	 0.400775070739561 
1559	 0.400801684003897 
1560	 0.400847279033614 
1561	 0.400905891162238 
1562	 0.400938813348975 
1563	 0.400980794289495 
1564	 0.401008682397543 
1565	 0.40100012701876 
1566	 0.40102415845335 
1567	 0.401065903296264 
1568	 0.401099693609081 
1569	 0.401132761766751 
1570	 0.401175626297289 
1571	 0.401223715932219 
1572	 0.401274426122709 
1573	 0.401329997397202 
1574	 0.401390709028586 
1575	 0.401468462287022 
1576	 0.40151549914814 
1577	 0.401564086154102 
1578	 0.401589165947496 
1579	 0.401571754538796 
1580	 0.401582303135937 
1581	 0.40159695327516 
1582	 0.401606377064881 
1583	 0.40161030680169 
1584	 0.401632809589488 
1585	 0.40165578538195 
1586	 0.4016920575034 
1587	 0.40176003225199 
1588	 0.401810735964232 
1589	 0.401856607028902 
1590	 0.401904044921777 
1591	 0.401947079712894 
1592	 0.401991721363576 
1593	 0.402041925142902 
1594	 0.402083624843286 
1595	 0.402116416799387 
1596	 0.402158252713283 
1597	 0.40220932174983 
1598	 0.402243267522904 
1599	 0.402267713169965 
1600	 0.402300785645414 
1601	 0.40233155519306 
1602	 0.402354505379341 
1603	 0.402375279595719 
1604	 0.402401764029619 
1605	 0.402414719648064 
1606	 0.402438960564179 
1607	 0.402474917162473 
1608	 0.402523831220127 
1609	 0.402571691880648 
1610	 0.402606100812501 
1611	 0.402635152757618 
1612	 0.402664307400252 
1613	 0.402691195222453 
1614	 0.402714216395008 
1615	 0.402734617423544 
1616	 0.402761026370668 
1617	 0.402771608864946 
1618	 0.402793757210316 
1619	 0.402819812286285 
1620	 0.402823788447785 
1621	 0.402846181395485 
1622	 0.402860282217571 
1623	 0.402910084810682 
1624	 0.402989971882439 
1625	 0.403041294443824 
1626	 0.40311609889871 
1627	 0.403134326218115 
1628	 0.403103231239587 
1629	 0.403111931467837 
1630	 0.403112414767583 
1631	 0.403115933050484 
1632	 0.40312547589568 
1633	 0.403162463815675 
1634	 0.403203838189194 
1635	 0.40324879084093 
1636	 0.403336343563534 
1637	 0.403378973625135 
1638	 0.403390875958 
1639	 0.403415954655521 
1640	 0.403433085505443 
1641	 0.403465985170154 
1642	 0.403502448086316 
1643	 0.403542163846886 
1644	 0.403597172296235 
1645	 0.40363582143731 
1646	 0.403667986472379 
1647	 0.403701348554019 
1648	 0.40372517857199 
1649	 0.403762897485074 
1650	 0.403807470696958 
1651	 0.403849479286833 
1652	 0.403895960845633 
1653	 0.403944057307775 
1654	 0.403995164107179 
1655	 0.404038091720749 
1656	 0.404091200810698 
1657	 0.404118290716877 
1658	 0.40411627510986 
1659	 0.404138726281939 
1660	 0.404158912914159 
1661	 0.404182289967225 
1662	 0.404223196286886 
1663	 0.404249765393048 
1664	 0.404264874682724 
1665	 0.404284563176999 
1666	 0.404295710872986 
1667	 0.404328338706012 
1668	 0.404371090428967 
1669	 0.404413146321697 
1670	 0.40447489752939 
1671	 0.40452079604905 
1672	 0.404561356910692 
1673	 0.404593344812428 
1674	 0.404616856510859 
1675	 0.404642544698705 
1676	 0.404656023946589 
1677	 0.40468172218699 
1678	 0.404721539750938 
1679	 0.4047454102135 
1680	 0.404755242002626 
1681	 0.40478641112044 
1682	 0.404815611400437 
1683	 0.40485704132959 
1684	 0.404939544727762 
1685	 0.404973225460655 
1686	 0.404978121007489 
1687	 0.40500229155148 
1688	 0.404999926465791 
1689	 0.405029614403763 
1690	 0.405083263409302 
1691	 0.405142123791829 
1692	 0.405218986467868 
1693	 0.405286999708125 
1694	 0.405365115931467 
1695	 0.405433816279256 
1696	 0.40550589377949 
1697	 0.405553103539989 
1698	 0.405591271038722 
1699	 0.405616922815805 
1700	 0.405610304099969 
1701	 0.405616440998045 
1702	 0.405617534729648 
1703	 0.405631570964009 
1704	 0.405648005799499 
1705	 0.405671937029411 
1706	 0.405711017013756 
1707	 0.405742336619595 
1708	 0.405777418559539 
1709	 0.40580336778744 
1710	 0.405819000804844 
1711	 0.405845370196356 
1712	 0.40586134743006 
1713	 0.405906139673412 
1714	 0.405988220137171 
1715	 0.406028801499741 
1716	 0.406076153646839 
1717	 0.406091530636784 
1718	 0.406056196140369 
1719	 0.406054177410167 
1720	 0.406046623043433 
1721	 0.406059481068422 
1722	 0.406096566902083 
1723	 0.406114371597343 
1724	 0.406148344521157 
1725	 0.406149145740237 
1726	 0.406125470068117 
1727	 0.406106467831386 
1728	 0.406063148092472 
1729	 0.406039491229244 
1730	 0.406024512756411 
1731	 0.406007396755415 
1732	 0.406003059399967 
1733	 0.405979978912977 
1734	 0.405941467804747 
1735	 0.405920030207751 
1736	 0.405891782696679 
1737	 0.405877231525705 
1738	 0.405883126873281 
1739	 0.40587510867385 
1740	 0.405866413851524 
1741	 0.405862265091224 
1742	 0.405859326046627 
1743	 0.40584276362285 
1744	 0.405820264952051 
1745	 0.405811005615038 
1746	 0.40579929209335 
1747	 0.405800510564549 
1748	 0.405774711399702 
1749	 0.405720871655417 
1750	 0.405693039090939 
1751	 0.405671958913855 
1752	 0.405645599924067 
1753	 0.405616956750143 
1754	 0.405591244352638 
1755	 0.405556383741724 
1756	 0.40554212634844 
1757	 0.405553758093541 
1758	 0.405548036207663 
1759	 0.405543986087525 
1760	 0.40553089359688 
1761	 0.405505596734503 
1762	 0.405475431266115 
1763	 0.405455573551806 
1764	 0.405453846737297 
1765	 0.405438121306653 
1766	 0.40545332284741 
1767	 0.405491302567784 
1768	 0.405512181264861 
1769	 0.405545204041993 
1770	 0.405597652822334 
1771	 0.405653315163825 
1772	 0.405686146425182 
1773	 0.405709819820565 
1774	 0.405703477487353 
1775	 0.405662041214581 
1776	 0.405639443196889 
1777	 0.405646756526959 
1778	 0.405690374267286 
1779	 0.405759774891248 
1780	 0.405818059584393 
1781	 0.405837271648198 
1782	 0.405815676570687 
1783	 0.405765643925434 
1784	 0.405751032767811 
1785	 0.4057617508985 
1786	 0.40576343945487 
1787	 0.405774110320913 
1788	 0.405766754744424 
1789	 0.405721403737537 
1790	 0.405739430810783 
1791	 0.405778164613876 
1792	 0.405839908554805 
1793	 0.405972254650993 
1794	 0.406059643071718 
1795	 0.406132275785698 
1796	 0.406196702362253 
1797	 0.406242804733413 
1798	 0.406292470005247 
1799	 0.406360626242413 
1800	 0.406394075234815 
1801	 0.410539460219337 
1802	 0.410538550265438 
1803	 0.410520507525049 
1804	 0.41053022274666 
1805	 0.410528515287006 
1806	 0.41055498365238 
1807	 0.410607169596885 
1808	 0.410630350583151 
1809	 0.410616562842956 
1810	 0.410638648493611 
1811	 0.41067935750656 
1812	 0.410707163004523 
1813	 0.410709456121433 
1814	 0.410753893693028 
1815	 0.410801669513856 
1816	 0.410834613042352 
1817	 0.410871453955599 
1818	 0.410947304688867 
1819	 0.41096318593237 
1820	 0.410947788093107 
1821	 0.410922898251802 
1822	 0.410895612370073 
1823	 0.410859162831801 
1824	 0.4108265233204 
1825	 0.410787627119181 
1826	 0.41074681346612 
1827	 0.410708834536685 
1828	 0.410672352864597 
1829	 0.410643658814019 
1830	 0.410616045604208 
1831	 0.410581688709312 
1832	 0.410557170166508 
1833	 0.410547295034837 
1834	 0.410549544929559 
1835	 0.410578029463815 
1836	 0.410587612869414 
1837	 0.410604638397213 
1838	 0.410597978890318 
1839	 0.410598284594285 
1840	 0.410587399438145 
1841	 0.410607334844935 
1842	 0.410586042003354 
1843	 0.410579281662778 
1844	 0.410581071892721 
1845	 0.410559320270938 
1846	 0.410569551279281 
1847	 0.410591457580816 
1848	 0.410604071642887 
1849	 0.410628666158276 
1850	 0.410634311087737 
1851	 0.410637079121487 
1852	 0.410614694602143 
1853	 0.410600693875573 
1854	 0.410558212536262 
1855	 0.410504312893962 
1856	 0.410496554292513 
1857	 0.410488513680813 
1858	 0.410479536619572 
1859	 0.410476208228733 
1860	 0.410463279898952 
1861	 0.410443002507675 
1862	 0.410415126654896 
1863	 0.410379590128284 
1864	 0.41033636255858 
1865	 0.410260739256135 
1866	 0.41015463637062 
1867	 0.410055806339498 
1868	 0.409975534907705 
1869	 0.409914811967923 
1870	 0.409865815028285 
1871	 0.409790890779895 
1872	 0.4097136729825 
1873	 0.409601245541305 
1874	 0.409468131615034 
1875	 0.409313266917196 
1876	 0.409126629831546 
1877	 0.40892039240672 
1878	 0.40868890622973 
1879	 0.408438735592023 
1880	 0.408156686618259 
1881	 0.407850795045549 
1882	 0.407511559119737 
1883	 0.407148948928656 
1884	 0.406737020542388 
1885	 0.406289832401918 
1886	 0.405821691138172 
1887	 0.405319661913943 
1888	 0.404816002716912 
1889	 0.404290781909868 
1890	 0.403720562479104 
1891	 0.403143463447849 
1892	 0.402540577859651 
1893	 0.401917426266772 
1894	 0.401261089122288 
1895	 0.400625879710876 
1896	 0.399972760997883 
1897	 0.399312981269774 
1898	 0.398678600029729 
1899	 0.398085123924633 
1900	 0.397523575982443 
1901	 0.397001478187975 
1902	 0.396515557348855 
1903	 0.396089491678007 
1904	 0.395652188954939 
1905	 0.395226088155067 
1906	 0.394851592515425 
1907	 0.394469991955892 
1908	 0.394105707354268 
1909	 0.393774352125503 
1910	 0.393431859978712 
1911	 0.393103450288904 
1912	 0.392796354371824 
1913	 0.392503842329114 
1914	 0.39224562302854 
1915	 0.391968101286138 
1916	 0.391687392167644 
1917	 0.391418498296824 
1918	 0.391167296390947 
1919	 0.390901955922137 
1920	 0.390666792630678 
1921	 0.390477437918969 
1922	 0.390288030653575 
1923	 0.390123391539708 
1924	 0.389993863366283 
1925	 0.38991879970006 
1926	 0.389824612866389 
1927	 0.389739555125268 
1928	 0.389681148683078 
1929	 0.389614939623198 
1930	 0.389525900335695 
1931	 0.389474273455976 
1932	 0.389433759824949 
1933	 0.389378558079902 
1934	 0.389334892941981 
1935	 0.389312665074815 
1936	 0.389289636661682 
1937	 0.389295179642703 
1938	 0.389328783061988 
1939	 0.389380478198922 
1940	 0.389448799782782 
1941	 0.389531706349932 
1942	 0.389654959888456 
1943	 0.389775889383788 
1944	 0.389896185943604 
1945	 0.390023094706366 
1946	 0.39015492043482 
1947	 0.390295942236949 
1948	 0.390423438437535 
1949	 0.390534854955145 
1950	 0.390677001249955 
1951	 0.390820771977978 
1952	 0.390972403770465 
1953	 0.391153389582402 
1954	 0.391355780966544 
1955	 0.391511906703607 
1956	 0.39162976029727 
1957	 0.391778378729705 
1958	 0.39192324096001 
1959	 0.392065735218404 
1960	 0.3922115075544 
1961	 0.392376451816357 
1962	 0.392534499880623 
1963	 0.392709057974099 
1964	 0.392899411060505 
1965	 0.393114119034139 
1966	 0.393333327108403 
1967	 0.393563361845795 
1968	 0.393803515559951 
1969	 0.39407604892432 
1970	 0.394321416721289 
1971	 0.394574172376316 
1972	 0.394799407868227 
1973	 0.395005182407872 
1974	 0.39521308554603 
1975	 0.395407751803662 
1976	 0.395581556735604 
1977	 0.395806459404133 
1978	 0.396021325336849 
1979	 0.396247543604871 
1980	 0.396519937578831 
1981	 0.396762094872369 
1982	 0.396994598559073 
1983	 0.397235921636184 
1984	 0.397471757035832 
1985	 0.39771484898762 
1986	 0.397975360224741 
1987	 0.39822047604658 
1988	 0.398449952156302 
1989	 0.398694232088184 
1990	 0.398949853522902 
1991	 0.399212430783203 
1992	 0.399489800096386 
1993	 0.399800272632525 
1994	 0.400087974246032 
1995	 0.400385876351299 
1996	 0.40065754134757 
1997	 0.400909734037871 
1998	 0.401172597298017 
1999	 0.40142529039367 
2000	 0.401674136494958 
2001	 0.401940217685819 
2002	 0.402177483200864 
2003	 0.40239761958938 
2004	 0.402624059918429 
2005	 0.4028607939548 
2006	 0.403096345122717 
2007	 0.40334912458191 
2008	 0.403620250608004 
2009	 0.403883047548249 
2010	 0.40414263822942 
2011	 0.40441855013959 
2012	 0.404706839082145 
2013	 0.404991465600201 
2014	 0.405287663025288 
2015	 0.405589671601749 
2016	 0.405866290544167 
2017	 0.406139081237577 
2018	 0.406406125007253 
2019	 0.406653003649149 
2020	 0.406924259447648 
2021	 0.407192075481871 
2022	 0.407481840486761 
2023	 0.407814747351216 
2024	 0.40810815026404 
2025	 0.408411024087409 
2026	 0.408683349864017 
2027	 0.408920325608997 
2028	 0.409151432439293 
2029	 0.409376631775732 
2030	 0.409579264773939 
2031	 0.409801434105727 
2032	 0.410020399617945 
2033	 0.410247842992435 
2034	 0.410497918873227 
2035	 0.410724193480434 
2036	 0.410947602142726 
2037	 0.411158769275639 
2038	 0.411347416539445 
2039	 0.411542602496717 
2040	 0.411730811246304 
2041	 0.411922018965137 
2042	 0.412129916953402 
2043	 0.412331266115308 
2044	 0.412510393011495 
2045	 0.412673948348943 
2046	 0.412852011685284 
2047	 0.413014057322412 
2048	 0.413185268020736 
2049	 0.413387197310399 
2050	 0.413556585805627 
2051	 0.413684309709666 
2052	 0.413848175481411 
2053	 0.414040087128268 
2054	 0.414198544501669 
2055	 0.414352046164802 
2056	 0.414510072862192 
2057	 0.414661263209523 
2058	 0.414791139853015 
2059	 0.414917035390767 
2060	 0.415050024598573 
2061	 0.415175420487399 
2062	 0.415259557772021 
2063	 0.415382625520428 
2064	 0.415540581267321 
2065	 0.415678922516995 
2066	 0.415821289502042 
2067	 0.415960289782786 
2068	 0.416094925939153 
2069	 0.416214598820282 
2070	 0.416359964795724 
2071	 0.416517659000768 
2072	 0.416668843908683 
2073	 0.416823997608477 
2074	 0.416984984208987 
2075	 0.417149217300422 
2076	 0.417309159832237 
2077	 0.417479996095507 
2078	 0.41764491589009 
2079	 0.41779197700667 
2080	 0.417953756093 
2081	 0.418125409816021 
2082	 0.418295531374516 
2083	 0.418477273586641 
2084	 0.41865463843933 
2085	 0.418811640025016 
2086	 0.418962118200892 
2087	 0.419102826110915 
2088	 0.419220125393901 
2089	 0.419349140014831 
2090	 0.419473213262364 
2091	 0.41960498743163 
2092	 0.419744849755664 
2093	 0.419875588794953 
2094	 0.420006080407102 
2095	 0.420135008936323 
2096	 0.420240033667414 
2097	 0.420373386630127 
2098	 0.420520787044201 
2099	 0.420677021818519 
2100	 0.420841473429255 
2101	 0.421020920553412 
2102	 0.421209738716041 
2103	 0.421415757789942 
2104	 0.421606580326652 
2105	 0.421815067365056 
2106	 0.421997943327322 
2107	 0.422146672057039 
2108	 0.42232022488318 
2109	 0.422493273476256 
2110	 0.422675769547458 
2111	 0.422884119741575 
2112	 0.423073342390834 
2113	 0.4232554276768 
2114	 0.423435524281228 
2115	 0.423620232161647 
2116	 0.423782672849066 
2117	 0.423994058120704 
2118	 0.424238844224607 
2119	 0.424464271523742 
2120	 0.424712759179016 
2121	 0.424943724743625 
2122	 0.425174655448103 
2123	 0.42537482819365 
2124	 0.425563620061159 
2125	 0.425740767209417 
2126	 0.425888165551762 
2127	 0.426030787285946 
2128	 0.426168196915685 
2129	 0.426297846617107 
2130	 0.426406122003588 
2131	 0.426524680646948 
2132	 0.426611278437325 
2133	 0.426702051814552 
2134	 0.426737583166592 
2135	 0.426735000280325 
2136	 0.426711405919457 
2137	 0.42663939143571 
2138	 0.426582841585607 
2139	 0.426499221772256 
2140	 0.426433313307387 
2141	 0.42638470315041 
2142	 0.426314074990204 
2143	 0.426264576824207 
2144	 0.426163901655191 
2145	 0.426014548503913 
2146	 0.425870688033818 
2147	 0.425695206418602 
2148	 0.425520255228307 
2149	 0.425340517157973 
2150	 0.425175263842123 
2151	 0.424969323726685 
2152	 0.424734953660998 
2153	 0.424502899989471 
2154	 0.424261915531955 
2155	 0.423999581604269 
2156	 0.423728467664421 
2157	 0.423441338852104 
2158	 0.423134094207226 
2159	 0.42280861480505 
2160	 0.422476436025305 
2161	 0.422119097509748 
2162	 0.421727112106311 
2163	 0.421330831785635 
2164	 0.420922026006253 
2165	 0.420483223273579 
2166	 0.420080994448137 
2167	 0.419689197340618 
2168	 0.419280018917327 
2169	 0.418873857492151 
2170	 0.418477754700337 
2171	 0.418069030754906 
2172	 0.417670073292144 
2173	 0.417306536774012 
2174	 0.416904974069953 
2175	 0.416464673351076 
2176	 0.416055221789515 
2177	 0.415651691246156 
2178	 0.41524671015159 
2179	 0.414866482266691 
2180	 0.414462369946542 
2181	 0.414043672700552 
2182	 0.413615662395385 
2183	 0.413164352760208 
2184	 0.412725791887573 
2185	 0.412285295356 
2186	 0.411827167613071 
2187	 0.411409049810647 
2188	 0.411009773986145 
2189	 0.410611784274234 
2190	 0.410224094536764 
2191	 0.409859538209774 
2192	 0.409493408804161 
2193	 0.409168036664406 
2194	 0.40888847416132 
2195	 0.408604728529709 
2196	 0.408320214754422 
2197	 0.408079318096598 
2198	 0.407877469944166 
2199	 0.407672685171964 
2200	 0.40750261191702 
2201	 0.407332996191164 
2202	 0.40714285680917 
2203	 0.406967513389718 
2204	 0.406871742099628 
2205	 0.406818147589013 
2206	 0.406789477506432 
2207	 0.406838407467742 
2208	 0.406855863444831 
2209	 0.406874764907847 
2210	 0.406916930746247 
2211	 0.406966344468539 
2212	 0.407043771391237 
2213	 0.40716339842923 
2214	 0.407252847450315 
2215	 0.407366110917031 
2216	 0.407445711020741 
2217	 0.407476097076833 
2218	 0.407541194707328 
2219	 0.407621216111183 
2220	 0.407686733851465 
2221	 0.407766589272922 
2222	 0.407835231595523 
2223	 0.407858465560405 
2224	 0.407868121995049 
2225	 0.407887350057343 
2226	 0.407905141817028 
2227	 0.407888901392084 
2228	 0.407859951477223 
2229	 0.407835132232323 
2230	 0.407775447449472 
2231	 0.407734275049098 
2232	 0.407712198158339 
2233	 0.407679793775434 
2234	 0.407641941002683 
2235	 0.407596776456148 
2236	 0.407549103732403 
2237	 0.407504835103612 
2238	 0.407461049536904 
2239	 0.407399977639964 
2240	 0.407335123370267 
2241	 0.407268012388787 
2242	 0.40716299990847 
2243	 0.40708616341846 
2244	 0.406999108476656 
2245	 0.406978751670393 
2246	 0.406966812516004 
2247	 0.406935406907383 
2248	 0.40691758969322 
2249	 0.406902187635299 
2250	 0.406919877321543 
2251	 0.406953478301752 
2252	 0.40699548105762 
2253	 0.407090545279383 
2254	 0.407119324560815 
2255	 0.407106945003366 
2256	 0.407119424453048 
2257	 0.407101514944819 
2258	 0.407135616622225 
2259	 0.407194364406833 
2260	 0.407274341082565 
2261	 0.407387216282309 
2262	 0.407498246722732 
2263	 0.407676382944991 
2264	 0.407780421807726 
2265	 0.407823127538526 
2266	 0.407909273136492 
2267	 0.407960111638468 
2268	 0.408032206805907 
2269	 0.408144708663164 
2270	 0.408268632307922 
2271	 0.408405891266842 
2272	 0.408508322043824 
2273	 0.408585492760346 
2274	 0.40870353290336 
2275	 0.408809417859624 
2276	 0.408877480314089 
2277	 0.408999795075772 
2278	 0.409169725224375 
2279	 0.409316355910775 
2280	 0.409466634965193 
2281	 0.409618512790128 
2282	 0.409772888414395 
2283	 0.409922611516829 
2284	 0.410084895677625 
2285	 0.410222449628327 
2286	 0.410349815440243 
2287	 0.410465582487654 
2288	 0.410527225588697 
2289	 0.410659133041408 
2290	 0.410825066475422 
2291	 0.410980502997656 
2292	 0.411194605254089 
2293	 0.411355363089452 
2294	 0.411474859845798 
2295	 0.411607189294787 
2296	 0.411725314467913 
2297	 0.411849286264799 
2298	 0.411955094747219 
2299	 0.412080412686512 
2300	 0.41226623190342 
2301	 0.412431351203036 
2302	 0.412596112472053 
2303	 0.412775456402953 
2304	 0.412890744495901 
2305	 0.413005347655097 
2306	 0.413109328226659 
2307	 0.413212430747203 
2308	 0.413290701978375 
2309	 0.413342412243313 
2310	 0.413383035275781 
2311	 0.413385040825172 
2312	 0.413448448355846 
2313	 0.413521664712681 
2314	 0.413614955142816 
2315	 0.413773149082626 
2316	 0.413882631823028 
2317	 0.413977422416727 
2318	 0.414060753574467 
2319	 0.414116944526431 
2320	 0.414190305497344 
2321	 0.414253194901426 
2322	 0.414332772717855 
2323	 0.414412294996764 
2324	 0.414525501749723 
2325	 0.414665958022529 
2326	 0.41481806592136 
2327	 0.415014431081529 
2328	 0.415189114684475 
2329	 0.415360684867427 
2330	 0.415492882788493 
2331	 0.415607213667584 
2332	 0.415729514429304 
2333	 0.415820208060585 
2334	 0.415872258682348 
2335	 0.415935860126222 
2336	 0.415979368932042 
2337	 0.416009315319734 
2338	 0.416110096213031 
2339	 0.416274031611646 
2340	 0.416452778095509 
2341	 0.41665984162366 
2342	 0.41687516372941 
2343	 0.416976180248672 
2344	 0.417040417988418 
2345	 0.417106144409119 
2346	 0.417146605833956 
2347	 0.417144458430943 
2348	 0.417122277813427 
2349	 0.417086058958613 
2350	 0.416978640941979 
2351	 0.416936974968417 
2352	 0.416921103531463 
2353	 0.416899672574432 
2354	 0.416894925356769 
2355	 0.416893569783209 
2356	 0.416923439719628 
2357	 0.416889860457391 
2358	 0.416808194734504 
2359	 0.416773422294423 
2360	 0.416719440229086 
2361	 0.416668446161756 
2362	 0.416685941614574 
2363	 0.416641936240723 
2364	 0.416511757036073 
2365	 0.416440513359329 
2366	 0.41638713566026 
2367	 0.416331963612941 
2368	 0.416362344043195 
2369	 0.416291116364528 
2370	 0.416163891763845 
2371	 0.415989772208433 
2372	 0.415852275975186 
2373	 0.415678231154679 
2374	 0.415511985841887 
2375	 0.415392364643693 
2376	 0.415227189838608 
2377	 0.415017069734069 
2378	 0.414853760391872 
2379	 0.414768970555678 
2380	 0.414655339198736 
2381	 0.414531991016166 
2382	 0.41448275695076 
2383	 0.414362720639601 
2384	 0.414246253267296 
2385	 0.414133098754107 
2386	 0.41390300401917 
2387	 0.413700878937155 
2388	 0.413549529037999 
2389	 0.413403918457056 
2390	 0.413278141562518 
2391	 0.413109363366892 
2392	 0.412874323855575 
2393	 0.412671338570665 
2394	 0.412548485246534 
2395	 0.412436312086278 
2396	 0.412303701438666 
2397	 0.412159440074365 
2398	 0.411957049318823 
2399	 0.411781598438409 
2400	 0.4116686362892 
2401	 0.41145432038221 
2402	 0.411161521139556 
2403	 0.410877378936448 
2404	 0.410629403822515 
2405	 0.41045959930008 
2406	 0.410372092787319 
2407	 0.410312616558428 
2408	 0.410168552449466 
2409	 0.409964314414201 
2410	 0.409688684268698 
2411	 0.409331205566211 
2412	 0.409067184045698 
2413	 0.408857303669876 
2414	 0.408677278948241 
2415	 0.408550755245298 
2416	 0.408346264118252 
2417	 0.408055822201475 
2418	 0.407811869298747 
2419	 0.407547263689373 
2420	 0.407338304803208 
2421	 0.407154718810743 
2422	 0.406969443464422 
2423	 0.40684273880718 
2424	 0.406625911406505 
2425	 0.406349225165763 
2426	 0.406132087498128 
2427	 0.405899026275797 
2428	 0.405720522957445 
2429	 0.405635251612482 
2430	 0.405491028288922 
2431	 0.405315908227775 
2432	 0.405087971228472 
2433	 0.404799690596738 
2434	 0.404564870691462 
2435	 0.404302310332113 
2436	 0.404119068477629 
2437	 0.404027192750151 
2438	 0.403903376016326 
2439	 0.403824044739123 
2440	 0.403736240170014 
2441	 0.403647355164933 
2442	 0.403510249462663 
2443	 0.403284673906359 
2444	 0.403160186413049 
2445	 0.403108014256976 
2446	 0.40292705226862 
2447	 0.40277791686456 
2448	 0.402570640861644 
2449	 0.402168234315364 
2450	 0.401935428838837 
2451	 0.401815311884429 
2452	 0.40166770664659 
2453	 0.401568235881424 
2454	 0.40144541835167 
2455	 0.401290315570557 
2456	 0.401181522315468 
2457	 0.401090157616084 
2458	 0.400984004139895 
2459	 0.400963026719883 
2460	 0.400766263410797 
2461	 0.400453037570266 
2462	 0.400215179860962 
2463	 0.399842458109686 
2464	 0.399654553782224 
2465	 0.399685691134767 
2466	 0.399521120109175 
2467	 0.399308133425237 
2468	 0.39911653955936 
2469	 0.39874856091247 
2470	 0.398552185522066 
2471	 0.398599707872782 
2472	 0.398507130523882 
2473	 0.398305113078266 
2474	 0.398042041632395 
2475	 0.397727877675448 
2476	 0.397470333157737 
2477	 0.397370776951431 
2478	 0.397312582683792 
2479	 0.39717294687939 
2480	 0.397096844959214 
2481	 0.396988215953739 
2482	 0.39691625357432 
2483	 0.396901446372939 
2484	 0.396739522507635 
2485	 0.396510646616628 
2486	 0.396427777069908 
2487	 0.396375220724922 
2488	 0.396142062236042 
2489	 0.395950340844772 
2490	 0.3956817931238 
2491	 0.39521003021397 
2492	 0.394869263625925 
2493	 0.394853031310624 
2494	 0.394773623964755 
2495	 0.394659483522931 
2496	 0.39479731481335 
2497	 0.394674401876539 
2498	 0.394652988192716 
2499	 0.394887511799302 
2500	 0.394801898297699 
