Wavelength	LMW100006.asd
350	 7.89156687039586E-02 
351	 8.66160328585821E-02 
352	 8.64280708490684E-02 
353	 7.78227626445538E-02 
354	 7.62418620454889E-02 
355	 7.47825118297285E-02 
356	 7.31533576918535E-02 
357	 7.28177649908297E-02 
358	 0.07603448977657 
359	 7.55215163285946E-02 
360	 7.42223683954369E-02 
361	 7.99631471426552E-02 
362	 7.68305405271718E-02 
363	 7.37609215207795E-02 
364	 7.56290752761424E-02 
365	 7.64533011240364E-02 
366	 7.52221624776169E-02 
367	 7.41934506958997E-02 
368	 7.55613324787172E-02 
369	 7.75304542956988E-02 
370	 7.73936296436377E-02 
371	 7.63011928052867E-02 
372	 7.78140918388219E-02 
373	 8.12660017479149E-02 
374	 8.21093087273291E-02 
375	 8.00763939145963E-02 
376	 8.31685513628313E-02 
377	 8.30514206160292E-02 
378	 8.14863954502644E-02 
379	 8.22731223566561E-02 
380	 8.46172917811564E-02 
381	 8.50487355138645E-02 
382	 0.084510245800536 
383	 8.68550427705821E-02 
384	 8.78838963638693E-02 
385	 8.69795602131629E-02 
386	 8.56266490423055E-02 
387	 8.85372712641107E-02 
388	 8.83299950812237E-02 
389	 8.77055497546307E-02 
390	 9.06477823165167E-02 
391	 9.08714716969775E-02 
392	 9.14943664958262E-02 
393	 9.37299084030332E-02 
394	 9.65646837279586E-02 
395	 9.48806230874501E-02 
396	 9.38947134866759E-02 
397	 9.65548894983051E-02 
398	 9.72231340860524E-02 
399	 9.96825275304316E-02 
400	 0.101983036895878 
401	 0.101246005599147 
402	 0.101406665542048 
403	 0.101802301774385 
404	 0.102109621683748 
405	 0.102650074066595 
406	 0.103603682305349 
407	 0.104820356783464 
408	 0.105769586655343 
409	 0.104870278011862 
410	 0.105449478315128 
411	 0.107321770331144 
412	 0.108654530397945 
413	 0.109046796146135 
414	 0.109118675048927 
415	 0.109420640634198 
416	 0.110279184333636 
417	 0.110464192732808 
418	 0.110774365140082 
419	 0.111815967843082 
420	 0.111807775770563 
421	 0.111807016357943 
422	 0.112014588826997 
423	 0.112088879427382 
424	 0.112572751820089 
425	 0.1127662847916 
426	 0.112355540898298 
427	 0.111919380380003 
428	 0.111718943057913 
429	 0.111751839770366 
430	 0.111871941933936 
431	 0.111913843584885 
432	 0.111554984315212 
433	 0.111071850326977 
434	 0.111263859637981 
435	 0.111818379325599 
436	 0.111911065468644 
437	 0.111264961802005 
438	 0.111182306708379 
439	 0.111504372812247 
440	 0.111946427229407 
441	 0.112199539612181 
442	 0.112490349353091 
443	 0.112989738250391 
444	 0.113603353788709 
445	 0.113847435968794 
446	 0.114275562440301 
447	 0.114759101857415 
448	 0.115076431076154 
449	 0.115454575820802 
450	 0.116122267774691 
451	 0.116877514079858 
452	 0.117203461473617 
453	 0.117655878054008 
454	 0.118044413739166 
455	 0.118318217039635 
456	 0.119139241161129 
457	 0.119736411000905 
458	 0.119913275255555 
459	 0.119843381203812 
460	 0.120219457085539 
461	 0.120691650694553 
462	 0.121014447704159 
463	 0.121228583720734 
464	 0.12147703659197 
465	 0.121830919399069 
466	 0.122243680041301 
467	 0.122318158363817 
468	 0.122413263593282 
469	 0.122637134293804 
470	 0.122878316283577 
471	 0.123173890650513 
472	 0.123390174737601 
473	 0.123452055075678 
474	 0.123446196378346 
475	 0.123615663290514 
476	 0.123796098412334 
477	 0.123738421745856 
478	 0.12404620128653 
479	 0.124410405732929 
480	 0.124613462954767 
481	 0.12466984472732 
482	 0.124909015293759 
483	 0.125162823971215 
484	 0.125244894057836 
485	 0.125546957020552 
486	 0.125579873919722 
487	 0.12544309586959 
488	 0.125697234916049 
489	 0.125824508960796 
490	 0.125947472651056 
491	 0.126164384217677 
492	 0.126243662753388 
493	 0.126240202049066 
494	 0.126296015289281 
495	 0.126556566566768 
496	 0.126850745533818 
497	 0.126933580632858 
498	 0.126867168219931 
499	 0.12718070402573 
500	 0.127175327664951 
501	 0.127095115575699 
502	 0.127314297595236 
503	 0.127491506423313 
504	 0.127643674825167 
505	 0.127752614073569 
506	 0.12776608818265 
507	 0.127803876606236 
508	 0.127969802879483 
509	 0.128219749380447 
510	 0.128114930616732 
511	 0.128136625233646 
512	 0.128314763962886 
513	 0.128439906503877 
514	 0.128513408981823 
515	 0.128588799387884 
516	 0.128706263752286 
517	 0.128882161949372 
518	 0.128944408439724 
519	 0.128942269314538 
520	 0.128994850787303 
521	 0.129141602191903 
522	 0.129324521922034 
523	 0.12946933525727 
524	 0.1294967389721 
525	 0.129624977383587 
526	 0.129723207013218 
527	 0.129700935484887 
528	 0.129862660716318 
529	 0.129949076750613 
530	 0.129988289739084 
531	 0.130174190680689 
532	 0.13025230135988 
533	 0.130346881777243 
534	 0.130509779939715 
535	 0.13050843870823 
536	 0.130653609284464 
537	 0.130851035149892 
538	 0.130891964968954 
539	 0.130967023719054 
540	 0.13107761035919 
541	 0.131201423455797 
542	 0.131304524214428 
543	 0.131451899936341 
544	 0.131611727682842 
545	 0.131741847630006 
546	 0.131876084408664 
547	 0.131980108498048 
548	 0.132070615224756 
549	 0.132207732056062 
550	 0.132418804577231 
551	 0.132600056456561 
552	 0.132715202992033 
553	 0.132969637124378 
554	 0.133222679234707 
555	 0.133434426578515 
556	 0.133625157433956 
557	 0.133853375849945 
558	 0.134108425083411 
559	 0.134380963827923 
560	 0.134687098640459 
561	 0.134926639238971 
562	 0.135151085924733 
563	 0.135447710689681 
564	 0.135775957324348 
565	 0.136078470650534 
566	 0.136383587479687 
567	 0.136812554156919 
568	 0.137256952392619 
569	 0.137662363042162 
570	 0.138034041993942 
571	 0.138518182777523 
572	 0.139092200025411 
573	 0.139693858481961 
574	 0.140235779472426 
575	 0.140735310775874 
576	 0.141232705697273 
577	 0.14175440189251 
578	 0.142281520186711 
579	 0.142882257558637 
580	 0.14356872741857 
581	 0.144320378658125 
582	 0.145096328352376 
583	 0.145892988665587 
584	 0.146679025115928 
585	 0.147379754545388 
586	 0.148093150143382 
587	 0.148774667153937 
588	 0.149388631158606 
589	 0.150122058668834 
590	 0.150909559948641 
591	 0.151688987535722 
592	 0.152418016166519 
593	 0.153143021255895 
594	 0.153923285739834 
595	 0.154779168624565 
596	 0.155621114066519 
597	 0.156573073854139 
598	 0.157576855271128 
599	 0.158485693910927 
600	 0.159319334339502 
601	 0.16012014178122 
602	 0.160887085708159 
603	 0.161531643818113 
604	 0.162212499656117 
605	 0.162905322216536 
606	 0.163533570247304 
607	 0.164130070699289 
608	 0.164724422143303 
609	 0.165326839608267 
610	 0.165925260678425 
611	 0.166503549837756 
612	 0.167075381440126 
613	 0.167645560034598 
614	 0.168179148634233 
615	 0.168631117281027 
616	 0.169057391848796 
617	 0.169565431031437 
618	 0.169973775584375 
619	 0.170344674599101 
620	 0.170723270934366 
621	 0.171025870870377 
622	 0.171356469093792 
623	 0.171702838386553 
624	 0.172016046252833 
625	 0.172344425904612 
626	 0.172645847941015 
627	 0.172906524616441 
628	 0.173156953376978 
629	 0.173476364213682 
630	 0.173787576706718 
631	 0.174020225575112 
632	 0.17431431476781 
633	 0.174595609510869 
634	 0.174838082480639 
635	 0.175063340662015 
636	 0.175325938052374 
637	 0.175607765698243 
638	 0.175866885405954 
639	 0.176025813543464 
640	 0.176247271970201 
641	 0.176540437430694 
642	 0.176832693971512 
643	 0.177056877369388 
644	 0.17729099401363 
645	 0.177563865696872 
646	 0.177811937346968 
647	 0.178036210787022 
648	 0.178278195219658 
649	 0.17857642270709 
650	 0.178908210132302 
651	 0.179184256947238 
652	 0.179408128686761 
653	 0.179666617669257 
654	 0.179998571936756 
655	 0.18032723684657 
656	 0.18061533093825 
657	 0.180988836298773 
658	 0.181314454430051 
659	 0.181602041524884 
660	 0.181921299918116 
661	 0.182231885169076 
662	 0.182553908041788 
663	 0.182901168469507 
664	 0.18327180427293 
665	 0.183655234557603 
666	 0.184020183504717 
667	 0.184359759943912 
668	 0.184790408454452 
669	 0.185162224575643 
670	 0.185501072861468 
671	 0.185971014642684 
672	 0.186427007681882 
673	 0.186850482746787 
674	 0.187252586768115 
675	 0.187649386198867 
676	 0.188141377637647 
677	 0.188643976277964 
678	 0.189028901162602 
679	 0.189491461276265 
680	 0.189992575205847 
681	 0.190504128173969 
682	 0.19103939802279 
683	 0.191550848716443 
684	 0.192055770886593 
685	 0.19257333009915 
686	 0.193046462930729 
687	 0.193628257008957 
688	 0.194262779617684 
689	 0.19476115799256 
690	 0.195282251166031 
691	 0.195845309099699 
692	 0.196435224527773 
693	 0.197010578505946 
694	 0.197601783068126 
695	 0.198200510445448 
696	 0.198791676007263 
697	 0.199401982048004 
698	 0.19998554394565 
699	 0.200559147361905 
700	 0.201206696883918 
701	 0.201874711388791 
702	 0.202518437268304 
703	 0.203117967047653 
704	 0.203706002191101 
705	 0.204353563915581 
706	 0.205023714845573 
707	 0.20563434997296 
708	 0.206268478854181 
709	 0.206895300362546 
710	 0.20751398328941 
711	 0.20818613885639 
712	 0.208771639058282 
713	 0.20936656481816 
714	 0.210059757376655 
715	 0.210638604135087 
716	 0.211223083250417 
717	 0.211824465829417 
718	 0.212377155085934 
719	 0.212972229575943 
720	 0.213544740413596 
721	 0.214060427758726 
722	 0.214587387604431 
723	 0.215132431185772 
724	 0.215661383511627 
725	 0.216140516661881 
726	 0.216619405633997 
727	 0.217091618267518 
728	 0.217524677840089 
729	 0.217872583210766 
730	 0.21830452275324 
731	 0.218731591977871 
732	 0.219076922942985 
733	 0.219409538052079 
734	 0.219731840496159 
735	 0.220019785630268 
736	 0.220246413894584 
737	 0.220449742932232 
738	 0.220642709701446 
739	 0.220838221766589 
740	 0.221047934904116 
741	 0.221176258609326 
742	 0.221262974146077 
743	 0.221348647153985 
744	 0.221386400294907 
745	 0.221423202708203 
746	 0.221457229693771 
747	 0.221465018027448 
748	 0.221466697807068 
749	 0.221361490646194 
750	 0.221176841123477 
751	 0.221099898836303 
752	 0.220966193930443 
753	 0.220790057496002 
754	 0.220609892999823 
755	 0.220409733841497 
756	 0.220199595829331 
757	 0.219981466576904 
758	 0.219754139011693 
759	 0.219527414285207 
760	 0.21926807847091 
761	 0.218960037197402 
762	 0.218613758415081 
763	 0.218341981260484 
764	 0.21802796474262 
765	 0.217594152049642 
766	 0.217239333562092 
767	 0.216889871428149 
768	 0.216540656910419 
769	 0.216202859035354 
770	 0.215765474588411 
771	 0.215334098964073 
772	 0.21494723866339 
773	 0.214542055511502 
774	 0.214170287532168 
775	 0.213765606255235 
776	 0.213292610210122 
777	 0.212869180280064 
778	 0.212433445699198 
779	 0.212010816923767 
780	 0.211641307082007 
781	 0.211209116801506 
782	 0.210731554542857 
783	 0.21026103232794 
784	 0.209868655165895 
785	 0.20946461013068 
786	 0.209022406082915 
787	 0.208561931284447 
788	 0.208185506814389 
789	 0.207760993347348 
790	 0.207299707141765 
791	 0.206862753559403 
792	 0.206452601487221 
793	 0.20607981786006 
794	 0.205723547090861 
795	 0.205337883973024 
796	 0.204897511519485 
797	 0.20446795776721 
798	 0.204077696544731 
799	 0.203658777370016 
800	 0.203292082214747 
801	 0.202946144519298 
802	 0.202571793221117 
803	 0.202191564306211 
804	 0.201847248454261 
805	 0.201530729630361 
806	 0.20120311903877 
807	 0.200869638974126 
808	 0.200487601400865 
809	 0.200080479962656 
810	 0.199757036390954 
811	 0.199488437792273 
812	 0.199175671659165 
813	 0.198790671683741 
814	 0.198544028615018 
815	 0.198260921685815 
816	 0.1979452695673 
817	 0.197665390562773 
818	 0.197408574344485 
819	 0.197136482929281 
820	 0.19686089466944 
821	 0.19663099850175 
822	 0.196392089446656 
823	 0.196142277861403 
824	 0.195888573742645 
825	 0.195639157315241 
826	 0.19536309801541 
827	 0.195128737576663 
828	 0.194980401181321 
829	 0.194804329498509 
830	 0.194621023668259 
831	 0.194446625449864 
832	 0.194287359605522 
833	 0.194105370265467 
834	 0.193845337212857 
835	 0.193575791005545 
836	 0.193462538752606 
837	 0.193380281906753 
838	 0.193254637181236 
839	 0.193064258549974 
840	 0.19285869888126 
841	 0.192785110414317 
842	 0.192740015453985 
843	 0.192610113033806 
844	 0.192499701627539 
845	 0.192347312510842 
846	 0.192203806446412 
847	 0.192149873275495 
848	 0.192130632001388 
849	 0.1920392969692 
850	 0.191883567413315 
851	 0.191770210299017 
852	 0.191718969229892 
853	 0.191700261983285 
854	 0.191686260020569 
855	 0.191667108234576 
856	 0.19163405422077 
857	 0.191590285542793 
858	 0.191547883298518 
859	 0.191529817798215 
860	 0.191535906850433 
861	 0.191545588646684 
862	 0.19153948550911 
863	 0.19153975752522 
864	 0.191537803951356 
865	 0.191574933955146 
866	 0.191689577311132 
867	 0.191686853744052 
868	 0.191664874417666 
869	 0.191677119351708 
870	 0.191703158174955 
871	 0.191765235996748 
872	 0.191847479995873 
873	 0.191937621189815 
874	 0.192040186198193 
875	 0.192131153507497 
876	 0.192194794270273 
877	 0.192243265373992 
878	 0.192347647748111 
879	 0.19250270540352 
880	 0.192637620226211 
881	 0.192708445013836 
882	 0.192881264331565 
883	 0.193063286450412 
884	 0.193195494994957 
885	 0.193266792373664 
886	 0.193390776914384 
887	 0.193557626702751 
888	 0.193750687399033 
889	 0.193960693424104 
890	 0.194250199641444 
891	 0.194443430967065 
892	 0.194528949088711 
893	 0.194725841272226 
894	 0.194989744485705 
895	 0.195185703861728 
896	 0.195303506615222 
897	 0.19558485801593 
898	 0.195860435153948 
899	 0.196136231042723 
900	 0.196428705047051 
901	 0.196658435516291 
902	 0.196890810515799 
903	 0.197135932983295 
904	 0.197395669007461 
905	 0.197719501383641 
906	 0.198045884319551 
907	 0.198360262531281 
908	 0.198673550350623 
909	 0.198992760668442 
910	 0.199245974934781 
911	 0.199507027340934 
912	 0.199905908026581 
913	 0.200253140795403 
914	 0.200630609289791 
915	 0.201024726691422 
916	 0.201344256554621 
917	 0.201793067754568 
918	 0.202193128830633 
919	 0.202514024825014 
920	 0.202937585432121 
921	 0.203381427894251 
922	 0.203846569636476 
923	 0.204317002445839 
924	 0.204740608708534 
925	 0.205150606404341 
926	 0.205618219014104 
927	 0.206127785152452 
928	 0.206498913216944 
929	 0.20695662579458 
930	 0.207476901001143 
931	 0.208007212994691 
932	 0.208588362107878 
933	 0.209195100424661 
934	 0.209718921977864 
935	 0.210143376424552 
936	 0.210774025710868 
937	 0.211368372143957 
938	 0.211909399394604 
939	 0.212445806036274 
940	 0.212961399806138 
941	 0.21361423681324 
942	 0.214290726417963 
943	 0.214852056022367 
944	 0.215524241493266 
945	 0.216191549914163 
946	 0.216808699664496 
947	 0.2173873666413 
948	 0.218001670927003 
949	 0.218713523332465 
950	 0.219445483019085 
951	 0.220098448357595 
952	 0.220835926606216 
953	 0.221642293843523 
954	 0.222419238637827 
955	 0.223078711272058 
956	 0.223817739110066 
957	 0.224561158757288 
958	 0.22525804338633 
959	 0.225932195786088 
960	 0.226872222041412 
961	 0.227685163886307 
962	 0.228415856786406 
963	 0.229332227542707 
964	 0.230030082706949 
965	 0.230882236154746 
966	 0.231840337757194 
967	 0.23261996408468 
968	 0.233559366679253 
969	 0.234404738613354 
970	 0.235166408955566 
971	 0.236015705694823 
972	 0.236757889270702 
973	 0.237626292632029 
974	 0.238593170388595 
975	 0.239468108585132 
976	 0.240334848650676 
977	 0.241235534729999 
978	 0.242168133500735 
979	 0.243111099685817 
980	 0.244138575376448 
981	 0.245008540004676 
982	 0.245808387814451 
983	 0.24678176426237 
984	 0.2477639708586 
985	 0.248750165695757 
986	 0.249705583982402 
987	 0.250616611364191 
988	 0.25165101829264 
989	 0.252644866809158 
990	 0.253582587235662 
991	 0.254529048903879 
992	 0.25547976662146 
993	 0.256339050520126 
994	 0.257197688365974 
995	 0.258187608199568 
996	 0.259248417176429 
997	 0.260284557373294 
998	 0.26119437005798 
999	 0.262002294934351 
1000	 0.263106856300593 
1001	 0.266484291547613 
1002	 0.267398244444948 
1003	 0.268340226263389 
1004	 0.269260568114002 
1005	 0.270169965966409 
1006	 0.271062891026918 
1007	 0.271940715278744 
1008	 0.272807183525827 
1009	 0.273676232835985 
1010	 0.274544545055904 
1011	 0.2754308197438 
1012	 0.276288690557911 
1013	 0.277142174380909 
1014	 0.277985313490752 
1015	 0.278765949619787 
1016	 0.279590564061376 
1017	 0.280436161037827 
1018	 0.281276771973714 
1019	 0.282124232217413 
1020	 0.283039419123186 
1021	 0.283866504591949 
1022	 0.284649176970958 
1023	 0.285394297208188 
1024	 0.286077287360045 
1025	 0.286839753591259 
1026	 0.287626503388951 
1027	 0.288427010756134 
1028	 0.289283404463081 
1029	 0.290070204686955 
1030	 0.290820206852741 
1031	 0.291575428798038 
1032	 0.292320906639835 
1033	 0.29301099165463 
1034	 0.293711036615748 
1035	 0.294446733497786 
1036	 0.295198707628176 
1037	 0.295949267653035 
1038	 0.296737945191399 
1039	 0.297548221759167 
1040	 0.298287933415614 
1041	 0.298981088226998 
1042	 0.299692526427869 
1043	 0.300419496579141 
1044	 0.301133992798874 
1045	 0.301836572265482 
1046	 0.302584850388594 
1047	 0.303346493391919 
1048	 0.304069246066284 
1049	 0.304782072990001 
1050	 0.305478423750522 
1051	 0.306160560082206 
1052	 0.306791958926979 
1053	 0.307424065922125 
1054	 0.308124221529828 
1055	 0.308789763150521 
1056	 0.309436376436804 
1057	 0.310069919304697 
1058	 0.310662057884834 
1059	 0.311284718429087 
1060	 0.31191214797245 
1061	 0.312533420344962 
1062	 0.313159376649576 
1063	 0.313821440730395 
1064	 0.31442525785467 
1065	 0.314990413126857 
1066	 0.315580400577214 
1067	 0.316140586918558 
1068	 0.316644102785696 
1069	 0.317146466445069 
1070	 0.317667922179357 
1071	 0.318170958493957 
1072	 0.318689346643695 
1073	 0.319237278270743 
1074	 0.319768929976535 
1075	 0.320295215782166 
1076	 0.320800515863234 
1077	 0.321294182003985 
1078	 0.321817891765957 
1079	 0.322343422849765 
1080	 0.322860159451609 
1081	 0.323407405740332 
1082	 0.323901682758946 
1083	 0.324416417892563 
1084	 0.324939052183403 
1085	 0.325457092627722 
1086	 0.325961123749174 
1087	 0.326484261281182 
1088	 0.327028251437629 
1089	 0.327529060928642 
1090	 0.328005318716873 
1091	 0.32851956018562 
1092	 0.329044558563979 
1093	 0.329547964321476 
1094	 0.330092029851356 
1095	 0.330657323154638 
1096	 0.33118219321096 
1097	 0.331688550350763 
1098	 0.332216466215059 
1099	 0.332744023818176 
1100	 0.333280894863934 
1101	 0.333820306919794 
1102	 0.334389400761014 
1103	 0.334987721993846 
1104	 0.335550627550526 
1105	 0.336148508392926 
1106	 0.336764222144618 
1107	 0.337348695200021 
1108	 0.337966180969767 
1109	 0.33857775491027 
1110	 0.339143960160504 
1111	 0.339723639011683 
1112	 0.340269297781286 
1113	 0.340874446244335 
1114	 0.341518273547507 
1115	 0.342145151615418 
1116	 0.34279460881899 
1117	 0.343431562815405 
1118	 0.344051975059791 
1119	 0.344671141602887 
1120	 0.345330928022668 
1121	 0.346002141748869 
1122	 0.346622020367707 
1123	 0.347251130928656 
1124	 0.347877826411178 
1125	 0.348464371378036 
1126	 0.349105011710736 
1127	 0.349786238861463 
1128	 0.3504398199085 
1129	 0.351103443589893 
1130	 0.351746214869594 
1131	 0.352375401535965 
1132	 0.35301076901675 
1133	 0.353644522263155 
1134	 0.354273139275792 
1135	 0.354910028286479 
1136	 0.355508591866816 
1137	 0.356129778544143 
1138	 0.356743549577343 
1139	 0.357344853515638 
1140	 0.357940400009244 
1141	 0.358542628642281 
1142	 0.359132678931402 
1143	 0.359727263638826 
1144	 0.360350374954281 
1145	 0.360937627263191 
1146	 0.36148347242101 
1147	 0.362058940851108 
1148	 0.362652703752531 
1149	 0.363214077167962 
1150	 0.363758503626833 
1151	 0.364329950149232 
1152	 0.364876849504339 
1153	 0.365395019612426 
1154	 0.365944054187112 
1155	 0.366522702309861 
1156	 0.367067012455595 
1157	 0.36761118773891 
1158	 0.368139738902642 
1159	 0.36865432174909 
1160	 0.369156806749717 
1161	 0.369648745358222 
1162	 0.370130637687338 
1163	 0.370588763826231 
1164	 0.37105580229016 
1165	 0.371532075067441 
1166	 0.371993706239871 
1167	 0.372419622852738 
1168	 0.372878257056557 
1169	 0.373293578761126 
1170	 0.373673949158632 
1171	 0.374065591599137 
1172	 0.374450042773935 
1173	 0.374829810832548 
1174	 0.375186960609138 
1175	 0.375582383410561 
1176	 0.376006145310596 
1177	 0.376401060073353 
1178	 0.376828042713264 
1179	 0.377209387482398 
1180	 0.377530336758194 
1181	 0.377877783811363 
1182	 0.378234431648254 
1183	 0.378562141475429 
1184	 0.37890917444423 
1185	 0.379286727411763 
1186	 0.379605762989205 
1187	 0.379891403547903 
1188	 0.38020069419083 
1189	 0.380477284827848 
1190	 0.38078802982379 
1191	 0.381150594703498 
1192	 0.381463293171024 
1193	 0.38176944358035 
1194	 0.382056741149527 
1195	 0.382299943729819 
1196	 0.382565579131188 
1197	 0.382833300142213 
1198	 0.383096861701507 
1199	 0.383361617485135 
1200	 0.383639921865031 
1201	 0.383893382892397 
1202	 0.384140772580618 
1203	 0.384370786743858 
1204	 0.384571442547139 
1205	 0.384801417688732 
1206	 0.385032504446466 
1207	 0.385262157512553 
1208	 0.385515935911472 
1209	 0.385746623142512 
1210	 0.385961490102817 
1211	 0.386173388038088 
1212	 0.386365204652138 
1213	 0.386576529177985 
1214	 0.386797097552025 
1215	 0.387010759077586 
1216	 0.387226668842281 
1217	 0.38746125800286 
1218	 0.387668018549195 
1219	 0.387856675917858 
1220	 0.388051532538216 
1221	 0.38824281954912 
1222	 0.388429652388994 
1223	 0.388618229397323 
1224	 0.388794495427632 
1225	 0.388947927659341 
1226	 0.389124068564776 
1227	 0.389317045607674 
1228	 0.38948925049654 
1229	 0.389659805112459 
1230	 0.38983304416858 
1231	 0.389990692903234 
1232	 0.390149808388794 
1233	 0.390311761349297 
1234	 0.390491590447916 
1235	 0.390646023002225 
1236	 0.390783818332589 
1237	 0.390929438504456 
1238	 0.3910776203931 
1239	 0.391210177856337 
1240	 0.391332492563979 
1241	 0.391460592039939 
1242	 0.391568750917889 
1243	 0.391700634435183 
1244	 0.391856457839043 
1245	 0.391998617799666 
1246	 0.392144503226763 
1247	 0.392287556906265 
1248	 0.392414791367411 
1249	 0.392559045752776 
1250	 0.392723337615208 
1251	 0.392858245266055 
1252	 0.392992176559319 
1253	 0.393125657202729 
1254	 0.393248592093087 
1255	 0.393351798361321 
1256	 0.393467490570021 
1257	 0.393588841397834 
1258	 0.393699200152868 
1259	 0.39380485503583 
1260	 0.39391112240455 
1261	 0.394006838158507 
1262	 0.394109533762266 
1263	 0.394219446963315 
1264	 0.39432582739162 
1265	 0.394425016619994 
1266	 0.394536590854015 
1267	 0.394657477427431 
1268	 0.394768388177773 
1269	 0.394897106392213 
1270	 0.395041290995857 
1271	 0.39517857262682 
1272	 0.395309789925359 
1273	 0.395469361941515 
1274	 0.395642404706913 
1275	 0.395818741529358 
1276	 0.39602528012564 
1277	 0.396208069757846 
1278	 0.396397443267768 
1279	 0.396552630928589 
1280	 0.396684197111969 
1281	 0.396813843848491 
1282	 0.396923989222193 
1283	 0.39702651470692 
1284	 0.397125186738244 
1285	 0.397218741717853 
1286	 0.397296655329335 
1287	 0.397334155382529 
1288	 0.397356974481129 
1289	 0.397354111336642 
1290	 0.3973551626999 
1291	 0.397328138166545 
1292	 0.397313859490157 
1293	 0.39732072756307 
1294	 0.397285041710177 
1295	 0.39723526112917 
1296	 0.397166445698939 
1297	 0.397059995955059 
1298	 0.3969634522133 
1299	 0.396845348868092 
1300	 0.396747838721618 
1301	 0.396657822211884 
1302	 0.396564663299515 
1303	 0.396470165703967 
1304	 0.396399256262708 
1305	 0.396323736318249 
1306	 0.396242801549912 
1307	 0.396152412097243 
1308	 0.396068970514016 
1309	 0.395992028099159 
1310	 0.395911184858292 
1311	 0.395835913159339 
1312	 0.395776181939269 
1313	 0.395704876948453 
1314	 0.395609976886391 
1315	 0.395555967285602 
1316	 0.39552213057839 
1317	 0.39549066493159 
1318	 0.39547869120205 
1319	 0.395467182481151 
1320	 0.39544928094107 
1321	 0.395451993793787 
1322	 0.395468992324351 
1323	 0.395499151674829 
1324	 0.395532234145827 
1325	 0.395576504324975 
1326	 0.395630791454222 
1327	 0.395692388854673 
1328	 0.395761530618599 
1329	 0.395866407695324 
1330	 0.395974116008414 
1331	 0.396099841672643 
1332	 0.396216347736381 
1333	 0.396341206351572 
1334	 0.396458487724911 
1335	 0.396568779155054 
1336	 0.396688017726415 
1337	 0.396813768150853 
1338	 0.396939968692887 
1339	 0.397049765983269 
1340	 0.397189771652786 
1341	 0.397369136257228 
1342	 0.397513865360174 
1343	 0.39765664192783 
1344	 0.397802535962597 
1345	 0.397920980222503 
1346	 0.398029297910886 
1347	 0.39816755875431 
1348	 0.398303150475215 
1349	 0.398431209573777 
1350	 0.398569111397062 
1351	 0.398706104087823 
1352	 0.398845075039658 
1353	 0.398981162736112 
1354	 0.399118772006888 
1355	 0.399251818019378 
1356	 0.399378636888887 
1357	 0.399510252184621 
1358	 0.399657572517737 
1359	 0.399780126019775 
1360	 0.399891864286348 
1361	 0.399996421528235 
1362	 0.400069701094875 
1363	 0.400167740103519 
1364	 0.400273995323461 
1365	 0.40038445059319 
1366	 0.400515322643512 
1367	 0.400628920070151 
1368	 0.400742490620513 
1369	 0.400851638295598 
1370	 0.400939509252947 
1371	 0.40103503526824 
1372	 0.401130017662192 
1373	 0.401209050266761 
1374	 0.401283823506406 
1375	 0.401355489024503 
1376	 0.401421243051723 
1377	 0.401473014301707 
1378	 0.401534213857432 
1379	 0.401609289870812 
1380	 0.401658110480169 
1381	 0.401699970464655 
1382	 0.40172836496079 
1383	 0.401738027933037 
1384	 0.401741776706164 
1385	 0.401745038066567 
1386	 0.401725434824386 
1387	 0.401700812201562 
1388	 0.401644586432853 
1389	 0.401567077510917 
1390	 0.40146592915852 
1391	 0.401340143827342 
1392	 0.401176711293026 
1393	 0.401007006472937 
1394	 0.400842423975354 
1395	 0.400632019194256 
1396	 0.400418649570876 
1397	 0.400211303155012 
1398	 0.399988675730723 
1399	 0.399759252439175 
1400	 0.399537709230658 
1401	 0.399309514589549 
1402	 0.399051899014845 
1403	 0.398826392082529 
1404	 0.398619335979707 
1405	 0.398411828671973 
1406	 0.398201617518301 
1407	 0.398015127899505 
1408	 0.397829953720689 
1409	 0.397678371110445 
1410	 0.397536731268408 
1411	 0.397443501440909 
1412	 0.397389457244553 
1413	 0.397357608044934 
1414	 0.397351190532651 
1415	 0.397379102481397 
1416	 0.397412234464002 
1417	 0.397463140008711 
1418	 0.397554994353501 
1419	 0.39763445287432 
1420	 0.397705223185172 
1421	 0.397774615223619 
1422	 0.397829198071898 
1423	 0.397881826606167 
1424	 0.397921375865688 
1425	 0.397964740408262 
1426	 0.397981495997414 
1427	 0.397962172980251 
1428	 0.397970080853264 
1429	 0.397978488020268 
1430	 0.397978667584403 
1431	 0.397993064618348 
1432	 0.397992229260387 
1433	 0.397966476432392 
1434	 0.397952639515593 
1435	 0.397938995939445 
1436	 0.397931385054725 
1437	 0.397930310323645 
1438	 0.397930844581458 
1439	 0.397939434425307 
1440	 0.397941375300118 
1441	 0.397937634651114 
1442	 0.397939294470126 
1443	 0.397939104198013 
1444	 0.397936627683662 
1445	 0.39794086440252 
1446	 0.397932629687392 
1447	 0.397936585109151 
1448	 0.397938338691618 
1449	 0.397933747815997 
1450	 0.397936320471438 
1451	 0.39792561793206 
1452	 0.397905197085326 
1453	 0.397888283384215 
1454	 0.397861283717448 
1455	 0.397846816174441 
1456	 0.397835315309893 
1457	 0.397828498163536 
1458	 0.397834291741644 
1459	 0.397828641433137 
1460	 0.397817579811382 
1461	 0.397814237656022 
1462	 0.397805861385985 
1463	 0.397807320171129 
1464	 0.397822720535994 
1465	 0.397833618438344 
1466	 0.397832010649286 
1467	 0.397853024871584 
1468	 0.397884089503874 
1469	 0.39792243999764 
1470	 0.397972058502316 
1471	 0.398041842624113 
1472	 0.398116474629342 
1473	 0.398178609182924 
1474	 0.398230358356352 
1475	 0.398282129200354 
1476	 0.398317076649027 
1477	 0.398352282139742 
1478	 0.398416496746779 
1479	 0.398478771358584 
1480	 0.398540250049457 
1481	 0.398624087899683 
1482	 0.398702714783673 
1483	 0.398779729948054 
1484	 0.398858961428201 
1485	 0.398951002970913 
1486	 0.399026956637628 
1487	 0.399089698620253 
1488	 0.399161900552671 
1489	 0.39923251836947 
1490	 0.399308280396144 
1491	 0.399397852503481 
1492	 0.399467431529099 
1493	 0.399522929762662 
1494	 0.399586934668135 
1495	 0.399648248254816 
1496	 0.399707350763652 
1497	 0.399774372053623 
1498	 0.39983555183449 
1499	 0.399873854707445 
1500	 0.399933503057821 
1501	 0.400003943682405 
1502	 0.400078695544055 
1503	 0.400167788658556 
1504	 0.400256713006852 
1505	 0.400329335224968 
1506	 0.400399466425179 
1507	 0.400471134114991 
1508	 0.400529524865094 
1509	 0.400596228192834 
1510	 0.400676288008817 
1511	 0.400730377994456 
1512	 0.400787682842702 
1513	 0.40084647009605 
1514	 0.40089937526822 
1515	 0.400947256572963 
1516	 0.400992987728518 
1517	 0.401046953139863 
1518	 0.401097716536826 
1519	 0.401152634251844 
1520	 0.401218702934054 
1521	 0.401278998693915 
1522	 0.401337710467271 
1523	 0.401393295012093 
1524	 0.401449863879434 
1525	 0.401503151232332 
1526	 0.401541061181093 
1527	 0.401601351541324 
1528	 0.401682727166849 
1529	 0.401740015321194 
1530	 0.40179587734979 
1531	 0.401850843989842 
1532	 0.401893767936986 
1533	 0.401934994734456 
1534	 0.401987507549683 
1535	 0.402023148542869 
1536	 0.402028303208959 
1537	 0.402053857528286 
1538	 0.402079465754882 
1539	 0.402117052015176 
1540	 0.40217291237232 
1541	 0.402223106924614 
1542	 0.40228864236336 
1543	 0.402329037679007 
1544	 0.402355519835775 
1545	 0.402382159351961 
1546	 0.402388196016059 
1547	 0.402403574133755 
1548	 0.402439542074259 
1549	 0.402464279573279 
1550	 0.402489695482324 
1551	 0.402527094434415 
1552	 0.402570741393807 
1553	 0.402626029969081 
1554	 0.402696067699673 
1555	 0.402761114987385 
1556	 0.40281289033927 
1557	 0.402847129353912 
1558	 0.402868036286051 
1559	 0.402895953492235 
1560	 0.402941726192928 
1561	 0.403001955867129 
1562	 0.403048019446956 
1563	 0.403106992160037 
1564	 0.403149323615932 
1565	 0.403170463161428 
1566	 0.403206569554799 
1567	 0.40324583387439 
1568	 0.403286808969823 
1569	 0.403330281526995 
1570	 0.403374243998746 
1571	 0.403421494326299 
1572	 0.403467557521761 
1573	 0.403516623807577 
1574	 0.403556637440254 
1575	 0.403590646023051 
1576	 0.403630417744284 
1577	 0.403675640199105 
1578	 0.403703824144848 
1579	 0.403733908536713 
1580	 0.403747512471229 
1581	 0.403723738518117 
1582	 0.403732751691463 
1583	 0.403749658898889 
1584	 0.403769974535382 
1585	 0.403807475582583 
1586	 0.4038404884856 
1587	 0.403861825130292 
1588	 0.403904956601873 
1589	 0.403968223384399 
1590	 0.404026177044226 
1591	 0.404102092943561 
1592	 0.404162019990299 
1593	 0.404213773279876 
1594	 0.404257116042163 
1595	 0.404287819923191 
1596	 0.404322514558799 
1597	 0.404357183171351 
1598	 0.404381657265155 
1599	 0.404385254923222 
1600	 0.404415059518274 
1601	 0.404473044852997 
1602	 0.404498807230491 
1603	 0.404516083718564 
1604	 0.404543677110001 
1605	 0.404533027439596 
1606	 0.404550353873004 
1607	 0.404603001797105 
1608	 0.404659653237886 
1609	 0.404695964296842 
1610	 0.40474135934526 
1611	 0.404778627643264 
1612	 0.40480994306581 
1613	 0.404833340086183 
1614	 0.40484957239958 
1615	 0.404865500495517 
1616	 0.40488899998425 
1617	 0.40490657025064 
1618	 0.404919054225864 
1619	 0.40493453165701 
1620	 0.404946904087007 
1621	 0.404974139604967 
1622	 0.40501519665222 
1623	 0.405059531012685 
1624	 0.405113357855313 
1625	 0.405153059663072 
1626	 0.405198099205328 
1627	 0.405232512801767 
1628	 0.405250713205503 
1629	 0.405282482864309 
1630	 0.405320997570453 
1631	 0.405348394462843 
1632	 0.4053718345924 
1633	 0.405399929269011 
1634	 0.405421243054027 
1635	 0.405452690866422 
1636	 0.40549701417538 
1637	 0.405526161053827 
1638	 0.40555343051512 
1639	 0.405576110749766 
1640	 0.405587552651905 
1641	 0.405607676506202 
1642	 0.405619114071651 
1643	 0.405658769779816 
1644	 0.405722531783367 
1645	 0.405761709355198 
1646	 0.405812073606577 
1647	 0.405846609045518 
1648	 0.405847999548038 
1649	 0.405882031491005 
1650	 0.405938514201938 
1651	 0.405972475377633 
1652	 0.406009156502943 
1653	 0.406035643515115 
1654	 0.406037827207396 
1655	 0.406063908084788 
1656	 0.406100585292482 
1657	 0.406132208397626 
1658	 0.406166224918331 
1659	 0.406208274761229 
1660	 0.406259979145686 
1661	 0.406293898623535 
1662	 0.406329683120277 
1663	 0.406358922536484 
1664	 0.406369582557787 
1665	 0.406386381688696 
1666	 0.406405881437247 
1667	 0.406427561040483 
1668	 0.406442101710117 
1669	 0.406466306511229 
1670	 0.406498248596098 
1671	 0.4065346419744 
1672	 0.406572063095158 
1673	 0.406617659107773 
1674	 0.406684184674558 
1675	 0.406727097937569 
1676	 0.406764070039038 
1677	 0.406797920052618 
1678	 0.406813685519471 
1679	 0.40684096149825 
1680	 0.406874463107951 
1681	 0.406905423151589 
1682	 0.406943030186228 
1683	 0.406964150791053 
1684	 0.406976836379665 
1685	 0.406989667224015 
1686	 0.406981607261015 
1687	 0.407000669634603 
1688	 0.407038566403266 
1689	 0.407063799248771 
1690	 0.407093792824597 
1691	 0.407125297863406 
1692	 0.407136264651207 
1693	 0.407184764361861 
1694	 0.407262876798287 
1695	 0.407328884551454 
1696	 0.407416767475027 
1697	 0.407483252847896 
1698	 0.407541016381046 
1699	 0.407587806559924 
1700	 0.407625346957175 
1701	 0.407655367963383 
1702	 0.407675732091082 
1703	 0.407684226790833 
1704	 0.407667323029539 
1705	 0.407681217507499 
1706	 0.407695616881544 
1707	 0.40771850194192 
1708	 0.40776228756816 
1709	 0.407807700120095 
1710	 0.407851060538562 
1711	 0.407901775481035 
1712	 0.407977209098397 
1713	 0.408032633362919 
1714	 0.408083972507746 
1715	 0.408121553113384 
1716	 0.408151084634521 
1717	 0.408165987955108 
1718	 0.408152514032156 
1719	 0.408164806746936 
1720	 0.408180744552267 
1721	 0.408197829688055 
1722	 0.40822728060723 
1723	 0.40825124931461 
1724	 0.408280584676504 
1725	 0.408283979207108 
1726	 0.408290265667535 
1727	 0.408263719725192 
1728	 0.408190257868504 
1729	 0.408146310557734 
1730	 0.408092589626054 
1731	 0.408063001581811 
1732	 0.408053524091714 
1733	 0.408037533387169 
1734	 0.40803245859258 
1735	 0.408016081638892 
1736	 0.407993786296832 
1737	 0.407972634646437 
1738	 0.407952021561191 
1739	 0.407923278231381 
1740	 0.407894031513707 
1741	 0.407862961742564 
1742	 0.40782047841681 
1743	 0.407785488947677 
1744	 0.407744754996843 
1745	 0.407730408917817 
1746	 0.407728833101119 
1747	 0.407728642856637 
1748	 0.407737902075861 
1749	 0.407726657511881 
1750	 0.407737664853156 
1751	 0.407723319623628 
1752	 0.407706089928091 
1753	 0.407715516041655 
1754	 0.407694181113272 
1755	 0.407696745202078 
1756	 0.407717478019647 
1757	 0.407701025854046 
1758	 0.407674788415865 
1759	 0.407664192535935 
1760	 0.407645659558728 
1761	 0.407624454630985 
1762	 0.40763276875199 
1763	 0.407602166011835 
1764	 0.407567680590452 
1765	 0.407567770495704 
1766	 0.407536961142809 
1767	 0.407550005293195 
1768	 0.407583792189472 
1769	 0.407571144679953 
1770	 0.4076051010009 
1771	 0.407654242174625 
1772	 0.407651947902565 
1773	 0.407660144877003 
1774	 0.407643419625566 
1775	 0.407587026723887 
1776	 0.407581728739759 
1777	 0.407607423784167 
1778	 0.407651228721797 
1779	 0.407767149029765 
1780	 0.407865825589296 
1781	 0.407912746818195 
1782	 0.407964115393663 
1783	 0.407886138743576 
1784	 0.407860310524582 
1785	 0.407853723549956 
1786	 0.407827151086281 
1787	 0.407801779859305 
1788	 0.407795418118831 
1789	 0.407759761027957 
1790	 0.407772743634655 
1791	 0.407843861408222 
1792	 0.407893555133493 
1793	 0.407960227983361 
1794	 0.408026178523513 
1795	 0.408078382626361 
1796	 0.408130815100755 
1797	 0.408199157611598 
1798	 0.408241790646326 
1799	 0.408282707395354 
1800	 0.408312366862534 
1801	 0.412526404812047 
1802	 0.412559520386996 
1803	 0.41255584690871 
1804	 0.412554051989227 
1805	 0.412541697333669 
1806	 0.412516467207641 
1807	 0.412507943850686 
1808	 0.412502482792799 
1809	 0.41246952614333 
1810	 0.412486657191587 
1811	 0.412530091933678 
1812	 0.412596711132058 
1813	 0.412669292160285 
1814	 0.412735558683023 
1815	 0.412771749601841 
1816	 0.412776245194932 
1817	 0.412793341302364 
1818	 0.412823166293836 
1819	 0.41281721968715 
1820	 0.41279244557105 
1821	 0.412764845249479 
1822	 0.412739194668079 
1823	 0.412684326783138 
1824	 0.412655553754977 
1825	 0.412671788726774 
1826	 0.412668528897907 
1827	 0.412623410552902 
1828	 0.412574715463292 
1829	 0.412499901565014 
1830	 0.412441946834455 
1831	 0.412361258623044 
1832	 0.412318575187941 
1833	 0.412306831746491 
1834	 0.412328956186072 
1835	 0.412358224497716 
1836	 0.41237291868133 
1837	 0.412393723839022 
1838	 0.412395302863136 
1839	 0.412407487560501 
1840	 0.41241887626671 
1841	 0.412447444068922 
1842	 0.412446006595827 
1843	 0.412455386959454 
1844	 0.412443045019303 
1845	 0.412430854641429 
1846	 0.412464416168354 
1847	 0.412469498934131 
1848	 0.412476442603728 
1849	 0.412495996590721 
1850	 0.41250355007087 
1851	 0.412500237981834 
1852	 0.412499679990088 
1853	 0.412487086461734 
1854	 0.41247184903316 
1855	 0.412442801011787 
1856	 0.412430145558821 
1857	 0.412449484764554 
1858	 0.412458259434097 
1859	 0.412464596830356 
1860	 0.41245838145997 
1861	 0.412446107719477 
1862	 0.412416687692931 
1863	 0.412378598999606 
1864	 0.412320540169583 
1865	 0.41225677700661 
1866	 0.412166052553056 
1867	 0.412052898927904 
1868	 0.411975960408495 
1869	 0.411924936174399 
1870	 0.411856781107552 
1871	 0.411763955658313 
1872	 0.411674758989318 
1873	 0.411548381520816 
1874	 0.411384130094898 
1875	 0.411220834801081 
1876	 0.411038845825599 
1877	 0.410849495477862 
1878	 0.410649066206442 
1879	 0.410406139037519 
1880	 0.410133535173778 
1881	 0.409847796026292 
1882	 0.409518487557169 
1883	 0.409145679755709 
1884	 0.408741821509319 
1885	 0.408315830103358 
1886	 0.40785490797291 
1887	 0.407374593187581 
1888	 0.406883405721729 
1889	 0.406361559452928 
1890	 0.405801256906398 
1891	 0.405223239237855 
1892	 0.404588054258826 
1893	 0.403972176765192 
1894	 0.403342585705077 
1895	 0.402722906562199 
1896	 0.402107091502614 
1897	 0.401506377156534 
1898	 0.400882610697877 
1899	 0.400297486759271 
1900	 0.399760791867112 
1901	 0.399253399244159 
1902	 0.398768956119274 
1903	 0.398343594232514 
1904	 0.397910172150489 
1905	 0.397481078665178 
1906	 0.397076510454679 
1907	 0.396685873718068 
1908	 0.396315650028624 
1909	 0.395974725503442 
1910	 0.395633142207228 
1911	 0.395324282159399 
1912	 0.395027287690563 
1913	 0.394734448196615 
1914	 0.394451942385545 
1915	 0.394176622763197 
1916	 0.393901869655588 
1917	 0.393645227543105 
1918	 0.393408763799319 
1919	 0.393162565928056 
1920	 0.392944125424852 
1921	 0.392778200567203 
1922	 0.392611233519211 
1923	 0.392461418124995 
1924	 0.392334806916367 
1925	 0.392218244729219 
1926	 0.392127310468713 
1927	 0.392061763367747 
1928	 0.392030618464037 
1929	 0.391989668241426 
1930	 0.391936820669677 
1931	 0.391868141707982 
1932	 0.391807467101641 
1933	 0.391771949664657 
1934	 0.391717377312586 
1935	 0.391683208983139 
1936	 0.391650112424751 
1937	 0.391645718541416 
1938	 0.391648663605156 
1939	 0.391695856396904 
1940	 0.391790788088489 
1941	 0.391875899341726 
1942	 0.391992478517338 
1943	 0.392107553349151 
1944	 0.392206605265613 
1945	 0.392326696029973 
1946	 0.392445169456176 
1947	 0.392560354151524 
1948	 0.392680223727981 
1949	 0.392797533507985 
1950	 0.392939369363133 
1951	 0.393087623687223 
1952	 0.393256054735899 
1953	 0.393443145026267 
1954	 0.393637436561085 
1955	 0.393833288867578 
1956	 0.394008726825302 
1957	 0.39417986663942 
1958	 0.394341753083714 
1959	 0.39450610695955 
1960	 0.394663272712948 
1961	 0.394821880619828 
1962	 0.394956589326549 
1963	 0.395132734360953 
1964	 0.395323319807708 
1965	 0.395525485801283 
1966	 0.395753616694493 
1967	 0.396005020503339 
1968	 0.396236969127444 
1969	 0.396462099542783 
1970	 0.396688216304082 
1971	 0.396923740921046 
1972	 0.397139413916764 
1973	 0.397340780878219 
1974	 0.397543957593797 
1975	 0.397739081329014 
1976	 0.397925640731166 
1977	 0.398131401510931 
1978	 0.398339496711051 
1979	 0.398540507720795 
1980	 0.398758624489642 
1981	 0.398976866764831 
1982	 0.399192084040667 
1983	 0.399420732538215 
1984	 0.399664071866415 
1985	 0.399903568903502 
1986	 0.400149290058789 
1987	 0.400391580422626 
1988	 0.400629505652285 
1989	 0.400875910988945 
1990	 0.401128935287317 
1991	 0.401382155022577 
1992	 0.401647813808785 
1993	 0.401923276133945 
1994	 0.402208481434161 
1995	 0.402516852768859 
1996	 0.402803024821441 
1997	 0.403093383502132 
1998	 0.403374630947367 
1999	 0.403644662368861 
2000	 0.40390366253675 
2001	 0.404156023321693 
2002	 0.40440348245543 
2003	 0.404648465104563 
2004	 0.404885962341653 
2005	 0.405131793169612 
2006	 0.405388934645025 
2007	 0.405642152407831 
2008	 0.405887409788377 
2009	 0.406146296377342 
2010	 0.406409018496461 
2011	 0.406681997152006 
2012	 0.406981952815144 
2013	 0.40725236127054 
2014	 0.407522485364626 
2015	 0.40777670540783 
2016	 0.408014856196335 
2017	 0.40826789836507 
2018	 0.408519785144383 
2019	 0.40877806555988 
2020	 0.409041881344879 
2021	 0.409309879743917 
2022	 0.409574398088391 
2023	 0.409850856302867 
2024	 0.41011680690987 
2025	 0.410383530904078 
2026	 0.410631822780706 
2027	 0.41087612799091 
2028	 0.411094145955286 
2029	 0.411329436571651 
2030	 0.411556891094016 
2031	 0.411779817290533 
2032	 0.412007782641952 
2033	 0.412236240620509 
2034	 0.412449328644944 
2035	 0.412670765523913 
2036	 0.412914764396116 
2037	 0.413138078016473 
2038	 0.413360635136217 
2039	 0.413561443267314 
2040	 0.413756757318703 
2041	 0.413912413016314 
2042	 0.41408340227686 
2043	 0.414257414585312 
2044	 0.414442208647788 
2045	 0.414655708732866 
2046	 0.414840120832509 
2047	 0.415022888446513 
2048	 0.415184411509074 
2049	 0.415322784091448 
2050	 0.415465612590225 
2051	 0.415580623762468 
2052	 0.415724437733043 
2053	 0.415877727531231 
2054	 0.416037826262522 
2055	 0.416220638510151 
2056	 0.416400985837915 
2057	 0.416570832202997 
2058	 0.416743508057151 
2059	 0.416903386098322 
2060	 0.417050670169561 
2061	 0.417198028576672 
2062	 0.417344709355055 
2063	 0.417479510787394 
2064	 0.417594497108727 
2065	 0.417726944555697 
2066	 0.417867449227344 
2067	 0.417994515954555 
2068	 0.418125189318754 
2069	 0.418252861481527 
2070	 0.418372797154038 
2071	 0.418470927437564 
2072	 0.418594046472173 
2073	 0.418726826562963 
2074	 0.418858247257706 
2075	 0.418991421942074 
2076	 0.419130719316157 
2077	 0.419278682570828 
2078	 0.419422030860056 
2079	 0.41955536345521 
2080	 0.419715499496422 
2081	 0.419889811502354 
2082	 0.420059730044575 
2083	 0.420250127552263 
2084	 0.420438921607666 
2085	 0.420617440477894 
2086	 0.420790698853725 
2087	 0.420950762051025 
2088	 0.421101533480935 
2089	 0.421252631788185 
2090	 0.421380261373032 
2091	 0.421530242047404 
2092	 0.421710912107648 
2093	 0.42185685314339 
2094	 0.421981728741621 
2095	 0.422120764758323 
2096	 0.422240700232171 
2097	 0.422374194273705 
2098	 0.422510808495362 
2099	 0.422680160724378 
2100	 0.422841785912141 
2101	 0.423003433952899 
2102	 0.423172266917124 
2103	 0.423350487982069 
2104	 0.423536403367105 
2105	 0.42373162470078 
2106	 0.423920495393344 
2107	 0.424109451129947 
2108	 0.424312293875637 
2109	 0.424523560614533 
2110	 0.424725803748054 
2111	 0.424945446068475 
2112	 0.425150520616144 
2113	 0.425335371060206 
2114	 0.425517374482793 
2115	 0.425717706134025 
2116	 0.425927687570754 
2117	 0.426133169314576 
2118	 0.426346658814647 
2119	 0.426556356295319 
2120	 0.426754206827251 
2121	 0.426972104908224 
2122	 0.427219443312248 
2123	 0.427430766815334 
2124	 0.427652085375365 
2125	 0.427835851312098 
2126	 0.427971970722008 
2127	 0.428118502257019 
2128	 0.428256705168069 
2129	 0.428385136796509 
2130	 0.428517907605276 
2131	 0.428635073586683 
2132	 0.428713155644831 
2133	 0.428773956093144 
2134	 0.428790981424873 
2135	 0.428761482872283 
2136	 0.428725340576082 
2137	 0.428645458533038 
2138	 0.428582330793138 
2139	 0.428502310407024 
2140	 0.428436707408302 
2141	 0.428386692405439 
2142	 0.428318418168126 
2143	 0.428263771897612 
2144	 0.428173690733509 
2145	 0.428075401164052 
2146	 0.427937280719628 
2147	 0.427748797086121 
2148	 0.42756072755746 
2149	 0.427363389431525 
2150	 0.427134112215663 
2151	 0.426922072912218 
2152	 0.426721921018377 
2153	 0.426502814590952 
2154	 0.426293076936357 
2155	 0.426033152665054 
2156	 0.425751799952329 
2157	 0.425445408234466 
2158	 0.425087979919261 
2159	 0.424737438427306 
2160	 0.424376671937492 
2161	 0.424005382575516 
2162	 0.423619727167109 
2163	 0.423229523963937 
2164	 0.422826826373468 
2165	 0.422420228862462 
2166	 0.422017891457584 
2167	 0.421611160503285 
2168	 0.421211150963241 
2169	 0.420817048828403 
2170	 0.420417301901285 
2171	 0.420009214393927 
2172	 0.419617917295244 
2173	 0.419248732111081 
2174	 0.418846693826228 
2175	 0.418428840339436 
2176	 0.418028284642174 
2177	 0.41762744317389 
2178	 0.417204140890393 
2179	 0.416785231691115 
2180	 0.416363673159959 
2181	 0.415894858876787 
2182	 0.415455503183088 
2183	 0.415046051711121 
2184	 0.414632229202021 
2185	 0.414222864960328 
2186	 0.41382318234346 
2187	 0.413415320789297 
2188	 0.413006641488371 
2189	 0.412595619953915 
2190	 0.412152286575231 
2191	 0.41177708019417 
2192	 0.411409181223 
2193	 0.411097283142909 
2194	 0.410869193357883 
2195	 0.410608245619251 
2196	 0.410354943519027 
2197	 0.410125977870365 
2198	 0.409921057232959 
2199	 0.409700032347021 
2200	 0.409477143486482 
2201	 0.409281369586685 
2202	 0.409068393552561 
2203	 0.408873150660198 
2204	 0.408753783250977 
2205	 0.408685367946074 
2206	 0.408662328385647 
2207	 0.408720568569736 
2208	 0.408740482185407 
2209	 0.408785106827373 
2210	 0.40884314461245 
2211	 0.408894490288671 
2212	 0.408965463142501 
2213	 0.409077917067733 
2214	 0.409173442168688 
2215	 0.409270408074828 
2216	 0.409360485526151 
2217	 0.409462306924405 
2218	 0.409543500701622 
2219	 0.409606756227647 
2220	 0.409664289468843 
2221	 0.409710998003258 
2222	 0.409751678599734 
2223	 0.409774075834005 
2224	 0.409812097045603 
2225	 0.40984521675264 
2226	 0.409878714392047 
2227	 0.409903142340971 
2228	 0.409938608042425 
2229	 0.409933472261659 
2230	 0.409911419833971 
2231	 0.409865488610943 
2232	 0.409764990042461 
2233	 0.409710174511495 
2234	 0.409674229348933 
2235	 0.409609631327394 
2236	 0.409548030839 
2237	 0.409483947997293 
2238	 0.409380046294028 
2239	 0.409300585567278 
2240	 0.409247900845979 
2241	 0.409190923124029 
2242	 0.409127181429584 
2243	 0.409076840538698 
2244	 0.409045228694808 
2245	 0.408998613470473 
2246	 0.408966917266923 
2247	 0.408926877240335 
2248	 0.408900428898557 
2249	 0.408860485691081 
2250	 0.408877686453147 
2251	 0.408935459085671 
2252	 0.408972160672935 
2253	 0.409045260154157 
2254	 0.409087923724866 
2255	 0.40909843779415 
2256	 0.409133639161866 
2257	 0.409179081466677 
2258	 0.409218071350883 
2259	 0.409253854278203 
2260	 0.409301456440269 
2261	 0.409328864563274 
2262	 0.409410606499509 
2263	 0.409559894476038 
2264	 0.409653924009497 
2265	 0.409746221022333 
2266	 0.409845080063709 
2267	 0.409892235018612 
2268	 0.409978324214248 
2269	 0.410102913884169 
2270	 0.410249158582556 
2271	 0.410344138741664 
2272	 0.410455186105715 
2273	 0.410560764475853 
2274	 0.410638275722576 
2275	 0.410733357969281 
2276	 0.410827228729854 
2277	 0.410938021265261 
2278	 0.411052071778701 
2279	 0.411184320780169 
2280	 0.411359250449408 
2281	 0.411488466691781 
2282	 0.411586367480363 
2283	 0.411723330576831 
2284	 0.41185423724403 
2285	 0.412000891249463 
2286	 0.412215020584002 
2287	 0.412354836940421 
2288	 0.412427315719007 
2289	 0.412554253713902 
2290	 0.412681222728961 
2291	 0.412815953152591 
2292	 0.412997623701868 
2293	 0.413143645172941 
2294	 0.413249629896609 
2295	 0.41337756297724 
2296	 0.413499773151646 
2297	 0.413655179629107 
2298	 0.413792747845409 
2299	 0.413937449570049 
2300	 0.414078373102213 
2301	 0.414214534300254 
2302	 0.414388958101656 
2303	 0.414545664539702 
2304	 0.414686808880271 
2305	 0.414867928480224 
2306	 0.414996690960626 
2307	 0.415093940000472 
2308	 0.415189511520188 
2309	 0.415275954364588 
2310	 0.415310456893295 
2311	 0.415286213202234 
2312	 0.415343718838639 
2313	 0.415389545091436 
2314	 0.415466515167298 
2315	 0.415652435872832 
2316	 0.415737486197101 
2317	 0.415748907168574 
2318	 0.415798600541291 
2319	 0.415821040917859 
2320	 0.41587447440402 
2321	 0.415954565206428 
2322	 0.416042087955515 
2323	 0.416128262151179 
2324	 0.416247387836554 
2325	 0.416398888141302 
2326	 0.416560419967097 
2327	 0.41676573404774 
2328	 0.416945496732825 
2329	 0.417094820952475 
2330	 0.417271142470997 
2331	 0.417460980908342 
2332	 0.417602933114925 
2333	 0.417753871112718 
2334	 0.417877420538291 
2335	 0.41793974501889 
2336	 0.418070486344043 
2337	 0.418235420117149 
2338	 0.418351114010505 
2339	 0.418485000861228 
2340	 0.418585689824057 
2341	 0.418651524287939 
2342	 0.418778820992422 
2343	 0.418899166056982 
2344	 0.418971707298355 
2345	 0.419007130504494 
2346	 0.418998733913835 
2347	 0.418969568078603 
2348	 0.418889273495482 
2349	 0.418841085385476 
2350	 0.418765340863065 
2351	 0.418747400401724 
2352	 0.41876843016445 
2353	 0.418748419497543 
2354	 0.418745867490396 
2355	 0.418742025176162 
2356	 0.418720879898929 
2357	 0.418707951472882 
2358	 0.418713092168908 
2359	 0.418694786733999 
2360	 0.418665777356874 
2361	 0.418612456091883 
2362	 0.418527147262173 
2363	 0.418466358745901 
2364	 0.418400761724688 
2365	 0.41831646935257 
2366	 0.418246342004821 
2367	 0.41818232977097 
2368	 0.418110149322467 
2369	 0.418017395344152 
2370	 0.417946918747249 
2371	 0.417812314153019 
2372	 0.417642948035142 
2373	 0.417428449976073 
2374	 0.417192870059239 
2375	 0.417055466272304 
2376	 0.416970830300068 
2377	 0.416877752529459 
2378	 0.416792101720848 
2379	 0.416684312998413 
2380	 0.416513379935218 
2381	 0.416393600335768 
2382	 0.416346378408627 
2383	 0.416174607429624 
2384	 0.415956969514796 
2385	 0.415760320007991 
2386	 0.415539712586117 
2387	 0.415414042187751 
2388	 0.415354363215804 
2389	 0.415237848067241 
2390	 0.415056769315012 
2391	 0.414900577507357 
2392	 0.414687460569997 
2393	 0.414431879686577 
2394	 0.414257466530904 
2395	 0.414034954843383 
2396	 0.413844760279509 
2397	 0.413725309570485 
2398	 0.413539584223565 
2399	 0.413344974988657 
2400	 0.413176902009071 
2401	 0.413002589719399 
2402	 0.412773166745381 
2403	 0.412543297391886 
2404	 0.412372014622209 
2405	 0.412182095160055 
2406	 0.412090464075148 
2407	 0.412099348785916 
2408	 0.411930007398418 
2409	 0.411680383352061 
2410	 0.411430690423148 
2411	 0.411105052733432 
2412	 0.410898872833667 
2413	 0.410808333686555 
2414	 0.410612673283851 
2415	 0.410390111850316 
2416	 0.410182085072925 
2417	 0.409888886424717 
2418	 0.409655123463564 
2419	 0.409504608427924 
2420	 0.409294076064783 
2421	 0.409039633777782 
2422	 0.408861905831513 
2423	 0.408724095884417 
2424	 0.408536289377669 
2425	 0.408383453927978 
2426	 0.408202684756709 
2427	 0.407937146316606 
2428	 0.407767675336642 
2429	 0.407703478102081 
2430	 0.407493058168434 
2431	 0.407206704471984 
2432	 0.406966831914192 
2433	 0.406660401868606 
2434	 0.406390744229687 
2435	 0.406201207978028 
2436	 0.405971361745277 
2437	 0.405676464623142 
2438	 0.405484262199939 
2439	 0.405341851439163 
2440	 0.405227363704451 
2441	 0.40524720086003 
2442	 0.405085212448234 
2443	 0.404819410344519 
2444	 0.40459425931017 
2445	 0.404272187711462 
2446	 0.404038960994288 
2447	 0.403881946760621 
2448	 0.403739199050151 
2449	 0.403587243663598 
2450	 0.403479726667494 
2451	 0.403439102171923 
2452	 0.403333908197637 
2453	 0.403325168078896 
2454	 0.403198004724107 
2455	 0.402923998246362 
2456	 0.4027308443583 
2457	 0.402452972473726 
2458	 0.402247678824693 
2459	 0.402140513623483 
2460	 0.402033259295905 
2461	 0.402026168755808 
2462	 0.40183405300202 
2463	 0.401532472295808 
2464	 0.401306863366852 
2465	 0.400939425328054 
2466	 0.400883464398605 
2467	 0.401082231762576 
2468	 0.401017929685921 
2469	 0.401008385955283 
2470	 0.400698089678645 
2471	 0.400425903482407 
2472	 0.400192084247431 
2473	 0.399920778694024 
2474	 0.399601158663553 
2475	 0.399421125469276 
2476	 0.399349838047611 
2477	 0.399226244101499 
2478	 0.399232210645399 
2479	 0.399206995806199 
2480	 0.398990924065735 
2481	 0.398863856097733 
2482	 0.398839346600918 
2483	 0.398635378524783 
2484	 0.398505555644154 
2485	 0.398530095550487 
2486	 0.398386732756045 
2487	 0.398438132227186 
2488	 0.398522586909943 
2489	 0.398226365567758 
2490	 0.397852211015829 
2491	 0.3974150807528 
2492	 0.397027228616644 
2493	 0.396915526446494 
2494	 0.39685541661458 
2495	 0.396807287178078 
2496	 0.396731641764741 
2497	 0.396515790455842 
2498	 0.39639851205846 
2499	 0.39640671354891 
2500	 0.396389658429148 
