Wavelength	LMW100005.asd
350	 8.92287987853772E-02 
351	 8.43956891779851E-02 
352	 7.82422176694759E-02 
353	 7.30272762563603E-02 
354	 8.23261773360772E-02 
355	 8.48237050772556E-02 
356	 0.083094487118249 
357	 8.44564131414895E-02 
358	 8.86326820426143E-02 
359	 8.55034302886894E-02 
360	 7.99131874123549E-02 
361	 8.42988181363888E-02 
362	 8.17764656464204E-02 
363	 7.93689784271632E-02 
364	 0.080348094829169 
365	 7.71988091588943E-02 
366	 7.96446071218773E-02 
367	 8.26903440286468E-02 
368	 8.08099079006068E-02 
369	 8.24960903082964E-02 
370	 8.42422198928553E-02 
371	 8.45440827628643E-02 
372	 0.083789645965421 
373	 0.085001103633998 
374	 8.47787013140294E-02 
375	 8.27629088809588E-02 
376	 8.54496397443808E-02 
377	 8.54806283144621E-02 
378	 8.51578800055363E-02 
379	 8.76905926399573E-02 
380	 8.76950234565299E-02 
381	 8.48301703971153E-02 
382	 8.30347800876097E-02 
383	 8.82612486458147E-02 
384	 9.18450099277764E-02 
385	 9.17856902566785E-02 
386	 8.97123624221176E-02 
387	 9.21704654821889E-02 
388	 9.23501165992668E-02 
389	 9.20367230380185E-02 
390	 9.42286432220163E-02 
391	 9.38909232539991E-02 
392	 9.50479314332947E-02 
393	 9.79256763082812E-02 
394	 9.93150972689163E-02 
395	 9.88344699464938E-02 
396	 9.88679817483569E-02 
397	 0.100295843919202 
398	 0.099557547302994 
399	 0.100654872678517 
400	 0.10295499401078 
401	 0.104304047985363 
402	 0.104476784156607 
403	 0.105029017848926 
404	 0.106206998339384 
405	 0.10688596669884 
406	 0.108031163691132 
407	 0.109393396748172 
408	 0.110345568213423 
409	 0.109759856535654 
410	 0.109677585713554 
411	 0.110385903365021 
412	 0.111302324063522 
413	 0.11242316008216 
414	 0.112921369418182 
415	 0.112832107151119 
416	 0.113318351523144 
417	 0.11347871535448 
418	 0.114116914555791 
419	 0.115560183654974 
420	 0.115232015562778 
421	 0.114622910579123 
422	 0.1146260467884 
423	 0.115480912263752 
424	 0.115304189997051 
425	 0.115081979092627 
426	 0.115372460390067 
427	 0.115300163121289 
428	 0.114987833930146 
429	 0.114722341858929 
430	 0.114767278486016 
431	 0.11494664327533 
432	 0.114850514957704 
433	 0.114541833069723 
434	 0.114513446524905 
435	 0.114403103010767 
436	 0.114382350198071 
437	 0.114521005265141 
438	 0.114344790765708 
439	 0.114220496418893 
440	 0.114451796151871 
441	 0.115167646099212 
442	 0.115411109321747 
443	 0.115741298972815 
444	 0.116341335754063 
445	 0.116590037094468 
446	 0.117054563851368 
447	 0.117646048435104 
448	 0.118142614679991 
449	 0.118604302431427 
450	 0.119093540167176 
451	 0.11959181214359 
452	 0.120022820107906 
453	 0.120542314853625 
454	 0.121100384936769 
455	 0.121602468312114 
456	 0.121929926832989 
457	 0.122240409421391 
458	 0.122577371197208 
459	 0.122926842912944 
460	 0.123292702193539 
461	 0.123532451955244 
462	 0.123664576645928 
463	 0.123939787466725 
464	 0.124331160023122 
465	 0.124679866599495 
466	 0.124877967157057 
467	 0.12519183542854 
468	 0.125485465480749 
469	 0.12567059812859 
470	 0.125727240788034 
471	 0.125967743101623 
472	 0.126110547433008 
473	 0.126038196750148 
474	 0.126258577973553 
475	 0.126506639542793 
476	 0.126746984079576 
477	 0.127014566691613 
478	 0.127165560741344 
479	 0.127205437756674 
480	 0.127222694043395 
481	 0.127392160504027 
482	 0.127778312931219 
483	 0.128085850472574 
484	 0.128087263495825 
485	 0.128269361422011 
486	 0.128293424998572 
487	 0.128190646699812 
488	 0.128299490036574 
489	 0.128511822361683 
490	 0.128746705040903 
491	 0.128935578032274 
492	 0.129039672878522 
493	 0.129033807839907 
494	 0.129030874491481 
495	 0.129181733328326 
496	 0.129365277264609 
497	 0.129594052039619 
498	 0.129815063965642 
499	 0.129857654485997 
500	 0.129904663630339 
501	 0.130005527476054 
502	 0.130144240465946 
503	 0.130201803280973 
504	 0.130338350938215 
505	 0.130510995511298 
506	 0.130503290746906 
507	 0.130635577181949 
508	 0.130816898306765 
509	 0.130930949545888 
510	 0.131019896671124 
511	 0.131055058559247 
512	 0.131087584650193 
513	 0.131199237790658 
514	 0.131341670047085 
515	 0.131441765368794 
516	 0.131499201035172 
517	 0.131647828079817 
518	 0.131691459949237 
519	 0.131678828220672 
520	 0.131732815562267 
521	 0.131902313012241 
522	 0.132066579404532 
523	 0.132184294823812 
524	 0.132306810588885 
525	 0.132383788745068 
526	 0.132434440871998 
527	 0.132484988096973 
528	 0.132515686140847 
529	 0.1326820031632 
530	 0.132867151627996 
531	 0.132814408372685 
532	 0.132873149277191 
533	 0.133063030155177 
534	 0.133286665991936 
535	 0.133291826907816 
536	 0.133374720983825 
537	 0.133535181051157 
538	 0.133661144639193 
539	 0.133745599945519 
540	 0.133807955583104 
541	 0.133891931139235 
542	 0.134070519062756 
543	 0.13419337533551 
544	 0.134316696234186 
545	 0.134502499253329 
546	 0.134596314823161 
547	 0.134654047817791 
548	 0.134746379288282 
549	 0.134941888807928 
550	 0.135122198143379 
551	 0.135272621400579 
552	 0.135426834934385 
553	 0.135704599662662 
554	 0.135885497619582 
555	 0.136012144952783 
556	 0.136252875809066 
557	 0.136539299288341 
558	 0.136773067265041 
559	 0.136968200144006 
560	 0.137354952258648 
561	 0.137599955741793 
562	 0.137801646816582 
563	 0.138142166227741 
564	 0.138366555589008 
565	 0.138636211003918 
566	 0.139010203440154 
567	 0.139407841088227 
568	 0.139793451965161 
569	 0.14020218695685 
570	 0.140666071798867 
571	 0.141136588297223 
572	 0.141649838863903 
573	 0.142202074973262 
574	 0.142752417332541 
575	 0.143197886081258 
576	 0.143683185399082 
577	 0.144270454067954 
578	 0.144742657137548 
579	 0.145327240446756 
580	 0.146022878054442 
581	 0.146746000458403 
582	 0.147601911353124 
583	 0.148387910489015 
584	 0.149040106234416 
585	 0.149728008323637 
586	 0.150439440472945 
587	 0.151104034841844 
588	 0.151694094222928 
589	 0.152463963976026 
590	 0.153243677248228 
591	 0.153968434340007 
592	 0.15468895952055 
593	 0.155455284109481 
594	 0.156249780091437 
595	 0.157059777445333 
596	 0.157927937777213 
597	 0.158871035606264 
598	 0.159854985166203 
599	 0.160811173694353 
600	 0.161638767130797 
601	 0.162401508025623 
602	 0.163130701960229 
603	 0.163758737990989 
604	 0.164421912683114 
605	 0.165103566707448 
606	 0.165742407313229 
607	 0.166368044894335 
608	 0.167006699401797 
609	 0.167633657819693 
610	 0.168169639246785 
611	 0.168760253472065 
612	 0.169367695968898 
613	 0.169926974486893 
614	 0.170459646499946 
615	 0.170922857318728 
616	 0.171361989429355 
617	 0.171867861213764 
618	 0.172294862751069 
619	 0.172655842382564 
620	 0.172990444878403 
621	 0.173336383192108 
622	 0.173685783591042 
623	 0.17403601829652 
624	 0.174383793602868 
625	 0.174719833965511 
626	 0.175018374611573 
627	 0.175287664608679 
628	 0.175580543297391 
629	 0.175884442520327 
630	 0.176169851049342 
631	 0.176418090836631 
632	 0.176670810905667 
633	 0.176924158636296 
634	 0.177181646290147 
635	 0.177452530500175 
636	 0.177723146314238 
637	 0.177974537326478 
638	 0.178196782618316 
639	 0.178392358813384 
640	 0.178658472033321 
641	 0.178958152242278 
642	 0.17920024162556 
643	 0.179434186583011 
644	 0.179696590304546 
645	 0.179986077111734 
646	 0.180247999245857 
647	 0.180507950140567 
648	 0.180758413327884 
649	 0.180994912045433 
650	 0.181255234391438 
651	 0.181558842408631 
652	 0.181873995141152 
653	 0.182133533952569 
654	 0.182446993993207 
655	 0.182757570326062 
656	 0.18302853580504 
657	 0.183349289249073 
658	 0.183676282712533 
659	 0.184008153043538 
660	 0.184353618692636 
661	 0.184651182488753 
662	 0.184969589348373 
663	 0.185333796455263 
664	 0.185688643349942 
665	 0.186042721864025 
666	 0.186421902524801 
667	 0.18683449875237 
668	 0.187189750198895 
669	 0.18754030217617 
670	 0.187933449845122 
671	 0.188398842659287 
672	 0.188822438123103 
673	 0.189241865494195 
674	 0.189693495798748 
675	 0.190146230906254 
676	 0.190598792351453 
677	 0.191037434225345 
678	 0.191452905154544 
679	 0.191882920397471 
680	 0.19236398142729 
681	 0.192895609867073 
682	 0.193431547697637 
683	 0.193946992689494 
684	 0.194435434963553 
685	 0.194909480371733 
686	 0.195404113121476 
687	 0.196022981407394 
688	 0.1966772794565 
689	 0.197163330747434 
690	 0.197672655449994 
691	 0.198232807899016 
692	 0.198824617331263 
693	 0.199386549150476 
694	 0.199959548931876 
695	 0.20052856198358 
696	 0.201080348028273 
697	 0.201721341372814 
698	 0.202331825850449 
699	 0.202901108679654 
700	 0.203543979937266 
701	 0.204195946504731 
702	 0.204837084703313 
703	 0.205457209035409 
704	 0.206041959944108 
705	 0.206645355765927 
706	 0.207284814029544 
707	 0.207947376324358 
708	 0.208566937488909 
709	 0.209187866474552 
710	 0.209841571916767 
711	 0.210527027794719 
712	 0.211091875898812 
713	 0.21165797274214 
714	 0.212345035907564 
715	 0.212944622114775 
716	 0.213516820817934 
717	 0.214087292291418 
718	 0.214650033933651 
719	 0.215182012642854 
720	 0.215733335377933 
721	 0.216313934169081 
722	 0.216840099833765 
723	 0.217361402273882 
724	 0.217872199541541 
725	 0.218357701590675 
726	 0.218847381308446 
727	 0.219303280482605 
728	 0.219714213036067 
729	 0.220097782732755 
730	 0.220526487438637 
731	 0.220930177490435 
732	 0.221264022030974 
733	 0.221612616994916 
734	 0.221916441598961 
735	 0.222168034687355 
736	 0.222385037820466 
737	 0.222591431081766 
738	 0.222811697409221 
739	 0.223037691789834 
740	 0.223226673480645 
741	 0.223351558225026 
742	 0.223447087202672 
743	 0.223534941264624 
744	 0.223557873729039 
745	 0.223564736967679 
746	 0.223575302020648 
747	 0.223589510126072 
748	 0.223590937682698 
749	 0.223493214178585 
750	 0.22332566533161 
751	 0.223257407209851 
752	 0.223144666216044 
753	 0.222985627121847 
754	 0.222803425423819 
755	 0.2225931903249 
756	 0.222373593303418 
757	 0.222145607841157 
758	 0.221906986082515 
759	 0.221712368875674 
760	 0.221455662512012 
761	 0.221120115659696 
762	 0.22081635379133 
763	 0.220551446747826 
764	 0.220229687096777 
765	 0.219806505279248 
766	 0.219458149421549 
767	 0.21911272306755 
768	 0.218752483973757 
769	 0.218377748553195 
770	 0.217921326294298 
771	 0.217508938064226 
772	 0.21716282532106 
773	 0.216765942462747 
774	 0.21639075463315 
775	 0.215991863835556 
776	 0.215534477392601 
777	 0.215075268232976 
778	 0.214634497246458 
779	 0.214227255719678 
780	 0.21384861207211 
781	 0.21341516996553 
782	 0.21295452470922 
783	 0.212506546226397 
784	 0.212110276476749 
785	 0.211725175416974 
786	 0.211288578351848 
787	 0.210799714106334 
788	 0.210411327703377 
789	 0.210023058745291 
790	 0.209597224064681 
791	 0.209138167423409 
792	 0.208736088331924 
793	 0.208379958883579 
794	 0.208020578370064 
795	 0.20759056704756 
796	 0.207141690905473 
797	 0.206746857535741 
798	 0.206409474851944 
799	 0.206003399757131 
800	 0.205613979959882 
801	 0.205251161188348 
802	 0.20489502333823 
803	 0.204498966103548 
804	 0.204145465774503 
805	 0.203837872576179 
806	 0.20352531933992 
807	 0.203185201665475 
808	 0.202801674604414 
809	 0.202410201198333 
810	 0.202103619572884 
811	 0.201819198274812 
812	 0.201510948106578 
813	 0.201171921088987 
814	 0.200887091589111 
815	 0.200623094540486 
816	 0.200332955998268 
817	 0.199991770485565 
818	 0.199721236024067 
819	 0.199483147838064 
820	 0.199252490213806 
821	 0.199021194957167 
822	 0.198748557385731 
823	 0.198495474147622 
824	 0.198277990313452 
825	 0.198014036935124 
826	 0.197765165268125 
827	 0.197536494617184 
828	 0.197320965044973 
829	 0.197126700418248 
830	 0.196912525613115 
831	 0.196726291043488 
832	 0.196620670210268 
833	 0.196404451710185 
834	 0.196148946722128 
835	 0.195932622801375 
836	 0.195809670268478 
837	 0.195697513871626 
838	 0.195559088133221 
839	 0.195382521786897 
840	 0.195179603766418 
841	 0.195128467308108 
842	 0.195113795418566 
843	 0.194993108638941 
844	 0.194817789881834 
845	 0.194658110563182 
846	 0.19453146153193 
847	 0.19443725361818 
848	 0.194460122108315 
849	 0.194397755687163 
850	 0.194227766295759 
851	 0.194095542380453 
852	 0.194016891830377 
853	 0.194009351186895 
854	 0.194045085019305 
855	 0.194040069255587 
856	 0.193991036089395 
857	 0.193929831258587 
858	 0.193888961180292 
859	 0.193875713166979 
860	 0.193853262065966 
861	 0.193851301535818 
862	 0.193898747640064 
863	 0.193919321897474 
864	 0.193886356410475 
865	 0.193879011940265 
866	 0.193998396066896 
867	 0.194028306936114 
868	 0.194027756285678 
869	 0.194039482214382 
870	 0.194061717596497 
871	 0.194081084070565 
872	 0.194157641834064 
873	 0.194288735644752 
874	 0.194357380736794 
875	 0.194474197440507 
876	 0.194546966988987 
877	 0.194536754307834 
878	 0.194669594062453 
879	 0.194839877575309 
880	 0.194975616166414 
881	 0.195048910038024 
882	 0.19516080248096 
883	 0.195328153406404 
884	 0.19548494549327 
885	 0.195559032423224 
886	 0.195742035835474 
887	 0.195886800289443 
888	 0.195997104016736 
889	 0.19621202180989 
890	 0.196481752099696 
891	 0.196673259977088 
892	 0.196784128145189 
893	 0.196979318486254 
894	 0.197205689416848 
895	 0.197423840670304 
896	 0.197619871629633 
897	 0.197823448633566 
898	 0.198093831396933 
899	 0.198382385478645 
900	 0.198636654469858 
901	 0.198877717815616 
902	 0.199090079304322 
903	 0.199320945195783 
904	 0.199622175352209 
905	 0.199994528754534 
906	 0.200284532073601 
907	 0.200545475879321 
908	 0.20089251622689 
909	 0.201186931353929 
910	 0.201427032146878 
911	 0.201707984634884 
912	 0.202132759052303 
913	 0.202445700646731 
914	 0.202800113836066 
915	 0.203213596699788 
916	 0.203568460706621 
917	 0.203971716542351 
918	 0.204370787595192 
919	 0.204741012491634 
920	 0.205114949966144 
921	 0.20553822086466 
922	 0.206026018957969 
923	 0.206514466785605 
924	 0.206854810289898 
925	 0.207311295219987 
926	 0.207792385473053 
927	 0.208221837797997 
928	 0.208694992216205 
929	 0.209173979870387 
930	 0.209670842563673 
931	 0.210188365836588 
932	 0.210682967474402 
933	 0.211245664128428 
934	 0.211790881337205 
935	 0.212271208236979 
936	 0.212900273576002 
937	 0.213542134604282 
938	 0.214107482443941 
939	 0.214584047316148 
940	 0.215148076346144 
941	 0.215781908235099 
942	 0.216379982418227 
943	 0.216890190703608 
944	 0.21761034908438 
945	 0.218292109711662 
946	 0.218871690477452 
947	 0.219414284974019 
948	 0.220091790263514 
949	 0.220756265524262 
950	 0.221397115845596 
951	 0.22207524426481 
952	 0.222777415609126 
953	 0.22358336012232 
954	 0.224377917366847 
955	 0.22500514305616 
956	 0.225718792731958 
957	 0.226409569336204 
958	 0.22712907013908 
959	 0.227987573541438 
960	 0.228798921641528 
961	 0.22957230343527 
962	 0.230320693612718 
963	 0.231057435174852 
964	 0.231800874332548 
965	 0.232685060485222 
966	 0.233620689595129 
967	 0.234420628785238 
968	 0.235297567064494 
969	 0.236104081941672 
970	 0.236827882328932 
971	 0.237579279351044 
972	 0.238502347782646 
973	 0.239380514794678 
974	 0.240248877397148 
975	 0.241266127626613 
976	 0.242134448573142 
977	 0.243069075610734 
978	 0.244048126155675 
979	 0.24491433181789 
980	 0.245822149316898 
981	 0.246706041030844 
982	 0.247524335106453 
983	 0.248307951634499 
984	 0.249322502269012 
985	 0.250227443257976 
986	 0.251103225796738 
987	 0.252196271196724 
988	 0.253206551633458 
989	 0.254097505620123 
990	 0.254992163038283 
991	 0.256020780021736 
992	 0.256974013971723 
993	 0.257904541168247 
994	 0.258763727421271 
995	 0.259547288507891 
996	 0.260603429605576 
997	 0.261700879309789 
998	 0.262644007870078 
999	 0.26343883172886 
1000	 0.264664221609143 
1001	 0.26782337780478 
1002	 0.268761654625359 
1003	 0.269718934869163 
1004	 0.270639246338678 
1005	 0.271571261739095 
1006	 0.272484966401782 
1007	 0.273375704168232 
1008	 0.274216537972879 
1009	 0.275082468374754 
1010	 0.275836933857016 
1011	 0.276600286848102 
1012	 0.27749739011131 
1013	 0.27836187566314 
1014	 0.279231175750647 
1015	 0.280185589982112 
1016	 0.281006590505157 
1017	 0.281831694596426 
1018	 0.282611345560368 
1019	 0.283491193592221 
1020	 0.28429781716641 
1021	 0.285126229263867 
1022	 0.286011378922561 
1023	 0.286803677490065 
1024	 0.287527918477794 
1025	 0.288243032527117 
1026	 0.288942925987201 
1027	 0.28964927814597 
1028	 0.290407324583595 
1029	 0.291271790078675 
1030	 0.292119545709765 
1031	 0.292889299329874 
1032	 0.293626928186554 
1033	 0.294388048491885 
1034	 0.2950486164391 
1035	 0.295712237251547 
1036	 0.296502118813015 
1037	 0.297244725300009 
1038	 0.297998393164434 
1039	 0.298781916006455 
1040	 0.299510379053128 
1041	 0.300227346491915 
1042	 0.300931996688656 
1043	 0.301616906165565 
1044	 0.302319961093548 
1045	 0.303009201826118 
1046	 0.303738472890615 
1047	 0.30450192579841 
1048	 0.305247660470328 
1049	 0.305916679047274 
1050	 0.306556440418651 
1051	 0.307200898799178 
1052	 0.307819081226132 
1053	 0.308497324458362 
1054	 0.309221988254393 
1055	 0.30989941070179 
1056	 0.310585773728794 
1057	 0.311250231195382 
1058	 0.311881704723474 
1059	 0.312513027920704 
1060	 0.313149880271946 
1061	 0.313742431335441 
1062	 0.3143233717909 
1063	 0.31495027111629 
1064	 0.315539572976984 
1065	 0.316118361575697 
1066	 0.316679141668626 
1067	 0.3172139808817 
1068	 0.317775986386641 
1069	 0.318343012656158 
1070	 0.318905188292623 
1071	 0.319504836232813 
1072	 0.320046542489648 
1073	 0.320528906284792 
1074	 0.321053188950745 
1075	 0.321566590447725 
1076	 0.322088156252509 
1077	 0.32265051803284 
1078	 0.323189097195886 
1079	 0.32369357816896 
1080	 0.324189626398049 
1081	 0.324694815798984 
1082	 0.325208037985882 
1083	 0.32572368254091 
1084	 0.326269045387185 
1085	 0.326787272852363 
1086	 0.327259944732066 
1087	 0.327769199512966 
1088	 0.328283836630027 
1089	 0.328829868203467 
1090	 0.329336312127305 
1091	 0.329874803682266 
1092	 0.33043739084439 
1093	 0.330919675426034 
1094	 0.331407580643964 
1095	 0.331942292876953 
1096	 0.332446182681069 
1097	 0.332978952405946 
1098	 0.333530119089044 
1099	 0.334114996985176 
1100	 0.334688661589045 
1101	 0.33529043231727 
1102	 0.335858834201163 
1103	 0.336408902485677 
1104	 0.336967485460366 
1105	 0.337542097058453 
1106	 0.338103033342749 
1107	 0.338701422335685 
1108	 0.339344065255167 
1109	 0.339953810891196 
1110	 0.340561724937261 
1111	 0.341160221989078 
1112	 0.341733787278378 
1113	 0.342325138690356 
1114	 0.342915066827414 
1115	 0.343522923426494 
1116	 0.344149977261516 
1117	 0.344778492965879 
1118	 0.345424305413888 
1119	 0.346053834430292 
1120	 0.346668201958159 
1121	 0.347287053597635 
1122	 0.347901225727606 
1123	 0.348492802681254 
1124	 0.349120735829009 
1125	 0.349772995239631 
1126	 0.350410713221064 
1127	 0.35106162843627 
1128	 0.351701724237602 
1129	 0.352316237894008 
1130	 0.352956880379812 
1131	 0.353633641222089 
1132	 0.354268207836028 
1133	 0.35489622563845 
1134	 0.35551856628093 
1135	 0.35611600085288 
1136	 0.356690343584128 
1137	 0.357316631729442 
1138	 0.357932044937773 
1139	 0.358542697532265 
1140	 0.359152887217836 
1141	 0.359773240218613 
1142	 0.360409357658673 
1143	 0.361005218632824 
1144	 0.361592841384584 
1145	 0.362175454982642 
1146	 0.362716973991863 
1147	 0.363277129555105 
1148	 0.363857694491119 
1149	 0.364420334810325 
1150	 0.36495144700421 
1151	 0.36553527805322 
1152	 0.366079359605389 
1153	 0.366608887020293 
1154	 0.367156111339645 
1155	 0.36770665769859 
1156	 0.368235388004873 
1157	 0.368768034563948 
1158	 0.369301068925527 
1159	 0.369825954496785 
1160	 0.370336386725921 
1161	 0.370856940363815 
1162	 0.371348584753752 
1163	 0.371809719894371 
1164	 0.37227226773167 
1165	 0.37272514621284 
1166	 0.373176414717113 
1167	 0.373627601938464 
1168	 0.374055607492811 
1169	 0.374485999520035 
1170	 0.374912202939122 
1171	 0.375336037576649 
1172	 0.375759717137031 
1173	 0.376167155416251 
1174	 0.376571518998239 
1175	 0.376962360053056 
1176	 0.377335012803516 
1177	 0.377709460555678 
1178	 0.378078231869708 
1179	 0.378442503285044 
1180	 0.378798022548652 
1181	 0.379155888036042 
1182	 0.379501714515609 
1183	 0.379869785284694 
1184	 0.380225528874382 
1185	 0.380595725195004 
1186	 0.380924487545465 
1187	 0.381230773053619 
1188	 0.381545718335949 
1189	 0.381835807622174 
1190	 0.382140339712715 
1191	 0.382463311931311 
1192	 0.382769355894036 
1193	 0.383068823342666 
1194	 0.383361979071516 
1195	 0.383646534968439 
1196	 0.383931640014508 
1197	 0.384203932109796 
1198	 0.384484972722399 
1199	 0.384769426888618 
1200	 0.385068864729963 
1201	 0.385332466785667 
1202	 0.385592956055907 
1203	 0.385833110200722 
1204	 0.38603235657654 
1205	 0.386262725497665 
1206	 0.386502323308315 
1207	 0.38673094923473 
1208	 0.386966550901989 
1209	 0.387192520780666 
1210	 0.387397261704759 
1211	 0.387618425969713 
1212	 0.387845226097806 
1213	 0.38807387067894 
1214	 0.388329772849689 
1215	 0.38855529454564 
1216	 0.388767781177462 
1217	 0.388970119525773 
1218	 0.389167756916074 
1219	 0.389332148954579 
1220	 0.389534961929467 
1221	 0.389766267473319 
1222	 0.389964963461398 
1223	 0.390175529251784 
1224	 0.390354957413421 
1225	 0.390483185041363 
1226	 0.390648805782918 
1227	 0.390818803531792 
1228	 0.390991688063499 
1229	 0.391193142068533 
1230	 0.391373369137094 
1231	 0.391537734026131 
1232	 0.391706092101033 
1233	 0.39187186829779 
1234	 0.392029323516283 
1235	 0.392193944283882 
1236	 0.392365134158187 
1237	 0.392527830041055 
1238	 0.392698832660494 
1239	 0.392843554665692 
1240	 0.392969505993894 
1241	 0.393099865883293 
1242	 0.393207853717514 
1243	 0.393334156253583 
1244	 0.393474333058173 
1245	 0.393608923174609 
1246	 0.393747667722849 
1247	 0.393883246398551 
1248	 0.394018066736652 
1249	 0.394145135949283 
1250	 0.394294381755514 
1251	 0.394421461172457 
1252	 0.394565292755408 
1253	 0.394725323745437 
1254	 0.394860929252003 
1255	 0.394993088950232 
1256	 0.39511726205835 
1257	 0.395224028539859 
1258	 0.395333710407569 
1259	 0.395441001789665 
1260	 0.395547542608737 
1261	 0.395645005268876 
1262	 0.395750329828064 
1263	 0.395861457855011 
1264	 0.395968713399108 
1265	 0.396079217367064 
1266	 0.396186205602107 
1267	 0.396284867896406 
1268	 0.396385928499154 
1269	 0.396506733205617 
1270	 0.396635257100415 
1271	 0.396767588161028 
1272	 0.396917135644222 
1273	 0.397062239847658 
1274	 0.397202048192168 
1275	 0.397356129383987 
1276	 0.397520594775097 
1277	 0.39768792474244 
1278	 0.397881989968122 
1279	 0.398037628194606 
1280	 0.398182265790412 
1281	 0.398318516251809 
1282	 0.398434184205801 
1283	 0.398538769152626 
1284	 0.398640768542919 
1285	 0.398725454298057 
1286	 0.398797210925676 
1287	 0.398852694609675 
1288	 0.398894708195031 
1289	 0.398923357246207 
1290	 0.398953026899305 
1291	 0.398974638654663 
1292	 0.398969564310083 
1293	 0.398958694578727 
1294	 0.398931452883474 
1295	 0.398867697728504 
1296	 0.398814939372957 
1297	 0.398775768937822 
1298	 0.398701481893509 
1299	 0.398594810867777 
1300	 0.398503101266181 
1301	 0.398396244922119 
1302	 0.39829232102836 
1303	 0.398189696987127 
1304	 0.398100435343154 
1305	 0.39800600938284 
1306	 0.397907806069246 
1307	 0.397825697955545 
1308	 0.397748810834092 
1309	 0.397668620919778 
1310	 0.39757541505513 
1311	 0.39751975357218 
1312	 0.397488681619013 
1313	 0.397438421070598 
1314	 0.397399652137948 
1315	 0.397362625557834 
1316	 0.397304719299716 
1317	 0.39727371296868 
1318	 0.397255129417059 
1319	 0.397258686131092 
1320	 0.39729395797456 
1321	 0.397310658079216 
1322	 0.397328718203044 
1323	 0.397366830039706 
1324	 0.397389025939116 
1325	 0.397396958017287 
1326	 0.397444393120381 
1327	 0.397510016983489 
1328	 0.397580680521694 
1329	 0.397672222617039 
1330	 0.39777342035833 
1331	 0.397896644979145 
1332	 0.398004142810954 
1333	 0.398119056637232 
1334	 0.398232700948273 
1335	 0.398330388258483 
1336	 0.398449085608515 
1337	 0.398582577359432 
1338	 0.398709989667542 
1339	 0.398852244177174 
1340	 0.398980406979866 
1341	 0.399096163167473 
1342	 0.399219149888691 
1343	 0.399342478594695 
1344	 0.399457432150767 
1345	 0.399583350455805 
1346	 0.399726720945361 
1347	 0.399845319588863 
1348	 0.399965674127306 
1349	 0.400084810225789 
1350	 0.400184555936803 
1351	 0.400302490899222 
1352	 0.400429961902631 
1353	 0.400554072545827 
1354	 0.400685023435887 
1355	 0.400807612265565 
1356	 0.400923621842115 
1357	 0.401045566067965 
1358	 0.401175748560018 
1359	 0.401290584649895 
1360	 0.401399890822023 
1361	 0.401505768571902 
1362	 0.401601269070387 
1363	 0.401693739963375 
1364	 0.401777717399701 
1365	 0.401876216457506 
1366	 0.401977881984384 
1367	 0.402071697172022 
1368	 0.40219492904242 
1369	 0.402308820690832 
1370	 0.402408629816116 
1371	 0.40251712324879 
1372	 0.402592070051983 
1373	 0.402661826501415 
1374	 0.402737706771753 
1375	 0.402805058757653 
1376	 0.402874644665495 
1377	 0.402961293292605 
1378	 0.403019057870892 
1379	 0.403067980771383 
1380	 0.403103399241116 
1381	 0.403119166886603 
1382	 0.403130885513824 
1383	 0.403143067144497 
1384	 0.403125601559489 
1385	 0.403088061152568 
1386	 0.403042607693336 
1387	 0.402984936550759 
1388	 0.402903175701936 
1389	 0.402801516027364 
1390	 0.402704967088309 
1391	 0.402569511482328 
1392	 0.402393872177095 
1393	 0.402224290111495 
1394	 0.402040607127918 
1395	 0.401826254707611 
1396	 0.401617182243202 
1397	 0.401401780944293 
1398	 0.401172234982542 
1399	 0.400938127538235 
1400	 0.400697052904409 
1401	 0.400465177819425 
1402	 0.400217186679552 
1403	 0.399996959366662 
1404	 0.399798338409668 
1405	 0.399601884262439 
1406	 0.399405478767413 
1407	 0.399226445060177 
1408	 0.399047678003607 
1409	 0.398901852483643 
1410	 0.3987690222387 
1411	 0.398676339278183 
1412	 0.398609897572178 
1413	 0.39858027336576 
1414	 0.398583957190662 
1415	 0.398624967737691 
1416	 0.398681858577503 
1417	 0.3987288855971 
1418	 0.39879262781124 
1419	 0.398848441923222 
1420	 0.398902677961219 
1421	 0.398978451016909 
1422	 0.399036246785848 
1423	 0.399090479927815 
1424	 0.399138397827296 
1425	 0.399183333403622 
1426	 0.399212704131274 
1427	 0.399229929381907 
1428	 0.399245484828769 
1429	 0.399249625166734 
1430	 0.399259246328532 
1431	 0.399276785412917 
1432	 0.399277089285718 
1433	 0.399260198055934 
1434	 0.399250368395993 
1435	 0.39923581897769 
1436	 0.399221162523472 
1437	 0.399212836798108 
1438	 0.399202440688408 
1439	 0.399186960350706 
1440	 0.399168183962747 
1441	 0.39915867483003 
1442	 0.399153508287159 
1443	 0.399156167813652 
1444	 0.399143535137682 
1445	 0.399113871574265 
1446	 0.399102415435996 
1447	 0.39909284078855 
1448	 0.399083604140869 
1449	 0.39908464026737 
1450	 0.399094464323533 
1451	 0.39909221317204 
1452	 0.399080075177513 
1453	 0.399068595210408 
1454	 0.399052894484741 
1455	 0.399040326427132 
1456	 0.399025145533052 
1457	 0.399020243379653 
1458	 0.399019330961364 
1459	 0.399020959635411 
1460	 0.399029331780393 
1461	 0.399036322594749 
1462	 0.39904732557981 
1463	 0.399055810902623 
1464	 0.399053190490024 
1465	 0.399070210052394 
1466	 0.399098392957088 
1467	 0.399126574782954 
1468	 0.39916828399785 
1469	 0.399208989189766 
1470	 0.399248164271176 
1471	 0.399288457386073 
1472	 0.399329906779397 
1473	 0.399370777548251 
1474	 0.399432914536555 
1475	 0.399495903355766 
1476	 0.399549948415752 
1477	 0.399618288182113 
1478	 0.399679266688913 
1479	 0.399744335169039 
1480	 0.399832415229954 
1481	 0.399931064766286 
1482	 0.400018711558225 
1483	 0.400102387031754 
1484	 0.400181471607581 
1485	 0.400254021693985 
1486	 0.400334798657863 
1487	 0.400417793321331 
1488	 0.400496738081529 
1489	 0.4005820074269 
1490	 0.400660859290309 
1491	 0.400735663873145 
1492	 0.400801382321402 
1493	 0.400860894114417 
1494	 0.40091761806211 
1495	 0.400964592209169 
1496	 0.401012555977617 
1497	 0.40105693163016 
1498	 0.401108777773985 
1499	 0.401155568146053 
1500	 0.401212479126433 
1501	 0.401284790315418 
1502	 0.40135106799536 
1503	 0.401420768025175 
1504	 0.401482874733655 
1505	 0.401555311424451 
1506	 0.401620748205794 
1507	 0.401680145556273 
1508	 0.401739930622249 
1509	 0.401793673685761 
1510	 0.401864938234499 
1511	 0.401937024264053 
1512	 0.402008653338396 
1513	 0.402072525178675 
1514	 0.402121203732426 
1515	 0.402174658022518 
1516	 0.402222485839385 
1517	 0.402280877759969 
1518	 0.402349014099329 
1519	 0.402407711108771 
1520	 0.402466178967412 
1521	 0.402528008051322 
1522	 0.40258504998548 
1523	 0.402645808732672 
1524	 0.402714719633933 
1525	 0.40277561598219 
1526	 0.402829282044712 
1527	 0.402889706884533 
1528	 0.402949934418602 
1529	 0.403011404356894 
1530	 0.403083082195033 
1531	 0.403144063535103 
1532	 0.40321557721811 
1533	 0.403253932315917 
1534	 0.403269615207451 
1535	 0.403281195828905 
1536	 0.403252458822716 
1537	 0.403254924889751 
1538	 0.403258026353632 
1539	 0.403287202923206 
1540	 0.403348805817634 
1541	 0.403397977832444 
1542	 0.403473030137813 
1543	 0.403523630436279 
1544	 0.403558425743267 
1545	 0.403588455767838 
1546	 0.403600426077873 
1547	 0.403614117319872 
1548	 0.40365171793347 
1549	 0.403685948996885 
1550	 0.403735763511401 
1551	 0.403795086716289 
1552	 0.403838442742094 
1553	 0.403880051312243 
1554	 0.403937860244723 
1555	 0.403984284552152 
1556	 0.404020111514989 
1557	 0.404069453214262 
1558	 0.404108522171629 
1559	 0.404140004330348 
1560	 0.404185237020109 
1561	 0.404242483213148 
1562	 0.40428328858042 
1563	 0.404325871650429 
1564	 0.404360525262254 
1565	 0.404378653004723 
1566	 0.404407494755564 
1567	 0.404436817752663 
1568	 0.404474024936946 
1569	 0.404514961575739 
1570	 0.404561172480498 
1571	 0.404617460550968 
1572	 0.404666328934431 
1573	 0.404716711415476 
1574	 0.404762444109753 
1575	 0.404808738169759 
1576	 0.4048426865959 
1577	 0.404876892674279 
1578	 0.404893459745449 
1579	 0.40488446045812 
1580	 0.404894943616632 
1581	 0.404895158448978 
1582	 0.404912322322737 
1583	 0.404952365105406 
1584	 0.404977998504087 
1585	 0.405000332543874 
1586	 0.405028111591851 
1587	 0.405051257720635 
1588	 0.405085025575259 
1589	 0.405137576827876 
1590	 0.405173875922945 
1591	 0.405194358591251 
1592	 0.405234432543082 
1593	 0.405285437051308 
1594	 0.405323757562763 
1595	 0.405372507320405 
1596	 0.40541261055925 
1597	 0.405443965017075 
1598	 0.405462901436598 
1599	 0.405454066366271 
1600	 0.405479309968691 
1601	 0.405518761849519 
1602	 0.405542662452257 
1603	 0.405581154203803 
1604	 0.405626290408213 
1605	 0.405657599054247 
1606	 0.405689184217367 
1607	 0.405737227157702 
1608	 0.405786217856164 
1609	 0.405807844780257 
1610	 0.405832801514759 
1611	 0.405867006887285 
1612	 0.405897369156562 
1613	 0.405942633920441 
1614	 0.405970630962485 
1615	 0.405973348384288 
1616	 0.405998469419618 
1617	 0.406007984038656 
1618	 0.406013318863869 
1619	 0.406039871929498 
1620	 0.406046724086126 
1621	 0.406069754243295 
1622	 0.406083607093332 
1623	 0.406136038311662 
1624	 0.406220237999899 
1625	 0.406275284584255 
1626	 0.406349308029278 
1627	 0.40638209815903 
1628	 0.406377476927625 
1629	 0.406397055625176 
1630	 0.406410387114321 
1631	 0.406431005474774 
1632	 0.406453672923793 
1633	 0.406491591394851 
1634	 0.406544597348565 
1635	 0.406572406569118 
1636	 0.406607654139232 
1637	 0.40662545303083 
1638	 0.406611844719502 
1639	 0.406620168456322 
1640	 0.406627511006735 
1641	 0.406657367842531 
1642	 0.406696290802096 
1643	 0.406742948360011 
1644	 0.406823640626511 
1645	 0.406866486544527 
1646	 0.406896106328774 
1647	 0.406925127990113 
1648	 0.406930451285535 
1649	 0.406958848368263 
1650	 0.407008708734144 
1651	 0.407028498411281 
1652	 0.407029317963224 
1653	 0.407060101298682 
1654	 0.407090351185841 
1655	 0.407118080529014 
1656	 0.407171833291909 
1657	 0.407208110401269 
1658	 0.407212301404019 
1659	 0.407250233674979 
1660	 0.4073161079689 
1661	 0.407361842367836 
1662	 0.407417669287394 
1663	 0.407448619708909 
1664	 0.40745514698364 
1665	 0.40747477409341 
1666	 0.407481799990244 
1667	 0.407505019209615 
1668	 0.407538159965468 
1669	 0.407575546298408 
1670	 0.407626099095456 
1671	 0.40766360487363 
1672	 0.407702199865878 
1673	 0.407736421674221 
1674	 0.407756108336785 
1675	 0.407790409047463 
1676	 0.407835078708535 
1677	 0.407871555793196 
1678	 0.40791203037629 
1679	 0.407943048646535 
1680	 0.407960480656752 
1681	 0.407991283121021 
1682	 0.408028004450655 
1683	 0.408058077354956 
1684	 0.408089274111128 
1685	 0.408121837912054 
1686	 0.408148708150051 
1687	 0.408180306204133 
1688	 0.408223511908353 
1689	 0.408253850696183 
1690	 0.408270906946085 
1691	 0.40830198966439 
1692	 0.408324491743401 
1693	 0.408373404513659 
1694	 0.408456396996385 
1695	 0.408506517805218 
1696	 0.408560387647198 
1697	 0.408600990090025 
1698	 0.408614530523803 
1699	 0.408639434378911 
1700	 0.408678632755026 
1701	 0.40868973914027 
1702	 0.408672053391 
1703	 0.408680231612805 
1704	 0.40867760134363 
1705	 0.408697255134582 
1706	 0.408751581342106 
1707	 0.408783086720317 
1708	 0.408809026200641 
1709	 0.408839865569519 
1710	 0.408865898905825 
1711	 0.408894999392286 
1712	 0.408922631002858 
1713	 0.408968882492694 
1714	 0.409032957838807 
1715	 0.409071778386667 
1716	 0.409123399981899 
1717	 0.409145645908779 
1718	 0.409124410430826 
1719	 0.409133773204018 
1720	 0.409149420723501 
1721	 0.409160203810262 
1722	 0.409181322524012 
1723	 0.409190261476665 
1724	 0.409197907823149 
1725	 0.409188371022834 
1726	 0.409169931920379 
1727	 0.409141528484596 
1728	 0.409082304081891 
1729	 0.409051506063339 
1730	 0.409027370721696 
1731	 0.40900610577619 
1732	 0.408999572332253 
1733	 0.408985824319026 
1734	 0.408971204815784 
1735	 0.40895062789717 
1736	 0.408929990573098 
1737	 0.408905855313734 
1738	 0.408874779586635 
1739	 0.408848663560965 
1740	 0.408814861017417 
1741	 0.408808369358433 
1742	 0.408817191988814 
1743	 0.408810285236573 
1744	 0.408818066827619 
1745	 0.408814510870404 
1746	 0.408790279664672 
1747	 0.408791735346455 
1748	 0.408794523278261 
1749	 0.408785515722635 
1750	 0.408782798636634 
1751	 0.408785245800566 
1752	 0.408777623214804 
1753	 0.408791684662058 
1754	 0.408801228382639 
1755	 0.408773332289392 
1756	 0.408761483800882 
1757	 0.408739927756298 
1758	 0.40869867494453 
1759	 0.408698016111101 
1760	 0.408675155979807 
1761	 0.408603655699398 
1762	 0.408556989726907 
1763	 0.40851252515781 
1764	 0.408481762297365 
1765	 0.408492469423567 
1766	 0.408500867180825 
1767	 0.408497578176201 
1768	 0.408498012466727 
1769	 0.408525140086852 
1770	 0.408569693085751 
1771	 0.408597013749178 
1772	 0.408613160143696 
1773	 0.40860368081956 
1774	 0.408563369526932 
1775	 0.408566070602112 
1776	 0.408570681356088 
1777	 0.408555530045537 
1778	 0.408587134584863 
1779	 0.408639333718477 
1780	 0.408681549443657 
1781	 0.408727376939344 
1782	 0.408775495825067 
1783	 0.408746515562872 
1784	 0.40873723406149 
1785	 0.408727240330389 
1786	 0.408707642694192 
1787	 0.408678290234962 
1788	 0.40867177726838 
1789	 0.408663976092484 
1790	 0.408681944752418 
1791	 0.40872569691722 
1792	 0.4087699351812 
1793	 0.408829921437331 
1794	 0.40888073492114 
1795	 0.40893872376556 
1796	 0.408999497784995 
1797	 0.409067393865603 
1798	 0.409118127663378 
1799	 0.409174370012136 
1800	 0.409170812095811 
1801	 0.413618078597198 
1802	 0.413576034224692 
1803	 0.413536810088921 
1804	 0.413497285590029 
1805	 0.413440445227303 
1806	 0.413433696388906 
1807	 0.413450793367968 
1808	 0.413470135904868 
1809	 0.413482843222489 
1810	 0.413518021013478 
1811	 0.413576152283386 
1812	 0.413646359293478 
1813	 0.413704367996641 
1814	 0.413763730611447 
1815	 0.413806317839176 
1816	 0.413819808015509 
1817	 0.413836762096799 
1818	 0.413852506020421 
1819	 0.413852972609583 
1820	 0.41384192672556 
1821	 0.413829071094137 
1822	 0.41380765935285 
1823	 0.41375013417246 
1824	 0.413717876380601 
1825	 0.413685214980927 
1826	 0.413613679587742 
1827	 0.413552779400937 
1828	 0.413508954858816 
1829	 0.413466842882782 
1830	 0.413417639595008 
1831	 0.413369766709995 
1832	 0.413353785836896 
1833	 0.413333826855147 
1834	 0.413314572086331 
1835	 0.413342643983945 
1836	 0.413355428900208 
1837	 0.413362801181478 
1838	 0.41339396108251 
1839	 0.413416695126126 
1840	 0.413450335142685 
1841	 0.413476856400382 
1842	 0.413462915256883 
1843	 0.41343890211631 
1844	 0.413420913610394 
1845	 0.413407761330984 
1846	 0.413433244150742 
1847	 0.413463915010501 
1848	 0.413488788269597 
1849	 0.41352413232145 
1850	 0.413539529213861 
1851	 0.413549429328042 
1852	 0.413539542491826 
1853	 0.413509613436571 
1854	 0.413477573852994 
1855	 0.413452953597789 
1856	 0.413442736210358 
1857	 0.413444253715362 
1858	 0.413431188397561 
1859	 0.413409848902719 
1860	 0.413384656741423 
1861	 0.413349356494687 
1862	 0.413319923373213 
1863	 0.413281623567365 
1864	 0.413218780338964 
1865	 0.413142472510522 
1866	 0.413042804920856 
1867	 0.412943536378831 
1868	 0.41284278734779 
1869	 0.412748369421037 
1870	 0.412675426127371 
1871	 0.412575392782848 
1872	 0.412464979961414 
1873	 0.412344592731135 
1874	 0.412226760121124 
1875	 0.412068704648235 
1876	 0.411891446661998 
1877	 0.411709473926738 
1878	 0.411461022054827 
1879	 0.411189815447296 
1880	 0.410898115815003 
1881	 0.410579389572358 
1882	 0.410223857270373 
1883	 0.409849303893611 
1884	 0.409425303018648 
1885	 0.408985113184901 
1886	 0.408526079855341 
1887	 0.408028459299241 
1888	 0.407531712763484 
1889	 0.40698510974878 
1890	 0.406388029351306 
1891	 0.40578194634868 
1892	 0.405130797664623 
1893	 0.404493113258113 
1894	 0.403834135232191 
1895	 0.403191019629461 
1896	 0.402566151764113 
1897	 0.401949543594496 
1898	 0.401323180135683 
1899	 0.400744779701187 
1900	 0.400190457281157 
1901	 0.399677132390936 
1902	 0.399187745942709 
1903	 0.39874987667252 
1904	 0.398300132326347 
1905	 0.397854850578052 
1906	 0.397445652969392 
1907	 0.397047424907156 
1908	 0.396682910292508 
1909	 0.396360101332515 
1910	 0.396042491532538 
1911	 0.395732650214128 
1912	 0.395445381782138 
1913	 0.395159872303632 
1914	 0.394869294588487 
1915	 0.394603460537199 
1916	 0.394355478183641 
1917	 0.394117566264811 
1918	 0.393885440057558 
1919	 0.393662437411064 
1920	 0.393446080451853 
1921	 0.393246936891701 
1922	 0.393070561379447 
1923	 0.392933232604554 
1924	 0.392816355238044 
1925	 0.392739293560094 
1926	 0.39265138933188 
1927	 0.392579722683834 
1928	 0.392520442200277 
1929	 0.392441527883722 
1930	 0.392369420503886 
1931	 0.392329629515472 
1932	 0.392296848272204 
1933	 0.392254999086357 
1934	 0.39222339650526 
1935	 0.39220706787357 
1936	 0.392178584846565 
1937	 0.392178471863272 
1938	 0.392196915453501 
1939	 0.392248815923789 
1940	 0.39231665283422 
1941	 0.392427121315997 
1942	 0.392540583873892 
1943	 0.392659522084192 
1944	 0.392801303692968 
1945	 0.392920405475675 
1946	 0.39305097498239 
1947	 0.393202615178536 
1948	 0.393341368227176 
1949	 0.393456025767686 
1950	 0.393604369993721 
1951	 0.39376301941076 
1952	 0.393945795932474 
1953	 0.394126067941317 
1954	 0.394291991453279 
1955	 0.394473676371134 
1956	 0.39464192555208 
1957	 0.394818769550127 
1958	 0.395018614732494 
1959	 0.395193256430602 
1960	 0.395348365082716 
1961	 0.395514860520359 
1962	 0.395666314536062 
1963	 0.395836168235577 
1964	 0.396010936549858 
1965	 0.396204629975647 
1966	 0.396410303725416 
1967	 0.396629099974868 
1968	 0.39684122171631 
1969	 0.397052174229996 
1970	 0.397281096907594 
1971	 0.397522330613507 
1972	 0.397753065170144 
1973	 0.398004450770659 
1974	 0.39824114556743 
1975	 0.398469179514531 
1976	 0.398680363775706 
1977	 0.398900382975378 
1978	 0.399094504701062 
1979	 0.399263763317575 
1980	 0.399462308865136 
1981	 0.399689685183313 
1982	 0.399942845615703 
1983	 0.400190850130302 
1984	 0.40048121293043 
1985	 0.400736116510458 
1986	 0.40096583053022 
1987	 0.401210712186496 
1988	 0.401447707196145 
1989	 0.401702865902677 
1990	 0.401954037590622 
1991	 0.402195886874049 
1992	 0.402455089359629 
1993	 0.402714171318406 
1994	 0.402982987745325 
1995	 0.403277392413382 
1996	 0.403554454651558 
1997	 0.403838511323493 
1998	 0.404101925723441 
1999	 0.404340170910478 
2000	 0.404593554397193 
2001	 0.40484413150353 
2002	 0.405087815729023 
2003	 0.405365495123462 
2004	 0.405624329300068 
2005	 0.405874512579224 
2006	 0.406108642139865 
2007	 0.406366956451511 
2008	 0.40662727600861 
2009	 0.406887426002428 
2010	 0.407158658867877 
2011	 0.407429860799544 
2012	 0.407694338077194 
2013	 0.407962580462641 
2014	 0.408245019371185 
2015	 0.40852310758688 
2016	 0.40879782149449 
2017	 0.409068451975518 
2018	 0.409323435357907 
2019	 0.409557017262617 
2020	 0.409820596725107 
2021	 0.410077412419619 
2022	 0.410352990325306 
2023	 0.410665830328734 
2024	 0.410955481403895 
2025	 0.411250540612918 
2026	 0.41152610023882 
2027	 0.411787932189387 
2028	 0.412049976259505 
2029	 0.412291907879808 
2030	 0.412512061456871 
2031	 0.412732385846239 
2032	 0.412939313159451 
2033	 0.413152526649503 
2034	 0.413358699619725 
2035	 0.413570943231993 
2036	 0.41378957203427 
2037	 0.414001184285431 
2038	 0.414220657071471 
2039	 0.414423446176706 
2040	 0.414613424418441 
2041	 0.41479777309064 
2042	 0.414981044920183 
2043	 0.415180444179402 
2044	 0.415360418256488 
2045	 0.415538006659917 
2046	 0.415718188326485 
2047	 0.415882515557065 
2048	 0.416057414233251 
2049	 0.416256297633499 
2050	 0.416429293031989 
2051	 0.416581980716507 
2052	 0.416746145013845 
2053	 0.416911809216956 
2054	 0.417067638972752 
2055	 0.41722098688405 
2056	 0.417372916994227 
2057	 0.417529586251466 
2058	 0.417687492192565 
2059	 0.417821543261587 
2060	 0.417952866241559 
2061	 0.418081481321606 
2062	 0.418172336965795 
2063	 0.418296875727485 
2064	 0.418453789043063 
2065	 0.418588643408543 
2066	 0.418713149753821 
2067	 0.418849835398674 
2068	 0.418986859989587 
2069	 0.419119277884681 
2070	 0.41926650826103 
2071	 0.419433192629979 
2072	 0.419579876210414 
2073	 0.419714296486772 
2074	 0.419870642941083 
2075	 0.420039503202415 
2076	 0.420192155045935 
2077	 0.420351431438378 
2078	 0.420507382219478 
2079	 0.420639129989472 
2080	 0.420788963682873 
2081	 0.420966724503485 
2082	 0.421123248491698 
2083	 0.421268663568375 
2084	 0.421416380488205 
2085	 0.421563893157656 
2086	 0.421708641483088 
2087	 0.421841666207527 
2088	 0.421964920767822 
2089	 0.422103861181481 
2090	 0.422237483221408 
2091	 0.422373418552553 
2092	 0.422521468286426 
2093	 0.422672696221197 
2094	 0.422821211063169 
2095	 0.42296867654237 
2096	 0.423123051511854 
2097	 0.423280941370631 
2098	 0.423441157048714 
2099	 0.423591049041327 
2100	 0.423744624436061 
2101	 0.423905328022824 
2102	 0.424066794684915 
2103	 0.424220855046635 
2104	 0.424383636938071 
2105	 0.424553827575504 
2106	 0.424728397639249 
2107	 0.424895841947637 
2108	 0.425084654480517 
2109	 0.425293126148667 
2110	 0.425502006796207 
2111	 0.425734831828335 
2112	 0.425947931933741 
2113	 0.426155611582475 
2114	 0.426360296062568 
2115	 0.426558666924373 
2116	 0.426740291317468 
2117	 0.426941911754873 
2118	 0.427148463448901 
2119	 0.42735453466844 
2120	 0.42757281866873 
2121	 0.427777167528733 
2122	 0.427982823396152 
2123	 0.428173997977706 
2124	 0.428349739478385 
2125	 0.428529362801585 
2126	 0.428719395580356 
2127	 0.428876567752695 
2128	 0.429020583528942 
2129	 0.429154027068005 
2130	 0.429274559755524 
2131	 0.4293617445648 
2132	 0.429431599927303 
2133	 0.429500631252975 
2134	 0.429521725874649 
2135	 0.42949463133764 
2136	 0.429464958451846 
2137	 0.429410152005358 
2138	 0.429345485278828 
2139	 0.429249527987814 
2140	 0.429172488265619 
2141	 0.429086716863129 
2142	 0.429006911406128 
2143	 0.428959966205241 
2144	 0.428871589172739 
2145	 0.428773411732425 
2146	 0.42864961957813 
2147	 0.428499150277332 
2148	 0.428321709948542 
2149	 0.428135727584194 
2150	 0.427926291659118 
2151	 0.427719384730809 
2152	 0.427509885337735 
2153	 0.427272305204408 
2154	 0.427025228785045 
2155	 0.42675655215877 
2156	 0.426455299584438 
2157	 0.426151178686316 
2158	 0.425847234834147 
2159	 0.425513162653063 
2160	 0.425147099857743 
2161	 0.424783847316301 
2162	 0.424404419065272 
2163	 0.424015210717966 
2164	 0.423616812028062 
2165	 0.423218512920928 
2166	 0.422815112985866 
2167	 0.42239477626964 
2168	 0.421988427377519 
2169	 0.421581246034294 
2170	 0.421191022792052 
2171	 0.420820025451271 
2172	 0.420424412389794 
2173	 0.420039859340258 
2174	 0.419630958586368 
2175	 0.419177127985161 
2176	 0.418757397730992 
2177	 0.418366614468549 
2178	 0.417940282539166 
2179	 0.417514218713434 
2180	 0.417072852342056 
2181	 0.416566833803622 
2182	 0.416106707970056 
2183	 0.415666579071053 
2184	 0.415236733454137 
2185	 0.414812188500958 
2186	 0.414407944789309 
2187	 0.41400842954755 
2188	 0.413602644105696 
2189	 0.413224093887923 
2190	 0.412871798734659 
2191	 0.41252159326717 
2192	 0.412174066417586 
2193	 0.411853146615528 
2194	 0.411554713752047 
2195	 0.411257920059735 
2196	 0.410954468581333 
2197	 0.410702330400292 
2198	 0.410489897819103 
2199	 0.410274468213697 
2200	 0.410089232460261 
2201	 0.409921893044686 
2202	 0.409776785254303 
2203	 0.409591857112273 
2204	 0.409471980505022 
2205	 0.409384372180366 
2206	 0.409336903622828 
2207	 0.409329965766465 
2208	 0.409328108939456 
2209	 0.40936336645253 
2210	 0.40941261517689 
2211	 0.409474970705264 
2212	 0.409544535281062 
2213	 0.409648721104087 
2214	 0.409743098293341 
2215	 0.40983874752495 
2216	 0.409930103438434 
2217	 0.410045061816318 
2218	 0.410128799119235 
2219	 0.410186136148789 
2220	 0.410245957906536 
2221	 0.410294026050125 
2222	 0.410331018631704 
2223	 0.41038372468857 
2224	 0.410442680521217 
2225	 0.410470563052152 
2226	 0.4104890390399 
2227	 0.410495691912444 
2228	 0.410477315350841 
2229	 0.410462765050335 
2230	 0.410460946641925 
2231	 0.410411837389911 
2232	 0.410322269851015 
2233	 0.410255975592406 
2234	 0.410169261458995 
2235	 0.410092102604065 
2236	 0.410034268283794 
2237	 0.409960850183696 
2238	 0.409868832518941 
2239	 0.409787316405463 
2240	 0.40969623257577 
2241	 0.409633369350427 
2242	 0.409591876916042 
2243	 0.409541544131399 
2244	 0.409508695826409 
2245	 0.409469042954366 
2246	 0.409428462544157 
2247	 0.40939148994075 
2248	 0.409388323582939 
2249	 0.409414274128098 
2250	 0.409446565652629 
2251	 0.409510406507992 
2252	 0.409546045144845 
2253	 0.409587808027008 
2254	 0.409608349233066 
2255	 0.409579659341739 
2256	 0.409619894974395 
2257	 0.4096963343793 
2258	 0.409751423116201 
2259	 0.409834670909732 
2260	 0.409909054734866 
2261	 0.409950648264959 
2262	 0.410024316040418 
2263	 0.410147540457006 
2264	 0.410230442054516 
2265	 0.410267450412799 
2266	 0.410361529850334 
2267	 0.410477892305349 
2268	 0.410579350041245 
2269	 0.410714583046106 
2270	 0.410852475560446 
2271	 0.410929382321255 
2272	 0.411033247575378 
2273	 0.411165649022945 
2274	 0.411268914763022 
2275	 0.411361949589048 
2276	 0.411428446893217 
2277	 0.411539200905189 
2278	 0.411649403344632 
2279	 0.411778760223511 
2280	 0.411950701465146 
2281	 0.412106849625241 
2282	 0.412264239613572 
2283	 0.412407378832233 
2284	 0.412552072100096 
2285	 0.412693951297974 
2286	 0.412812953593093 
2287	 0.412950290259054 
2288	 0.413104954083448 
2289	 0.413250210617363 
2290	 0.413399689256145 
2291	 0.413537261692307 
2292	 0.413664441378955 
2293	 0.41379391602971 
2294	 0.413922355071001 
2295	 0.414046148753913 
2296	 0.414157848246088 
2297	 0.41428840992449 
2298	 0.414420880468791 
2299	 0.414527280227409 
2300	 0.414687362589847 
2301	 0.414867517601734 
2302	 0.415049736289999 
2303	 0.415255069599524 
2304	 0.415416751244367 
2305	 0.415534574424071 
2306	 0.415635432031686 
2307	 0.41568726804206 
2308	 0.415747182164027 
2309	 0.415812644575209 
2310	 0.415823047150513 
2311	 0.415766649068833 
2312	 0.415787412041221 
2313	 0.415789891994053 
2314	 0.415836526468453 
2315	 0.415954653176267 
2316	 0.416056225561587 
2317	 0.41615577338247 
2318	 0.416275218488836 
2319	 0.416453188040701 
2320	 0.416562679136776 
2321	 0.416627180463433 
2322	 0.416714292970878 
2323	 0.416746344316689 
2324	 0.416845803197523 
2325	 0.417029622768967 
2326	 0.417168409964371 
2327	 0.417304619197037 
2328	 0.417447214517394 
2329	 0.417582246510596 
2330	 0.417692917772546 
2331	 0.417868336628459 
2332	 0.418022431292357 
2333	 0.418112225268224 
2334	 0.41821790900228 
2335	 0.418316183813104 
2336	 0.41838846913995 
2337	 0.418451804649457 
2338	 0.418555292244093 
2339	 0.418682498895 
2340	 0.41879884903647 
2341	 0.418975416031875 
2342	 0.419178316519612 
2343	 0.41929531246978 
2344	 0.41938354282878 
2345	 0.41944590563071 
2346	 0.419459164873955 
2347	 0.41945333597966 
2348	 0.419434043613654 
2349	 0.419382975962925 
2350	 0.419265784147191 
2351	 0.419207418353178 
2352	 0.419136518257954 
2353	 0.419097366475703 
2354	 0.419113789061698 
2355	 0.419095516608948 
2356	 0.419062452489495 
2357	 0.419053731890325 
2358	 0.419055001089671 
2359	 0.41905239303405 
2360	 0.419079613922433 
2361	 0.419062234155927 
2362	 0.419030507477082 
2363	 0.418959405081749 
2364	 0.418833890187161 
2365	 0.418745651414528 
2366	 0.41864964413071 
2367	 0.418546356351069 
2368	 0.418475452723202 
2369	 0.418364353341276 
2370	 0.418223341590157 
2371	 0.41804012028624 
2372	 0.417916250087322 
2373	 0.417778950302916 
2374	 0.417616171212088 
2375	 0.417501896341894 
2376	 0.417306548959886 
2377	 0.417103891257149 
2378	 0.416990828216513 
2379	 0.416863416300748 
2380	 0.4167278622057 
2381	 0.416585264988652 
2382	 0.416402664751759 
2383	 0.416206034833883 
2384	 0.416040837711693 
2385	 0.415960554740147 
2386	 0.415908594235924 
2387	 0.415799514168357 
2388	 0.415743182710837 
2389	 0.415594692658137 
2390	 0.41527093361507 
2391	 0.414999914621106 
2392	 0.414687159973242 
2393	 0.4143936635755 
2394	 0.414280935903231 
2395	 0.414151391230868 
2396	 0.413980765767743 
2397	 0.413865077304887 
2398	 0.413677319352514 
2399	 0.413521953143938 
2400	 0.413398670996808 
2401	 0.413210956623328 
2402	 0.413015247868781 
2403	 0.412772534896786 
2404	 0.412623195212822 
2405	 0.412496882795734 
2406	 0.412323283329118 
2407	 0.412171166829274 
2408	 0.411942879170396 
2409	 0.411670884253481 
2410	 0.411473644539308 
2411	 0.411309423417279 
2412	 0.411132460646655 
2413	 0.41094515653998 
2414	 0.410704559867712 
2415	 0.410508513312954 
2416	 0.41026844864331 
2417	 0.409941409562064 
2418	 0.409738791727879 
2419	 0.409608441646656 
2420	 0.409415847051014 
2421	 0.409288944257913 
2422	 0.40909745612466 
2423	 0.408804946130279 
2424	 0.408560570800985 
2425	 0.408296634934451 
2426	 0.4081559616712 
2427	 0.408099982901891 
2428	 0.407977122545914 
2429	 0.407991630316811 
2430	 0.407802845605969 
2431	 0.40740102166091 
2432	 0.407169819954669 
2433	 0.406900450629146 
2434	 0.406674846294806 
2435	 0.406577812379194 
2436	 0.406422537798997 
2437	 0.406255214953046 
2438	 0.406037352637036 
2439	 0.405767539892013 
2440	 0.405595974067474 
2441	 0.405423440505152 
2442	 0.405272165540911 
2443	 0.405246226173895 
2444	 0.405082188010665 
2445	 0.404827120097521 
2446	 0.404608516212911 
2447	 0.404309310487355 
2448	 0.404177870800346 
2449	 0.404141075440193 
2450	 0.404017909441051 
2451	 0.403985036563257 
2452	 0.403873598468448 
2453	 0.40367008445333 
2454	 0.403529894424522 
2455	 0.403427635687806 
2456	 0.403267659096798 
2457	 0.403068445347266 
2458	 0.402897423984437 
2459	 0.402668629960568 
2460	 0.402523827116489 
2461	 0.402490865306324 
2462	 0.402261384889807 
2463	 0.40200745432786 
2464	 0.401745526082869 
2465	 0.401269253747348 
2466	 0.401125451852776 
2467	 0.401197361236913 
2468	 0.401117763606248 
2469	 0.401132575771472 
2470	 0.400772526082651 
2471	 0.400574854420867 
2472	 0.400291120621225 
2473	 0.400003774206385 
2474	 0.399759288651968 
2475	 0.399473896684385 
2476	 0.399326509716271 
2477	 0.399306298337535 
2478	 0.399322381088663 
2479	 0.399281832352331 
2480	 0.399160449465327 
2481	 0.39893260051784 
2482	 0.398780457037756 
2483	 0.398666570504016 
2484	 0.398445880478967 
2485	 0.398263245453435 
2486	 0.398072427373726 
2487	 0.39798756473864 
2488	 0.397991669399242 
2489	 0.397925544588545 
2490	 0.397884678230331 
2491	 0.397753515705873 
2492	 0.397365029166212 
2493	 0.397110038654966 
2494	 0.397000515197172 
2495	 0.396716589247952 
2496	 0.396625626073354 
2497	 0.396525249490926 
2498	 0.396240207009929 
2499	 0.396272366588558 
2500	 0.39615639770181 
