Wavelength	LMW200003.asd
350	 7.37562513777839E-02 
351	 7.77955332673485E-02 
352	 7.54706854960415E-02 
353	 6.78291332596449E-02 
354	 7.21934398534675E-02 
355	 7.27461900890086E-02 
356	 7.07419604383024E-02 
357	 7.09994142271415E-02 
358	 7.44514020189006E-02 
359	 7.48245412189676E-02 
360	 7.22769264440665E-02 
361	 7.10269821965219E-02 
362	 6.97562731456624E-02 
363	 7.02772134096808E-02 
364	 7.23167565193364E-02 
365	 7.18848300293435E-02 
366	 7.18723837909444E-02 
367	 7.11527251572208E-02 
368	 6.88779053682811E-02 
369	 6.93150232083896E-02 
370	 7.02140845713056E-02 
371	 7.18344309168458E-02 
372	 7.56471019635604E-02 
373	 0.075391458119227 
374	 7.42758861281493E-02 
375	 7.46123585446574E-02 
376	 7.50528180106253E-02 
377	 7.39092905131372E-02 
378	 7.35249448823769E-02 
379	 7.61348358363009E-02 
380	 7.84282701489506E-02 
381	 7.83328354774885E-02 
382	 7.70090968203598E-02 
383	 7.77613080439797E-02 
384	 7.88794484537975E-02 
385	 7.90930799795982E-02 
386	 7.84967229955793E-02 
387	 7.96972879895726E-02 
388	 8.01793717291371E-02 
389	 8.02266230851369E-02 
390	 8.06874434289217E-02 
391	 8.03469682885308E-02 
392	 8.14002421360455E-02 
393	 8.38512044386552E-02 
394	 0.085715855238053 
395	 8.56226277292758E-02 
396	 8.60172530557557E-02 
397	 8.78838700651556E-02 
398	 8.75868716567337E-02 
399	 8.84092039677772E-02 
400	 8.98065391209504E-02 
401	 9.02317096301321E-02 
402	 9.09614932454504E-02 
403	 9.11972471671748E-02 
404	 9.12891096170968E-02 
405	 0.09274928688784 
406	 9.36071039812174E-02 
407	 9.42957830952188E-02 
408	 9.53165394370674E-02 
409	 9.61887642678166E-02 
410	 9.60808947764517E-02 
411	 9.62780617524998E-02 
412	 9.83698443856004E-02 
413	 9.86006004979631E-02 
414	 9.82249043796302E-02 
415	 9.82345918651023E-02 
416	 0.098673409073106 
417	 9.89663807523131E-02 
418	 9.93911587369415E-02 
419	 0.100099959326754 
420	 0.100050740217206 
421	 0.100213333660613 
422	 0.10057815753541 
423	 0.100542413431581 
424	 0.100593947422744 
425	 0.100497356760662 
426	 0.100206102477221 
427	 0.100228104822246 
428	 9.95968447824879E-02 
429	 0.09902986926817 
430	 9.93755472068016E-02 
431	 9.93685045822447E-02 
432	 0.098819311635683 
433	 9.81932561331886E-02 
434	 9.84411923598125E-02 
435	 9.82865647641742E-02 
436	 9.81642330958575E-02 
437	 9.84294880723268E-02 
438	 9.83030729725588E-02 
439	 9.84038618427086E-02 
440	 9.88421865717042E-02 
441	 9.94038207973608E-02 
442	 9.94762124405801E-02 
443	 9.97504561127693E-02 
444	 0.100410383610481 
445	 0.1007013789764 
446	 0.100794279130106 
447	 0.101113037012485 
448	 0.101898889892753 
449	 0.102276263618057 
450	 0.102704320953815 
451	 0.10329451069982 
452	 0.103824100562725 
453	 0.104189080946831 
454	 0.104380207062842 
455	 0.104528369477364 
456	 0.10507599007696 
457	 0.105465754309594 
458	 0.105693517773655 
459	 0.105994050050319 
460	 0.106343007217843 
461	 0.106574674312415 
462	 0.106609683699273 
463	 0.106489398184943 
464	 0.106822604685118 
465	 0.107287210940665 
466	 0.107434072404957 
467	 0.107458590786964 
468	 0.107545517369082 
469	 0.10771654715368 
470	 0.107863910739672 
471	 0.108091214372278 
472	 0.108223171921853 
473	 0.108178617869103 
474	 0.108181120252459 
475	 0.108237998994987 
476	 0.108374888356749 
477	 0.108594026102805 
478	 0.108756270493389 
479	 0.108893013518217 
480	 0.109034120199986 
481	 0.109183220055133 
482	 0.109337269988843 
483	 0.109521276267096 
484	 0.109719288703767 
485	 0.109732764624701 
486	 0.109667769936483 
487	 0.109635987993557 
488	 0.109731060924449 
489	 0.109779023408578 
490	 0.109865423484623 
491	 0.1100568107376 
492	 0.110289397885819 
493	 0.11032943484429 
494	 0.110286967142725 
495	 0.11041859547226 
496	 0.110696155660229 
497	 0.110842056778765 
498	 0.110800402667457 
499	 0.11086947426841 
500	 0.110955725139032 
501	 0.111039955767575 
502	 0.111124963267786 
503	 0.111248012047024 
504	 0.111322918657572 
505	 0.111369523072007 
506	 0.111494822621571 
507	 0.111424327830969 
508	 0.111408626570107 
509	 0.111609977017125 
510	 0.111685362294753 
511	 0.111787091499087 
512	 0.111911996175464 
513	 0.111986304910217 
514	 0.112053883041374 
515	 0.112169172426156 
516	 0.112333313736651 
517	 0.112464568301908 
518	 0.112512514084893 
519	 0.112534657883931 
520	 0.112599274206124 
521	 0.112595154138756 
522	 0.112674758192979 
523	 0.112836143668017 
524	 0.112906660447631 
525	 0.112979162324566 
526	 0.113086199391124 
527	 0.113217067255481 
528	 0.113267106795154 
529	 0.113298983998752 
530	 0.113345479344303 
531	 0.113417591909208 
532	 0.113515976422581 
533	 0.113663262782174 
534	 0.113837742503109 
535	 0.113913104518946 
536	 0.114028945359068 
537	 0.114116373988254 
538	 0.1140853130783 
539	 0.114286971805145 
540	 0.114446797463926 
541	 0.114485313418355 
542	 0.114645241618461 
543	 0.11477215475832 
544	 0.114868760022489 
545	 0.114986783905641 
546	 0.115221986010253 
547	 0.115316555053866 
548	 0.115335788460563 
549	 0.115602726925196 
550	 0.115788529994029 
551	 0.115975192026245 
552	 0.116246201712426 
553	 0.116497441047466 
554	 0.116712656497315 
555	 0.11691325158892 
556	 0.117138260845223 
557	 0.117348116768508 
558	 0.117630724986491 
559	 0.117993877631435 
560	 0.118285003367295 
561	 0.118556848120567 
562	 0.118864740141587 
563	 0.11925488277453 
564	 0.119710192184372 
565	 0.120092882650815 
566	 0.120433028443401 
567	 0.120949839219505 
568	 0.121473992783746 
569	 0.121982716357733 
570	 0.122498529022938 
571	 0.123082753551726 
572	 0.123646976028269 
573	 0.124198936600922 
574	 0.124808386832394 
575	 0.125406503526427 
576	 0.126028146025333 
577	 0.12669286344579 
578	 0.12734777846948 
579	 0.128060497049362 
580	 0.128817146453507 
581	 0.1295799984658 
582	 0.130417809241566 
583	 0.13122984070108 
584	 0.131990934129279 
585	 0.132805829115431 
586	 0.133630532876555 
587	 0.134453118544385 
588	 0.135279387518738 
589	 0.13616847691783 
590	 0.137014095616672 
591	 0.13784871364601 
592	 0.138823896367717 
593	 0.13971346126509 
594	 0.140560524728008 
595	 0.141428212088931 
596	 0.142285414086756 
597	 0.143162266514954 
598	 0.144048563773875 
599	 0.144913980051232 
600	 0.145734549425865 
601	 0.146528505029836 
602	 0.147299978063035 
603	 0.148015809220703 
604	 0.148768036995629 
605	 0.149501551542846 
606	 0.150147714268149 
607	 0.150879015702639 
608	 0.151566565394779 
609	 0.152176909083797 
610	 0.152805089581177 
611	 0.153418751541939 
612	 0.154006156569625 
613	 0.154559737665188 
614	 0.155086719709533 
615	 0.155555378296498 
616	 0.155968573858253 
617	 0.156354711465277 
618	 0.156747351097152 
619	 0.157137595668128 
620	 0.157511062597678 
621	 0.157853471687081 
622	 0.158199888675047 
623	 0.158525942916987 
624	 0.158799396391824 
625	 0.159109755263156 
626	 0.159394050422427 
627	 0.159646005968883 
628	 0.159949750155475 
629	 0.16024570133068 
630	 0.160510638438352 
631	 0.160740483812584 
632	 0.160961086528243 
633	 0.161180082169634 
634	 0.161418425124749 
635	 0.161701712964025 
636	 0.161945260035766 
637	 0.162181099916237 
638	 0.162427741268826 
639	 0.162608924614182 
640	 0.162837306598546 
641	 0.163091433045766 
642	 0.163304167236673 
643	 0.163590364648057 
644	 0.163844045733836 
645	 0.164046053322456 
646	 0.164331962807094 
647	 0.16461386469048 
648	 0.164858128573654 
649	 0.165077927792775 
650	 0.165420390520041 
651	 0.16571104212859 
652	 0.165928740718772 
653	 0.16619200019476 
654	 0.166499697475293 
655	 0.166791565147538 
656	 0.167043533688043 
657	 0.167349232309264 
658	 0.167687720451604 
659	 0.168027917269228 
660	 0.16833998886512 
661	 0.168673213311663 
662	 0.169009437919363 
663	 0.169342494675422 
664	 0.169691963548757 
665	 0.170066682544975 
666	 0.170443440376929 
667	 0.170796378082156 
668	 0.17112085170496 
669	 0.171486883288034 
670	 0.171913076115156 
671	 0.172367143679155 
672	 0.172788055188323 
673	 0.173215931990498 
674	 0.173670936161629 
675	 0.174074299820733 
676	 0.174526650246869 
677	 0.174985514782935 
678	 0.175377709823013 
679	 0.175883553826276 
680	 0.176401635267542 
681	 0.17689440930424 
682	 0.177441286484015 
683	 0.177904293062313 
684	 0.178341440308199 
685	 0.178845460073817 
686	 0.179441301136143 
687	 0.180012290565852 
688	 0.180533319816122 
689	 0.181052612037832 
690	 0.181622988047397 
691	 0.182189605003029 
692	 0.182738423753306 
693	 0.18338189047519 
694	 0.183942800890341 
695	 0.184486337992454 
696	 0.185127885831758 
697	 0.185720882973783 
698	 0.186340143293135 
699	 0.186989844040817 
700	 0.187589216872117 
701	 0.188180879634976 
702	 0.188794020998393 
703	 0.189433279379231 
704	 0.190045823967292 
705	 0.190630233852927 
706	 0.191244629460643 
707	 0.19195002284193 
708	 0.192562381237312 
709	 0.193153390204179 
710	 0.193778531303544 
711	 0.194430964935737 
712	 0.195061427383288 
713	 0.195656121976537 
714	 0.196228169531719 
715	 0.196840147872058 
716	 0.197443561063153 
717	 0.198025570910929 
718	 0.198599496178137 
719	 0.199145642836345 
720	 0.199704055159633 
721	 0.200269891225872 
722	 0.200727894265965 
723	 0.201259689622789 
724	 0.20180458045523 
725	 0.202258837324208 
726	 0.202761716915059 
727	 0.203204359890539 
728	 0.203579984791838 
729	 0.203982306426171 
730	 0.204389550973596 
731	 0.204747517680517 
732	 0.205040561225105 
733	 0.205360308820514 
734	 0.205663902605445 
735	 0.205928686622955 
736	 0.206150966750439 
737	 0.206395771601871 
738	 0.206619745948365 
739	 0.206798852646178 
740	 0.206939552794276 
741	 0.207033176826793 
742	 0.207134377243153 
743	 0.207252603114605 
744	 0.207233520012844 
745	 0.20722718017125 
746	 0.207268197888497 
747	 0.207311351744722 
748	 0.207189175272122 
749	 0.207072302818061 
750	 0.207005119604759 
751	 0.206845186761769 
752	 0.206699979413583 
753	 0.206571512507951 
754	 0.206428151874219 
755	 0.206212567303602 
756	 0.205974608418646 
757	 0.205753339160848 
758	 0.205558950357676 
759	 0.205242553688151 
760	 0.204911095671191 
761	 0.204615456937912 
762	 0.204304672547913 
763	 0.204005912097521 
764	 0.203681193962995 
765	 0.203302390352585 
766	 0.202903651339433 
767	 0.202541552493292 
768	 0.202173188655237 
769	 0.201730771257501 
770	 0.201373535780286 
771	 0.201017618071981 
772	 0.200608442118265 
773	 0.200155444104351 
774	 0.199722645763999 
775	 0.199290005513627 
776	 0.198842869380712 
777	 0.198443405359525 
778	 0.198021873845316 
779	 0.197570948442517 
780	 0.197113994985242 
781	 0.196659477553574 
782	 0.196245028474856 
783	 0.195837554890218 
784	 0.195338831708336 
785	 0.194908346107833 
786	 0.194505459634897 
787	 0.194076488244216 
788	 0.193629701819868 
789	 0.193200024584751 
790	 0.192792737927156 
791	 0.192393073410404 
792	 0.191960736392403 
793	 0.191518728865377 
794	 0.191074574452349 
795	 0.19062373682743 
796	 0.190207679574316 
797	 0.18983924029781 
798	 0.18948609105507 
799	 0.189041893070148 
800	 0.188664022745728 
801	 0.188303616959629 
802	 0.187884020137375 
803	 0.187477664151612 
804	 0.187113206733446 
805	 0.186780562645601 
806	 0.186445637418006 
807	 0.186104117741109 
808	 0.185716793180611 
809	 0.185313091415557 
810	 0.185007063034536 
811	 0.184701571818219 
812	 0.184393807718982 
813	 0.184093768511952 
814	 0.183790881919317 
815	 0.183460502349142 
816	 0.183126298354149 
817	 0.182825522541688 
818	 0.18254282546391 
819	 0.18226831931298 
820	 0.182012157258951 
821	 0.181792401992204 
822	 0.181508325574541 
823	 0.181241824355674 
824	 0.181022232259224 
825	 0.180747466248616 
826	 0.180512151063936 
827	 0.180309975148548 
828	 0.18010088400198 
829	 0.17982560985498 
830	 0.179586636572069 
831	 0.179383745471617 
832	 0.179177763647068 
833	 0.179041168872117 
834	 0.178924652481809 
835	 0.178774506135069 
836	 0.178552868049809 
837	 0.178347343665617 
838	 0.17818354655502 
839	 0.178053624866548 
840	 0.177914524878227 
841	 0.177784081885563 
842	 0.177628856481039 
843	 0.177448140817188 
844	 0.177386371142631 
845	 0.177307761205185 
846	 0.177175712025814 
847	 0.177024786571155 
848	 0.176984300101602 
849	 0.176916628847171 
850	 0.176796328721928 
851	 0.176709104920872 
852	 0.176688006619513 
853	 0.176653713538747 
854	 0.176580903825992 
855	 0.176545954591402 
856	 0.176528717100091 
857	 0.176478546704668 
858	 0.176377043677491 
859	 0.176295207062015 
860	 0.176311296389112 
861	 0.176352224782949 
862	 0.176329448345381 
863	 0.176366783257547 
864	 0.17636634291601 
865	 0.176336920983508 
866	 0.176347516492861 
867	 0.176354635373348 
868	 0.176406195999222 
869	 0.176485115877349 
870	 0.176508366994752 
871	 0.176514266050282 
872	 0.176546243930917 
873	 0.176628310127335 
874	 0.176750677398787 
875	 0.17684625633447 
876	 0.176918658665075 
877	 0.176981414403108 
878	 0.177006134252814 
879	 0.177148250395153 
880	 0.177313158860996 
881	 0.177376495924283 
882	 0.177492259105857 
883	 0.177644087002495 
884	 0.177763788490041 
885	 0.177798815996304 
886	 0.177955060216015 
887	 0.178156779848434 
888	 0.178337826913454 
889	 0.178471409833477 
890	 0.17862946312524 
891	 0.178803349939961 
892	 0.179010318292447 
893	 0.179298134753717 
894	 0.179380622692764 
895	 0.179502891555772 
896	 0.179804571367033 
897	 0.180046497691886 
898	 0.180309642500962 
899	 0.180526521658124 
900	 0.180671508471361 
901	 0.180908361927086 
902	 0.181226083807545 
903	 0.181565936414011 
904	 0.181864191120341 
905	 0.182127012108216 
906	 0.182380237852014 
907	 0.182653716133189 
908	 0.18296268334182 
909	 0.183255245816961 
910	 0.183528856905428 
911	 0.183812358725582 
912	 0.184143479995375 
913	 0.184490518258745 
914	 0.184818823795235 
915	 0.185165749652682 
916	 0.185608010153899 
917	 0.185963902082455 
918	 0.186339077897695 
919	 0.186756148286026 
920	 0.187107307477358 
921	 0.187474694306963 
922	 0.187890375229446 
923	 0.188320323317409 
924	 0.188659044442967 
925	 0.189063282005697 
926	 0.189568911289156 
927	 0.190118949793073 
928	 0.19054776913874 
929	 0.191054393909482 
930	 0.191585534116337 
931	 0.192062247403377 
932	 0.192502461132436 
933	 0.193018304312796 
934	 0.193513980419809 
935	 0.193923172910644 
936	 0.194448007981225 
937	 0.19496112633021 
938	 0.19548398601346 
939	 0.196063034792435 
940	 0.196660284464223 
941	 0.197256897449631 
942	 0.197884455263241 
943	 0.198570369827824 
944	 0.199246642605741 
945	 0.199872995284077 
946	 0.200459042478575 
947	 0.201032771259928 
948	 0.201573325643694 
949	 0.202214174543749 
950	 0.202861895657371 
951	 0.20339902218807 
952	 0.20419460011415 
953	 0.205046036755915 
954	 0.205779070757501 
955	 0.206344375695143 
956	 0.207118453508078 
957	 0.207866308053464 
958	 0.208544706958881 
959	 0.209242399468538 
960	 0.209927808445831 
961	 0.210636643536209 
962	 0.211446998998724 
963	 0.212390862963141 
964	 0.213142965196025 
965	 0.213833591146584 
966	 0.214609599131187 
967	 0.215541026157263 
968	 0.216349808945678 
969	 0.217132376706048 
970	 0.21794568383395 
971	 0.218788948070296 
972	 0.219632802148074 
973	 0.220460419620983 
974	 0.221304796930904 
975	 0.222217895615409 
976	 0.223173505962126 
977	 0.224038432162384 
978	 0.224820879245051 
979	 0.225629708175198 
980	 0.226533213536412 
981	 0.227375624020248 
982	 0.228188663929569 
983	 0.229106791264702 
984	 0.230086869817466 
985	 0.231054338694364 
986	 0.231969474008028 
987	 0.232852027617351 
988	 0.233874795816698 
989	 0.234844284492565 
990	 0.235763615785917 
991	 0.236728079373112 
992	 0.237712735120211 
993	 0.238548220937121 
994	 0.239420240850797 
995	 0.240511998086001 
996	 0.2413024213614 
997	 0.242312433059129 
998	 0.243348353359329 
999	 0.244109985569704 
1000	 0.244995895617174 
1001	 0.247537106664445 
1002	 0.248417608070975 
1003	 0.249333919506336 
1004	 0.250218448609264 
1005	 0.251177111663956 
1006	 0.252089504179779 
1007	 0.252956596418756 
1008	 0.253772156724259 
1009	 0.254656179084855 
1010	 0.25549189225171 
1011	 0.256312140317065 
1012	 0.257133085441456 
1013	 0.257969957765938 
1014	 0.258872415670927 
1015	 0.259703863409476 
1016	 0.260509166217222 
1017	 0.261313053390104 
1018	 0.262074548779045 
1019	 0.262792014282588 
1020	 0.263616123890438 
1021	 0.264464988946181 
1022	 0.265265521038403 
1023	 0.26607729644238 
1024	 0.266862747277656 
1025	 0.267571365571329 
1026	 0.268281203074456 
1027	 0.269022681332771 
1028	 0.269733451903763 
1029	 0.270433709027217 
1030	 0.271147110992201 
1031	 0.271861560589128 
1032	 0.272558363130418 
1033	 0.273266660512537 
1034	 0.274000407957222 
1035	 0.274701024674813 
1036	 0.275362303173263 
1037	 0.276005774098799 
1038	 0.276646976689465 
1039	 0.277343192577586 
1040	 0.278037174069251 
1041	 0.278665168489237 
1042	 0.279302675382063 
1043	 0.279936259715629 
1044	 0.28057160293398 
1045	 0.281197970825868 
1046	 0.281872867557729 
1047	 0.282506319341737 
1048	 0.283148399298068 
1049	 0.283790294984913 
1050	 0.28439959034709 
1051	 0.285077448738556 
1052	 0.285701099953855 
1053	 0.286312171168021 
1054	 0.286988758229083 
1055	 0.287609835225341 
1056	 0.288246981878757 
1057	 0.288865025733915 
1058	 0.289454778279048 
1059	 0.290046167670461 
1060	 0.290635320039464 
1061	 0.29120144664731 
1062	 0.291791443847287 
1063	 0.29240242583889 
1064	 0.293054487982858 
1065	 0.293699552885854 
1066	 0.294297769589559 
1067	 0.294906344349772 
1068	 0.295469544134548 
1069	 0.296046425580016 
1070	 0.296645305411837 
1071	 0.297265304555765 
1072	 0.297877897831994 
1073	 0.298511035049889 
1074	 0.299100738186685 
1075	 0.299668973553969 
1076	 0.300249888928805 
1077	 0.300773989125206 
1078	 0.301332627316844 
1079	 0.301946061940363 
1080	 0.302535917083338 
1081	 0.303083188895838 
1082	 0.303642419148274 
1083	 0.304206304098782 
1084	 0.304727444963875 
1085	 0.30529199960682 
1086	 0.305898713637743 
1087	 0.30647683511777 
1088	 0.307059963270812 
1089	 0.307608614080169 
1090	 0.30814094693353 
1091	 0.308733014833741 
1092	 0.30929450064516 
1093	 0.309873479422636 
1094	 0.310475972213138 
1095	 0.311042343426779 
1096	 0.311636342874424 
1097	 0.31222090933531 
1098	 0.312789528205884 
1099	 0.313349724118786 
1100	 0.31391785219454 
1101	 0.31445540550892 
1102	 0.315033182580884 
1103	 0.315650517607628 
1104	 0.316235006221023 
1105	 0.316829119172353 
1106	 0.317439471479398 
1107	 0.317997291890623 
1108	 0.318578464865965 
1109	 0.319183713483131 
1110	 0.319797496102999 
1111	 0.320448863418754 
1112	 0.321172859117808 
1113	 0.321823594366856 
1114	 0.322471356812491 
1115	 0.323103933149657 
1116	 0.323681270334623 
1117	 0.324298219972735 
1118	 0.324942084622024 
1119	 0.325565520760089 
1120	 0.326190615104913 
1121	 0.326815639755464 
1122	 0.327402792674844 
1123	 0.328012777020049 
1124	 0.328636849188134 
1125	 0.329263343511909 
1126	 0.329904048025081 
1127	 0.330571700970256 
1128	 0.33121494608681 
1129	 0.331859775398294 
1130	 0.332491902789314 
1131	 0.3331176151035 
1132	 0.333740795552987 
1133	 0.334366453228091 
1134	 0.334965035212515 
1135	 0.335544801583386 
1136	 0.336117891833552 
1137	 0.336683809211373 
1138	 0.33723318844426 
1139	 0.337812564695121 
1140	 0.33841426824319 
1141	 0.339001989786873 
1142	 0.339610550627752 
1143	 0.340184935192752 
1144	 0.340735413634762 
1145	 0.341291300033098 
1146	 0.341820948106623 
1147	 0.342370462020969 
1148	 0.342943010363079 
1149	 0.343499278764352 
1150	 0.344052503317407 
1151	 0.344609625074977 
1152	 0.345148925125192 
1153	 0.345669716353896 
1154	 0.346181872717893 
1155	 0.346672251905053 
1156	 0.347179884714154 
1157	 0.347689306049328 
1158	 0.348186167126835 
1159	 0.348686636629398 
1160	 0.349182720639713 
1161	 0.349658979736172 
1162	 0.350149252100328 
1163	 0.350656391235388 
1164	 0.351148225589415 
1165	 0.35163361655571 
1166	 0.352123956237553 
1167	 0.352616081549707 
1168	 0.353083042952265 
1169	 0.353536758282434 
1170	 0.353985491146691 
1171	 0.35441365768955 
1172	 0.354811810887468 
1173	 0.355221860665619 
1174	 0.355624303473367 
1175	 0.356030202077254 
1176	 0.356439771623707 
1177	 0.356841439293667 
1178	 0.357240317503841 
1179	 0.357636811985711 
1180	 0.358030782370618 
1181	 0.358418238997647 
1182	 0.358805185669833 
1183	 0.359190057618828 
1184	 0.359555652480874 
1185	 0.359910020498652 
1186	 0.360258483129456 
1187	 0.360587344489645 
1188	 0.36092934601113 
1189	 0.361277295921746 
1190	 0.361611535266721 
1191	 0.361945990637237 
1192	 0.362272031672105 
1193	 0.362588577415937 
1194	 0.362898044471459 
1195	 0.363203871323723 
1196	 0.363502129628588 
1197	 0.363776483322655 
1198	 0.364066845520663 
1199	 0.364361746251489 
1200	 0.364660224287747 
1201	 0.364957459700775 
1202	 0.365272624414492 
1203	 0.365556779735325 
1204	 0.36583163483607 
1205	 0.366092610941097 
1206	 0.366323745490322 
1207	 0.366576305242905 
1208	 0.36683520754637 
1209	 0.367081538316043 
1210	 0.367335535706807 
1211	 0.367576167896228 
1212	 0.367802691377276 
1213	 0.368022529187666 
1214	 0.368239052637311 
1215	 0.368446711593657 
1216	 0.368645519852869 
1217	 0.368823127992148 
1218	 0.369026108293006 
1219	 0.369242598202961 
1220	 0.369433885817408 
1221	 0.369622518308611 
1222	 0.369813177790561 
1223	 0.369984178396976 
1224	 0.370166907076498 
1225	 0.3703746730591 
1226	 0.370557224440382 
1227	 0.370723000280951 
1228	 0.370889741958598 
1229	 0.371039007412469 
1230	 0.371203321729065 
1231	 0.371392446789883 
1232	 0.371553606838359 
1233	 0.37170501940638 
1234	 0.37184880373627 
1235	 0.372001535269025 
1236	 0.372139802120202 
1237	 0.372282212381878 
1238	 0.372442109808322 
1239	 0.372585540931039 
1240	 0.372710585863112 
1241	 0.372842112886162 
1242	 0.372980429626167 
1243	 0.373111073801164 
1244	 0.373225496098276 
1245	 0.373353496565605 
1246	 0.373493259536304 
1247	 0.373622091290743 
1248	 0.373750206120433 
1249	 0.373885463993631 
1250	 0.373992513413582 
1251	 0.37409641295611 
1252	 0.374198989122942 
1253	 0.374296317965681 
1254	 0.374389175411964 
1255	 0.374468841595561 
1256	 0.374569993642829 
1257	 0.374683277252212 
1258	 0.374780457695659 
1259	 0.374876739621928 
1260	 0.374983823424703 
1261	 0.375097579177909 
1262	 0.375187705883932 
1263	 0.375280329582369 
1264	 0.375368701142228 
1265	 0.375416349312716 
1266	 0.375487907346958 
1267	 0.37558055996569 
1268	 0.375678979583704 
1269	 0.375757634087027 
1270	 0.37582942023559 
1271	 0.375906888012948 
1272	 0.375976389262084 
1273	 0.376045610792361 
1274	 0.376113730421858 
1275	 0.376194887036352 
1276	 0.376274387704956 
1277	 0.376362120238997 
1278	 0.376475893939803 
1279	 0.37656751803051 
1280	 0.37663765558483 
1281	 0.376725251513715 
1282	 0.376814988623143 
1283	 0.376909869917413 
1284	 0.377022734250802 
1285	 0.377126265729267 
1286	 0.377217898359923 
1287	 0.377313395161352 
1288	 0.377391776542878 
1289	 0.377450421553208 
1290	 0.377527895504155 
1291	 0.377610436931849 
1292	 0.377677099919749 
1293	 0.377743099524063 
1294	 0.377807417619829 
1295	 0.377861041064733 
1296	 0.377910875421865 
1297	 0.377971937579259 
1298	 0.378012578315311 
1299	 0.378044569844445 
1300	 0.378054672680174 
1301	 0.378018822140709 
1302	 0.378021658810496 
1303	 0.378035505316199 
1304	 0.378035265493957 
1305	 0.378061872766346 
1306	 0.37810034237825 
1307	 0.378084395502951 
1308	 0.378041204697447 
1309	 0.378004024920112 
1310	 0.377934497202123 
1311	 0.377909184419846 
1312	 0.377904788980336 
1313	 0.377891095754484 
1314	 0.377898559547133 
1315	 0.377882683884223 
1316	 0.377837326784705 
1317	 0.377821924892663 
1318	 0.377814003758624 
1319	 0.377813170466085 
1320	 0.377838687753828 
1321	 0.37784946698126 
1322	 0.377858384635618 
1323	 0.377853073654465 
1324	 0.377870214310505 
1325	 0.377890731597698 
1326	 0.37790695972065 
1327	 0.377944448643539 
1328	 0.3779634066208 
1329	 0.377980596243786 
1330	 0.378013983607611 
1331	 0.378056615166031 
1332	 0.378100626412138 
1333	 0.378146066588713 
1334	 0.378207689751247 
1335	 0.378277319898236 
1336	 0.378356113780298 
1337	 0.378460445704796 
1338	 0.378549438422417 
1339	 0.378632829077945 
1340	 0.378719482850176 
1341	 0.378815129040292 
1342	 0.378893905751797 
1343	 0.378970736854185 
1344	 0.379028477354509 
1345	 0.379098019102202 
1346	 0.379175538633436 
1347	 0.379260139696226 
1348	 0.379376955072657 
1349	 0.379480079842514 
1350	 0.379555773474235 
1351	 0.379642294856679 
1352	 0.37972195635427 
1353	 0.379815785962611 
1354	 0.379911838968995 
1355	 0.380015993978788 
1356	 0.380146013617692 
1357	 0.380241471137455 
1358	 0.380324446804391 
1359	 0.380411964111486 
1360	 0.380477490019317 
1361	 0.380554582008996 
1362	 0.380648547405197 
1363	 0.380726989921925 
1364	 0.380806323431141 
1365	 0.380870627046273 
1366	 0.380920069813267 
1367	 0.380965477887921 
1368	 0.381023337973662 
1369	 0.381067306522352 
1370	 0.381105000882345 
1371	 0.381149141199111 
1372	 0.381168031716658 
1373	 0.381164616650527 
1374	 0.381148552770118 
1375	 0.381128396777225 
1376	 0.381074216871911 
1377	 0.380993011671474 
1378	 0.380897400721894 
1379	 0.380776738582004 
1380	 0.380646531166203 
1381	 0.380503924513637 
1382	 0.380344809742595 
1383	 0.380167847593911 
1384	 0.379981891865734 
1385	 0.379797933125432 
1386	 0.37957325494513 
1387	 0.379334491888897 
1388	 0.379060719454489 
1389	 0.37875914828971 
1390	 0.378415509115531 
1391	 0.378045714619637 
1392	 0.377633540154258 
1393	 0.377164936896696 
1394	 0.376683187073645 
1395	 0.376177687506081 
1396	 0.375667322131129 
1397	 0.375156974327483 
1398	 0.374642973263619 
1399	 0.374120246340504 
1400	 0.373584360941457 
1401	 0.373066479432902 
1402	 0.372543681740267 
1403	 0.372040261847969 
1404	 0.371543983388534 
1405	 0.371070506453528 
1406	 0.370607103016243 
1407	 0.37016577004855 
1408	 0.369737982235218 
1409	 0.369341644198505 
1410	 0.368948464897871 
1411	 0.368616836212956 
1412	 0.3683226854636 
1413	 0.368074859638494 
1414	 0.367879751775716 
1415	 0.367720456537654 
1416	 0.367605714249282 
1417	 0.367544026190486 
1418	 0.367515238189253 
1419	 0.367499125316448 
1420	 0.367489072051803 
1421	 0.367475075054701 
1422	 0.367460271573519 
1423	 0.367436488043682 
1424	 0.367394849633868 
1425	 0.367339365450844 
1426	 0.367283510529993 
1427	 0.367206338050742 
1428	 0.367149053379842 
1429	 0.367102790148474 
1430	 0.367050826831092 
1431	 0.366996520032386 
1432	 0.366945627297326 
1433	 0.366891713120416 
1434	 0.366846739538671 
1435	 0.366804393094668 
1436	 0.366776373044095 
1437	 0.366763658448217 
1438	 0.366742001478287 
1439	 0.366724604102245 
1440	 0.366710076844894 
1441	 0.366685353292653 
1442	 0.366677742824769 
1443	 0.366680736611203 
1444	 0.366667481194922 
1445	 0.366647125999158 
1446	 0.366633947330547 
1447	 0.366632523983915 
1448	 0.366632717724997 
1449	 0.366629666670021 
1450	 0.36662829062305 
1451	 0.366627029512133 
1452	 0.366616283775537 
1453	 0.36661454650744 
1454	 0.366623402500775 
1455	 0.366624498538195 
1456	 0.366620025744564 
1457	 0.366623696171983 
1458	 0.366628857672852 
1459	 0.366635999206088 
1460	 0.366637887452367 
1461	 0.366660252664659 
1462	 0.366683226980052 
1463	 0.366733493765023 
1464	 0.366819082121114 
1465	 0.366890003659475 
1466	 0.366968609808549 
1467	 0.367053494722302 
1468	 0.367120937990963 
1469	 0.367218641812806 
1470	 0.367342181086765 
1471	 0.367469617745665 
1472	 0.367593424108273 
1473	 0.367745124169993 
1474	 0.367906950505139 
1475	 0.368072869744402 
1476	 0.368247526890246 
1477	 0.368427433945115 
1478	 0.368618563544086 
1479	 0.368800687264316 
1480	 0.368993018571095 
1481	 0.36919940928224 
1482	 0.369373489199394 
1483	 0.369507561897143 
1484	 0.369696761875959 
1485	 0.369896519596911 
1486	 0.370095333534603 
1487	 0.370332332986371 
1488	 0.370541813120567 
1489	 0.37073101109695 
1490	 0.370923417023039 
1491	 0.371118092739959 
1492	 0.371310480709677 
1493	 0.371486392340364 
1494	 0.371676189810525 
1495	 0.371888453593585 
1496	 0.372076070657605 
1497	 0.372261352782309 
1498	 0.372436352049305 
1499	 0.372587527194042 
1500	 0.372742886577603 
1501	 0.372897766281609 
1502	 0.37304721454669 
1503	 0.373188982844569 
1504	 0.373335322869501 
1505	 0.37348082068765 
1506	 0.373629089227354 
1507	 0.373774426936195 
1508	 0.373920025240961 
1509	 0.374062899452963 
1510	 0.374184892910104 
1511	 0.374318412714128 
1512	 0.374464417811161 
1513	 0.374626367642976 
1514	 0.374799536146872 
1515	 0.374974831066282 
1516	 0.375141134649352 
1517	 0.375274336653264 
1518	 0.375375427738166 
1519	 0.375492285267952 
1520	 0.375589386665371 
1521	 0.375697556232884 
1522	 0.375810835889212 
1523	 0.375933421786043 
1524	 0.376059650198546 
1525	 0.376188678862786 
1526	 0.376326622020404 
1527	 0.376469688236311 
1528	 0.376619843576852 
1529	 0.376747882321728 
1530	 0.376885321047952 
1531	 0.377003332824383 
1532	 0.377087178371826 
1533	 0.37718902842857 
1534	 0.377295070608101 
1535	 0.377395786037695 
1536	 0.377493419686021 
1537	 0.377594519797751 
1538	 0.377695094380894 
1539	 0.377795539703865 
1540	 0.377904084666045 
1541	 0.378002426059039 
1542	 0.378099710246946 
1543	 0.37818501986426 
1544	 0.378260489534716 
1545	 0.378329264102669 
1546	 0.378381701613073 
1547	 0.378437553414251 
1548	 0.378500415271269 
1549	 0.378571155607478 
1550	 0.378668527526331 
1551	 0.378783044596157 
1552	 0.378902497922167 
1553	 0.379009386486462 
1554	 0.37909351125868 
1555	 0.379176298540204 
1556	 0.379263410056599 
1557	 0.379347451517617 
1558	 0.379446299264608 
1559	 0.379533665865062 
1560	 0.379608044833046 
1561	 0.379667430044418 
1562	 0.379735095831616 
1563	 0.379787164687762 
1564	 0.379868265200055 
1565	 0.379964779771028 
1566	 0.380052885242222 
1567	 0.380154108811451 
1568	 0.380247788958779 
1569	 0.380338206557867 
1570	 0.380417422944849 
1571	 0.380501562508201 
1572	 0.380570667684905 
1573	 0.380612626507217 
1574	 0.38067474729723 
1575	 0.380741458078206 
1576	 0.380797717596074 
1577	 0.380865530797086 
1578	 0.380914558025077 
1579	 0.380945846416377 
1580	 0.380980252058932 
1581	 0.381001980234739 
1582	 0.381032402951756 
1583	 0.381053488864316 
1584	 0.381101238282088 
1585	 0.381163374332383 
1586	 0.381228804237216 
1587	 0.381323060470305 
1588	 0.38140206514844 
1589	 0.381485527559412 
1590	 0.38155028175327 
1591	 0.381600236963258 
1592	 0.381645066568716 
1593	 0.38167438900394 
1594	 0.381706472091395 
1595	 0.381728964723316 
1596	 0.381766239798189 
1597	 0.381808452855775 
1598	 0.381849593000634 
1599	 0.381900631333767 
1600	 0.381950627797551 
1601	 0.381995491306667 
1602	 0.38204646246744 
1603	 0.38211750961824 
1604	 0.382166555519164 
1605	 0.38219541077817 
1606	 0.382235343267133 
1607	 0.382268710692366 
1608	 0.382298149386954 
1609	 0.382360273686349 
1610	 0.38243697773104 
1611	 0.382485306852115 
1612	 0.382543362366524 
1613	 0.382577733679156 
1614	 0.382580090220464 
1615	 0.382625770705487 
1616	 0.382660978815665 
1617	 0.38268685097069 
1618	 0.382746613099176 
1619	 0.382773963873003 
1620	 0.382789743182665 
1621	 0.382803940921305 
1622	 0.382810704659724 
1623	 0.382824994845653 
1624	 0.382832164425562 
1625	 0.382854234721438 
1626	 0.382879652137599 
1627	 0.382925613361526 
1628	 0.382992336980411 
1629	 0.383041747971634 
1630	 0.383105204106546 
1631	 0.383148080247662 
1632	 0.383167100978228 
1633	 0.383203887003466 
1634	 0.383249023367455 
1635	 0.383281023909883 
1636	 0.383309428301176 
1637	 0.383338383475232 
1638	 0.383352160427182 
1639	 0.383390551593258 
1640	 0.38345184834151 
1641	 0.383486131041647 
1642	 0.383520649983401 
1643	 0.38354642018436 
1644	 0.383541855104056 
1645	 0.383572564356288 
1646	 0.383625635364679 
1647	 0.383660833671618 
1648	 0.383698975188984 
1649	 0.383740773917108 
1650	 0.383772615216132 
1651	 0.383815352054433 
1652	 0.383887688742203 
1653	 0.3839141345065 
1654	 0.383913609583753 
1655	 0.383927394262691 
1656	 0.383917726558982 
1657	 0.383931147979791 
1658	 0.383968427319261 
1659	 0.383989201803586 
1660	 0.384000037941034 
1661	 0.384026389885718 
1662	 0.384056118641295 
1663	 0.384089652040351 
1664	 0.384143829162592 
1665	 0.384173179387126 
1666	 0.384195554360181 
1667	 0.384207598754235 
1668	 0.384209040637395 
1669	 0.384198051919708 
1670	 0.38416567612389 
1671	 0.384150540818951 
1672	 0.384110518458065 
1673	 0.384122122475983 
1674	 0.384178054726996 
1675	 0.384211293756222 
1676	 0.384268190007629 
1677	 0.384304195360687 
1678	 0.384312397364111 
1679	 0.384344343506044 
1680	 0.384404522662285 
1681	 0.384419408021021 
1682	 0.384414510208809 
1683	 0.384417083812262 
1684	 0.384385267402998 
1685	 0.384384508445389 
1686	 0.384409162483389 
1687	 0.384426962311031 
1688	 0.384443360141581 
1689	 0.384467377591519 
1690	 0.384507771300262 
1691	 0.384528987478033 
1692	 0.384544440986675 
1693	 0.384563277082286 
1694	 0.384568698255211 
1695	 0.384584916071402 
1696	 0.384612607914046 
1697	 0.384632991168778 
1698	 0.384650713604252 
1699	 0.384671951040918 
1700	 0.384691883849674 
1701	 0.384713765016785 
1702	 0.384749705444513 
1703	 0.38475953095984 
1704	 0.384764034368009 
1705	 0.384753638154056 
1706	 0.384701870363806 
1707	 0.384693082972227 
1708	 0.384706751679673 
1709	 0.384697948552746 
1710	 0.384697989653473 
1711	 0.384692496557069 
1712	 0.38465856775881 
1713	 0.384652037616762 
1714	 0.384668913854639 
1715	 0.384676035764613 
1716	 0.384683515306731 
1717	 0.384694576357781 
1718	 0.384717109384877 
1719	 0.384716957373035 
1720	 0.384708647788478 
1721	 0.384699091446133 
1722	 0.384676572728272 
1723	 0.384653362481202 
1724	 0.384624046138609 
1725	 0.384607416372769 
1726	 0.384585854240478 
1727	 0.384572751373009 
1728	 0.384590091221667 
1729	 0.384568959162422 
1730	 0.384535844519332 
1731	 0.384481432318716 
1732	 0.384408057243321 
1733	 0.384316411184472 
1734	 0.384186581645516 
1735	 0.384099469798676 
1736	 0.38400493009509 
1737	 0.383942425421262 
1738	 0.383923281231361 
1739	 0.38386984920414 
1740	 0.383817067278944 
1741	 0.3837503787996 
1742	 0.383666446593111 
1743	 0.383608538995151 
1744	 0.383557536298098 
1745	 0.383491998861656 
1746	 0.383424629054845 
1747	 0.383371672282775 
1748	 0.383315132187198 
1749	 0.383270640021549 
1750	 0.383233632703937 
1751	 0.383143652985076 
1752	 0.3830783111547 
1753	 0.383029932038461 
1754	 0.3829378301838 
1755	 0.382885064452035 
1756	 0.382810280776801 
1757	 0.382701869881755 
1758	 0.382655595437133 
1759	 0.382605308109538 
1760	 0.382547828829897 
1761	 0.382497402545853 
1762	 0.38241502341191 
1763	 0.382325260994281 
1764	 0.382263350721937 
1765	 0.382221851974888 
1766	 0.382197978766645 
1767	 0.382173004621203 
1768	 0.382147966851259 
1769	 0.382154178254873 
1770	 0.382133357308724 
1771	 0.382128019198989 
1772	 0.382101770656452 
1773	 0.381995943062643 
1774	 0.381920598366273 
1775	 0.381819724111664 
1776	 0.381703024004233 
1777	 0.381648441621786 
1778	 0.381607556690505 
1779	 0.381594603384347 
1780	 0.381604490285265 
1781	 0.381606450215425 
1782	 0.381598311368988 
1783	 0.381554961992432 
1784	 0.381526120857257 
1785	 0.381494318796929 
1786	 0.38144890832334 
1787	 0.38140385966573 
1788	 0.381364355651387 
1789	 0.38129178680603 
1790	 0.381280419678942 
1791	 0.381313929719733 
1792	 0.381329457888129 
1793	 0.381390193559165 
1794	 0.381394766281291 
1795	 0.381366906815398 
1796	 0.381337048789776 
1797	 0.381268126289974 
1798	 0.381236529715393 
1799	 0.381213476414744 
1800	 0.381194095749118 
1801	 0.37640928793832 
1802	 0.376426525939775 
1803	 0.376435502915779 
1804	 0.376450622212546 
1805	 0.376470877488349 
1806	 0.37648145115626 
1807	 0.376498108472935 
1808	 0.376513136768287 
1809	 0.376515816712666 
1810	 0.376519114178154 
1811	 0.376534485732946 
1812	 0.376537454793593 
1813	 0.376518579614685 
1814	 0.376496018134299 
1815	 0.376493264030648 
1816	 0.376490437852952 
1817	 0.376478702873121 
1818	 0.376468599229885 
1819	 0.376466436227438 
1820	 0.376459527145804 
1821	 0.376448783169898 
1822	 0.376450598459856 
1823	 0.376459551129827 
1824	 0.37646125369253 
1825	 0.376421311063802 
1826	 0.376372243937659 
1827	 0.376328665201436 
1828	 0.376280209492681 
1829	 0.376209657544287 
1830	 0.376165296629811 
1831	 0.376151118002921 
1832	 0.376094725387476 
1833	 0.376027641791028 
1834	 0.375970482789678 
1835	 0.375904271790257 
1836	 0.37584799264128 
1837	 0.375760896583086 
1838	 0.375658381897687 
1839	 0.375591240829998 
1840	 0.375538604993394 
1841	 0.375461146810018 
1842	 0.375411335487635 
1843	 0.375371888848003 
1844	 0.37525458884251 
1845	 0.37513545001573 
1846	 0.375028678134093 
1847	 0.374913247821334 
1848	 0.374799948597647 
1849	 0.374704445190856 
1850	 0.374613674977506 
1851	 0.374525582687651 
1852	 0.374441178897427 
1853	 0.374381742052578 
1854	 0.374287186670415 
1855	 0.374174539842607 
1856	 0.374033910015377 
1857	 0.373844170217487 
1858	 0.373641810853712 
1859	 0.373428786289406 
1860	 0.37320969425566 
1861	 0.372985896514501 
1862	 0.372745641464709 
1863	 0.372472823177221 
1864	 0.37216984706358 
1865	 0.371843904441936 
1866	 0.371485906980825 
1867	 0.371098452657233 
1868	 0.370708134738059 
1869	 0.370262823159543 
1870	 0.369758653021379 
1871	 0.369206944960213 
1872	 0.368616578860073 
1873	 0.367968795932161 
1874	 0.367272590607437 
1875	 0.366542346725686 
1876	 0.365783131660958 
1877	 0.364937653966728 
1878	 0.364003481332844 
1879	 0.363001960619693 
1880	 0.361912738033814 
1881	 0.360727443770639 
1882	 0.359483369880864 
1883	 0.358181235606102 
1884	 0.356749767391389 
1885	 0.355264503757702 
1886	 0.353713152531493 
1887	 0.352047083724077 
1888	 0.350351725712672 
1889	 0.348591658866025 
1890	 0.346762265427798 
1891	 0.344912631011486 
1892	 0.34297379478723 
1893	 0.34108050111787 
1894	 0.339175485927369 
1895	 0.337270319000522 
1896	 0.335365170860434 
1897	 0.333525754272252 
1898	 0.331681580826141 
1899	 0.329889520215718 
1900	 0.328158828137621 
1901	 0.326498365591584 
1902	 0.324958332888011 
1903	 0.323540098118625 
1904	 0.322157844379141 
1905	 0.320853151173457 
1906	 0.319656851846857 
1907	 0.31850343204413 
1908	 0.31742891764145 
1909	 0.31648343975853 
1910	 0.315594988367884 
1911	 0.314756873773496 
1912	 0.313980254744377 
1913	 0.313250267553861 
1914	 0.312582611940885 
1915	 0.311945825459353 
1916	 0.311348729019802 
1917	 0.310798764315253 
1918	 0.310305006390751 
1919	 0.309858587814287 
1920	 0.309483173715729 
1921	 0.309140039332087 
1922	 0.30884752833791 
1923	 0.308606857708824 
1924	 0.30839330549714 
1925	 0.308225587189866 
1926	 0.308094719967085 
1927	 0.307999845726063 
1928	 0.307930595592353 
1929	 0.30790198176995 
1930	 0.307898917829724 
1931	 0.307919500186501 
1932	 0.307948827165294 
1933	 0.307991424595495 
1934	 0.308075562528431 
1935	 0.308193280115836 
1936	 0.308350190317092 
1937	 0.308514147828659 
1938	 0.308697784326424 
1939	 0.308915209860293 
1940	 0.309147988924809 
1941	 0.309410301002513 
1942	 0.309712437745556 
1943	 0.310066774132752 
1944	 0.310412595272619 
1945	 0.310760094895618 
1946	 0.311130735062177 
1947	 0.31151063973666 
1948	 0.311912368425811 
1949	 0.312369066705164 
1950	 0.312782177100318 
1951	 0.313194237122711 
1952	 0.313588949182156 
1953	 0.313974551621172 
1954	 0.314361703837296 
1955	 0.31477657578555 
1956	 0.31521556921151 
1957	 0.315663906896519 
1958	 0.316129744836548 
1959	 0.316599786985801 
1960	 0.31709415722938 
1961	 0.31757505772074 
1962	 0.318044374382876 
1963	 0.318535630414627 
1964	 0.319038963979844 
1965	 0.319539605259802 
1966	 0.320048095252538 
1967	 0.320552669392039 
1968	 0.321067247432144 
1969	 0.321576523629356 
1970	 0.322090438275637 
1971	 0.322632616818118 
1972	 0.32314867571301 
1973	 0.323634625873311 
1974	 0.324146099134137 
1975	 0.324667518285541 
1976	 0.325176092854991 
1977	 0.32571410132374 
1978	 0.326253586552842 
1979	 0.326762922775339 
1980	 0.327274518992011 
1981	 0.327783790397258 
1982	 0.328269737096207 
1983	 0.328775933569748 
1984	 0.329295546135346 
1985	 0.329814793077944 
1986	 0.330341088230657 
1987	 0.33086637511493 
1988	 0.331393607169337 
1989	 0.331918082275324 
1990	 0.332466709490578 
1991	 0.333001045620427 
1992	 0.333534042236354 
1993	 0.334087663762982 
1994	 0.334608140042935 
1995	 0.335091970532691 
1996	 0.335598922220843 
1997	 0.336103668408492 
1998	 0.336609651139312 
1999	 0.337129530464725 
2000	 0.337642187514859 
2001	 0.33815911041442 
2002	 0.338644710424133 
2003	 0.339163189655782 
2004	 0.339683384232815 
2005	 0.340169298768991 
2006	 0.340651345405461 
2007	 0.341112505934829 
2008	 0.341515644943127 
2009	 0.34196703520667 
2010	 0.342432078771219 
2011	 0.342900304039644 
2012	 0.343397840379683 
2013	 0.343872017441036 
2014	 0.344339112589428 
2015	 0.344802938357436 
2016	 0.345246777530722 
2017	 0.345697133888745 
2018	 0.346130735146061 
2019	 0.346542969090828 
2020	 0.346973889583787 
2021	 0.347404666576843 
2022	 0.347830386754039 
2023	 0.348275798956944 
2024	 0.348699933189162 
2025	 0.349109441341863 
2026	 0.349512491634874 
2027	 0.349912950870012 
2028	 0.350285897882816 
2029	 0.350672094663639 
2030	 0.351049789378795 
2031	 0.351433675277841 
2032	 0.351826755074097 
2033	 0.352206192532598 
2034	 0.352568799624269 
2035	 0.352953175573316 
2036	 0.353353775635127 
2037	 0.353732995659913 
2038	 0.354136877842558 
2039	 0.354498354986876 
2040	 0.354826586874634 
2041	 0.355139360598436 
2042	 0.355445247553538 
2043	 0.355725797908569 
2044	 0.356017447717353 
2045	 0.356295814913141 
2046	 0.3565985123275 
2047	 0.356912352890612 
2048	 0.357222143131512 
2049	 0.357549262125539 
2050	 0.357860790664713 
2051	 0.358170029062713 
2052	 0.358464649506292 
2053	 0.358748158575491 
2054	 0.359030124383785 
2055	 0.359296164339739 
2056	 0.359564375758281 
2057	 0.359832372809471 
2058	 0.360102503639079 
2059	 0.360366846562979 
2060	 0.360619566900259 
2061	 0.360890222111282 
2062	 0.361162262072711 
2063	 0.361445520292926 
2064	 0.361749418424143 
2065	 0.36204083258579 
2066	 0.36234174171388 
2067	 0.362629144034619 
2068	 0.362922129279367 
2069	 0.36319286458375 
2070	 0.363426834695557 
2071	 0.363622841458715 
2072	 0.363849873887005 
2073	 0.364049595037993 
2074	 0.36427444980162 
2075	 0.364529400504341 
2076	 0.364772203373199 
2077	 0.364999492298818 
2078	 0.365247132654571 
2079	 0.365513706476333 
2080	 0.365776824228707 
2081	 0.366064462106558 
2082	 0.366320466297241 
2083	 0.366566716421877 
2084	 0.366802268443713 
2085	 0.367023229301866 
2086	 0.367216969228876 
2087	 0.367418186875148 
2088	 0.367604106159603 
2089	 0.367811034662638 
2090	 0.368017519064946 
2091	 0.368231981345192 
2092	 0.368465476692714 
2093	 0.368694740298385 
2094	 0.368924083002789 
2095	 0.369153061540213 
2096	 0.369382703303157 
2097	 0.369617035970389 
2098	 0.369862838577664 
2099	 0.370101303320308 
2100	 0.370307603351291 
2101	 0.370503221916548 
2102	 0.370691259272712 
2103	 0.370830431106738 
2104	 0.371020699052919 
2105	 0.371226763242098 
2106	 0.371445353399827 
2107	 0.371676250125153 
2108	 0.371926905452692 
2109	 0.372212627144991 
2110	 0.37248166755323 
2111	 0.372776629844148 
2112	 0.373040180311975 
2113	 0.373293232439682 
2114	 0.373513798424494 
2115	 0.373743307265911 
2116	 0.373952123896173 
2117	 0.374186715075019 
2118	 0.374422424292773 
2119	 0.374673878124128 
2120	 0.374948558033459 
2121	 0.375208453674162 
2122	 0.375487908444279 
2123	 0.375730344876799 
2124	 0.375959653573257 
2125	 0.376170038738937 
2126	 0.376348414546765 
2127	 0.376529415180861 
2128	 0.37670562460263 
2129	 0.376863314369499 
2130	 0.377014819708283 
2131	 0.377147649991151 
2132	 0.377262299726982 
2133	 0.377360854652445 
2134	 0.377433541053698 
2135	 0.37748202858562 
2136	 0.377521186342893 
2137	 0.377530825681997 
2138	 0.377544877670301 
2139	 0.377554771134897 
2140	 0.377551834547263 
2141	 0.377548851852733 
2142	 0.377518694061992 
2143	 0.377461360055465 
2144	 0.377406998128349 
2145	 0.377353648027496 
2146	 0.377266654190794 
2147	 0.377170153186366 
2148	 0.377043929054466 
2149	 0.376915311337886 
2150	 0.376755322882081 
2151	 0.376595991222328 
2152	 0.376443267796059 
2153	 0.376262258694369 
2154	 0.376048622590664 
2155	 0.375843598856226 
2156	 0.3756498643752 
2157	 0.375414151025492 
2158	 0.375165583889315 
2159	 0.374887860376696 
2160	 0.374550775205607 
2161	 0.37423700457866 
2162	 0.373896700246307 
2163	 0.373588508750023 
2164	 0.373312528416206 
2165	 0.373028674210743 
2166	 0.372733492094446 
2167	 0.372444659459661 
2168	 0.372152121384169 
2169	 0.371844046307399 
2170	 0.371541643048154 
2171	 0.371254640371994 
2172	 0.370948990926813 
2173	 0.370643840250582 
2174	 0.370305886371919 
2175	 0.369935207855189 
2176	 0.369583552066455 
2177	 0.369208638099506 
2178	 0.36884593292184 
2179	 0.36851581469214 
2180	 0.36816161690427 
2181	 0.36778698885429 
2182	 0.367417007918346 
2183	 0.367033687414887 
2184	 0.366664150455117 
2185	 0.366286594030056 
2186	 0.365901282264628 
2187	 0.365534215639749 
2188	 0.365162762659357 
2189	 0.364817065730866 
2190	 0.364498463353613 
2191	 0.364173345206768 
2192	 0.363846245406914 
2193	 0.363544903488702 
2194	 0.363240525209409 
2195	 0.362973779707485 
2196	 0.362744660390074 
2197	 0.362525677789337 
2198	 0.362322067383211 
2199	 0.362148938606661 
2200	 0.361997186967433 
2201	 0.361866479916661 
2202	 0.361776288489021 
2203	 0.361691352654315 
2204	 0.361611391519424 
2205	 0.36153589229773 
2206	 0.361494424048172 
2207	 0.36146499675974 
2208	 0.361457608100008 
2209	 0.361482797035582 
2210	 0.361519927511401 
2211	 0.361574739502214 
2212	 0.361638424522764 
2213	 0.361733728697077 
2214	 0.361814354173495 
2215	 0.361893045250933 
2216	 0.361979378641345 
2217	 0.362082477818092 
2218	 0.362162402221143 
2219	 0.362260106555557 
2220	 0.362309003193726 
2221	 0.362300749071548 
2222	 0.362315703695694 
2223	 0.362292815419804 
2224	 0.362286333216568 
2225	 0.362289703775101 
2226	 0.362313017820548 
2227	 0.362311669615122 
2228	 0.362318645040872 
2229	 0.362290179080519 
2230	 0.362246582827459 
2231	 0.362178029386116 
2232	 0.362072495683808 
2233	 0.361979482369899 
2234	 0.361867880815923 
2235	 0.361762830703148 
2236	 0.361657992048282 
2237	 0.361555395648306 
2238	 0.361431998489882 
2239	 0.361346484733494 
2240	 0.361295238168635 
2241	 0.361228249733675 
2242	 0.361197037432294 
2243	 0.361129936811928 
2244	 0.361036316040413 
2245	 0.360931350599004 
2246	 0.360815954060726 
2247	 0.360698658765941 
2248	 0.360598541523826 
2249	 0.360513411638213 
2250	 0.360396606712522 
2251	 0.360258454202278 
2252	 0.360175033116004 
2253	 0.360098387445426 
2254	 0.360025365410195 
2255	 0.360005620331187 
2256	 0.359943831243624 
2257	 0.359820137219654 
2258	 0.359771716161504 
2259	 0.359777543811536 
2260	 0.35974658403083 
2261	 0.359714958946227 
2262	 0.35971466154971 
2263	 0.359691636767413 
2264	 0.359712860106623 
2265	 0.359803502850903 
2266	 0.359869230027265 
2267	 0.359931864877516 
2268	 0.3600091031342 
2269	 0.360113275697962 
2270	 0.360200150295017 
2271	 0.36023916022572 
2272	 0.360267604932189 
2273	 0.360273471640134 
2274	 0.360278315593323 
2275	 0.360317042979931 
2276	 0.360395769220815 
2277	 0.360466842237882 
2278	 0.36054364706212 
2279	 0.360617038413847 
2280	 0.360713162049488 
2281	 0.360778305017314 
2282	 0.360820444705904 
2283	 0.360879271737052 
2284	 0.360938881822156 
2285	 0.360987355763098 
2286	 0.361031280783883 
2287	 0.361079538263796 
2288	 0.361114163670299 
2289	 0.361157967950513 
2290	 0.361210206598635 
2291	 0.361274663081637 
2292	 0.361352214996819 
2293	 0.361422334703898 
2294	 0.361506719247579 
2295	 0.361570789275277 
2296	 0.361610294355671 
2297	 0.361664453650869 
2298	 0.361696862970345 
2299	 0.361764197457988 
2300	 0.361874679401212 
2301	 0.361931858637254 
2302	 0.361969917143431 
2303	 0.362012980984685 
2304	 0.36201869542734 
2305	 0.362038839181582 
2306	 0.362087470580712 
2307	 0.362177936116628 
2308	 0.362229336632857 
2309	 0.362296840225817 
2310	 0.362325245707502 
2311	 0.36232807086098 
2312	 0.362315624519651 
2313	 0.362263392070881 
2314	 0.362231939837795 
2315	 0.36217446072365 
2316	 0.362151037592516 
2317	 0.362163947483954 
2318	 0.362165635843537 
2319	 0.362161400225949 
2320	 0.362189613765643 
2321	 0.362253476859893 
2322	 0.362275036367632 
2323	 0.362311610635563 
2324	 0.362322302387153 
2325	 0.362292598756137 
2326	 0.36225281742008 
2327	 0.362205854947904 
2328	 0.362136092345324 
2329	 0.362051931609377 
2330	 0.361995788942584 
2331	 0.361981609253573 
2332	 0.361987609577978 
2333	 0.362009630644206 
2334	 0.362051470420077 
2335	 0.362089088669837 
2336	 0.3621307321255 
2337	 0.362137581498335 
2338	 0.362131076171803 
2339	 0.362088696930968 
2340	 0.362002503630779 
2341	 0.36194574994887 
2342	 0.36184618480998 
2343	 0.361714615943157 
2344	 0.361591793411864 
2345	 0.361478474368111 
2346	 0.361361552765623 
2347	 0.361237503574444 
2348	 0.36112708324693 
2349	 0.3610207994935 
2350	 0.360917552525359 
2351	 0.36077051641735 
2352	 0.360619581443304 
2353	 0.360441852186519 
2354	 0.360169857331827 
2355	 0.359998159242459 
2356	 0.359886200167628 
2357	 0.359734730094182 
2358	 0.359635364307414 
2359	 0.359493807314978 
2360	 0.359282222248931 
2361	 0.359127684109164 
2362	 0.359019783573385 
2363	 0.358829428648182 
2364	 0.358595951448014 
2365	 0.358404852990653 
2366	 0.358217489079439 
2367	 0.357989410885652 
2368	 0.35773915857049 
2369	 0.357547916888453 
2370	 0.357385668361574 
2371	 0.357122684273961 
2372	 0.356871562977363 
2373	 0.356655574503744 
2374	 0.356343297675 
2375	 0.356000902626287 
2376	 0.355747498518367 
2377	 0.355490699434816 
2378	 0.355166439450118 
2379	 0.354864358213818 
2380	 0.354566815496299 
2381	 0.354212323841483 
2382	 0.353844382737813 
2383	 0.353496973766692 
2384	 0.353168141817656 
2385	 0.352867306698157 
2386	 0.352657744546206 
2387	 0.352419272546006 
2388	 0.352154167948378 
2389	 0.3519385126005 
2390	 0.351678749578561 
2391	 0.351425552487796 
2392	 0.351104760803804 
2393	 0.350735284280772 
2394	 0.350412396243774 
2395	 0.350065913539444 
2396	 0.34971565640536 
2397	 0.349372125398555 
2398	 0.349000187116834 
2399	 0.348584058455428 
2400	 0.348331767442533 
2401	 0.348097517042856 
2402	 0.347709847683368 
2403	 0.347324027034428 
2404	 0.346793441838501 
2405	 0.346261399485228 
2406	 0.345821843703559 
2407	 0.345455119202402 
2408	 0.345143437818262 
2409	 0.344779121285519 
2410	 0.344406365528603 
2411	 0.343974312108724 
2412	 0.343642384913933 
2413	 0.343384320246925 
2414	 0.343058282412353 
2415	 0.342774551424674 
2416	 0.342438533896729 
2417	 0.34197009742131 
2418	 0.341608846659082 
2419	 0.34133547080218 
2420	 0.340950893177644 
2421	 0.340515246910138 
2422	 0.340133825733003 
2423	 0.339758743269158 
2424	 0.339345824725789 
2425	 0.338941117954491 
2426	 0.33851899973721 
2427	 0.337997758049179 
2428	 0.337609901875245 
2429	 0.337312450570231 
2430	 0.337035888467749 
2431	 0.336804547568353 
2432	 0.336501342244003 
2433	 0.336251162161188 
2434	 0.335954437982809 
2435	 0.335627663676465 
2436	 0.33526707721988 
2437	 0.33478245148153 
2438	 0.334384974448733 
2439	 0.334057550636729 
2440	 0.33368256271183 
2441	 0.333338083771924 
2442	 0.332970638850035 
2443	 0.332549753009093 
2444	 0.332098251777648 
2445	 0.331632914579108 
2446	 0.331302986499708 
2447	 0.330914519925079 
2448	 0.330580792667783 
2449	 0.330474391087543 
2450	 0.330154479779291 
2451	 0.329738424037413 
2452	 0.329341084202781 
2453	 0.328858269906059 
2454	 0.328401002901376 
2455	 0.327906290772387 
2456	 0.32749744473316 
2457	 0.327156688800141 
2458	 0.326752269537327 
2459	 0.326363394133019 
2460	 0.325986611220706 
2461	 0.325607958750008 
2462	 0.325265749805841 
2463	 0.32493016476518 
2464	 0.324593614149439 
2465	 0.32426650573773 
2466	 0.323900281853098 
2467	 0.323566714856632 
2468	 0.323247215679735 
2469	 0.322831730671167 
2470	 0.322338714569038 
2471	 0.32200013509311 
2472	 0.321675994119561 
2473	 0.321519665906293 
2474	 0.321398010441139 
2475	 0.321059157641712 
2476	 0.320561533318639 
2477	 0.320123291761323 
2478	 0.319656472722079 
2479	 0.319292532958254 
2480	 0.319045016773337 
2481	 0.318669826908787 
2482	 0.318304880239282 
2483	 0.318009949586616 
2484	 0.317730226137192 
2485	 0.317416715954331 
2486	 0.31708490016201 
2487	 0.316790131961466 
2488	 0.316523015706094 
2489	 0.316352884227036 
2490	 0.316011664932134 
2491	 0.315262137695793 
2492	 0.314521884360695 
2493	 0.313895991119717 
2494	 0.313422092936674 
2495	 0.313343349998332 
2496	 0.313364801158203 
2497	 0.313193949395946 
2498	 0.312934809067429 
2499	 0.31281049840138 
2500	 0.312633391579586 
