Wavelength	LMW200011.asd
350	 6.82235277909724E-02 
351	 7.02209847249283E-02 
352	 6.31625237145416E-02 
353	 5.16056915906052E-02 
354	 5.56537234844457E-02 
355	 6.19038555536039E-02 
356	 6.41464857412773E-02 
357	 6.08520618018076E-02 
358	 6.07928332813679E-02 
359	 6.06917073401359E-02 
360	 5.96247208456635E-02 
361	 5.85588474019062E-02 
362	 5.94638655174308E-02 
363	 5.96566361534531E-02 
364	 5.76394170724956E-02 
365	 5.42346937157114E-02 
366	 5.46456864495356E-02 
367	 5.87623377677894E-02 
368	 6.36563758186408E-02 
369	 0.062950927822088 
370	 6.02547259557316E-02 
371	 5.91276210669218E-02 
372	 6.20883904853053E-02 
373	 6.35287338752212E-02 
374	 6.32135912685354E-02 
375	 0.062633046795288 
376	 0.065136044484465 
377	 6.32005436232194E-02 
378	 6.15033341579223E-02 
379	 6.54564283123202E-02 
380	 6.75523356892972E-02 
381	 6.66365199614417E-02 
382	 6.51706725085151E-02 
383	 6.76171347485699E-02 
384	 6.97930577424912E-02 
385	 6.92424424326032E-02 
386	 6.69939644821322E-02 
387	 0.070249535686057 
388	 7.19041542334354E-02 
389	 7.11669320229823E-02 
390	 6.99094755241818E-02 
391	 7.19883795831169E-02 
392	 7.29428674452005E-02 
393	 7.30728477272917E-02 
394	 7.65033174152597E-02 
395	 7.60835822384144E-02 
396	 7.56074810618884E-02 
397	 7.77676265437417E-02 
398	 7.92292977605309E-02 
399	 7.95328738835723E-02 
400	 7.97664977002271E-02 
401	 8.12079476469193E-02 
402	 8.24076480756578E-02 
403	 0.082211943728004 
404	 8.18234612141502E-02 
405	 8.45036107061366E-02 
406	 8.50166624303581E-02 
407	 8.51485939075763E-02 
408	 8.65473437370555E-02 
409	 8.68275998944824E-02 
410	 8.72160045244286E-02 
411	 8.79013590504738E-02 
412	 8.85892427022799E-02 
413	 8.93116764049199E-02 
414	 8.94452650712218E-02 
415	 8.92101647854654E-02 
416	 8.99348513664827E-02 
417	 9.02995379692095E-02 
418	 0.090459772027342 
419	 9.07360925560942E-02 
420	 9.07260233458658E-02 
421	 0.090619857806524 
422	 9.06256181974732E-02 
423	 9.09392740615924E-02 
424	 9.17681710296092E-02 
425	 9.19511051944589E-02 
426	 9.12007722580561E-02 
427	 9.10273134457712E-02 
428	 9.08966939197245E-02 
429	 9.06551979977797E-02 
430	 9.03343651308565E-02 
431	 9.04389847003222E-02 
432	 9.02029782635864E-02 
433	 8.97631642540523E-02 
434	 9.01071226759229E-02 
435	 0.090166236414613 
436	 9.00314416928633E-02 
437	 8.99174954828722E-02 
438	 8.96931518057565E-02 
439	 8.97365038811914E-02 
440	 9.00492749038719E-02 
441	 9.04331571648875E-02 
442	 9.08105314524581E-02 
443	 9.12411824590846E-02 
444	 9.16640159703953E-02 
445	 9.17894936935347E-02 
446	 9.22759772681934E-02 
447	 0.092776534417059 
448	 9.29005269326817E-02 
449	 9.33570173655838E-02 
450	 9.40502530628581E-02 
451	 9.47549998964664E-02 
452	 9.51828503615737E-02 
453	 9.55725082479599E-02 
454	 9.58376586399482E-02 
455	 9.60148362494885E-02 
456	 9.66230886749836E-02 
457	 9.69088655179385E-02 
458	 9.70412306727809E-02 
459	 9.75140884477426E-02 
460	 9.78456699994639E-02 
461	 0.097924367141276 
462	 9.78383234043856E-02 
463	 9.78865455372653E-02 
464	 9.82871382380094E-02 
465	 9.87162435383618E-02 
466	 9.88361337713765E-02 
467	 9.89375732513604E-02 
468	 9.89962970139815E-02 
469	 0.099068593867997 
470	 9.92617884107202E-02 
471	 9.93599206588814E-02 
472	 9.95360317420179E-02 
473	 9.98272318708543E-02 
474	 9.97705135296698E-02 
475	 0.099842048460138 
476	 0.100038995272718 
477	 0.100156765827738 
478	 0.100193126496355 
479	 0.100212495327555 
480	 0.100246598823356 
481	 0.100268702644592 
482	 0.100359429805965 
483	 0.100683515565888 
484	 0.101215459102049 
485	 0.101107536025574 
486	 0.101090344850295 
487	 0.101235828731832 
488	 0.101072733889785 
489	 0.101095215426007 
490	 0.101274129765375 
491	 0.101482208669439 
492	 0.101594123338998 
493	 0.101661026308767 
494	 0.101733916117575 
495	 0.101860103314961 
496	 0.102043601324327 
497	 0.102134643086023 
498	 0.102146329132179 
499	 0.102355105504646 
500	 0.102467473710279 
501	 0.102479172822618 
502	 0.102488003425538 
503	 0.102629746750305 
504	 0.102767408564837 
505	 0.102891019390725 
506	 0.103103858299112 
507	 0.103173605852711 
508	 0.103165125212831 
509	 0.103193320234591 
510	 0.10336064833541 
511	 0.103404219878963 
512	 0.103392661085924 
513	 0.103541658686685 
514	 0.103648515574682 
515	 0.103669152594008 
516	 0.103665633677628 
517	 0.103855945162197 
518	 0.103976397784227 
519	 0.10401960609805 
520	 0.104070938472318 
521	 0.104216451180412 
522	 0.104359064130547 
523	 0.104446623908008 
524	 0.104487627978698 
525	 0.104633307303745 
526	 0.104758775169359 
527	 0.104760018535153 
528	 0.10479642952725 
529	 0.104864327870395 
530	 0.104967786895522 
531	 0.105107187073628 
532	 0.105181790422986 
533	 0.105325428282305 
534	 0.105564373550226 
535	 0.105620499568513 
536	 0.10573801450692 
537	 0.105912108045694 
538	 0.106057350315141 
539	 0.106261727171644 
540	 0.106358352985698 
541	 0.106355344038285 
542	 0.106510274930255 
543	 0.106773588638376 
544	 0.107022405775918 
545	 0.10716030696528 
546	 0.107297718940204 
547	 0.107431159756675 
548	 0.107602672200521 
549	 0.107882558197655 
550	 0.108072425355582 
551	 0.108247615836268 
552	 0.108504566056167 
553	 0.108876827043763 
554	 0.109146614037206 
555	 0.109357168886876 
556	 0.109680681025599 
557	 0.11006861667453 
558	 0.110424243770928 
559	 0.110752968005848 
560	 0.111259646387201 
561	 0.11166753737744 
562	 0.112081858754565 
563	 0.112667820736249 
564	 0.113153398105573 
565	 0.113604897807104 
566	 0.114105172262889 
567	 0.114730655618716 
568	 0.115413971124791 
569	 0.11608458916593 
570	 0.116720670298141 
571	 0.11746736282403 
572	 0.118207111891488 
573	 0.118943544149279 
574	 0.119754282022296 
575	 0.120492347068006 
576	 0.121266720884467 
577	 0.122139896726295 
578	 0.122983614165948 
579	 0.123861992338316 
580	 0.124843709397365 
581	 0.125969365881415 
582	 0.12706495899215 
583	 0.128092268481127 
584	 0.129090268078995 
585	 0.130192335791681 
586	 0.13124089710961 
587	 0.132273368000619 
588	 0.133358315580775 
589	 0.134444167953589 
590	 0.135519681531196 
591	 0.136600073533047 
592	 0.137722280100175 
593	 0.138820331638191 
594	 0.139925439817301 
595	 0.141052335737169 
596	 0.142119492421393 
597	 0.143228763642418 
598	 0.144361526781026 
599	 0.145443423541851 
600	 0.146508434451121 
601	 0.147520356997626 
602	 0.1484673332498 
603	 0.149396245445951 
604	 0.150296154806344 
605	 0.151170238764069 
606	 0.152022232441435 
607	 0.152838149520491 
608	 0.153619084906666 
609	 0.154385546248632 
610	 0.155178499139205 
611	 0.155907704142875 
612	 0.156581912128928 
613	 0.157222915722492 
614	 0.157812867916925 
615	 0.158380562262099 
616	 0.158939144364093 
617	 0.159483063323613 
618	 0.159958329723728 
619	 0.160382611353072 
620	 0.16078997192198 
621	 0.161228055265395 
622	 0.161614347024191 
623	 0.161958306258171 
624	 0.162309688849889 
625	 0.162709598302631 
626	 0.163069879532416 
627	 0.163369858579592 
628	 0.163690131109021 
629	 0.164054136948865 
630	 0.164417671291472 
631	 0.164724935587483 
632	 0.164957896691117 
633	 0.165187244358798 
634	 0.165467296784604 
635	 0.165827555836064 
636	 0.16616970692291 
637	 0.166473048857594 
638	 0.166741451164449 
639	 0.166990376103817 
640	 0.167274022125153 
641	 0.16759821975441 
642	 0.167935032311806 
643	 0.168219043024594 
644	 0.16849985825539 
645	 0.168822511951728 
646	 0.169211090159538 
647	 0.16952547960992 
648	 0.169813905145282 
649	 0.170153749792009 
650	 0.170483663171562 
651	 0.170809731032056 
652	 0.171131758965591 
653	 0.171447044374156 
654	 0.171829680960869 
655	 0.172206514459298 
656	 0.172533330247478 
657	 0.172899407453104 
658	 0.173324420569656 
659	 0.173763267380069 
660	 0.17414675235687 
661	 0.174516184173374 
662	 0.174913519684388 
663	 0.17535503306693 
664	 0.175820934653461 
665	 0.176273311368004 
666	 0.176749800531352 
667	 0.177267376814984 
668	 0.177641700049971 
669	 0.178124172087365 
670	 0.17870243161494 
671	 0.179149130720129 
672	 0.179655208095217 
673	 0.180218391150514 
674	 0.180788382019667 
675	 0.181271200915211 
676	 0.1818227341407 
677	 0.182420242811055 
678	 0.182980724129896 
679	 0.183610207008336 
680	 0.184198667156403 
681	 0.184751549505757 
682	 0.185447301425166 
683	 0.186094834911021 
684	 0.186717453172162 
685	 0.187370880070916 
686	 0.188010326404541 
687	 0.188679067032622 
688	 0.189371891327831 
689	 0.190050034625576 
690	 0.190720719754447 
691	 0.191393298272879 
692	 0.192086787245284 
693	 0.192844028540521 
694	 0.193590731359305 
695	 0.194326350443273 
696	 0.195073930223652 
697	 0.195816383633244 
698	 0.196550185504338 
699	 0.197297034364466 
700	 0.198099130415834 
701	 0.198866238727409 
702	 0.199610473299458 
703	 0.200362842561664 
704	 0.201144295409493 
705	 0.201898221591598 
706	 0.20264651403446 
707	 0.203440391236962 
708	 0.204208433818501 
709	 0.20495573441626 
710	 0.205704411960575 
711	 0.206489244561845 
712	 0.20729481596875 
713	 0.208068070408453 
714	 0.208783883047983 
715	 0.209563477646713 
716	 0.210296186053925 
717	 0.210965712630418 
718	 0.211630185914301 
719	 0.212328652022886 
720	 0.213018636069592 
721	 0.213673241367627 
722	 0.214320820707083 
723	 0.214953078001433 
724	 0.21557365661185 
725	 0.216184590013469 
726	 0.216759727754415 
727	 0.217321441118272 
728	 0.217857373558847 
729	 0.218324722551988 
730	 0.218791790588378 
731	 0.219261150665847 
732	 0.219711400565774 
733	 0.22009539123519 
734	 0.2204656609706 
735	 0.220802134772271 
736	 0.221072410487241 
737	 0.221361898690241 
738	 0.221621197133577 
739	 0.221836597197731 
740	 0.22204248517963 
741	 0.222188504569981 
742	 0.22230624099446 
743	 0.222422658131177 
744	 0.222507633493597 
745	 0.222532598986133 
746	 0.222530252302742 
747	 0.222542573751569 
748	 0.222436974241896 
749	 0.2223730788151 
750	 0.222353340774171 
751	 0.222166398416104 
752	 0.221998856931823 
753	 0.221848078932702 
754	 0.221670031473671 
755	 0.221428911996177 
756	 0.221200980716717 
757	 0.220945173000585 
758	 0.220587783114895 
759	 0.220299419006452 
760	 0.219943594942181 
761	 0.219509987648564 
762	 0.21917621686686 
763	 0.21884114247773 
764	 0.218460505046739 
765	 0.218028604804303 
766	 0.217611661415181 
767	 0.217176262186689 
768	 0.216718097189243 
769	 0.216251917195468 
770	 0.215818688171662 
771	 0.215385995527542 
772	 0.214922934135284 
773	 0.214411354349578 
774	 0.213919453065297 
775	 0.213424168634505 
776	 0.212905260313371 
777	 0.212413510200947 
778	 0.211898699631427 
779	 0.211368709317462 
780	 0.210852326025184 
781	 0.21032483295721 
782	 0.209815019174186 
783	 0.20931373041182 
784	 0.208773702235109 
785	 0.208269278735946 
786	 0.207779610501141 
787	 0.207269986942015 
788	 0.206707604786402 
789	 0.206210024103921 
790	 0.205733933436541 
791	 0.205206234042467 
792	 0.204756588199079 
793	 0.204306174123368 
794	 0.203814192895567 
795	 0.203290577466754 
796	 0.202810775529392 
797	 0.202347357544378 
798	 0.201876687663654 
799	 0.201414011562785 
800	 0.200973367290209 
801	 0.200537413074284 
802	 0.200082039602024 
803	 0.199589101082067 
804	 0.199180284566353 
805	 0.198807357553517 
806	 0.198340402769725 
807	 0.197950861131704 
808	 0.19754540813111 
809	 0.197094968481524 
810	 0.196687212580431 
811	 0.196325699353045 
812	 0.195985896590914 
813	 0.195640735755143 
814	 0.195285400045656 
815	 0.194893101346058 
816	 0.194491920778488 
817	 0.194131595985264 
818	 0.193833410321397 
819	 0.193551875431432 
820	 0.193256369875288 
821	 0.192936575842004 
822	 0.192602070991522 
823	 0.192305399945109 
824	 0.192045756292766 
825	 0.1917274338661 
826	 0.191442941133889 
827	 0.191207944235005 
828	 0.190997516466193 
829	 0.190735099207025 
830	 0.190438131657837 
831	 0.190156103645344 
832	 0.189945750002763 
833	 0.189804847750586 
834	 0.189663191101418 
835	 0.189482245907261 
836	 0.18926233055242 
837	 0.188998549715661 
838	 0.188800473565414 
839	 0.18868530026937 
840	 0.188486515804993 
841	 0.188334080746154 
842	 0.188197557229407 
843	 0.18803579426386 
844	 0.18790883255401 
845	 0.187851911678744 
846	 0.187780783971965 
847	 0.187597504646209 
848	 0.187460269092875 
849	 0.187384934096454 
850	 0.1873359064671 
851	 0.187250452110766 
852	 0.187190388201014 
853	 0.187173429579857 
854	 0.187162522161801 
855	 0.187056872928413 
856	 0.186995898471878 
857	 0.186944436149578 
858	 0.186872210058473 
859	 0.186868822460743 
860	 0.18690492778524 
861	 0.186932423722857 
862	 0.186920011345395 
863	 0.186943920156959 
864	 0.18696875305282 
865	 0.186972622596419 
866	 0.186957354678775 
867	 0.186998642658503 
868	 0.187103450833013 
869	 0.187220157393511 
870	 0.187256718747174 
871	 0.187276114373826 
872	 0.187347927349114 
873	 0.187483680459999 
874	 0.187602780278938 
875	 0.187732027170715 
876	 0.187860506041709 
877	 0.187960865176426 
878	 0.187966060412289 
879	 0.188119691258956 
880	 0.188311347462419 
881	 0.188394576736069 
882	 0.188647037788137 
883	 0.188897332256584 
884	 0.189038682007332 
885	 0.189067164597597 
886	 0.189283591551447 
887	 0.189534149894634 
888	 0.189719977058814 
889	 0.189845447827749 
890	 0.190108688002922 
891	 0.190400164674867 
892	 0.190664536910766 
893	 0.190961381977322 
894	 0.191155264332838 
895	 0.191369946607897 
896	 0.191695344767875 
897	 0.192068654541806 
898	 0.192372947240636 
899	 0.192596641205674 
900	 0.192796427547585 
901	 0.193108687244838 
902	 0.193438145381865 
903	 0.193789147301108 
904	 0.194185490756976 
905	 0.194605651541321 
906	 0.19497200344722 
907	 0.195279972007944 
908	 0.195575547675669 
909	 0.195930689613464 
910	 0.196306130518852 
911	 0.196725923005797 
912	 0.197231727966992 
913	 0.197679314243141 
914	 0.198129329487788 
915	 0.198595338669517 
916	 0.199034998147931 
917	 0.199420896549769 
918	 0.199884166932938 
919	 0.200434498566472 
920	 0.200924930729073 
921	 0.201394367995345 
922	 0.201880296574581 
923	 0.202386705866954 
924	 0.202871001824244 
925	 0.203431928416546 
926	 0.204055735756025 
927	 0.204686918743082 
928	 0.205245010285609 
929	 0.205950531164565 
930	 0.206584396661216 
931	 0.207022211940966 
932	 0.207615176596195 
933	 0.208241493780633 
934	 0.208869514251506 
935	 0.209507309454194 
936	 0.210223786810611 
937	 0.210811196396112 
938	 0.211391280670342 
939	 0.212122352851256 
940	 0.212880104520627 
941	 0.213612580463755 
942	 0.214343810118664 
943	 0.215109852315969 
944	 0.215847343625937 
945	 0.21656216202348 
946	 0.217304591918218 
947	 0.218109070305122 
948	 0.218867205865701 
949	 0.219598048319161 
950	 0.220356928470307 
951	 0.221203782606475 
952	 0.222138586171584 
953	 0.223043961200864 
954	 0.223877298302917 
955	 0.224671409453863 
956	 0.225555881176662 
957	 0.226475767425793 
958	 0.22737815201512 
959	 0.228226018556382 
960	 0.228986975911108 
961	 0.229904815777096 
962	 0.230964851635277 
963	 0.231970427802714 
964	 0.232839373724621 
965	 0.233737232936363 
966	 0.234725032679295 
967	 0.235771258630936 
968	 0.236869856894754 
969	 0.237798267126297 
970	 0.238609578661011 
971	 0.239541345502422 
972	 0.240666735543442 
973	 0.241762542477347 
974	 0.242757632751357 
975	 0.243738414910016 
976	 0.244924991983327 
977	 0.245922801281229 
978	 0.246812226477528 
979	 0.247930981205371 
980	 0.249039114009544 
981	 0.249995316084148 
982	 0.250909601076652 
983	 0.251996112900062 
984	 0.253144309970753 
985	 0.254246198615501 
986	 0.255288304509006 
987	 0.256326279221917 
988	 0.25744118461891 
989	 0.258500994165248 
990	 0.259509128066202 
991	 0.260557086828569 
992	 0.261766722851895 
993	 0.262767866405828 
994	 0.26377956391643 
995	 0.265078678035723 
996	 0.266001218887067 
997	 0.266966891505525 
998	 0.268056530040704 
999	 0.269217932229288 
1000	 0.270532273106391 
1001	 0.272762118809875 
1002	 0.273716094135595 
1003	 0.274655086389689 
1004	 0.275650478540966 
1005	 0.276668242066831 
1006	 0.277673130992802 
1007	 0.278715212746188 
1008	 0.279763085391743 
1009	 0.280690378798983 
1010	 0.281617180530373 
1011	 0.28252361590856 
1012	 0.283405411097618 
1013	 0.284342282946299 
1014	 0.285246533282471 
1015	 0.286106558090684 
1016	 0.287008754015385 
1017	 0.28789557021871 
1018	 0.28876320343452 
1019	 0.289624493635418 
1020	 0.290566881694293 
1021	 0.291467759460977 
1022	 0.292282807858148 
1023	 0.293118607372738 
1024	 0.293895055873585 
1025	 0.294587275200415 
1026	 0.295366480867962 
1027	 0.29613938470589 
1028	 0.296874098241242 
1029	 0.297679789998843 
1030	 0.298450745288737 
1031	 0.299219370969247 
1032	 0.299997941211968 
1033	 0.300787007171046 
1034	 0.301511967100527 
1035	 0.302227927164667 
1036	 0.302921291131087 
1037	 0.303627137254783 
1038	 0.304340234332686 
1039	 0.305003756400363 
1040	 0.305688768898746 
1041	 0.306403231760414 
1042	 0.307097614810501 
1043	 0.307787660527145 
1044	 0.308450388999931 
1045	 0.309095771082702 
1046	 0.309718119472404 
1047	 0.310376294617799 
1048	 0.311040088265633 
1049	 0.311725371323924 
1050	 0.312397692880229 
1051	 0.313014347723987 
1052	 0.313617938944565 
1053	 0.314271111951324 
1054	 0.314937695423327 
1055	 0.31555566428372 
1056	 0.316195653622681 
1057	 0.316799115974794 
1058	 0.317327926815274 
1059	 0.317911391023074 
1060	 0.318514040375371 
1061	 0.319093686637872 
1062	 0.319695277726554 
1063	 0.320325410229179 
1064	 0.320909407906058 
1065	 0.321467738695699 
1066	 0.322008282609973 
1067	 0.322505522543796 
1068	 0.323053812343184 
1069	 0.323630705188461 
1070	 0.324159847910604 
1071	 0.324677559845064 
1072	 0.325235107338257 
1073	 0.325758300126878 
1074	 0.326302330921093 
1075	 0.326906824094403 
1076	 0.327475297361798 
1077	 0.327997765154397 
1078	 0.32846596707701 
1079	 0.328942068284538 
1080	 0.329462620970541 
1081	 0.329947114313021 
1082	 0.330456802188931 
1083	 0.330981026682127 
1084	 0.331519517290649 
1085	 0.33203382621743 
1086	 0.332553785363946 
1087	 0.333074489080184 
1088	 0.333591718469482 
1089	 0.33408003975981 
1090	 0.334586317986878 
1091	 0.33507001352719 
1092	 0.335517921654874 
1093	 0.336010493152942 
1094	 0.336522310966245 
1095	 0.337053431435157 
1096	 0.337581968229936 
1097	 0.338074975238133 
1098	 0.338597879262156 
1099	 0.339103851405675 
1100	 0.339649079634583 
1101	 0.340248690365319 
1102	 0.340817879543436 
1103	 0.341409424468806 
1104	 0.341955229280815 
1105	 0.342439786923003 
1106	 0.342951922468558 
1107	 0.343467365668399 
1108	 0.343990121543991 
1109	 0.344571229160494 
1110	 0.345144830580483 
1111	 0.345718739106374 
1112	 0.346297193027825 
1113	 0.346864528335533 
1114	 0.347423270515469 
1115	 0.348001859537199 
1116	 0.348585545586564 
1117	 0.349168627490798 
1118	 0.349769232662713 
1119	 0.350360390711342 
1120	 0.350930831922721 
1121	 0.351482214240362 
1122	 0.35205511731614 
1123	 0.352640295029663 
1124	 0.353229572271508 
1125	 0.353845621829603 
1126	 0.354430785975257 
1127	 0.354994858112544 
1128	 0.355578411238712 
1129	 0.356174798826706 
1130	 0.356734923051759 
1131	 0.357298797535002 
1132	 0.357847510000572 
1133	 0.358355746358039 
1134	 0.358876371091554 
1135	 0.359415054502834 
1136	 0.359916246788332 
1137	 0.360404118379974 
1138	 0.36090608284791 
1139	 0.361431887134335 
1140	 0.361977440935106 
1141	 0.362505034155956 
1142	 0.363051747010266 
1143	 0.363573224020804 
1144	 0.364071996954674 
1145	 0.364576939062605 
1146	 0.365087240632883 
1147	 0.365584083307983 
1148	 0.366070727655881 
1149	 0.366549265831601 
1150	 0.367011244529452 
1151	 0.367486731403273 
1152	 0.367948720118223 
1153	 0.3684013037716 
1154	 0.368860313719636 
1155	 0.369328077788175 
1156	 0.369764355770004 
1157	 0.370196110163612 
1158	 0.370611568338982 
1159	 0.37099682294681 
1160	 0.371396712441613 
1161	 0.371783540313788 
1162	 0.372190070897721 
1163	 0.372618448951689 
1164	 0.373024131091353 
1165	 0.373437615246202 
1166	 0.37384431166751 
1167	 0.374207530968564 
1168	 0.374565206513351 
1169	 0.374913217030418 
1170	 0.375233687325691 
1171	 0.375582811541577 
1172	 0.375949141557871 
1173	 0.376285164285406 
1174	 0.376622494500437 
1175	 0.376949376422033 
1176	 0.377252724493791 
1177	 0.377557343032441 
1178	 0.377844324795104 
1179	 0.378160452005383 
1180	 0.37850703619987 
1181	 0.378815455541919 
1182	 0.379124243798577 
1183	 0.379436744565863 
1184	 0.379717314200071 
1185	 0.379955232188406 
1186	 0.38020588662983 
1187	 0.380448994298657 
1188	 0.380702719744909 
1189	 0.380956335790161 
1190	 0.381196210949119 
1191	 0.381437426760893 
1192	 0.381679147154128 
1193	 0.381914225941585 
1194	 0.382137176589563 
1195	 0.382358676701531 
1196	 0.382581817735251 
1197	 0.382789362800363 
1198	 0.382996560506252 
1199	 0.383205125271899 
1200	 0.383425781495881 
1201	 0.383635139396767 
1202	 0.383831744289447 
1203	 0.384038138610211 
1204	 0.384252964864369 
1205	 0.384457951367385 
1206	 0.384667515945142 
1207	 0.384858272231773 
1208	 0.385034738300322 
1209	 0.385214344906005 
1210	 0.385375813518872 
1211	 0.385551416221831 
1212	 0.385740259620243 
1213	 0.385920969865002 
1214	 0.386111371105233 
1215	 0.386286099376767 
1216	 0.386451861627214 
1217	 0.386606624294369 
1218	 0.386762780631974 
1219	 0.386912736703741 
1220	 0.387056504961961 
1221	 0.387197398002181 
1222	 0.387334502912184 
1223	 0.38745596611406 
1224	 0.387590739938162 
1225	 0.3877391512959 
1226	 0.387871868674191 
1227	 0.388000239833602 
1228	 0.388128149189188 
1229	 0.38824026640631 
1230	 0.388363393120245 
1231	 0.388493669720714 
1232	 0.388624735284319 
1233	 0.388758426871148 
1234	 0.388907077185816 
1235	 0.389022203957281 
1236	 0.389123784255726 
1237	 0.389231551931125 
1238	 0.389315326894795 
1239	 0.389419442322641 
1240	 0.389548814875019 
1241	 0.38965407447384 
1242	 0.389756343570108 
1243	 0.389846371634918 
1244	 0.389909500488123 
1245	 0.389991776355395 
1246	 0.390068781275327 
1247	 0.39015862140658 
1248	 0.390263786862398 
1249	 0.390377569865807 
1250	 0.390477337645838 
1251	 0.390578514456391 
1252	 0.390666811675443 
1253	 0.390741176778123 
1254	 0.390822482122749 
1255	 0.39090284433461 
1256	 0.390977702842605 
1257	 0.391047053112344 
1258	 0.39112242229836 
1259	 0.391195242877482 
1260	 0.391268748416213 
1261	 0.391356271576224 
1262	 0.391426913691407 
1263	 0.391483563761314 
1264	 0.391544429551023 
1265	 0.391605950611886 
1266	 0.39165698919573 
1267	 0.391700555131151 
1268	 0.391741998125858 
1269	 0.391793582729123 
1270	 0.391832175248957 
1271	 0.391899529437726 
1272	 0.391991815248212 
1273	 0.392075695845558 
1274	 0.392166754923137 
1275	 0.392259808031569 
1276	 0.392358263272566 
1277	 0.392450545582361 
1278	 0.392548208644866 
1279	 0.392638014106661 
1280	 0.392722957266955 
1281	 0.392802875049611 
1282	 0.392872404005686 
1283	 0.392948806754677 
1284	 0.393036002072501 
1285	 0.393099000977578 
1286	 0.393161201518553 
1287	 0.393230713447701 
1288	 0.393278847129526 
1289	 0.39330980801362 
1290	 0.393340534842211 
1291	 0.3933698673741 
1292	 0.393375976921458 
1293	 0.393363668677611 
1294	 0.393352016369465 
1295	 0.393318283951614 
1296	 0.393299251204549 
1297	 0.393286324463104 
1298	 0.393270134330297 
1299	 0.393270302959939 
1300	 0.393242062802021 
1301	 0.39319247711247 
1302	 0.393147961571367 
1303	 0.393085191411789 
1304	 0.393028412148054 
1305	 0.392985915107677 
1306	 0.39293914981827 
1307	 0.392903510511795 
1308	 0.392851069936735 
1309	 0.392789704954786 
1310	 0.392715688131261 
1311	 0.392660870796087 
1312	 0.392596422646258 
1313	 0.392547836588293 
1314	 0.392520495313773 
1315	 0.392485240082874 
1316	 0.392437399460208 
1317	 0.392417397201399 
1318	 0.392411643676688 
1319	 0.392413182353656 
1320	 0.392443662330272 
1321	 0.392457102531824 
1322	 0.392461551385557 
1323	 0.392471026255262 
1324	 0.392506249834145 
1325	 0.39254162833101 
1326	 0.392596099775398 
1327	 0.392668296346478 
1328	 0.39271548383156 
1329	 0.392751242041123 
1330	 0.392805577476987 
1331	 0.392852545922497 
1332	 0.392931984985777 
1333	 0.393035185837617 
1334	 0.393139658334921 
1335	 0.393262341983844 
1336	 0.393384067277774 
1337	 0.393511334899691 
1338	 0.393636568326592 
1339	 0.393774495466949 
1340	 0.393894743841018 
1341	 0.394004906548056 
1342	 0.394117486287489 
1343	 0.39422130379466 
1344	 0.394324987172342 
1345	 0.39444708977272 
1346	 0.394564912952945 
1347	 0.394683726833237 
1348	 0.394826494857077 
1349	 0.39495882296317 
1350	 0.395080491611746 
1351	 0.395199895939256 
1352	 0.395309987073098 
1353	 0.395429682338524 
1354	 0.395551285821503 
1355	 0.395665501933513 
1356	 0.395784169736519 
1357	 0.395899472251162 
1358	 0.396006176806864 
1359	 0.396118006558372 
1360	 0.396225768295253 
1361	 0.396343690803192 
1362	 0.396469602591879 
1363	 0.396589553714966 
1364	 0.39672619477679 
1365	 0.396844549359937 
1366	 0.396948413718199 
1367	 0.397045635868553 
1368	 0.397156932522301 
1369	 0.397245704967725 
1370	 0.397309231476623 
1371	 0.397373772740609 
1372	 0.397417648513422 
1373	 0.397451185907598 
1374	 0.397496456141346 
1375	 0.397559019632718 
1376	 0.397592733142199 
1377	 0.397629917007442 
1378	 0.397632541529278 
1379	 0.3976168536675 
1380	 0.397576205296317 
1381	 0.397490097017525 
1382	 0.397421499190085 
1383	 0.397348256367821 
1384	 0.397264403323219 
1385	 0.397198293844022 
1386	 0.397094709921246 
1387	 0.396977556843772 
1388	 0.396820112442866 
1389	 0.396632501012101 
1390	 0.396416401712886 
1391	 0.39618247712642 
1392	 0.395913648702287 
1393	 0.395601199561687 
1394	 0.395300200504121 
1395	 0.394981366012344 
1396	 0.394660126768567 
1397	 0.394334092231631 
1398	 0.39402132018265 
1399	 0.393673187862392 
1400	 0.393291098749745 
1401	 0.392928772522437 
1402	 0.392557931513179 
1403	 0.39220456136639 
1404	 0.39185687839361 
1405	 0.391522347974915 
1406	 0.391192705897646 
1407	 0.390880236983613 
1408	 0.390566892558255 
1409	 0.390292255359041 
1410	 0.39004141156374 
1411	 0.38981161077335 
1412	 0.389592049640953 
1413	 0.389426696906825 
1414	 0.389317538133503 
1415	 0.389236306216559 
1416	 0.389205240362496 
1417	 0.389222853497366 
1418	 0.389233703004333 
1419	 0.389232282827109 
1420	 0.389267513303039 
1421	 0.389289951452734 
1422	 0.389295885055558 
1423	 0.389331428917378 
1424	 0.389337576737928 
1425	 0.389332073107352 
1426	 0.389315749778558 
1427	 0.389278269422368 
1428	 0.389248763676022 
1429	 0.389209967996674 
1430	 0.389183591872171 
1431	 0.389173713400003 
1432	 0.389141392356031 
1433	 0.38909789931915 
1434	 0.38906140419556 
1435	 0.389006215349364 
1436	 0.388976570287592 
1437	 0.388970549241202 
1438	 0.388953475384659 
1439	 0.388948583773909 
1440	 0.388924794818382 
1441	 0.388889272002467 
1442	 0.388867274149927 
1443	 0.388839460212503 
1444	 0.388817164408528 
1445	 0.388818152789569 
1446	 0.38880463867148 
1447	 0.388784743846444 
1448	 0.388788007342597 
1449	 0.388784972762598 
1450	 0.388780908145741 
1451	 0.388768037176568 
1452	 0.388751419871995 
1453	 0.3887373489878 
1454	 0.388708987581576 
1455	 0.388697811900567 
1456	 0.388708586274322 
1457	 0.388700304597234 
1458	 0.388682447070273 
1459	 0.388673803002388 
1460	 0.388652905264058 
1461	 0.388650119503098 
1462	 0.388666652084947 
1463	 0.388681923105601 
1464	 0.388700807062004 
1465	 0.388721801740022 
1466	 0.388743884654884 
1467	 0.388774716112682 
1468	 0.388812432625531 
1469	 0.388857237322001 
1470	 0.388919687031148 
1471	 0.388959976064968 
1472	 0.389008234731951 
1473	 0.38907220562282 
1474	 0.389139730865546 
1475	 0.38923810819501 
1476	 0.389356237419313 
1477	 0.389471277708869 
1478	 0.389600045441728 
1479	 0.389718873505629 
1480	 0.389829107485438 
1481	 0.38995962453128 
1482	 0.390076818924138 
1483	 0.390182041868218 
1484	 0.390304484708399 
1485	 0.390430189113027 
1486	 0.390564420112855 
1487	 0.39071305305026 
1488	 0.390860565430108 
1489	 0.391018860759291 
1490	 0.391158283290944 
1491	 0.39129616238568 
1492	 0.391431554558677 
1493	 0.391547478620737 
1494	 0.39167073636895 
1495	 0.391804523635098 
1496	 0.391925459894332 
1497	 0.392047114359386 
1498	 0.392157778498887 
1499	 0.392255634176036 
1500	 0.392348964365703 
1501	 0.392429727642957 
1502	 0.392514230932308 
1503	 0.392598181515329 
1504	 0.392677044246237 
1505	 0.392754751256853 
1506	 0.392840422909443 
1507	 0.392919369788274 
1508	 0.392998362900274 
1509	 0.39308924221478 
1510	 0.393186538066516 
1511	 0.393312220568318 
1512	 0.393449616639379 
1513	 0.393591624227491 
1514	 0.393719359504568 
1515	 0.393839991090947 
1516	 0.393958426749383 
1517	 0.394051716846905 
1518	 0.39412935498384 
1519	 0.394212471269644 
1520	 0.394271627823587 
1521	 0.39435041593315 
1522	 0.394441173953861 
1523	 0.394528162574551 
1524	 0.394615396495464 
1525	 0.394699963129197 
1526	 0.394789999145847 
1527	 0.394874334677763 
1528	 0.39495821387491 
1529	 0.395029524944494 
1530	 0.395094352728457 
1531	 0.39515412463576 
1532	 0.395194222258393 
1533	 0.395251407823549 
1534	 0.395316279243695 
1535	 0.395377491929964 
1536	 0.395440209387602 
1537	 0.395507643060143 
1538	 0.395570101568801 
1539	 0.395642575602564 
1540	 0.395729373155684 
1541	 0.39581182243712 
1542	 0.39590840268112 
1543	 0.395985972374646 
1544	 0.396059209515895 
1545	 0.396115121027647 
1546	 0.396146691111576 
1547	 0.396177656981203 
1548	 0.396217076552562 
1549	 0.396261204955813 
1550	 0.396297262958587 
1551	 0.396342994391776 
1552	 0.396400595588239 
1553	 0.396449529121587 
1554	 0.396516193019447 
1555	 0.396583808780628 
1556	 0.39663891616898 
1557	 0.396705600943702 
1558	 0.396777491343425 
1559	 0.396844873906634 
1560	 0.396908585168453 
1561	 0.396967450079315 
1562	 0.397025212833695 
1563	 0.397074346846344 
1564	 0.397144300476563 
1565	 0.397222508116853 
1566	 0.397297239266316 
1567	 0.397392464560876 
1568	 0.397452075714687 
1569	 0.39749017106032 
1570	 0.397536964990999 
1571	 0.397577074630472 
1572	 0.397612949231707 
1573	 0.397653978187927 
1574	 0.397673522536504 
1575	 0.397660187096154 
1576	 0.397678049925442 
1577	 0.397704349215211 
1578	 0.397727024014237 
1579	 0.3977585209542 
1580	 0.397797145578083 
1581	 0.397834534202535 
1582	 0.397873993963042 
1583	 0.397929488259378 
1584	 0.397973305877038 
1585	 0.397998292989618 
1586	 0.398044011027715 
1587	 0.398114389605937 
1588	 0.398160723259477 
1589	 0.398205670656108 
1590	 0.39824131329487 
1591	 0.398244987073984 
1592	 0.398272153818713 
1593	 0.398324977730625 
1594	 0.398352058692156 
1595	 0.398362611631738 
1596	 0.398389458256082 
1597	 0.398401306589548 
1598	 0.398429947373343 
1599	 0.398487005354569 
1600	 0.398537756207344 
1601	 0.398584372129742 
1602	 0.398637695549689 
1603	 0.398715233616582 
1604	 0.39876410131808 
1605	 0.398803243675175 
1606	 0.398835547826409 
1607	 0.398851912072597 
1608	 0.398849044364683 
1609	 0.398855697371706 
1610	 0.398867451218968 
1611	 0.398877330797432 
1612	 0.398895962382682 
1613	 0.398904205835605 
1614	 0.398911906557885 
1615	 0.398937278804377 
1616	 0.398950149116856 
1617	 0.398990312995609 
1618	 0.399055558218203 
1619	 0.399094691096118 
1620	 0.399138463024682 
1621	 0.399180471040034 
1622	 0.399218987402347 
1623	 0.399249536779788 
1624	 0.39928115191076 
1625	 0.39930680870696 
1626	 0.39932060593624 
1627	 0.399335790155135 
1628	 0.399360179151295 
1629	 0.399356609050999 
1630	 0.399325237925504 
1631	 0.399327517385349 
1632	 0.399318757560769 
1633	 0.399345716609324 
1634	 0.399415941958576 
1635	 0.399454056060905 
1636	 0.399493572856948 
1637	 0.399528772242475 
1638	 0.399550045145026 
1639	 0.399581957368501 
1640	 0.399619520064154 
1641	 0.399658226295945 
1642	 0.399699881315939 
1643	 0.399738987570787 
1644	 0.399770282874485 
1645	 0.399826737707171 
1646	 0.399905079939436 
1647	 0.399950524732347 
1648	 0.399996438040456 
1649	 0.400045211906728 
1650	 0.400064520691703 
1651	 0.400109024936953 
1652	 0.400192908278668 
1653	 0.400233179089168 
1654	 0.400255361196948 
1655	 0.400272684058782 
1656	 0.400278109266027 
1657	 0.400268777033013 
1658	 0.400237630485862 
1659	 0.400224356878198 
1660	 0.400194068415887 
1661	 0.40019193390466 
1662	 0.400218458259016 
1663	 0.400231833941566 
1664	 0.400251553940515 
1665	 0.400265521400091 
1666	 0.400273498679101 
1667	 0.400287645207509 
1668	 0.400312732152239 
1669	 0.40031564375444 
1670	 0.400309512344231 
1671	 0.400303829235403 
1672	 0.400290825596254 
1673	 0.400264052949228 
1674	 0.400209902169996 
1675	 0.40020622672506 
1676	 0.400199477800606 
1677	 0.400225736040541 
1678	 0.400323205051955 
1679	 0.400372346550595 
1680	 0.400416059353717 
1681	 0.400443984535194 
1682	 0.400445826364163 
1683	 0.400464984358651 
1684	 0.400472869056741 
1685	 0.400501067952788 
1686	 0.400554107309652 
1687	 0.400588897285378 
1688	 0.400627169491418 
1689	 0.400655047326903 
1690	 0.400669819864532 
1691	 0.400687857393574 
1692	 0.400708835347155 
1693	 0.400715815558549 
1694	 0.400706872305044 
1695	 0.40071306802286 
1696	 0.400713190706923 
1697	 0.400727905200355 
1698	 0.400767687977828 
1699	 0.40078425526259 
1700	 0.400795309157339 
1701	 0.400802205102814 
1702	 0.400797882399462 
1703	 0.400793296528366 
1704	 0.400792228242072 
1705	 0.400778965420257 
1706	 0.400743356365598 
1707	 0.400740123185613 
1708	 0.400754885295381 
1709	 0.400743103496194 
1710	 0.400722088380035 
1711	 0.400729882147477 
1712	 0.400732032162917 
1713	 0.400747187077351 
1714	 0.400808625060337 
1715	 0.400833332678578 
1716	 0.400833055935863 
1717	 0.400835842285411 
1718	 0.400834516263061 
1719	 0.400836416154471 
1720	 0.400831473086817 
1721	 0.400835822392815 
1722	 0.400859163688571 
1723	 0.400851648722468 
1724	 0.400828315542838 
1725	 0.400808298038168 
1726	 0.400772041890317 
1727	 0.400742952629615 
1728	 0.400719644459149 
1729	 0.400692902735608 
1730	 0.400666084006899 
1731	 0.400626834876695 
1732	 0.400596973859833 
1733	 0.400528889759398 
1734	 0.400420656779128 
1735	 0.400346234082937 
1736	 0.400258535975551 
1737	 0.40019680086088 
1738	 0.400163755820428 
1739	 0.400121074131712 
1740	 0.400081432364504 
1741	 0.400042242963145 
1742	 0.400019727116446 
1743	 0.39996191209285 
1744	 0.399888581587448 
1745	 0.399804566667002 
1746	 0.399684450512765 
1747	 0.399609632975402 
1748	 0.39956532284314 
1749	 0.399543569101874 
1750	 0.399512734456159 
1751	 0.399492748818775 
1752	 0.399472843415044 
1753	 0.399442070388005 
1754	 0.399429457753177 
1755	 0.399436253790169 
1756	 0.399402721085307 
1757	 0.399371550451879 
1758	 0.399364902899019 
1759	 0.399319155478547 
1760	 0.399271808693491 
1761	 0.399215179969046 
1762	 0.399122228201618 
1763	 0.399020602105987 
1764	 0.398927946241854 
1765	 0.39886392175043 
1766	 0.398823475092231 
1767	 0.398815708344626 
1768	 0.398822030863469 
1769	 0.398816664783808 
1770	 0.398822219715249 
1771	 0.398810029686084 
1772	 0.398776464011327 
1773	 0.398740969783781 
1774	 0.398689913272993 
1775	 0.398619551206629 
1776	 0.398543233325708 
1777	 0.398469901398798 
1778	 0.398423837458787 
1779	 0.398434114083167 
1780	 0.39845814863659 
1781	 0.398513982984517 
1782	 0.398548996461905 
1783	 0.398484370811104 
1784	 0.398454108299123 
1785	 0.398393128862459 
1786	 0.398362887187735 
1787	 0.398363601718572 
1788	 0.398370947964527 
1789	 0.398405728218066 
1790	 0.398400383095606 
1791	 0.398383651262625 
1792	 0.39837568964178 
1793	 0.398337538205057 
1794	 0.398328819919383 
1795	 0.39836144305289 
1796	 0.398352219449208 
1797	 0.398319031273407 
1798	 0.39830129661887 
1799	 0.398268701864752 
1800	 0.398252839166437 
1801	 0.393220023378762 
1802	 0.393216167423004 
1803	 0.393230864195315 
1804	 0.393265993647704 
1805	 0.393298863213168 
1806	 0.393317348880441 
1807	 0.393342805711614 
1808	 0.393377813224312 
1809	 0.393433053567027 
1810	 0.393464356856662 
1811	 0.393499222060941 
1812	 0.393513410006883 
1813	 0.393521834380728 
1814	 0.393523619603506 
1815	 0.393521608017788 
1816	 0.393525764359415 
1817	 0.393535110077666 
1818	 0.393540509842804 
1819	 0.393554253141678 
1820	 0.393575352315967 
1821	 0.393605074034863 
1822	 0.393634559090923 
1823	 0.393638958548057 
1824	 0.393618406696792 
1825	 0.393591058734368 
1826	 0.393555092972664 
1827	 0.393513267592057 
1828	 0.393467488976423 
1829	 0.393430381947102 
1830	 0.393367121295287 
1831	 0.393282201267816 
1832	 0.393199045523651 
1833	 0.393120296015533 
1834	 0.393050247682886 
1835	 0.393001324031403 
1836	 0.392944976965988 
1837	 0.392875898684917 
1838	 0.392827488328317 
1839	 0.392791120740944 
1840	 0.392769422731696 
1841	 0.392747072419236 
1842	 0.392734740825427 
1843	 0.392728258055555 
1844	 0.392691979767438 
1845	 0.392641032221429 
1846	 0.392610779735235 
1847	 0.392564394296381 
1848	 0.392492988274517 
1849	 0.392443416043284 
1850	 0.392417929662919 
1851	 0.392405288721026 
1852	 0.392381187197187 
1853	 0.392389593576247 
1854	 0.392426842839324 
1855	 0.392410710636 
1856	 0.392365279041741 
1857	 0.392301861365606 
1858	 0.392204001429889 
1859	 0.392098694393747 
1860	 0.391976127977587 
1861	 0.391841976399865 
1862	 0.391701715670099 
1863	 0.39153474885428 
1864	 0.391347658897242 
1865	 0.391175400210478 
1866	 0.390969157894758 
1867	 0.390735398486428 
1868	 0.390514950884997 
1869	 0.390266425375139 
1870	 0.389993494940851 
1871	 0.389694413274629 
1872	 0.389388782855635 
1873	 0.389029044115583 
1874	 0.388648436870045 
1875	 0.388253407314643 
1876	 0.387815308954684 
1877	 0.38735113159434 
1878	 0.386811677040669 
1879	 0.386207945599817 
1880	 0.385553229308148 
1881	 0.384827753575534 
1882	 0.38406517771285 
1883	 0.383263872555584 
1884	 0.382387383100694 
1885	 0.381466501217236 
1886	 0.380532920086387 
1887	 0.379500087106831 
1888	 0.378451295819656 
1889	 0.377367199027617 
1890	 0.376214374023217 
1891	 0.375050154811221 
1892	 0.373842326849036 
1893	 0.372621872156948 
1894	 0.37136904758956 
1895	 0.370125945194522 
1896	 0.368843383125326 
1897	 0.367552790499302 
1898	 0.366267234879117 
1899	 0.365006741363905 
1900	 0.36378006899398 
1901	 0.362598447591073 
1902	 0.36149390699216 
1903	 0.360456169719355 
1904	 0.359462408321022 
1905	 0.35851420589964 
1906	 0.357677975018586 
1907	 0.35686964804536 
1908	 0.356068465758009 
1909	 0.35534245510504 
1910	 0.354634900551615 
1911	 0.353962534827774 
1912	 0.353337726864876 
1913	 0.352738659368853 
1914	 0.352166054330641 
1915	 0.351639256788829 
1916	 0.351141888411415 
1917	 0.350692427572121 
1918	 0.3502989398657 
1919	 0.34992530514313 
1920	 0.349572614108374 
1921	 0.349253790630732 
1922	 0.348978978713572 
1923	 0.348727042319375 
1924	 0.348496608228855 
1925	 0.348299796607918 
1926	 0.348132130508017 
1927	 0.347977918124122 
1928	 0.347861334279471 
1929	 0.347790816576459 
1930	 0.347741266047311 
1931	 0.347710187894877 
1932	 0.347678347636798 
1933	 0.347663117619016 
1934	 0.34767082423578 
1935	 0.347689867176335 
1936	 0.34770627868515 
1937	 0.347771955880174 
1938	 0.347865947275929 
1939	 0.347983003589101 
1940	 0.348136526878997 
1941	 0.348314185595489 
1942	 0.348495157132843 
1943	 0.348692776804286 
1944	 0.34889402197645 
1945	 0.3491017791937 
1946	 0.349327069541955 
1947	 0.349566172340484 
1948	 0.349809167477836 
1949	 0.350074998069611 
1950	 0.350331531363855 
1951	 0.350591277875909 
1952	 0.350843155625749 
1953	 0.351102491482852 
1954	 0.351388071993083 
1955	 0.351641021505284 
1956	 0.351894815405011 
1957	 0.35216288207196 
1958	 0.352411647470303 
1959	 0.35269196024931 
1960	 0.353004209402109 
1961	 0.353317168044833 
1962	 0.353644276808014 
1963	 0.353969930942122 
1964	 0.354300225092323 
1965	 0.354643361584143 
1966	 0.354969087123111 
1967	 0.355304059109049 
1968	 0.355663821827896 
1969	 0.356028381180924 
1970	 0.356413567003916 
1971	 0.356850369331424 
1972	 0.357251136155157 
1973	 0.357659210856846 
1974	 0.358045306485171 
1975	 0.358418787005463 
1976	 0.358760987706785 
1977	 0.35912250228047 
1978	 0.359477059068797 
1979	 0.359823787671148 
1980	 0.360184618854095 
1981	 0.360539025504243 
1982	 0.360877095129961 
1983	 0.361237154840061 
1984	 0.361594203053533 
1985	 0.361984870381168 
1986	 0.362422227802514 
1987	 0.362824269335446 
1988	 0.363243927928881 
1989	 0.363641283604285 
1990	 0.364005330467836 
1991	 0.364347992355591 
1992	 0.364721182840102 
1993	 0.365112181536592 
1994	 0.365486104432456 
1995	 0.365863603621928 
1996	 0.366237633102497 
1997	 0.36658431937459 
1998	 0.366959518450962 
1999	 0.367356291188361 
2000	 0.367748451755844 
2001	 0.368148937157195 
2002	 0.368558283270657 
2003	 0.368958816130808 
2004	 0.369342448326086 
2005	 0.36972518913915 
2006	 0.370103164909843 
2007	 0.370479776685346 
2008	 0.37085241881755 
2009	 0.371217714587218 
2010	 0.371581939659586 
2011	 0.371933683187797 
2012	 0.372261185052107 
2013	 0.372607300873218 
2014	 0.372955893683662 
2015	 0.373311684163254 
2016	 0.373654010485899 
2017	 0.374000771866459 
2018	 0.374350449164162 
2019	 0.374693048229474 
2020	 0.375037173928874 
2021	 0.3753994658534 
2022	 0.375738837596966 
2023	 0.376055770680856 
2024	 0.37638674759232 
2025	 0.376722328180734 
2026	 0.377048222294731 
2027	 0.377393739954207 
2028	 0.377701268592538 
2029	 0.377993424575726 
2030	 0.37826015811278 
2031	 0.378535864304175 
2032	 0.378794944415801 
2033	 0.379060333977997 
2034	 0.379308524149413 
2035	 0.379596227605982 
2036	 0.379924186512246 
2037	 0.380204820970698 
2038	 0.380498304018059 
2039	 0.380772497793782 
2040	 0.38101128681709 
2041	 0.381226540789809 
2042	 0.381461581327463 
2043	 0.381716251735062 
2044	 0.38195956977901 
2045	 0.382197802948628 
2046	 0.382434600355723 
2047	 0.382682760454724 
2048	 0.382906738714096 
2049	 0.38310929560415 
2050	 0.383321789930448 
2051	 0.383531277736083 
2052	 0.383731779803084 
2053	 0.383919984028126 
2054	 0.384126527260968 
2055	 0.384329566918612 
2056	 0.384539950580961 
2057	 0.384756888443063 
2058	 0.385004541048301 
2059	 0.38521132438634 
2060	 0.385408112069725 
2061	 0.385589224531503 
2062	 0.38572971208024 
2063	 0.385908423144166 
2064	 0.386086941123461 
2065	 0.386279009517597 
2066	 0.386492758357941 
2067	 0.386711190791658 
2068	 0.386948617604877 
2069	 0.387171426907917 
2070	 0.38738662633567 
2071	 0.38761206810305 
2072	 0.387817037367383 
2073	 0.388002457966783 
2074	 0.388184072922614 
2075	 0.388349964780961 
2076	 0.388531728712835 
2077	 0.388702436412971 
2078	 0.388888074449904 
2079	 0.389096300153674 
2080	 0.389297905398687 
2081	 0.389501681942612 
2082	 0.389700351186376 
2083	 0.389918890178438 
2084	 0.3901002126929 
2085	 0.390280196771688 
2086	 0.390453801011061 
2087	 0.390611141455135 
2088	 0.390739309772521 
2089	 0.390893458501168 
2090	 0.391038940705053 
2091	 0.391202386429491 
2092	 0.39138491263186 
2093	 0.391568051814259 
2094	 0.391758948817381 
2095	 0.391949129065842 
2096	 0.392180636948889 
2097	 0.392354208874197 
2098	 0.392488304397507 
2099	 0.392626098747657 
2100	 0.392758556454896 
2101	 0.392844907506245 
2102	 0.392980641505365 
2103	 0.393142925118828 
2104	 0.393303436958034 
2105	 0.393450114566553 
2106	 0.393646837576597 
2107	 0.393888973289132 
2108	 0.39411104031995 
2109	 0.394371646003965 
2110	 0.394603374539685 
2111	 0.394797959908863 
2112	 0.395012928000915 
2113	 0.39523399853419 
2114	 0.395461770173316 
2115	 0.395668122363867 
2116	 0.395869340672326 
2117	 0.396078336620917 
2118	 0.396263206088753 
2119	 0.396484872895078 
2120	 0.396737642653331 
2121	 0.396976849058074 
2122	 0.397234585250502 
2123	 0.397467232608739 
2124	 0.397710049634529 
2125	 0.397908934684248 
2126	 0.398070044127916 
2127	 0.398233468990951 
2128	 0.398383619105329 
2129	 0.398505761502554 
2130	 0.39862682907328 
2131	 0.398707456349771 
2132	 0.398783409605282 
2133	 0.398838614931102 
2134	 0.398853578163568 
2135	 0.398832919357705 
2136	 0.39883227735719 
2137	 0.398796319600942 
2138	 0.39877183081341 
2139	 0.398789832107512 
2140	 0.398755327359809 
2141	 0.398677406590299 
2142	 0.398604149714714 
2143	 0.398524094081716 
2144	 0.398425145428363 
2145	 0.398293040847985 
2146	 0.398180463959858 
2147	 0.398083551796774 
2148	 0.397962483791202 
2149	 0.397806553993818 
2150	 0.397647182472939 
2151	 0.397460342364752 
2152	 0.397215795237835 
2153	 0.396992376519134 
2154	 0.39678860313745 
2155	 0.39654336745747 
2156	 0.396272885543041 
2157	 0.395990390572038 
2158	 0.395676865182106 
2159	 0.39536604485785 
2160	 0.395049047391147 
2161	 0.394719459015175 
2162	 0.39434490694361 
2163	 0.39402410258722 
2164	 0.393745734639598 
2165	 0.393431375321144 
2166	 0.393126967539933 
2167	 0.392858286922576 
2168	 0.392554008996027 
2169	 0.39222046134317 
2170	 0.391888388865482 
2171	 0.391557993839494 
2172	 0.39121921049431 
2173	 0.390862539900881 
2174	 0.390503471992479 
2175	 0.390150713966048 
2176	 0.389783345366898 
2177	 0.389390063969682 
2178	 0.389007997230904 
2179	 0.388622436817251 
2180	 0.388242719031957 
2181	 0.387859534988453 
2182	 0.387489068802933 
2183	 0.387138112714683 
2184	 0.386773724590539 
2185	 0.386410750397495 
2186	 0.386057281665755 
2187	 0.385686026794397 
2188	 0.385290059304317 
2189	 0.384928270978689 
2190	 0.384562484866371 
2191	 0.384228070732047 
2192	 0.383933976773943 
2193	 0.383617877830684 
2194	 0.383281415315731 
2195	 0.383000288542682 
2196	 0.382734842313403 
2197	 0.382489620350209 
2198	 0.382289632411877 
2199	 0.382102365721192 
2200	 0.381916772478429 
2201	 0.381761050434722 
2202	 0.381648996659389 
2203	 0.381543904256559 
2204	 0.381446967517009 
2205	 0.381348539499112 
2206	 0.381310893711148 
2207	 0.38130703498365 
2208	 0.381310646994929 
2209	 0.381365358015694 
2210	 0.381406784670104 
2211	 0.381432588145467 
2212	 0.381497879697847 
2213	 0.381598728141531 
2214	 0.381694934698689 
2215	 0.381826046189957 
2216	 0.381927319341294 
2217	 0.382015769777567 
2218	 0.382102962692739 
2219	 0.382173953634157 
2220	 0.38224977484099 
2221	 0.382305398692061 
2222	 0.382414882201246 
2223	 0.382493566870371 
2224	 0.382558664948452 
2225	 0.382619881350125 
2226	 0.382695771601274 
2227	 0.382689704100843 
2228	 0.382648351897636 
2229	 0.38258911603941 
2230	 0.382448978484591 
2231	 0.382370037350879 
2232	 0.382303913189363 
2233	 0.382239077543446 
2234	 0.382180124102725 
2235	 0.382131743160334 
2236	 0.382092772918033 
2237	 0.38205952760759 
2238	 0.382045533042478 
2239	 0.382019536097439 
2240	 0.381995893679562 
2241	 0.381960067123997 
2242	 0.38192660125066 
2243	 0.381875777278118 
2244	 0.381815392329121 
2245	 0.381736254939063 
2246	 0.381653042039414 
2247	 0.381530522109583 
2248	 0.381440156090177 
2249	 0.381353983801127 
2250	 0.381260989078706 
2251	 0.381173526473972 
2252	 0.381091853178739 
2253	 0.380999549406674 
2254	 0.380919817935698 
2255	 0.380856673880406 
2256	 0.380794033885054 
2257	 0.380714090046383 
2258	 0.380676259999136 
2259	 0.380667983309204 
2260	 0.380655359583242 
2261	 0.380641151467503 
2262	 0.380674698025149 
2263	 0.380736140277296 
2264	 0.380808383667755 
2265	 0.380936804987823 
2266	 0.381048111466145 
2267	 0.381179073565428 
2268	 0.381268718339222 
2269	 0.381332548659844 
2270	 0.381395962209669 
2271	 0.381479582743337 
2272	 0.381519183983855 
2273	 0.381560630906062 
2274	 0.38163060946263 
2275	 0.381682306924543 
2276	 0.381693338660725 
2277	 0.381747285372993 
2278	 0.381828348417328 
2279	 0.381905063273318 
2280	 0.381997801705088 
2281	 0.382068085254446 
2282	 0.382137664245572 
2283	 0.38220688929302 
2284	 0.382261366522323 
2285	 0.382317827348425 
2286	 0.382384799261879 
2287	 0.382438391295928 
2288	 0.382472831277815 
2289	 0.38250950109678 
2290	 0.382541992983176 
2291	 0.382579893162448 
2292	 0.38260119578372 
2293	 0.382660353586856 
2294	 0.38275160863677 
2295	 0.382830883752051 
2296	 0.382913137696744 
2297	 0.383019696142307 
2298	 0.38313001758465 
2299	 0.383233443405752 
2300	 0.383363653944251 
2301	 0.383434144802741 
2302	 0.383475327235998 
2303	 0.383546429707112 
2304	 0.38361354569562 
2305	 0.383728976473942 
2306	 0.383800734406289 
2307	 0.383862323049271 
2308	 0.383921055064325 
2309	 0.383970087607053 
2310	 0.384002591356521 
2311	 0.384022547080132 
2312	 0.384063320455759 
2313	 0.384094376570983 
2314	 0.3841037105566 
2315	 0.384131168585299 
2316	 0.38414775175446 
2317	 0.38410370713219 
2318	 0.38412659542187 
2319	 0.38418940883386 
2320	 0.384248954512493 
2321	 0.384335029084505 
2322	 0.384422157227042 
2323	 0.384542029125821 
2324	 0.384614886466897 
2325	 0.384660446890617 
2326	 0.384725191536673 
2327	 0.384792584420084 
2328	 0.384808476051192 
2329	 0.384852183717524 
2330	 0.384858205910432 
2331	 0.384867587575901 
2332	 0.384929543880759 
2333	 0.384992958024787 
2334	 0.385068661149779 
2335	 0.385083574577476 
2336	 0.385069860479368 
2337	 0.385114498521827 
2338	 0.385156450220927 
2339	 0.385183328810902 
2340	 0.385240472972276 
2341	 0.385241535536666 
2342	 0.385153984843234 
2343	 0.385077733243817 
2344	 0.384978493752364 
2345	 0.384870941585952 
2346	 0.384744847000584 
2347	 0.384618686210342 
2348	 0.384450975551018 
2349	 0.384366218498376 
2350	 0.384330825633338 
2351	 0.384265214243187 
2352	 0.384263029895333 
2353	 0.384162314929618 
2354	 0.383928714184732 
2355	 0.383836741149097 
2356	 0.383814635900161 
2357	 0.383741977180204 
2358	 0.383737918803441 
2359	 0.383665454373276 
2360	 0.383492246660978 
2361	 0.383379112819022 
2362	 0.383303501945893 
2363	 0.383175409843525 
2364	 0.383011179934961 
2365	 0.382872083107167 
2366	 0.382726791989609 
2367	 0.382595775219582 
2368	 0.382495885988442 
2369	 0.382383186160572 
2370	 0.382288786928638 
2371	 0.382117309499626 
2372	 0.381911916971032 
2373	 0.381715523410933 
2374	 0.381540053821437 
2375	 0.381330532381382 
2376	 0.38112038657898 
2377	 0.380942987531456 
2378	 0.380700936878616 
2379	 0.380426394550497 
2380	 0.3802057177383 
2381	 0.379954595822185 
2382	 0.379680483630109 
2383	 0.379524631206008 
2384	 0.379364263752167 
2385	 0.379142650563756 
2386	 0.378945153785321 
2387	 0.378667947478088 
2388	 0.378451644777009 
2389	 0.378323578530215 
2390	 0.378161292250325 
2391	 0.378022290377071 
2392	 0.377785306701385 
2393	 0.377514255531367 
2394	 0.377221682167724 
2395	 0.37691364542439 
2396	 0.37665198154854 
2397	 0.376320748499732 
2398	 0.376047342528885 
2399	 0.375773110949795 
2400	 0.375499898505118 
2401	 0.375304806556893 
2402	 0.374994597767056 
2403	 0.374708506859847 
2404	 0.374449328148431 
2405	 0.374163474979088 
2406	 0.373961795787547 
2407	 0.373736492610525 
2408	 0.37349334137922 
2409	 0.373197560223751 
2410	 0.372849383600189 
2411	 0.372523071293092 
2412	 0.37220847455986 
2413	 0.371926431294175 
2414	 0.371586441665366 
2415	 0.371226213645547 
2416	 0.370925118160107 
2417	 0.370614512622799 
2418	 0.370301545927476 
2419	 0.370036415518161 
2420	 0.369773405679055 
2421	 0.369502248454748 
2422	 0.369206090409579 
2423	 0.368975926256342 
2424	 0.368691890749712 
2425	 0.368311440591261 
2426	 0.367937824556144 
2427	 0.367521506649427 
2428	 0.367182821913908 
2429	 0.366863954426111 
2430	 0.366564111056042 
2431	 0.366368216128106 
2432	 0.366110135829898 
2433	 0.365798894908317 
2434	 0.365523011719611 
2435	 0.365244850480716 
2436	 0.365010914934262 
2437	 0.364850368280172 
2438	 0.364510241251255 
2439	 0.364111741796391 
2440	 0.363751592499407 
2441	 0.363212666338859 
2442	 0.36290775618272 
2443	 0.362811361143555 
2444	 0.362584857866282 
2445	 0.362378191833803 
2446	 0.362230021159585 
2447	 0.362131182388429 
2448	 0.361867635483751 
2449	 0.361590620232656 
2450	 0.361250069585729 
2451	 0.360630111870194 
2452	 0.360276728286242 
2453	 0.360082988585797 
2454	 0.35979357989265 
2455	 0.359603461793032 
2456	 0.359329252867753 
2457	 0.358983690296865 
2458	 0.358685306888785 
2459	 0.358373109082497 
2460	 0.358084954930412 
2461	 0.357792661027453 
2462	 0.357506023189103 
2463	 0.357245392615034 
2464	 0.357010007422509 
2465	 0.356806123802612 
2466	 0.356564363693749 
2467	 0.35636580779797 
2468	 0.356009454271222 
2469	 0.355456994539177 
2470	 0.355066973151698 
2471	 0.35483814109964 
2472	 0.354826620569355 
2473	 0.354738841763632 
2474	 0.354601599879324 
2475	 0.354428214856884 
2476	 0.354141122406799 
2477	 0.353937475556109 
2478	 0.353661909283617 
2479	 0.353243948636298 
2480	 0.352910807503767 
2481	 0.352655909842839 
2482	 0.352319677236212 
2483	 0.352139025983439 
2484	 0.351924227331955 
2485	 0.351540412305626 
2486	 0.351261408267699 
2487	 0.351017214461765 
2488	 0.350822632380493 
2489	 0.350680920979566 
2490	 0.350631503820565 
2491	 0.350427338902577 
2492	 0.35018982797598 
2493	 0.350059943712449 
2494	 0.34971920693778 
2495	 0.349507859824533 
2496	 0.349522576132041 
2497	 0.349309506555137 
2498	 0.34907766317143 
2499	 0.349048749169257 
2500	 0.348746411200955 
