Wavelength	LMW200018.asd
350	 7.00805395967457E-02 
351	 0.070930156778798 
352	 6.48182076273649E-02 
353	 5.86971492374812E-02 
354	 6.24546716197159E-02 
355	 6.60305104995735E-02 
356	 6.59642240796821E-02 
357	 6.29086119232687E-02 
358	 6.59859116134148E-02 
359	 6.60539065833067E-02 
360	 6.49604909735178E-02 
361	 7.02931773416939E-02 
362	 0.067914550382908 
363	 6.51108330994813E-02 
364	 6.58782629229547E-02 
365	 6.50579882926104E-02 
366	 6.54635357241462E-02 
367	 6.62901906404882E-02 
368	 6.63970068309751E-02 
369	 6.72981138850044E-02 
370	 6.72803594625813E-02 
371	 6.66387345575891E-02 
372	 6.72450141798666E-02 
373	 7.23577194325654E-02 
374	 7.54428891029304E-02 
375	 7.34535300795574E-02 
376	 7.12214090512357E-02 
377	 6.97499158088138E-02 
378	 6.92538649867426E-02 
379	 0.0696614963036 
380	 7.18568429621371E-02 
381	 7.29175504689258E-02 
382	 7.32881604675477E-02 
383	 7.56148249370501E-02 
384	 7.50758199360842E-02 
385	 7.54776461340668E-02 
386	 7.80687735497763E-02 
387	 0.076710976256701 
388	 7.78797935587162E-02 
389	 7.94928733956068E-02 
390	 7.83424325678534E-02 
391	 7.94889099933151E-02 
392	 8.05404024528796E-02 
393	 8.14764706701173E-02 
394	 8.42599815929902E-02 
395	 8.48681775631713E-02 
396	 8.41960913907297E-02 
397	 0.084209617913085 
398	 8.78173420470888E-02 
399	 8.86519330286137E-02 
400	 8.78653727266462E-02 
401	 8.87327558591826E-02 
402	 0.089005651638561 
403	 9.01379565357736E-02 
404	 9.18156645942467E-02 
405	 9.18756292659125E-02 
406	 9.24897980623462E-02 
407	 9.35933242928596E-02 
408	 9.46032008537806E-02 
409	 9.48368668529284E-02 
410	 9.45311130295679E-02 
411	 9.46433937712881E-02 
412	 9.60972300608214E-02 
413	 9.72206453085907E-02 
414	 9.79044701196146E-02 
415	 9.81641591970178E-02 
416	 9.79269520523886E-02 
417	 9.83751574614117E-02 
418	 9.88577302310093E-02 
419	 9.87027078976595E-02 
420	 9.87988593902641E-02 
421	 9.86966926971482E-02 
422	 9.89657766988213E-02 
423	 0.100484352567114 
424	 9.98082944626411E-02 
425	 9.90001876528818E-02 
426	 9.92565510428976E-02 
427	 9.89166090743057E-02 
428	 9.87452349845298E-02 
429	 9.87535189681996E-02 
430	 9.87318925325614E-02 
431	 9.85954540961955E-02 
432	 9.80560721485794E-02 
433	 9.74947306639973E-02 
434	 9.78564677859492E-02 
435	 9.79013180685039E-02 
436	 9.78410688503046E-02 
437	 0.097923203876943 
438	 9.76370775267385E-02 
439	 0.097816021839979 
440	 9.82993339735571E-02 
441	 9.85080431008739E-02 
442	 9.89321825703924E-02 
443	 9.93349498457733E-02 
444	 9.96678812738673E-02 
445	 0.100271100675672 
446	 0.100748379846052 
447	 0.101136300144821 
448	 0.101559956574471 
449	 0.101938727603526 
450	 0.10239331659417 
451	 0.102839399532806 
452	 0.103045645971462 
453	 0.103459644439322 
454	 0.103862588125492 
455	 0.104101332062407 
456	 0.104471011740451 
457	 0.104892939821869 
458	 0.105271418123275 
459	 0.105511067807072 
460	 0.105636909195971 
461	 0.105795506672918 
462	 0.106022260981379 
463	 0.106183796416669 
464	 0.106417270063801 
465	 0.106649467439561 
466	 0.106816998050502 
467	 0.107145340797565 
468	 0.107410078406353 
469	 0.107544690970933 
470	 0.107623673547048 
471	 0.107686246942265 
472	 0.107685637897475 
473	 0.107660867421581 
474	 0.107925202942624 
475	 0.10799320059615 
476	 0.107949304204895 
477	 0.108075922378284 
478	 0.108052461085187 
479	 0.108236045552651 
480	 0.108638517991351 
481	 0.108724398475802 
482	 0.108923333246427 
483	 0.109058526828559 
484	 0.108963092835722 
485	 0.1091928557568 
486	 0.109335221787581 
487	 0.109295346612607 
488	 0.109269933215134 
489	 0.109416920108866 
490	 0.10959438222001 
491	 0.109706350873924 
492	 0.109922707175506 
493	 0.110093182671532 
494	 0.110175573041715 
495	 0.110194068118726 
496	 0.110240601077421 
497	 0.110347667261797 
498	 0.110495928588417 
499	 0.110605383259178 
500	 0.110678962587522 
501	 0.110735373825856 
502	 0.110802474198525 
503	 0.110904384689052 
504	 0.111072860506789 
505	 0.111237403743713 
506	 0.111249289147435 
507	 0.111307776695861 
508	 0.111409130716077 
509	 0.111500888455291 
510	 0.111510573536008 
511	 0.111510910870315 
512	 0.111587069214282 
513	 0.111792771570751 
514	 0.111846218076891 
515	 0.111909515919343 
516	 0.112071883085393 
517	 0.112216041768513 
518	 0.112345678163813 
519	 0.112418963557265 
520	 0.112413921345657 
521	 0.112447119650962 
522	 0.112551780522736 
523	 0.112691967452528 
524	 0.112768843325416 
525	 0.112827895357234 
526	 0.11289498034356 
527	 0.112985893973382 
528	 0.11310306902781 
529	 0.113178390368262 
530	 0.113256777522964 
531	 0.113443018491939 
532	 0.113604244859827 
533	 0.113777049634874 
534	 0.113945437465716 
535	 0.113901093514573 
536	 0.114011665010794 
537	 0.114210593269203 
538	 0.114295434804478 
539	 0.114431992052653 
540	 0.114580935131642 
541	 0.114723450243855 
542	 0.1148888579602 
543	 0.115041346608227 
544	 0.115206594368493 
545	 0.115404942830155 
546	 0.115573715549397 
547	 0.115684925764108 
548	 0.115822697870851 
549	 0.116144463065363 
550	 0.116335358675785 
551	 0.116521685135226 
552	 0.116821041551348 
553	 0.11711150650649 
554	 0.117416971270864 
555	 0.117731463270722 
556	 0.118036334090531 
557	 0.118322614896209 
558	 0.11865899725087 
559	 0.119078585612924 
560	 0.119549668038964 
561	 0.119942592723853 
562	 0.120323832949753 
563	 0.120802869133862 
564	 0.121297524854335 
565	 0.121776755509665 
566	 0.122254505737301 
567	 0.122791955880154 
568	 0.1234530375844 
569	 0.124149775004513 
570	 0.124808874223933 
571	 0.125553287576031 
572	 0.126249458740569 
573	 0.126919595227538 
574	 0.127683223539367 
575	 0.128388505304273 
576	 0.129130072277159 
577	 0.129975421348676 
578	 0.130858075527524 
579	 0.131735689194026 
580	 0.132661870077786 
581	 0.133712531642201 
582	 0.134779549894961 
583	 0.135847085058035 
584	 0.136893065287341 
585	 0.137876028116987 
586	 0.138885183984084 
587	 0.139892366044422 
588	 0.140865548053478 
589	 0.141914168806214 
590	 0.143044199643324 
591	 0.144180048790159 
592	 0.145189835012632 
593	 0.14622141383 
594	 0.147311939789933 
595	 0.148446298493231 
596	 0.149537457900335 
597	 0.150683417236237 
598	 0.151842579047634 
599	 0.152910866057524 
600	 0.153917286855553 
601	 0.154924912084268 
602	 0.155940325121454 
603	 0.156863427486176 
604	 0.157793058207767 
605	 0.158680311113434 
606	 0.159461121151931 
607	 0.16027868521001 
608	 0.16109165519248 
609	 0.161887776316812 
610	 0.162700543709455 
611	 0.163424235598872 
612	 0.164113936197589 
613	 0.164826009564836 
614	 0.165495776793863 
615	 0.166088180407717 
616	 0.166627895526641 
617	 0.16717480833416 
618	 0.167690097208959 
619	 0.168144745946302 
620	 0.168556288434273 
621	 0.169044964084357 
622	 0.169475266104907 
623	 0.169838311013174 
624	 0.170187756312044 
625	 0.17061912898981 
626	 0.171019628419948 
627	 0.171343548469233 
628	 0.1716543338476 
629	 0.172068320643418 
630	 0.172433434541155 
631	 0.172628697430988 
632	 0.17296408019409 
633	 0.173262256223011 
634	 0.173533676781517 
635	 0.17393308565171 
636	 0.174239153424235 
637	 0.174506894378762 
638	 0.174800697216669 
639	 0.175080531557375 
640	 0.175392659141678 
641	 0.17572438887829 
642	 0.17603957918737 
643	 0.17636319928124 
644	 0.176661345611948 
645	 0.176948871426634 
646	 0.1773182108427 
647	 0.177692138080271 
648	 0.178018847349016 
649	 0.178290028693357 
650	 0.17863481244084 
651	 0.179016519275852 
652	 0.17938933964999 
653	 0.179712129275617 
654	 0.18010143923902 
655	 0.180458220942086 
656	 0.180738176554216 
657	 0.181128070225633 
658	 0.181567260139652 
659	 0.182004397233659 
660	 0.182398880203091 
661	 0.182803567877131 
662	 0.183220384353877 
663	 0.183658398674949 
664	 0.184146148117914 
665	 0.184574673142767 
666	 0.185014233694878 
667	 0.185535933725126 
668	 0.185975638210556 
669	 0.186458923164352 
670	 0.186988685819838 
671	 0.187463265960542 
672	 0.187937832891509 
673	 0.188483640101242 
674	 0.18909616053893 
675	 0.189577051340781 
676	 0.190133875708249 
677	 0.190745443173189 
678	 0.191308845664497 
679	 0.191908363014317 
680	 0.192494638253967 
681	 0.193067105511554 
682	 0.19370326351965 
683	 0.194339179740915 
684	 0.194971067756034 
685	 0.195611674866137 
686	 0.196274409996382 
687	 0.196947379516797 
688	 0.197618515975962 
689	 0.198280263462929 
690	 0.198971414813365 
691	 0.199673053811869 
692	 0.200374133353808 
693	 0.201100412150675 
694	 0.201813468683081 
695	 0.202536504318153 
696	 0.203298198590316 
697	 0.204023049275366 
698	 0.204725718460874 
699	 0.205452315762809 
700	 0.206268562741019 
701	 0.207040408576009 
702	 0.20778330872774 
703	 0.208536010067415 
704	 0.209311268318225 
705	 0.210031163442679 
706	 0.210745187580568 
707	 0.211549518624525 
708	 0.212327170559982 
709	 0.213090566166302 
710	 0.213853583770879 
711	 0.21461278450847 
712	 0.215377805049605 
713	 0.216124022968604 
714	 0.21683851167843 
715	 0.217586470022003 
716	 0.218322042274325 
717	 0.219035364088842 
718	 0.219739718648584 
719	 0.220378281718512 
720	 0.221026899709588 
721	 0.221710113643201 
722	 0.222315604319107 
723	 0.222925814526106 
724	 0.223567075921651 
725	 0.224222282264586 
726	 0.224762936537356 
727	 0.225280257095799 
728	 0.225794631499432 
729	 0.226253828562002 
730	 0.226735223047989 
731	 0.227218323133699 
732	 0.227663099164209 
733	 0.228026222415374 
734	 0.228368164679603 
735	 0.228692164760789 
736	 0.228985118451802 
737	 0.229293900958615 
738	 0.229557312850944 
739	 0.229761120242834 
740	 0.229949609942525 
741	 0.230089854759394 
742	 0.23022632633182 
743	 0.230372244516766 
744	 0.230410715305523 
745	 0.23043749476488 
746	 0.230463144568773 
747	 0.230452978450761 
748	 0.230361037052518 
749	 0.230294787197186 
750	 0.230246145061844 
751	 0.230056716392171 
752	 0.229909780921913 
753	 0.229778099537729 
754	 0.229597327875838 
755	 0.229334027133067 
756	 0.229140369975793 
757	 0.228935865238392 
758	 0.228561570758549 
759	 0.228246876246772 
760	 0.227929062137243 
761	 0.227573691381908 
762	 0.227215533922512 
763	 0.226851667066081 
764	 0.22648028844475 
765	 0.226095841154636 
766	 0.22568069107116 
767	 0.225260417384808 
768	 0.224819103071969 
769	 0.224335702947807 
770	 0.223916157651494 
771	 0.223474208232336 
772	 0.222988653449209 
773	 0.222534643760298 
774	 0.22205639602428 
775	 0.221546326443716 
776	 0.221024896927057 
777	 0.220561729599063 
778	 0.22008340741555 
779	 0.219574999153759 
780	 0.219052108418346 
781	 0.218529586050251 
782	 0.218038028108363 
783	 0.217555203056259 
784	 0.21701070879863 
785	 0.216514451848389 
786	 0.21605241085843 
787	 0.21557508144734 
788	 0.214993507832803 
789	 0.214516356192554 
790	 0.214061938704893 
791	 0.213493470040127 
792	 0.213019981501468 
793	 0.21255992179029 
794	 0.212070248331652 
795	 0.211563139640304 
796	 0.211138164677421 
797	 0.210709149316684 
798	 0.210218653450733 
799	 0.209713533982474 
800	 0.209259323638724 
801	 0.208844697870411 
802	 0.208424707108674 
803	 0.207930864512913 
804	 0.207522636245469 
805	 0.20716588810996 
806	 0.206723734954663 
807	 0.206333577968125 
808	 0.205934482353264 
809	 0.205494857741078 
810	 0.205047720016797 
811	 0.204686289768124 
812	 0.204373296698296 
813	 0.204048710532336 
814	 0.203687893212623 
815	 0.203294895071885 
816	 0.202903193513768 
817	 0.20255460691797 
818	 0.202256127537418 
819	 0.201975630679534 
820	 0.201680215243421 
821	 0.201349829244971 
822	 0.201085203314478 
823	 0.200833555491221 
824	 0.200543208144739 
825	 0.20020492960025 
826	 0.199889291192432 
827	 0.199652111434695 
828	 0.199482442844754 
829	 0.199186204362623 
830	 0.198892449259009 
831	 0.198616667525126 
832	 0.198345043879866 
833	 0.19825160049772 
834	 0.198148894849405 
835	 0.197953680561851 
836	 0.197711753524861 
837	 0.197431274780915 
838	 0.197234983089393 
839	 0.197136917846815 
840	 0.196942261576181 
841	 0.1968267185009 
842	 0.19669811796711 
843	 0.196475281958697 
844	 0.196334748902283 
845	 0.196291867057603 
846	 0.196234100735893 
847	 0.196042926556067 
848	 0.195936265473069 
849	 0.195865540028054 
850	 0.195795836012226 
851	 0.195719401212873 
852	 0.195635209347099 
853	 0.195605299522212 
854	 0.19561269866115 
855	 0.19552059160732 
856	 0.195480971989387 
857	 0.195451495589931 
858	 0.195387413708918 
859	 0.195354201076268 
860	 0.195358203147396 
861	 0.195367163703815 
862	 0.195353392814599 
863	 0.195379408915414 
864	 0.195429384030958 
865	 0.195468148919769 
866	 0.195464483313488 
867	 0.195479838590765 
868	 0.19556072376568 
869	 0.195666736961602 
870	 0.195684926983598 
871	 0.195706572815904 
872	 0.195797305322869 
873	 0.195954071043266 
874	 0.196075347812675 
875	 0.196180892092921 
876	 0.196247031509435 
877	 0.196283677401521 
878	 0.196402135005078 
879	 0.196584667009367 
880	 0.196728052620892 
881	 0.196783990957765 
882	 0.197057250935072 
883	 0.19733161020008 
884	 0.197472927950354 
885	 0.197473320398769 
886	 0.197682050023065 
887	 0.197964725080971 
888	 0.198191680236787 
889	 0.198306174741019 
890	 0.1985619780402 
891	 0.198832196047855 
892	 0.199053337483831 
893	 0.199300783363675 
894	 0.199470220551818 
895	 0.199706927716539 
896	 0.200076490973028 
897	 0.200420689415473 
898	 0.200698121682389 
899	 0.200937162811392 
900	 0.20118959213414 
901	 0.20150117527755 
902	 0.201798881154067 
903	 0.20210820374445 
904	 0.202470521472858 
905	 0.202851292057518 
906	 0.203255751535071 
907	 0.203639636764218 
908	 0.203958121784186 
909	 0.204273303154052 
910	 0.204625485169391 
911	 0.205020929162518 
912	 0.205441397471345 
913	 0.205888689331579 
914	 0.206326504571961 
915	 0.206779154152624 
916	 0.20730464361301 
917	 0.207717723540823 
918	 0.208148356255141 
919	 0.208639473963998 
920	 0.209092771961501 
921	 0.209617132714218 
922	 0.210111517395469 
923	 0.210551407078135 
924	 0.211068945864865 
925	 0.211635965002923 
926	 0.212240358530373 
927	 0.212863875366942 
928	 0.213476938333921 
929	 0.214078789868001 
930	 0.214638516554997 
931	 0.215151003161295 
932	 0.21568251478489 
933	 0.216271597377631 
934	 0.216861844996645 
935	 0.217434978548303 
936	 0.218174362296525 
937	 0.218860401957915 
938	 0.219499573953626 
939	 0.220169513295254 
940	 0.22089893767142 
941	 0.221654501960668 
942	 0.222384066125343 
943	 0.223063873381798 
944	 0.223790992147745 
945	 0.22453704241167 
946	 0.225295780750169 
947	 0.226065747816249 
948	 0.22683517283166 
949	 0.227549939509592 
950	 0.2282719591828 
951	 0.229093208045711 
952	 0.2299330044381 
953	 0.23079864586415 
954	 0.231646673755571 
955	 0.232442306619256 
956	 0.233354882221308 
957	 0.234246210709611 
958	 0.235101880316014 
959	 0.235978462607476 
960	 0.236784322198228 
961	 0.237673579054732 
962	 0.238622882518048 
963	 0.239502016039823 
964	 0.240342656464752 
965	 0.241342263142711 
966	 0.242417151895893 
967	 0.24334072522425 
968	 0.24427556891856 
969	 0.245236423015857 
970	 0.246172602698262 
971	 0.247037027722673 
972	 0.248060955790921 
973	 0.249034823028248 
974	 0.249965024413414 
975	 0.251011251118138 
976	 0.252190328546892 
977	 0.253224036711272 
978	 0.254167779321085 
979	 0.255252782815177 
980	 0.256299630602023 
981	 0.257236259533225 
982	 0.25813046068734 
983	 0.259125317056789 
984	 0.260283529737178 
985	 0.261335021082122 
986	 0.262312923915825 
987	 0.26339801808617 
988	 0.264500582326281 
989	 0.265585425801469 
990	 0.266662515911947 
991	 0.267741580001152 
992	 0.268718629329703 
993	 0.269737847448719 
994	 0.270784177796134 
995	 0.271789731514029 
996	 0.272828231935758 
997	 0.273751473211135 
998	 0.274729778460194 
999	 0.275940498050956 
1000	 0.277137354596747 
1001	 0.27941625235206 
1002	 0.280428162215975 
1003	 0.28138666943193 
1004	 0.282374713056269 
1005	 0.283396170603965 
1006	 0.284386688044393 
1007	 0.285356556179834 
1008	 0.286379599156431 
1009	 0.287317292382399 
1010	 0.288241448585628 
1011	 0.289131458395352 
1012	 0.289982315887059 
1013	 0.290919720281473 
1014	 0.291803763402682 
1015	 0.292697624952514 
1016	 0.293652620040654 
1017	 0.294551569692791 
1018	 0.295409105195583 
1019	 0.296272630498908 
1020	 0.297167668034081 
1021	 0.297978593496347 
1022	 0.298775619125864 
1023	 0.299592306700133 
1024	 0.300361577991015 
1025	 0.301150499310687 
1026	 0.301924602194003 
1027	 0.302677056725362 
1028	 0.303458908672023 
1029	 0.304229507495662 
1030	 0.304991641024897 
1031	 0.305751961948364 
1032	 0.306523530004846 
1033	 0.307266155090741 
1034	 0.307995199304831 
1035	 0.308735132761945 
1036	 0.309461300608539 
1037	 0.31017954659906 
1038	 0.310895371075614 
1039	 0.311599913644301 
1040	 0.312279175481332 
1041	 0.312909989354651 
1042	 0.31360044969903 
1043	 0.314329657336196 
1044	 0.315028452226235 
1045	 0.31574341150382 
1046	 0.316496700447124 
1047	 0.317156084770178 
1048	 0.317772621831504 
1049	 0.318434147866981 
1050	 0.319066312378052 
1051	 0.319691156319745 
1052	 0.320310460686842 
1053	 0.320935061056482 
1054	 0.321587691881616 
1055	 0.322254663421132 
1056	 0.322922358786492 
1057	 0.323533514188509 
1058	 0.324074501789216 
1059	 0.324655376916133 
1060	 0.325235582733574 
1061	 0.325765478214783 
1062	 0.326308591056216 
1063	 0.326917947008447 
1064	 0.327495874715667 
1065	 0.328124008261088 
1066	 0.32877550674578 
1067	 0.329331526648637 
1068	 0.329846567504015 
1069	 0.330335116652063 
1070	 0.330854052844244 
1071	 0.331370600951693 
1072	 0.331915234545579 
1073	 0.332500846149847 
1074	 0.333052695992006 
1075	 0.333591592005754 
1076	 0.334118197518733 
1077	 0.334689831078594 
1078	 0.335222390412494 
1079	 0.33573508979419 
1080	 0.336248791538437 
1081	 0.336699908632091 
1082	 0.337164350709779 
1083	 0.337647927585116 
1084	 0.338134022425784 
1085	 0.338642832585341 
1086	 0.339180703337908 
1087	 0.339700221134842 
1088	 0.340232594919634 
1089	 0.340738803381677 
1090	 0.341247310595427 
1091	 0.341752277903779 
1092	 0.342217175507089 
1093	 0.342722938518177 
1094	 0.343256975850401 
1095	 0.343765025916049 
1096	 0.344281201487783 
1097	 0.34482107474411 
1098	 0.345360107880392 
1099	 0.345894513612463 
1100	 0.346420704743247 
1101	 0.346952185244414 
1102	 0.347496597562499 
1103	 0.348029761115428 
1104	 0.348577277510612 
1105	 0.349163748082202 
1106	 0.349724985542431 
1107	 0.350296138019156 
1108	 0.350877971981628 
1109	 0.35140752965382 
1110	 0.351960888939628 
1111	 0.35252313477382 
1112	 0.353063489764189 
1113	 0.353631878308594 
1114	 0.354255924727747 
1115	 0.354828194565917 
1116	 0.355366787735467 
1117	 0.355943416895965 
1118	 0.356517524304866 
1119	 0.357091968016327 
1120	 0.357720912974047 
1121	 0.358351210038896 
1122	 0.358949174552479 
1123	 0.359520412764997 
1124	 0.360095525337367 
1125	 0.360639569947249 
1126	 0.361219443034912 
1127	 0.361817114580337 
1128	 0.362406612398807 
1129	 0.363013209988845 
1130	 0.363593128599864 
1131	 0.364166173734914 
1132	 0.364728769099932 
1133	 0.365266524950643 
1134	 0.365814313998342 
1135	 0.366367805465961 
1136	 0.366898623002522 
1137	 0.367425418987271 
1138	 0.367965104789549 
1139	 0.368515636786655 
1140	 0.3690749221554 
1141	 0.369621238410439 
1142	 0.370179470827773 
1143	 0.370720093521279 
1144	 0.371249103188832 
1145	 0.371763178017655 
1146	 0.372262874863514 
1147	 0.372773887891126 
1148	 0.373283068285043 
1149	 0.373776932770231 
1150	 0.374277233068958 
1151	 0.374768202605269 
1152	 0.375229024038945 
1153	 0.375659775796902 
1154	 0.376104297621851 
1155	 0.376537025007247 
1156	 0.376982985030321 
1157	 0.377447947978501 
1158	 0.377880263819071 
1159	 0.378303822261259 
1160	 0.378723621519532 
1161	 0.379105733968484 
1162	 0.379521456322421 
1163	 0.379977993521008 
1164	 0.380394520499735 
1165	 0.380801211005148 
1166	 0.381209298886044 
1167	 0.381602499047195 
1168	 0.381965370351361 
1169	 0.382337914292406 
1170	 0.382730637934619 
1171	 0.383072997820298 
1172	 0.383376910076437 
1173	 0.383703106031719 
1174	 0.384005760693549 
1175	 0.384330777977651 
1176	 0.384682673606732 
1177	 0.385015450020159 
1178	 0.3853352189031 
1179	 0.385666054777273 
1180	 0.386021147635786 
1181	 0.386340597347013 
1182	 0.386649674574136 
1183	 0.386956894440605 
1184	 0.387234124882486 
1185	 0.387459984115979 
1186	 0.387738717146876 
1187	 0.388032456576888 
1188	 0.388310771019765 
1189	 0.388616678615383 
1190	 0.388879047508206 
1191	 0.389101294729412 
1192	 0.389343244804107 
1193	 0.389575964193169 
1194	 0.389813223777408 
1195	 0.390065834521642 
1196	 0.390302267502362 
1197	 0.390526921523855 
1198	 0.3907518672622 
1199	 0.390972998877703 
1200	 0.391189494378697 
1201	 0.391399844608021 
1202	 0.391605519877797 
1203	 0.391813365935762 
1204	 0.392011406016175 
1205	 0.392219311205406 
1206	 0.392445765590861 
1207	 0.392645547349813 
1208	 0.392839589674859 
1209	 0.393023589018246 
1210	 0.393178619295845 
1211	 0.393351684379879 
1212	 0.393525861952962 
1213	 0.393704434160642 
1214	 0.393907730520286 
1215	 0.394085774191157 
1216	 0.394253594737256 
1217	 0.394414126399538 
1218	 0.394569702582192 
1219	 0.394704869956827 
1220	 0.394852278663434 
1221	 0.395001241732797 
1222	 0.395153700529023 
1223	 0.395314959783717 
1224	 0.395460551877326 
1225	 0.395607449541814 
1226	 0.395743628111178 
1227	 0.3958584892412 
1228	 0.395982716340569 
1229	 0.396096693038442 
1230	 0.396229064428892 
1231	 0.396386595052345 
1232	 0.396524420362323 
1233	 0.396658866047369 
1234	 0.396797019642233 
1235	 0.396933542782332 
1236	 0.397059319238689 
1237	 0.39718429025366 
1238	 0.397323164469396 
1239	 0.397440140385656 
1240	 0.39753739931013 
1241	 0.397635522387088 
1242	 0.39772885340107 
1243	 0.397818832451651 
1244	 0.397904225281656 
1245	 0.397983158822595 
1246	 0.398038268683946 
1247	 0.398121898506928 
1248	 0.398204977901285 
1249	 0.398308158634141 
1250	 0.398444465379425 
1251	 0.398572612579641 
1252	 0.398680694239475 
1253	 0.398784388732459 
1254	 0.398872416289499 
1255	 0.39892980907858 
1256	 0.399011492760876 
1257	 0.399098767143593 
1258	 0.399179612089003 
1259	 0.399264590560707 
1260	 0.399349244523432 
1261	 0.399440802374009 
1262	 0.399507639154573 
1263	 0.399550178123815 
1264	 0.399616687388033 
1265	 0.399686141661324 
1266	 0.399742953581168 
1267	 0.399802648619271 
1268	 0.399872848718362 
1269	 0.399947350667658 
1270	 0.400002004748024 
1271	 0.400082224358067 
1272	 0.400196744717217 
1273	 0.400289004534802 
1274	 0.400368565742256 
1275	 0.400460148411055 
1276	 0.400566631970945 
1277	 0.400655278180257 
1278	 0.400740886937219 
1279	 0.40081958299018 
1280	 0.400875592518207 
1281	 0.400948716675412 
1282	 0.401034394215643 
1283	 0.401109103017732 
1284	 0.40119383225527 
1285	 0.401262068083401 
1286	 0.401307132370869 
1287	 0.401357876255319 
1288	 0.401395754178649 
1289	 0.401419549200551 
1290	 0.401449829296044 
1291	 0.401484041322307 
1292	 0.401493568740056 
1293	 0.401502861257877 
1294	 0.40148475264125 
1295	 0.401425680941499 
1296	 0.401391322277665 
1297	 0.40135313850077 
1298	 0.401315592091851 
1299	 0.401298039030472 
1300	 0.401255036844644 
1301	 0.401195579143115 
1302	 0.401132061135069 
1303	 0.401056335186664 
1304	 0.400973649122263 
1305	 0.400882499170631 
1306	 0.400809406335767 
1307	 0.40077174336206 
1308	 0.400700466941522 
1309	 0.400631510542982 
1310	 0.400566296826438 
1311	 0.400509837504728 
1312	 0.400439973493846 
1313	 0.400387585327987 
1314	 0.400365096121505 
1315	 0.400318569055936 
1316	 0.40023906282506 
1317	 0.400205470166026 
1318	 0.400185574174347 
1319	 0.400176586410596 
1320	 0.400206479137146 
1321	 0.400224884188022 
1322	 0.400248495670792 
1323	 0.400257823551835 
1324	 0.400284691407574 
1325	 0.400309734885113 
1326	 0.400342687019694 
1327	 0.400397324526543 
1328	 0.400442213777803 
1329	 0.400489313296747 
1330	 0.400546320561177 
1331	 0.40059177320129 
1332	 0.400678558206934 
1333	 0.400796467431979 
1334	 0.40090333085816 
1335	 0.401029566926033 
1336	 0.401151693959325 
1337	 0.401267700746279 
1338	 0.401390238453751 
1339	 0.401528899164762 
1340	 0.401649862250655 
1341	 0.401754721684856 
1342	 0.401874929515467 
1343	 0.401996361352394 
1344	 0.402118506975024 
1345	 0.40225811932634 
1346	 0.402393886825777 
1347	 0.40250196477586 
1348	 0.402635787696068 
1349	 0.402766600505157 
1350	 0.402877504876296 
1351	 0.403002990543714 
1352	 0.40313665731112 
1353	 0.403271141110673 
1354	 0.403414621124256 
1355	 0.403536143542662 
1356	 0.403648785235284 
1357	 0.403765170809347 
1358	 0.403876062812902 
1359	 0.403984093547874 
1360	 0.404092586910614 
1361	 0.404201492284515 
1362	 0.404291879825598 
1363	 0.404397273027491 
1364	 0.404529576691965 
1365	 0.404642584845879 
1366	 0.404746400599697 
1367	 0.404851458672141 
1368	 0.40496460093891 
1369	 0.405046821757203 
1370	 0.405125703220614 
1371	 0.405204059362969 
1372	 0.405264104289392 
1373	 0.405334596554517 
1374	 0.405382698711963 
1375	 0.405432037379123 
1376	 0.405450749783796 
1377	 0.405448103129181 
1378	 0.405425835684134 
1379	 0.405385777031264 
1380	 0.405336086227763 
1381	 0.405258855129042 
1382	 0.405180627996295 
1383	 0.405098844540393 
1384	 0.405000517608891 
1385	 0.404905081891843 
1386	 0.404778425985239 
1387	 0.404641300056867 
1388	 0.404464405601403 
1389	 0.4042564432796 
1390	 0.40401960073272 
1391	 0.403756565459188 
1392	 0.403469881073682 
1393	 0.40315678147713 
1394	 0.402815819069119 
1395	 0.40244517469764 
1396	 0.402078582880442 
1397	 0.401703195562627 
1398	 0.401315769958937 
1399	 0.400929958455933 
1400	 0.400529507181952 
1401	 0.400150277975773 
1402	 0.399783592153796 
1403	 0.399405558991837 
1404	 0.399030017542608 
1405	 0.398660262324554 
1406	 0.398266944235843 
1407	 0.397915516130382 
1408	 0.397585519999223 
1409	 0.397273423529771 
1410	 0.396975409135678 
1411	 0.396708465350495 
1412	 0.396448499607291 
1413	 0.396239025110922 
1414	 0.396086580193512 
1415	 0.395967611834693 
1416	 0.395911554359592 
1417	 0.395890086025442 
1418	 0.395881448154504 
1419	 0.395891897592832 
1420	 0.395917244264193 
1421	 0.39592922414918 
1422	 0.395927590023722 
1423	 0.395932181555156 
1424	 0.395914944200225 
1425	 0.395872196025766 
1426	 0.395842725477825 
1427	 0.395811144076563 
1428	 0.395775765340184 
1429	 0.395742527140478 
1430	 0.395702485425291 
1431	 0.395649328090281 
1432	 0.395604652998835 
1433	 0.395560148304021 
1434	 0.395521582451678 
1435	 0.395490242481066 
1436	 0.395455469876759 
1437	 0.395417715241696 
1438	 0.395384826739343 
1439	 0.395347351828839 
1440	 0.395328968029535 
1441	 0.395302736506509 
1442	 0.395285857719638 
1443	 0.395285713968827 
1444	 0.395265120473383 
1445	 0.395261417176142 
1446	 0.395275524141038 
1447	 0.395275723084964 
1448	 0.395273351533906 
1449	 0.395259128329852 
1450	 0.3952582106134 
1451	 0.39525917733785 
1452	 0.395265561054377 
1453	 0.395261978156306 
1454	 0.395258205188916 
1455	 0.395250495259334 
1456	 0.395231874657602 
1457	 0.395227993424178 
1458	 0.395230421633242 
1459	 0.395233665159672 
1460	 0.395243180366759 
1461	 0.395247346369097 
1462	 0.395245858588824 
1463	 0.395261198426704 
1464	 0.395274100737767 
1465	 0.395302118579611 
1466	 0.395343367656499 
1467	 0.395395748479828 
1468	 0.395464084300667 
1469	 0.395534230660135 
1470	 0.395613912276564 
1471	 0.395704593107399 
1472	 0.395780346636516 
1473	 0.395866118091015 
1474	 0.395973480115622 
1475	 0.396089868924164 
1476	 0.396221175554356 
1477	 0.396355723310939 
1478	 0.396496886042137 
1479	 0.396633862022255 
1480	 0.39677158205711 
1481	 0.396928703955819 
1482	 0.397063603598884 
1483	 0.397181330267788 
1484	 0.397315575626593 
1485	 0.397446821328977 
1486	 0.397585390333058 
1487	 0.397736583541291 
1488	 0.397883859557424 
1489	 0.398031534435508 
1490	 0.398173740578451 
1491	 0.398317507285157 
1492	 0.398466290444126 
1493	 0.398608008255596 
1494	 0.39875666918604 
1495	 0.398927976615011 
1496	 0.399065443035032 
1497	 0.399188361832167 
1498	 0.399312533692364 
1499	 0.399412288378899 
1500	 0.399522235212719 
1501	 0.399645665716806 
1502	 0.399756747038488 
1503	 0.399860665006565 
1504	 0.399961459848316 
1505	 0.400069609825596 
1506	 0.400165813210589 
1507	 0.400248959116172 
1508	 0.400342359069872 
1509	 0.400428674469921 
1510	 0.400507429368827 
1511	 0.400606902293118 
1512	 0.400721468096 
1513	 0.400872208924297 
1514	 0.401018593454225 
1515	 0.401158840178604 
1516	 0.401306109734678 
1517	 0.401413285197225 
1518	 0.401477511690092 
1519	 0.401567069592094 
1520	 0.401648284152584 
1521	 0.401735669326567 
1522	 0.401831970662143 
1523	 0.401917553497971 
1524	 0.401991613978845 
1525	 0.402074652064687 
1526	 0.402160921147419 
1527	 0.402250746100184 
1528	 0.402347196783807 
1529	 0.402434985390106 
1530	 0.402527955955704 
1531	 0.402606318063163 
1532	 0.402668299513556 
1533	 0.402741010841389 
1534	 0.402806414750897 
1535	 0.402877445833231 
1536	 0.402958795974239 
1537	 0.403037223536534 
1538	 0.403111358315409 
1539	 0.403190516313374 
1540	 0.403277390617389 
1541	 0.403358844214422 
1542	 0.40344625849716 
1543	 0.403524026382781 
1544	 0.403596643643584 
1545	 0.403657056504237 
1546	 0.403706055129362 
1547	 0.40375062112791 
1548	 0.403788293864981 
1549	 0.403838079824483 
1550	 0.403888612318282 
1551	 0.403954136609694 
1552	 0.404029804818455 
1553	 0.404093258787264 
1554	 0.404162719164095 
1555	 0.404223305915621 
1556	 0.404283583192526 
1557	 0.404335842507054 
1558	 0.404372772658505 
1559	 0.404421085208509 
1560	 0.404473646023331 
1561	 0.404516976109441 
1562	 0.404582072923627 
1563	 0.404666979737659 
1564	 0.404742877148653 
1565	 0.404826966520437 
1566	 0.404900268761137 
1567	 0.404969196205795 
1568	 0.405041792465013 
1569	 0.405111340355885 
1570	 0.40517549737999 
1571	 0.405244290709052 
1572	 0.405304261640017 
1573	 0.405360687704778 
1574	 0.405399206324482 
1575	 0.405428485390622 
1576	 0.405452835814513 
1577	 0.405448579274373 
1578	 0.405470960139198 
1579	 0.405503834514358 
1580	 0.405533486824164 
1581	 0.405574056594976 
1582	 0.405610189362586 
1583	 0.405638304226248 
1584	 0.405677399320993 
1585	 0.405722112473904 
1586	 0.405767791574485 
1587	 0.405821799985929 
1588	 0.405872389246972 
1589	 0.405930339737945 
1590	 0.405973153482794 
1591	 0.406003809568568 
1592	 0.40603951469986 
1593	 0.406069373561111 
1594	 0.406098124667393 
1595	 0.406124897246578 
1596	 0.406158816414784 
1597	 0.406183004899955 
1598	 0.406225028450221 
1599	 0.406300540284534 
1600	 0.406349219964927 
1601	 0.406385409896668 
1602	 0.406431747632451 
1603	 0.406471257763381 
1604	 0.406507139064154 
1605	 0.406548997389838 
1606	 0.406592770320854 
1607	 0.406639550888041 
1608	 0.406664087353304 
1609	 0.406692834549232 
1610	 0.406745719596076 
1611	 0.406769868879365 
1612	 0.406797528136033 
1613	 0.406835639830584 
1614	 0.406851677474631 
1615	 0.40687825171092 
1616	 0.406917808328081 
1617	 0.406974194122455 
1618	 0.407037300846892 
1619	 0.407092925685082 
1620	 0.407150648157282 
1621	 0.407169554952696 
1622	 0.407161220211782 
1623	 0.407153090411203 
1624	 0.40711120255619 
1625	 0.407108755141382 
1626	 0.407116358697496 
1627	 0.407135195927752 
1628	 0.407178262811043 
1629	 0.407201448519882 
1630	 0.407223057278628 
1631	 0.407241758316156 
1632	 0.407252812317639 
1633	 0.407270226265802 
1634	 0.407289415588704 
1635	 0.407310670533232 
1636	 0.40733575216167 
1637	 0.407353294189901 
1638	 0.407361213871362 
1639	 0.407394615599603 
1640	 0.407435560705659 
1641	 0.407474694675714 
1642	 0.407531245163608 
1643	 0.407581480900961 
1644	 0.407622481290939 
1645	 0.407671365622534 
1646	 0.40773373660074 
1647	 0.407785301987688 
1648	 0.407826824711381 
1649	 0.40787917177374 
1650	 0.40793005632116 
1651	 0.407994510484814 
1652	 0.408087395972157 
1653	 0.40813294566923 
1654	 0.408170463132816 
1655	 0.408191832709267 
1656	 0.408177158933674 
1657	 0.408167183515482 
1658	 0.408147684208877 
1659	 0.408140082009024 
1660	 0.408122703062709 
1661	 0.408115949304984 
1662	 0.408125242085362 
1663	 0.408131070208827 
1664	 0.40813357391234 
1665	 0.408140121132836 
1666	 0.408152671818096 
1667	 0.408168011431647 
1668	 0.40819319826642 
1669	 0.408197340199285 
1670	 0.408203249188487 
1671	 0.408191666679943 
1672	 0.408139080707876 
1673	 0.408129108288081 
1674	 0.408127213715033 
1675	 0.408139411065608 
1676	 0.408181313876872 
1677	 0.408212042616324 
1678	 0.408246089865634 
1679	 0.408278838996745 
1680	 0.408322206767759 
1681	 0.408343888053592 
1682	 0.4083485689868 
1683	 0.408365531386483 
1684	 0.408368434155158 
1685	 0.408391043940149 
1686	 0.408427782860814 
1687	 0.408470477321202 
1688	 0.408537526388766 
1689	 0.408569848702118 
1690	 0.40859726575276 
1691	 0.408617162627986 
1692	 0.408615092641659 
1693	 0.408608797675471 
1694	 0.408591688988819 
1695	 0.408587019020245 
1696	 0.408561669414273 
1697	 0.408571089450327 
1698	 0.408615733944399 
1699	 0.408647035054421 
1700	 0.408694697508268 
1701	 0.408719995322396 
1702	 0.408738278585977 
1703	 0.408744514364944 
1704	 0.408729724351077 
1705	 0.408726318821006 
1706	 0.408714573984387 
1707	 0.408718439673351 
1708	 0.408738784559517 
1709	 0.408743541529005 
1710	 0.408739892541566 
1711	 0.408750094241972 
1712	 0.408760476974766 
1713	 0.408773949386341 
1714	 0.40880795911707 
1715	 0.408819357954148 
1716	 0.408811216032132 
1717	 0.40881877595994 
1718	 0.408829664991542 
1719	 0.408838257526997 
1720	 0.408857743723092 
1721	 0.408857836899404 
1722	 0.408840041008341 
1723	 0.408830822262622 
1724	 0.408818545754196 
1725	 0.408811406114297 
1726	 0.408815194686835 
1727	 0.408802958496519 
1728	 0.408787902579046 
1729	 0.408752451424548 
1730	 0.408698095677268 
1731	 0.408650615920194 
1732	 0.40860102907269 
1733	 0.408535617105821 
1734	 0.408461909192613 
1735	 0.408385763157171 
1736	 0.408288851140338 
1737	 0.408209952209504 
1738	 0.408129901245373 
1739	 0.408082436273639 
1740	 0.408053141735512 
1741	 0.408021185286115 
1742	 0.408032166624965 
1743	 0.407978986290822 
1744	 0.407879802129028 
1745	 0.407823097718654 
1746	 0.407746220421068 
1747	 0.407733758205087 
1748	 0.407745176955406 
1749	 0.407700667700467 
1750	 0.407635185453161 
1751	 0.40756192545622 
1752	 0.407504892360463 
1753	 0.407477893895246 
1754	 0.40744186409833 
1755	 0.407404315280878 
1756	 0.407337186355709 
1757	 0.407270376520345 
1758	 0.407236614216274 
1759	 0.40719668209062 
1760	 0.407144968525461 
1761	 0.407063299686511 
1762	 0.406970973243335 
1763	 0.406891269974901 
1764	 0.406803397433981 
1765	 0.40675823763001 
1766	 0.406765415910664 
1767	 0.406753630604211 
1768	 0.406737216000882 
1769	 0.406734320859687 
1770	 0.406701909541154 
1771	 0.406663678846136 
1772	 0.406653771031899 
1773	 0.406641326371567 
1774	 0.406613604466453 
1775	 0.406565724747818 
1776	 0.406510214280397 
1777	 0.406467472678663 
1778	 0.406433353837798 
1779	 0.406425316550825 
1780	 0.406463615501295 
1781	 0.406521767552198 
1782	 0.406541474270373 
1783	 0.40654021950299 
1784	 0.406524534001499 
1785	 0.406433196209487 
1786	 0.406400862017667 
1787	 0.406402860731098 
1788	 0.4063970923209 
1789	 0.406412913503641 
1790	 0.406420365777167 
1791	 0.406416155912641 
1792	 0.406432261242021 
1793	 0.406472572411213 
1794	 0.406487110720409 
1795	 0.406515616847511 
1796	 0.406497428768688 
1797	 0.406419342412744 
1798	 0.406380404463095 
1799	 0.406329816223497 
1800	 0.40630556146959 
1801	 0.402309140710258 
1802	 0.402311872092359 
1803	 0.402321111985986 
1804	 0.40235442003739 
1805	 0.402382758093193 
1806	 0.402396560557046 
1807	 0.402439746293193 
1808	 0.402472336290087 
1809	 0.40251305790042 
1810	 0.402539301617445 
1811	 0.402577153288236 
1812	 0.402576398448533 
1813	 0.402535391849143 
1814	 0.402510433703003 
1815	 0.402489854587523 
1816	 0.402463116148818 
1817	 0.402462532787754 
1818	 0.402499738358961 
1819	 0.402509893287748 
1820	 0.402511379252504 
1821	 0.402538352144154 
1822	 0.402539302568597 
1823	 0.402535844322374 
1824	 0.4025350957568 
1825	 0.40251028026668 
1826	 0.402489456530382 
1827	 0.402464709082881 
1828	 0.402425262229112 
1829	 0.402375117216908 
1830	 0.402325556537137 
1831	 0.40226941312798 
1832	 0.402200166113982 
1833	 0.402117032747136 
1834	 0.402025932864998 
1835	 0.401960312180295 
1836	 0.401893357325876 
1837	 0.401841776349043 
1838	 0.40182735902476 
1839	 0.401812655586516 
1840	 0.401803363322149 
1841	 0.401787870452364 
1842	 0.401773558904651 
1843	 0.401749356707156 
1844	 0.401681481998855 
1845	 0.401608292318581 
1846	 0.401557048558316 
1847	 0.401491906177102 
1848	 0.401400136632134 
1849	 0.401321032953134 
1850	 0.401266638476748 
1851	 0.401226922464379 
1852	 0.401182001856745 
1853	 0.401161341223603 
1854	 0.401136657769466 
1855	 0.401093007918839 
1856	 0.401051767677308 
1857	 0.400982066043604 
1858	 0.400890893871246 
1859	 0.400761836298487 
1860	 0.400607802593417 
1861	 0.400410870163418 
1862	 0.400209574067505 
1863	 0.399994019620225 
1864	 0.399777997676269 
1865	 0.399570592115903 
1866	 0.399332675674114 
1867	 0.399067817803892 
1868	 0.398783798609088 
1869	 0.398462289418144 
1870	 0.398113492653173 
1871	 0.39775281654332 
1872	 0.397384488755908 
1873	 0.396997029944884 
1874	 0.396564712202337 
1875	 0.396126134302771 
1876	 0.395644531195501 
1877	 0.395084679005666 
1878	 0.394462995014313 
1879	 0.393762291504591 
1880	 0.392997999866239 
1881	 0.392141362904715 
1882	 0.391256583930527 
1883	 0.390329892030363 
1884	 0.389322665210263 
1885	 0.388272937137174 
1886	 0.387161550922275 
1887	 0.385951678473373 
1888	 0.38471353438837 
1889	 0.383410918424573 
1890	 0.382075529057237 
1891	 0.380716184013663 
1892	 0.379300354147829 
1893	 0.377889914025076 
1894	 0.376458541175895 
1895	 0.375013950118614 
1896	 0.373565691666919 
1897	 0.372133943472001 
1898	 0.370701587005879 
1899	 0.369292085262211 
1900	 0.367905469182464 
1901	 0.366564910987106 
1902	 0.365307540498563 
1903	 0.364105004518139 
1904	 0.36298000847473 
1905	 0.361920242592595 
1906	 0.360976842450594 
1907	 0.360077810223222 
1908	 0.35921422040435 
1909	 0.358432795467509 
1910	 0.357636177442116 
1911	 0.356873214697601 
1912	 0.356177262736981 
1913	 0.355515914067809 
1914	 0.354894158343915 
1915	 0.354316734160205 
1916	 0.35378290992702 
1917	 0.353284240685244 
1918	 0.352841894367773 
1919	 0.352433556947878 
1920	 0.352095903052949 
1921	 0.351804459358361 
1922	 0.351546609758084 
1923	 0.351328294688708 
1924	 0.351121759025413 
1925	 0.350935205421156 
1926	 0.350785287535121 
1927	 0.350660418423186 
1928	 0.350553001773097 
1929	 0.350498029698461 
1930	 0.350483826258353 
1931	 0.350474602795858 
1932	 0.350495819658279 
1933	 0.3505351964457 
1934	 0.350562377284397 
1935	 0.350616952391109 
1936	 0.350681038344315 
1937	 0.350777631778244 
1938	 0.350888864507303 
1939	 0.351029881649061 
1940	 0.351197400336115 
1941	 0.351400981083325 
1942	 0.351601514746493 
1943	 0.351864298794538 
1944	 0.352146470215232 
1945	 0.352398671359729 
1946	 0.352682699910506 
1947	 0.352990954284863 
1948	 0.353296104619276 
1949	 0.353617356929644 
1950	 0.353939047256374 
1951	 0.354269176117004 
1952	 0.354583995226953 
1953	 0.354912032668619 
1954	 0.35526072273472 
1955	 0.355611885794671 
1956	 0.355959958573049 
1957	 0.356304973433786 
1958	 0.356633599854279 
1959	 0.356986273576265 
1960	 0.357348991718305 
1961	 0.357716467033073 
1962	 0.358103415038779 
1963	 0.358493569085261 
1964	 0.358884751958253 
1965	 0.359272719125008 
1966	 0.359695380548446 
1967	 0.360108507699312 
1968	 0.360517136574242 
1969	 0.360914659203078 
1970	 0.361345472597918 
1971	 0.361791251442896 
1972	 0.362226181234732 
1973	 0.362709038002168 
1974	 0.363140675137215 
1975	 0.363540007216647 
1976	 0.363918786557179 
1977	 0.364317969232557 
1978	 0.364694996562235 
1979	 0.365075712232318 
1980	 0.365482678820302 
1981	 0.365876207049018 
1982	 0.366244640252928 
1983	 0.366652307094687 
1984	 0.367073448990853 
1985	 0.367511334006466 
1986	 0.367988906571819 
1987	 0.368450298470615 
1988	 0.368925030775856 
1989	 0.369378015291959 
1990	 0.369843779326588 
1991	 0.37030089072582 
1992	 0.370744697742119 
1993	 0.37118672788161 
1994	 0.371621148731376 
1995	 0.372038836460436 
1996	 0.372452846375526 
1997	 0.372864530647209 
1998	 0.373269187139445 
1999	 0.37365547889706 
2000	 0.374052252750423 
2001	 0.374452871487102 
2002	 0.374848794841979 
2003	 0.375262091160275 
2004	 0.375659853131564 
2005	 0.376049334616471 
2006	 0.376433754098523 
2007	 0.37682284969547 
2008	 0.377191755073764 
2009	 0.377582347835224 
2010	 0.377994028337825 
2011	 0.378389102061638 
2012	 0.378790473111472 
2013	 0.379179432114218 
2014	 0.379549772874797 
2015	 0.379933444845364 
2016	 0.38030479174071 
2017	 0.380672918571873 
2018	 0.381057937846986 
2019	 0.38146200139305 
2020	 0.381842802670705 
2021	 0.382232056225538 
2022	 0.38260174047809 
2023	 0.382943189568229 
2024	 0.383295737946209 
2025	 0.383654656095922 
2026	 0.383998784528484 
2027	 0.384352867458281 
2028	 0.38466682133421 
2029	 0.384986400144158 
2030	 0.385286353328488 
2031	 0.385602964487883 
2032	 0.385919905597176 
2033	 0.386242368160386 
2034	 0.386574159902011 
2035	 0.386896958657844 
2036	 0.387222018789602 
2037	 0.38753758142045 
2038	 0.387861580650083 
2039	 0.388157567192106 
2040	 0.388437223599044 
2041	 0.388699830904319 
2042	 0.388961336402793 
2043	 0.389212866958439 
2044	 0.389477723558938 
2045	 0.389764997156903 
2046	 0.39002178365771 
2047	 0.390274962376203 
2048	 0.390508986642432 
2049	 0.390710103205408 
2050	 0.390927243020847 
2051	 0.391134240422036 
2052	 0.391350403299985 
2053	 0.391573129534804 
2054	 0.391800138970358 
2055	 0.39202747518834 
2056	 0.39227177093767 
2057	 0.39249700539715 
2058	 0.392723029370345 
2059	 0.392941409139452 
2060	 0.393145302646361 
2061	 0.393354284764377 
2062	 0.393556537702008 
2063	 0.393773533821715 
2064	 0.394003520164007 
2065	 0.394220530004463 
2066	 0.394439510050744 
2067	 0.39465963568493 
2068	 0.394886001308153 
2069	 0.395083074051816 
2070	 0.395285570201983 
2071	 0.395499327635293 
2072	 0.395686217487826 
2073	 0.395846375654801 
2074	 0.3960186596057 
2075	 0.396174034560439 
2076	 0.39635220106232 
2077	 0.396523218813411 
2078	 0.396733757114982 
2079	 0.396997072323639 
2080	 0.397224753363471 
2081	 0.397463746001314 
2082	 0.397690842953884 
2083	 0.397906431850577 
2084	 0.398097454578665 
2085	 0.398286846942435 
2086	 0.398472785018314 
2087	 0.398662094686031 
2088	 0.398829245779316 
2089	 0.399018891876519 
2090	 0.399235229672288 
2091	 0.399428762505187 
2092	 0.399614014587803 
2093	 0.399801661950966 
2094	 0.399980991939064 
2095	 0.40016386450783 
2096	 0.400357574805781 
2097	 0.400538028830071 
2098	 0.400714533917578 
2099	 0.40088174274516 
2100	 0.401048419182742 
2101	 0.401198368812164 
2102	 0.401370880797743 
2103	 0.401555020062386 
2104	 0.40173350502658 
2105	 0.401907706372282 
2106	 0.402104966635811 
2107	 0.402295581648767 
2108	 0.402517093041101 
2109	 0.402796347980977 
2110	 0.403035767354414 
2111	 0.40326496196153 
2112	 0.403502256417924 
2113	 0.403731333073744 
2114	 0.403960831137007 
2115	 0.404170310820014 
2116	 0.404375643782196 
2117	 0.404595473624852 
2118	 0.40478955001409 
2119	 0.405016049813443 
2120	 0.405286945179694 
2121	 0.40552794257802 
2122	 0.405780980696721 
2123	 0.405991651297081 
2124	 0.406171889190909 
2125	 0.406359381205145 
2126	 0.406525152116125 
2127	 0.406684739726338 
2128	 0.406873056276459 
2129	 0.40701140626513 
2130	 0.407110833957832 
2131	 0.407193612495314 
2132	 0.407257990513551 
2133	 0.407291375844452 
2134	 0.407318816200014 
2135	 0.407322865370969 
2136	 0.40733443307152 
2137	 0.407341382150126 
2138	 0.407333268089433 
2139	 0.407330529984409 
2140	 0.407301082651385 
2141	 0.40725040325085 
2142	 0.407180595841875 
2143	 0.407101168547043 
2144	 0.406994211433676 
2145	 0.406840773709906 
2146	 0.406700713418927 
2147	 0.406556576628097 
2148	 0.406389337994302 
2149	 0.406233648889758 
2150	 0.40609699837944 
2151	 0.405919078263934 
2152	 0.40571493831392 
2153	 0.405518884255715 
2154	 0.405312743502518 
2155	 0.405093954304538 
2156	 0.404890793604884 
2157	 0.404644923161256 
2158	 0.404366917034905 
2159	 0.404072979225678 
2160	 0.403757809078661 
2161	 0.403419650473521 
2162	 0.403014126755382 
2163	 0.402665091917599 
2164	 0.402333924890531 
2165	 0.401997570791159 
2166	 0.401664600138015 
2167	 0.401371945019541 
2168	 0.40104393379866 
2169	 0.400678686171521 
2170	 0.400345469715956 
2171	 0.400042124810659 
2172	 0.399701022527636 
2173	 0.399361725672916 
2174	 0.398990382607043 
2175	 0.398570249191025 
2176	 0.398177641436281 
2177	 0.397774728826569 
2178	 0.397378965881712 
2179	 0.396983413293832 
2180	 0.396610035310215 
2181	 0.396255603508602 
2182	 0.395893820000315 
2183	 0.395549555545212 
2184	 0.395202734261612 
2185	 0.394848172006995 
2186	 0.394458658188272 
2187	 0.394130196500317 
2188	 0.393839538160457 
2189	 0.393520682015783 
2190	 0.393229026486347 
2191	 0.392910740660556 
2192	 0.39253929320666 
2193	 0.39222427031475 
2194	 0.391921731596264 
2195	 0.391644751886639 
2196	 0.391399691103998 
2197	 0.391165485392122 
2198	 0.390950383576368 
2199	 0.390753743462775 
2200	 0.39056870054772 
2201	 0.390410644650574 
2202	 0.390299939424456 
2203	 0.390155695593781 
2204	 0.390063915773462 
2205	 0.390008846815321 
2206	 0.389944692705547 
2207	 0.389881404747044 
2208	 0.389873891861409 
2209	 0.389889012462588 
2210	 0.38992250003932 
2211	 0.390018686751619 
2212	 0.390085239290206 
2213	 0.390141995798421 
2214	 0.390215283483165 
2215	 0.390296917667413 
2216	 0.390388053844052 
2217	 0.390514850297661 
2218	 0.390596390601234 
2219	 0.390655581184795 
2220	 0.390724214123049 
2221	 0.390752111174938 
2222	 0.390815750622428 
2223	 0.390904316523606 
2224	 0.390992751333809 
2225	 0.39104482230595 
2226	 0.391090636026864 
2227	 0.391099600446654 
2228	 0.391079608942571 
2229	 0.391039859526939 
2230	 0.390964285743579 
2231	 0.390895976303405 
2232	 0.390801709798018 
2233	 0.390719474489078 
2234	 0.39063669693546 
2235	 0.390563628973132 
2236	 0.39047508914706 
2237	 0.39042236499145 
2238	 0.390397815512344 
2239	 0.390370255500441 
2240	 0.390384995257666 
2241	 0.390365678727693 
2242	 0.390337669907422 
2243	 0.390290220214127 
2244	 0.390226885192426 
2245	 0.390138689240125 
2246	 0.390028452945515 
2247	 0.389934249952274 
2248	 0.389857233379224 
2249	 0.389791761035648 
2250	 0.389710882627091 
2251	 0.389642755518761 
2252	 0.389564408955511 
2253	 0.389460424653709 
2254	 0.389383699048974 
2255	 0.389331986200157 
2256	 0.389257805949274 
2257	 0.389155727784046 
2258	 0.389108655959315 
2259	 0.389070012854698 
2260	 0.389055906544845 
2261	 0.389101895425912 
2262	 0.389121171701153 
2263	 0.389126517181351 
2264	 0.389161390455589 
2265	 0.389200988170583 
2266	 0.389265522407116 
2267	 0.389378838814701 
2268	 0.389462134341194 
2269	 0.389551291883043 
2270	 0.389628530908815 
2271	 0.3896974874899 
2272	 0.389735719544575 
2273	 0.389788660917981 
2274	 0.389874403646964 
2275	 0.389931939521585 
2276	 0.389989965333733 
2277	 0.390040476441428 
2278	 0.390068570628785 
2279	 0.390112706917387 
2280	 0.390162027918268 
2281	 0.39021200738104 
2282	 0.390261088124027 
2283	 0.390324370686976 
2284	 0.390411352046792 
2285	 0.390467867008005 
2286	 0.390516247487456 
2287	 0.390565349667667 
2288	 0.390576068704915 
2289	 0.39062258030384 
2290	 0.390718639601965 
2291	 0.390770894279041 
2292	 0.390800304407353 
2293	 0.390853934169453 
2294	 0.390881158020863 
2295	 0.390935796450943 
2296	 0.391016443112977 
2297	 0.391122170889654 
2298	 0.391220451115328 
2299	 0.391332129999224 
2300	 0.391427694711822 
2301	 0.391507652093367 
2302	 0.391585712420368 
2303	 0.391616170207094 
2304	 0.391690538111527 
2305	 0.391752346856821 
2306	 0.391802542320192 
2307	 0.391848054193237 
2308	 0.391908059549752 
2309	 0.391964821591995 
2310	 0.392018564693029 
2311	 0.392098050220591 
2312	 0.392119365868779 
2313	 0.392104150393153 
2314	 0.392077786096866 
2315	 0.391986712278233 
2316	 0.391971799473796 
2317	 0.391975282557861 
2318	 0.391990491691081 
2319	 0.392073597493139 
2320	 0.392113209540099 
2321	 0.392111563234827 
2322	 0.392162094979938 
2323	 0.392248429936451 
2324	 0.39230234317481 
2325	 0.392374864494958 
2326	 0.392419262144707 
2327	 0.392447559945999 
2328	 0.392418204170136 
2329	 0.392398348752075 
2330	 0.392449282017699 
2331	 0.392489067521721 
2332	 0.392520060566604 
2333	 0.392583347785992 
2334	 0.39261166880244 
2335	 0.392621363236768 
2336	 0.392670627738701 
2337	 0.392725845850956 
2338	 0.392741315941666 
2339	 0.392718560296068 
2340	 0.392680529933546 
2341	 0.392642120794583 
2342	 0.392600669074979 
2343	 0.392521316671601 
2344	 0.392457649332306 
2345	 0.392371602871638 
2346	 0.39221643567542 
2347	 0.39210477185375 
2348	 0.392016058702257 
2349	 0.391948435108564 
2350	 0.391899977930476 
2351	 0.391869793685347 
2352	 0.391898405790898 
2353	 0.391824825346206 
2354	 0.391696109336825 
2355	 0.391580320141779 
2356	 0.391421576952598 
2357	 0.391282733734403 
2358	 0.391163897627343 
2359	 0.391038730626 
2360	 0.390889790101354 
2361	 0.390764339685645 
2362	 0.390674147959815 
2363	 0.390549594103346 
2364	 0.39042368348517 
2365	 0.390260506871979 
2366	 0.390038204602959 
2367	 0.389860571738884 
2368	 0.38968188360866 
2369	 0.389529947376259 
2370	 0.389412574802813 
2371	 0.38930036314748 
2372	 0.38919580221295 
2373	 0.389031886169491 
2374	 0.388801179899932 
2375	 0.388549614438742 
2376	 0.388338018199291 
2377	 0.388077353999933 
2378	 0.387865637327305 
2379	 0.387669125406766 
2380	 0.387357605902703 
2381	 0.387090731618941 
2382	 0.386806511374122 
2383	 0.386576190496259 
2384	 0.386419530365558 
2385	 0.386197793376228 
2386	 0.386049746502744 
2387	 0.385815616335271 
2388	 0.385487128154385 
2389	 0.385237476166506 
2390	 0.384999824466684 
2391	 0.384820965268729 
2392	 0.384653721439194 
2393	 0.384436354495644 
2394	 0.384139998486918 
2395	 0.383787051549847 
2396	 0.38346472381961 
2397	 0.383161491043467 
2398	 0.382826099645059 
2399	 0.382468210973208 
2400	 0.382150660196977 
2401	 0.381795567467796 
2402	 0.381542248139268 
2403	 0.3814249988501 
2404	 0.381164450465951 
2405	 0.380898601482294 
2406	 0.380613277625414 
2407	 0.380195507348999 
2408	 0.379935518587742 
2409	 0.37971251845176 
2410	 0.379362747582021 
2411	 0.379073898530673 
2412	 0.378733583856535 
2413	 0.378371083117596 
2414	 0.378059252685501 
2415	 0.377662891579266 
2416	 0.377293818454162 
2417	 0.37688513626204 
2418	 0.376504186580963 
2419	 0.37613659504878 
2420	 0.375862125755768 
2421	 0.375609228325734 
2422	 0.375360610611978 
2423	 0.375270461232883 
2424	 0.375023425845504 
2425	 0.374659993300468 
2426	 0.374315911837828 
2427	 0.373901992006328 
2428	 0.373553981658361 
2429	 0.37325074524271 
2430	 0.372947848555128 
2431	 0.372661871878073 
2432	 0.37234677538256 
2433	 0.37202745472331 
2434	 0.371681904618693 
2435	 0.371328884194951 
2436	 0.370991285097135 
2437	 0.370594343139719 
2438	 0.370237724799354 
2439	 0.369918630565946 
2440	 0.369617080105873 
2441	 0.369350810768473 
2442	 0.369076728095913 
2443	 0.368845581944703 
2444	 0.368602990133171 
2445	 0.368288662006799 
2446	 0.368053407164408 
2447	 0.367948072972956 
2448	 0.367656854226593 
2449	 0.367287213924294 
2450	 0.366964078785063 
2451	 0.366576474901488 
2452	 0.366162751055007 
2453	 0.365747974439987 
2454	 0.365368653850964 
2455	 0.36492052998413 
2456	 0.364491411392539 
2457	 0.364158255453318 
2458	 0.363863811688165 
2459	 0.363518935805351 
2460	 0.363230121299488 
2461	 0.363038587031309 
2462	 0.36273623467978 
2463	 0.362419984431803 
2464	 0.362135352659025 
2465	 0.3618463537307 
2466	 0.361507544478867 
2467	 0.3611086432983 
2468	 0.360785105636536 
2469	 0.360491035745766 
2470	 0.360386960406026 
2471	 0.360189895484413 
2472	 0.359824266570675 
2473	 0.359280827459108 
2474	 0.358991435271027 
2475	 0.358773376390849 
2476	 0.358531363142902 
2477	 0.358343881806925 
2478	 0.35781127482275 
2479	 0.357315006779195 
2480	 0.356980861945744 
2481	 0.356684885574912 
2482	 0.356798496739641 
2483	 0.356971783538151 
2484	 0.356913213669148 
2485	 0.356758261521288 
2486	 0.356330026804124 
2487	 0.355755843854236 
2488	 0.355260738790801 
2489	 0.354899425210624 
2490	 0.354733658273862 
2491	 0.35456029857334 
2492	 0.354379975564415 
2493	 0.35422950923377 
2494	 0.353935372044498 
2495	 0.35364835580245 
2496	 0.35353437706935 
2497	 0.353319486490231 
2498	 0.353141592530209 
2499	 0.35318238676824 
2500	 0.352954943444086 
