Wavelength	LMW300007.asd
350	 0.102894690938331 
351	 0.112254175217334 
352	 0.120016648599791 
353	 0.113189429470427 
354	 0.112435623914814 
355	 0.113167186221504 
356	 0.113065172175476 
357	 0.111975963384345 
358	 0.117268651193508 
359	 0.117273726056191 
360	 0.113388254400206 
361	 0.114765300129809 
362	 0.114269707142056 
363	 0.116231155728153 
364	 0.120609493737357 
365	 0.118276956601316 
366	 0.117254129449678 
367	 0.119247067873315 
368	 0.123263891120609 
369	 0.125973087003574 
370	 0.124532901176108 
371	 0.122827710205075 
372	 0.12788554081332 
373	 0.128054326962889 
374	 0.126443690158613 
375	 0.126550271720892 
376	 0.12932705570374 
377	 0.128286741671742 
378	 0.12839932703895 
379	 0.134547205908982 
380	 0.136128144376797 
381	 0.136961025563595 
382	 0.138406585393693 
383	 0.139655125796566 
384	 0.14137980238427 
385	 0.14309091411563 
386	 0.144840279155374 
387	 0.148340111023772 
388	 0.14878641116893 
389	 0.148927420088526 
390	 0.152450456641903 
391	 0.155183291090451 
392	 0.15744549976892 
393	 0.159412354407871 
394	 0.161124669106669 
395	 0.165574162219754 
396	 0.16896217844461 
397	 0.16943426657912 
398	 0.171599419282126 
399	 0.174655913754582 
400	 0.17789145233879 
401	 0.180616054987107 
402	 0.182729928774874 
403	 0.185116313440316 
404	 0.187687445815723 
405	 0.189396946679575 
406	 0.192635426964626 
407	 0.195548793173518 
408	 0.196624768985208 
409	 0.197091832079985 
410	 0.198768292006189 
411	 0.20145841714353 
412	 0.203936288950711 
413	 0.205601045413062 
414	 0.206701258930252 
415	 0.207597747601327 
416	 0.208641937670237 
417	 0.209647575253126 
418	 0.2107351522739 
419	 0.211929343065005 
420	 0.212794779534621 
421	 0.213038791414442 
422	 0.212940406993972 
423	 0.213081841499771 
424	 0.213121292475772 
425	 0.213058335691116 
426	 0.212959453475354 
427	 0.212986065927668 
428	 0.212535983378048 
429	 0.21162665738813 
430	 0.210573292237743 
431	 0.209926437195477 
432	 0.209539097689095 
433	 0.209312606162066 
434	 0.209237537036931 
435	 0.209333186581242 
436	 0.209578432794499 
437	 0.209985594710609 
438	 0.210658051720702 
439	 0.211636101827525 
440	 0.212967449952605 
441	 0.214613081167264 
442	 0.215896348221967 
443	 0.217065327430064 
444	 0.218429811951609 
445	 0.220242270275409 
446	 0.221991341719342 
447	 0.223646046229508 
448	 0.225321230964545 
449	 0.227069723283333 
450	 0.229034976908443 
451	 0.230935347754879 
452	 0.23220007628995 
453	 0.233792818782973 
454	 0.235344086210356 
455	 0.236597020126592 
456	 0.238191455863643 
457	 0.239519613708674 
458	 0.240721571845656 
459	 0.242171566901156 
460	 0.243309108517413 
461	 0.244292659789332 
462	 0.245276257422292 
463	 0.24631199164015 
464	 0.247287821587464 
465	 0.248244226007064 
466	 0.249206992509099 
467	 0.24994956368665 
468	 0.250764708427115 
469	 0.251616737902783 
470	 0.2522216016813 
471	 0.252891507743373 
472	 0.25355050200393 
473	 0.254162600510705 
474	 0.254945164922836 
475	 0.255739773601561 
476	 0.256457461050113 
477	 0.257077457601164 
478	 0.257837719706082 
479	 0.258571222952825 
480	 0.259228787909372 
481	 0.259972960294567 
482	 0.260672350964571 
483	 0.261253279084653 
484	 0.261753712147875 
485	 0.262609182306567 
486	 0.263235210801785 
487	 0.263664154200974 
488	 0.26442463495258 
489	 0.265070053237551 
490	 0.265655870672139 
491	 0.266302483600755 
492	 0.267073411225838 
493	 0.267910774532907 
494	 0.268646380792068 
495	 0.269144365911499 
496	 0.269941951506233 
497	 0.270703072191615 
498	 0.271238299223176 
499	 0.271685972312412 
500	 0.272366855620858 
501	 0.27305363751779 
502	 0.273503168999795 
503	 0.274197480065424 
504	 0.274928761128016 
505	 0.275558198483931 
506	 0.276046877842261 
507	 0.276644677380427 
508	 0.277275918250435 
509	 0.277836730040478 
510	 0.278332625328939 
511	 0.278792448188037 
512	 0.279306278018116 
513	 0.279961647313512 
514	 0.280521011091524 
515	 0.281029055637129 
516	 0.281551344079629 
517	 0.282136387103817 
518	 0.282648642599448 
519	 0.283098396652941 
520	 0.283550438071419 
521	 0.284062145547815 
522	 0.284582613677418 
523	 0.285109728110774 
524	 0.285695565468768 
525	 0.286000436061401 
526	 0.286294044998731 
527	 0.286820089208213 
528	 0.287283776500006 
529	 0.287838784399062 
530	 0.288411272181266 
531	 0.288801316320556 
532	 0.289168926079421 
533	 0.289655092801009 
534	 0.290254129841143 
535	 0.290661222262029 
536	 0.291107835645489 
537	 0.291570529128903 
538	 0.291960524878485 
539	 0.292453336642227 
540	 0.292896306703393 
541	 0.293264795842871 
542	 0.293735635544707 
543	 0.294161595445437 
544	 0.294618644256152 
545	 0.295173210315155 
546	 0.295619179481003 
547	 0.296011445349484 
548	 0.296431030227446 
549	 0.296961172156983 
550	 0.297380516116675 
551	 0.297804776679133 
552	 0.298334594740675 
553	 0.298865349858248 
554	 0.299439565075115 
555	 0.300006417108134 
556	 0.300487006384456 
557	 0.301004208972982 
558	 0.301600449685408 
559	 0.302252311969945 
560	 0.302852587941418 
561	 0.303314179240693 
562	 0.303683865951543 
563	 0.304076836723743 
564	 0.30464477789958 
565	 0.305208979058797 
566	 0.305758617831206 
567	 0.306489157990452 
568	 0.307178065173258 
569	 0.307901665541147 
570	 0.308729437035174 
571	 0.309470470129737 
572	 0.310173869960192 
573	 0.31087338485077 
574	 0.311580266279006 
575	 0.312177411508033 
576	 0.312762273426723 
577	 0.313412853285953 
578	 0.314084677082094 
579	 0.314846864186843 
580	 0.315675339735029 
581	 0.316516754957117 
582	 0.317432621698042 
583	 0.318356133271984 
584	 0.319226590549234 
585	 0.320008851866373 
586	 0.320793444582629 
587	 0.321551640530527 
588	 0.322245028546941 
589	 0.322957151593955 
590	 0.323677908407041 
591	 0.324394913037048 
592	 0.325100959320091 
593	 0.325857193213586 
594	 0.326618981129561 
595	 0.327388244361736 
596	 0.328360868110235 
597	 0.32938341105586 
598	 0.330368521461216 
599	 0.331275457812686 
600	 0.332110208654062 
601	 0.332949949089383 
602	 0.333794394849631 
603	 0.334500073994772 
604	 0.33504279197365 
605	 0.335592906781367 
606	 0.336331559501468 
607	 0.337069340137987 
608	 0.337726757536581 
609	 0.338342441329614 
610	 0.339078957328403 
611	 0.339838024989841 
612	 0.340585729188933 
613	 0.341301276913856 
614	 0.341970420793069 
615	 0.3426142919334 
616	 0.343231300269692 
617	 0.343804990815911 
618	 0.344371624197769 
619	 0.344941875994597 
620	 0.345503264027045 
621	 0.345997702849951 
622	 0.346471079663273 
623	 0.346953402398999 
624	 0.347459446170142 
625	 0.34794146608435 
626	 0.348403217805265 
627	 0.348867954099192 
628	 0.349379267030818 
629	 0.349864102052596 
630	 0.350309006848785 
631	 0.350720755516294 
632	 0.35110433495996 
633	 0.351490384393296 
634	 0.35192791958883 
635	 0.352461611717621 
636	 0.352814631961274 
637	 0.353186865353047 
638	 0.353697183414575 
639	 0.35405221872855 
640	 0.354411605262963 
641	 0.354834180849746 
642	 0.355313756355394 
643	 0.355707898519224 
644	 0.356090429095572 
645	 0.356499870326807 
646	 0.356891954083343 
647	 0.357259055905093 
648	 0.357631937927855 
649	 0.358043696083185 
650	 0.358482794630222 
651	 0.358924786551996 
652	 0.359353496858915 
653	 0.359762725594974 
654	 0.360169216710236 
655	 0.36056732545745 
656	 0.360946780945647 
657	 0.361274565385492 
658	 0.361755392930491 
659	 0.362299272389524 
660	 0.362699942339924 
661	 0.36308475102288 
662	 0.363520458995382 
663	 0.364015205222011 
664	 0.364505201826847 
665	 0.364853202685489 
666	 0.365260778721346 
667	 0.365879484405682 
668	 0.366207337387051 
669	 0.366639577223869 
670	 0.367203911862487 
671	 0.367620149053225 
672	 0.368136072628193 
673	 0.36866938100158 
674	 0.369136698460203 
675	 0.369571746157767 
676	 0.370105591257766 
677	 0.370647494282841 
678	 0.371053904765155 
679	 0.371577694933221 
680	 0.372104724696363 
681	 0.372614837465036 
682	 0.373252777492784 
683	 0.373781454362323 
684	 0.374216159443354 
685	 0.374656587198159 
686	 0.37524099324344 
687	 0.37580179088194 
688	 0.376340582284275 
689	 0.376964161225405 
690	 0.377458639865504 
691	 0.377948869306201 
692	 0.3785260196976 
693	 0.379120431684803 
694	 0.379701305980433 
695	 0.380265880058704 
696	 0.380820115706713 
697	 0.381320302600958 
698	 0.381886906790718 
699	 0.382533283634309 
700	 0.383151009776767 
701	 0.383710264103713 
702	 0.384233474662249 
703	 0.384759422009226 
704	 0.385333967108342 
705	 0.385871208394549 
706	 0.386430002840796 
707	 0.387098033809409 
708	 0.387536350049816 
709	 0.387991535327883 
710	 0.388571986616508 
711	 0.389095812223847 
712	 0.389747396027757 
713	 0.390362101808212 
714	 0.390787680653683 
715	 0.391288020901549 
716	 0.391783526495387 
717	 0.392280927852217 
718	 0.392837129287734 
719	 0.393298830346981 
720	 0.39367331754038 
721	 0.394024430476862 
722	 0.394469626104867 
723	 0.394995385572367 
724	 0.395494258761986 
725	 0.3958681766431 
726	 0.396243373387365 
727	 0.396664958969751 
728	 0.397091818891095 
729	 0.397414516274093 
730	 0.39774661767044 
731	 0.398010902069235 
732	 0.398187679476774 
733	 0.398473483020319 
734	 0.398785561323525 
735	 0.39905762365476 
736	 0.399246746155076 
737	 0.399426754585183 
738	 0.399638840494828 
739	 0.399840059143629 
740	 0.399906734565335 
741	 0.399993953250908 
742	 0.40016378462093 
743	 0.400367914501159 
744	 0.400319672302786 
745	 0.400232171022884 
746	 0.400212273154078 
747	 0.400286656745075 
748	 0.400323403323471 
749	 0.400280806462431 
750	 0.40015062001173 
751	 0.399955753098039 
752	 0.39989760288911 
753	 0.399874472357826 
754	 0.399754787517152 
755	 0.399534783227783 
756	 0.399400525166315 
757	 0.399284413381213 
758	 0.399019471041375 
759	 0.398780661014634 
760	 0.398528592950408 
761	 0.398276326725127 
762	 0.398122318043005 
763	 0.397909825273241 
764	 0.397616644146255 
765	 0.397281801595967 
766	 0.397022001745866 
767	 0.396678226687284 
768	 0.396323279409623 
769	 0.396100063935993 
770	 0.395743125162582 
771	 0.395410872843177 
772	 0.395127434809461 
773	 0.394718192955862 
774	 0.394388108016022 
775	 0.39410688340359 
776	 0.393798120962734 
777	 0.393407841016032 
778	 0.393039075174588 
779	 0.392633036691638 
780	 0.392115421026581 
781	 0.391802787509667 
782	 0.391561126451509 
783	 0.391252343004917 
784	 0.390788612581555 
785	 0.39036944420093 
786	 0.390001912076462 
787	 0.389660657192787 
788	 0.389357194280027 
789	 0.388935401923854 
790	 0.388493067477913 
791	 0.388166960641001 
792	 0.387721260595331 
793	 0.387369937245883 
794	 0.387099692717287 
795	 0.386700422367211 
796	 0.386317386370317 
797	 0.38596625986825 
798	 0.385621602719212 
799	 0.385213263657379 
800	 0.384939273664633 
801	 0.384682610050398 
802	 0.384283822577105 
803	 0.383797157565289 
804	 0.38353432389194 
805	 0.383370401455187 
806	 0.382954274150014 
807	 0.382607904128978 
808	 0.382223133438822 
809	 0.381804677936234 
810	 0.381550908416179 
811	 0.381273903920406 
812	 0.380990832966107 
813	 0.380740353696785 
814	 0.380502851877706 
815	 0.380154779724853 
816	 0.379789307429574 
817	 0.379548819464051 
818	 0.379296854651711 
819	 0.379018846125402 
820	 0.378728023716562 
821	 0.378451917504563 
822	 0.378134758165161 
823	 0.37786408780022 
824	 0.377659711312834 
825	 0.377398245827471 
826	 0.377184606183517 
827	 0.3770088772659 
828	 0.376806024916778 
829	 0.37643091718535 
830	 0.376103821813884 
831	 0.37587019431069 
832	 0.375685694532004 
833	 0.375573349050016 
834	 0.375477042075499 
835	 0.375314149309833 
836	 0.375007220654762 
837	 0.374767047103541 
838	 0.374600726387252 
839	 0.374485181605417 
840	 0.374412712043608 
841	 0.374280092296225 
842	 0.374089346009182 
843	 0.373874289237655 
844	 0.373641428663443 
845	 0.373509633373428 
846	 0.373463836010393 
847	 0.373406056340325 
848	 0.373193554370315 
849	 0.373052722657536 
850	 0.373006456231468 
851	 0.372888365912692 
852	 0.372683826910802 
853	 0.372581300659031 
854	 0.37260643255827 
855	 0.372514268874961 
856	 0.372493285675963 
857	 0.372454564905956 
858	 0.372315053943663 
859	 0.372159176947009 
860	 0.37205424921547 
861	 0.37201183271378 
862	 0.372008072260988 
863	 0.372002145646481 
864	 0.371951629254523 
865	 0.371911249034171 
866	 0.371966002990175 
867	 0.371968827375662 
868	 0.37193428834364 
869	 0.371932372545882 
870	 0.372045434761461 
871	 0.371955651482296 
872	 0.371881097027193 
873	 0.371950487263879 
874	 0.372003137412048 
875	 0.372081199967869 
876	 0.372139193333336 
877	 0.372134293003511 
878	 0.372052723893784 
879	 0.372197152704115 
880	 0.372392753616825 
881	 0.37238269846077 
882	 0.372343985924896 
883	 0.372409672757785 
884	 0.37252705127028 
885	 0.372578509243511 
886	 0.372771535247516 
887	 0.372974264124287 
888	 0.373050103575351 
889	 0.372939919551075 
890	 0.373085027085203 
891	 0.373322849136936 
892	 0.373524236504239 
893	 0.373707154338493 
894	 0.373759082931546 
895	 0.373823526738107 
896	 0.374000956947112 
897	 0.374221421882305 
898	 0.374423918764739 
899	 0.374611597246806 
900	 0.374800691049402 
901	 0.374978255909448 
902	 0.375218790541885 
903	 0.375434490891046 
904	 0.375548094680431 
905	 0.375733219817576 
906	 0.375987460575819 
907	 0.376251097328859 
908	 0.376458597733183 
909	 0.376663540433193 
910	 0.376927147259059 
911	 0.377242040321938 
912	 0.377550096924137 
913	 0.377809720101279 
914	 0.378049151466552 
915	 0.37831134134799 
916	 0.378629856545966 
917	 0.378882235719314 
918	 0.37923566784519 
919	 0.379701386032947 
920	 0.38007630019521 
921	 0.380349282062944 
922	 0.380607174427287 
923	 0.380933264775525 
924	 0.381362866472738 
925	 0.381703916205233 
926	 0.382043054817361 
927	 0.382451119783853 
928	 0.382851522893449 
929	 0.383379780072252 
930	 0.383804961151356 
931	 0.38403577024484 
932	 0.38450672969104 
933	 0.384960729713179 
934	 0.385353153178912 
935	 0.385720645311178 
936	 0.386144407394963 
937	 0.386584214622361 
938	 0.387079163236339 
939	 0.387669690549204 
940	 0.388343529327696 
941	 0.38880740868595 
942	 0.389210254720841 
943	 0.389787157320974 
944	 0.390325548330989 
945	 0.390919799185551 
946	 0.391515092307113 
947	 0.392023951665796 
948	 0.392549983279401 
949	 0.392973768241715 
950	 0.393340293286455 
951	 0.393798893665242 
952	 0.394507319842687 
953	 0.395379883223507 
954	 0.396091617083095 
955	 0.396394033102126 
956	 0.397042987574773 
957	 0.397750855191177 
958	 0.398373539343804 
959	 0.398927194780663 
960	 0.399563235805809 
961	 0.400154484250816 
962	 0.400747664137833 
963	 0.401468458381579 
964	 0.402155035905656 
965	 0.402817789130694 
966	 0.403467717558326 
967	 0.40411784863812 
968	 0.404804466387064 
969	 0.405550896017363 
970	 0.406321224671612 
971	 0.407062666902654 
972	 0.407887750019596 
973	 0.408670671619175 
974	 0.40941633155752 
975	 0.41019821642359 
976	 0.41085380855897 
977	 0.411589852617121 
978	 0.412405566721762 
979	 0.413147563612547 
980	 0.413747469669835 
981	 0.41432598396495 
982	 0.415054850515137 
983	 0.416021050722991 
984	 0.416829343325724 
985	 0.417615299871434 
986	 0.41839223933223 
987	 0.419104243275538 
988	 0.419790134192891 
989	 0.420607024318537 
990	 0.421481331274259 
991	 0.422253390173872 
992	 0.42300791175316 
993	 0.4235942488412 
994	 0.42427980853807 
995	 0.425321190464382 
996	 0.426160265199436 
997	 0.427066861060225 
998	 0.427942124445601 
999	 0.428639469918526 
1000	 0.42936236318773 
1001	 0.432390042799882 
1002	 0.433038015601263 
1003	 0.433784725671393 
1004	 0.434547598987518 
1005	 0.435362565674901 
1006	 0.436139769734528 
1007	 0.436957516699064 
1008	 0.437711468166963 
1009	 0.438363000458935 
1010	 0.439015103451732 
1011	 0.439707920133748 
1012	 0.440428641363054 
1013	 0.441209025398553 
1014	 0.441968507981896 
1015	 0.442659437513799 
1016	 0.443258285080937 
1017	 0.44387199359687 
1018	 0.444426087744017 
1019	 0.445028372727298 
1020	 0.44568047915079 
1021	 0.446395626570424 
1022	 0.447085364430016 
1023	 0.447700346027969 
1024	 0.448304268011785 
1025	 0.448899565836458 
1026	 0.449492447404761 
1027	 0.450112457907712 
1028	 0.450721400259985 
1029	 0.451326830128661 
1030	 0.451924418805031 
1031	 0.452472040633208 
1032	 0.452983405155682 
1033	 0.453510666410557 
1034	 0.454050451425258 
1035	 0.454584191708179 
1036	 0.455232430465763 
1037	 0.455916760042312 
1038	 0.456529831298385 
1039	 0.457160503178211 
1040	 0.457770201972625 
1041	 0.458315266852337 
1042	 0.458917159641688 
1043	 0.459555399936091 
1044	 0.460157298901101 
1045	 0.460753429172715 
1046	 0.461352629680549 
1047	 0.461938489795459 
1048	 0.462530175696622 
1049	 0.463107170341199 
1050	 0.463751336316164 
1051	 0.464434809839194 
1052	 0.464988050679279 
1053	 0.465568352119444 
1054	 0.466134388825488 
1055	 0.466578025655041 
1056	 0.467084476912608 
1057	 0.46759361310494 
1058	 0.468091101789468 
1059	 0.468607541998762 
1060	 0.469186757985893 
1061	 0.469663845742213 
1062	 0.470096694489438 
1063	 0.470502733195746 
1064	 0.470888826791697 
1065	 0.471313000655282 
1066	 0.47171886742403 
1067	 0.472129866607624 
1068	 0.47253847407238 
1069	 0.472899323603891 
1070	 0.473257361922265 
1071	 0.473646115072247 
1072	 0.473992769652978 
1073	 0.474255650030013 
1074	 0.474572027959088 
1075	 0.474910334402451 
1076	 0.475227716641591 
1077	 0.475561627588405 
1078	 0.475897810074487 
1079	 0.476228893504458 
1080	 0.476530358666988 
1081	 0.476775077287281 
1082	 0.477065089822433 
1083	 0.477340552173211 
1084	 0.477590851638204 
1085	 0.477866210389267 
1086	 0.478140425530637 
1087	 0.478426138933951 
1088	 0.478734682449082 
1089	 0.479028721237856 
1090	 0.479269976100757 
1091	 0.47957305003647 
1092	 0.479905085286691 
1093	 0.480215830766461 
1094	 0.480569279011697 
1095	 0.480937799650376 
1096	 0.481265588054611 
1097	 0.481597365757828 
1098	 0.481953767931659 
1099	 0.482338359845921 
1100	 0.48271533866296 
1101	 0.48307576841308 
1102	 0.483480214566794 
1103	 0.483906447562581 
1104	 0.48433758123786 
1105	 0.484814858437676 
1106	 0.485311460483809 
1107	 0.4857480861839 
1108	 0.486177169234704 
1109	 0.486616203557685 
1110	 0.487065474081232 
1111	 0.487559125721317 
1112	 0.488101474948479 
1113	 0.488653550043465 
1114	 0.489245001265156 
1115	 0.489805187303821 
1116	 0.490372347040856 
1117	 0.490937032053624 
1118	 0.491477835482118 
1119	 0.492036977261436 
1120	 0.492634529661377 
1121	 0.493236939337347 
1122	 0.493829827905201 
1123	 0.494429941403223 
1124	 0.495022992523139 
1125	 0.495613379820144 
1126	 0.496194048677354 
1127	 0.496744423367116 
1128	 0.497348562235254 
1129	 0.497987203720907 
1130	 0.49858670612801 
1131	 0.499227268535832 
1132	 0.499815550055363 
1133	 0.500323792560744 
1134	 0.500876107466601 
1135	 0.501436181331403 
1136	 0.501997473601229 
1137	 0.502560427860046 
1138	 0.503095688875173 
1139	 0.50366200323521 
1140	 0.504231039407615 
1141	 0.50480027570013 
1142	 0.505406232073949 
1143	 0.50596317328382 
1144	 0.506486921673186 
1145	 0.507012232362924 
1146	 0.507537291895946 
1147	 0.508038965549441 
1148	 0.508523476196697 
1149	 0.50900219428699 
1150	 0.509466804784468 
1151	 0.509910123329382 
1152	 0.510349531609849 
1153	 0.510813662286922 
1154	 0.511264640126388 
1155	 0.511720761526783 
1156	 0.512145389465549 
1157	 0.512574728224185 
1158	 0.512959483198682 
1159	 0.513290105423575 
1160	 0.5136510658925 
1161	 0.513986480557491 
1162	 0.514354239509417 
1163	 0.514767917644239 
1164	 0.515143126203299 
1165	 0.515514682010543 
1166	 0.515877111339367 
1167	 0.516227988925183 
1168	 0.51657273856575 
1169	 0.516905455046301 
1170	 0.517245888599152 
1171	 0.517555835955377 
1172	 0.517836704508662 
1173	 0.5181227505571 
1174	 0.518396146625907 
1175	 0.518673622726338 
1176	 0.518947015643121 
1177	 0.519221978230992 
1178	 0.519496920197273 
1179	 0.519772052743692 
1180	 0.520041356137028 
1181	 0.520316606029451 
1182	 0.520590625461615 
1183	 0.520892542220029 
1184	 0.521146457341729 
1185	 0.521385476051323 
1186	 0.521635731011328 
1187	 0.521854920963051 
1188	 0.52210303936117 
1189	 0.522393025042147 
1190	 0.522637264307501 
1191	 0.522868125051509 
1192	 0.523090155151178 
1193	 0.523286665670664 
1194	 0.523489847874219 
1195	 0.52367784810204 
1196	 0.523883837035096 
1197	 0.524105717261047 
1198	 0.524315593427133 
1199	 0.524525116046754 
1200	 0.524747571313848 
1201	 0.524948578293782 
1202	 0.525126338591547 
1203	 0.525326118092721 
1204	 0.525522452652963 
1205	 0.525735874875038 
1206	 0.525979382420602 
1207	 0.526189095861991 
1208	 0.526397842722007 
1209	 0.526594360637398 
1210	 0.526761842108409 
1211	 0.526940870364574 
1212	 0.527134193754591 
1213	 0.527305755020185 
1214	 0.527467510271478 
1215	 0.527622675901749 
1216	 0.527767952978835 
1217	 0.527883903992177 
1218	 0.528041991779119 
1219	 0.528213636702034 
1220	 0.528380263191495 
1221	 0.5285690358059 
1222	 0.528740440913897 
1223	 0.528907126057253 
1224	 0.529060969930701 
1225	 0.529213182841573 
1226	 0.529353606312208 
1227	 0.529474590023315 
1228	 0.529595959526376 
1229	 0.52968894610919 
1230	 0.529818757700646 
1231	 0.529974210063482 
1232	 0.530116670257084 
1233	 0.530264370745069 
1234	 0.530443799529807 
1235	 0.530581937541831 
1236	 0.530685655821959 
1237	 0.530818550005461 
1238	 0.530966590968521 
1239	 0.531086036069379 
1240	 0.531193340687571 
1241	 0.531313252004227 
1242	 0.531423440303587 
1243	 0.531530106656702 
1244	 0.531649345119213 
1245	 0.53176201225053 
1246	 0.531846587367765 
1247	 0.531952436200275 
1248	 0.532065553347342 
1249	 0.532205716959889 
1250	 0.532314550037078 
1251	 0.532432950281096 
1252	 0.53253936590715 
1253	 0.532630091651907 
1254	 0.532727670123453 
1255	 0.532826121048646 
1256	 0.532925417359238 
1257	 0.533031857320181 
1258	 0.533121971638332 
1259	 0.533200550708624 
1260	 0.533288208717505 
1261	 0.533374163198543 
1262	 0.533452482519702 
1263	 0.533529274920855 
1264	 0.533610089405858 
1265	 0.533675862921906 
1266	 0.533754734565962 
1267	 0.53384375785282 
1268	 0.533947987029878 
1269	 0.534041781662653 
1270	 0.534127851662798 
1271	 0.534239084833259 
1272	 0.534356827073294 
1273	 0.534484241072713 
1274	 0.53462284852616 
1275	 0.534779947812578 
1276	 0.534949614187444 
1277	 0.535126431706625 
1278	 0.535341055054331 
1279	 0.535524830919417 
1280	 0.535690848635598 
1281	 0.535867771885052 
1282	 0.536053693637109 
1283	 0.536218782301879 
1284	 0.536393617558804 
1285	 0.536539692905109 
1286	 0.53664357365299 
1287	 0.536744934677412 
1288	 0.536824468718927 
1289	 0.536885840466827 
1290	 0.536922473019704 
1291	 0.536948540996084 
1292	 0.536925393056586 
1293	 0.536865914919198 
1294	 0.536788032489443 
1295	 0.536661599327245 
1296	 0.536548806466936 
1297	 0.5364301466908 
1298	 0.536289322412737 
1299	 0.53615039792585 
1300	 0.535975156412955 
1301	 0.535742764044254 
1302	 0.535537458149057 
1303	 0.535325222149825 
1304	 0.535112109707546 
1305	 0.534918116375434 
1306	 0.534723159921233 
1307	 0.534515198090983 
1308	 0.534300015189634 
1309	 0.534091559290702 
1310	 0.533878536660464 
1311	 0.533688000883681 
1312	 0.533496440213588 
1313	 0.533332794923477 
1314	 0.533193726244339 
1315	 0.533057183443673 
1316	 0.532918870658362 
1317	 0.532825706392139 
1318	 0.532760233858333 
1319	 0.532702879367234 
1320	 0.532677267851159 
1321	 0.532665127441249 
1322	 0.532664475791011 
1323	 0.532659511959017 
1324	 0.532718802690646 
1325	 0.532789604880132 
1326	 0.532850119542024 
1327	 0.532936029740799 
1328	 0.533018046437574 
1329	 0.533126178667081 
1330	 0.533262886096053 
1331	 0.533420691438927 
1332	 0.533622827693729 
1333	 0.533866102738061 
1334	 0.534103411583251 
1335	 0.534364966584753 
1336	 0.534646446752187 
1337	 0.534944771458291 
1338	 0.535242201712622 
1339	 0.535577939780679 
1340	 0.535881418012619 
1341	 0.536169773973797 
1342	 0.536449684211988 
1343	 0.536701603744131 
1344	 0.536978074426227 
1345	 0.53728695300255 
1346	 0.537591732421523 
1347	 0.537919300066315 
1348	 0.538279826310947 
1349	 0.538606954303021 
1350	 0.538892143393779 
1351	 0.539184734269302 
1352	 0.539461836932572 
1353	 0.539753686806749 
1354	 0.540041256718547 
1355	 0.540334121121613 
1356	 0.54064159142556 
1357	 0.540934961772725 
1358	 0.541232399566153 
1359	 0.541513382777404 
1360	 0.541786144764235 
1361	 0.542048768095477 
1362	 0.542282007306855 
1363	 0.542532486007751 
1364	 0.542785371029251 
1365	 0.543037934857795 
1366	 0.543292288543207 
1367	 0.543564130743429 
1368	 0.543816249495238 
1369	 0.544038445127998 
1370	 0.544250820874523 
1371	 0.544428092315557 
1372	 0.544582580671792 
1373	 0.544749983493127 
1374	 0.544897174607308 
1375	 0.545031838524927 
1376	 0.545152337178842 
1377	 0.545261516898359 
1378	 0.545359361408737 
1379	 0.545445864260251 
1380	 0.545516521746681 
1381	 0.54558977545739 
1382	 0.545622162567395 
1383	 0.545632216131907 
1384	 0.545610520256659 
1385	 0.545579562213306 
1386	 0.54548200233662 
1387	 0.545347025534396 
1388	 0.545160099569578 
1389	 0.544928071706878 
1390	 0.544633033577924 
1391	 0.544285864121381 
1392	 0.543887825356985 
1393	 0.543387153730096 
1394	 0.542861717347349 
1395	 0.542297629022943 
1396	 0.54170256388348 
1397	 0.541107398232764 
1398	 0.540490879630542 
1399	 0.539877912760401 
1400	 0.539238196693345 
1401	 0.538646396085919 
1402	 0.538050597453778 
1403	 0.537513629292942 
1404	 0.536996416523988 
1405	 0.536547707131948 
1406	 0.536145667902689 
1407	 0.535799984356821 
1408	 0.535473351202764 
1409	 0.535267365672234 
1410	 0.535099424844893 
1411	 0.53507723446559 
1412	 0.535162403795106 
1413	 0.535378960822958 
1414	 0.535736767689282 
1415	 0.536184332006337 
1416	 0.536755686941289 
1417	 0.537418287161126 
1418	 0.538097089725367 
1419	 0.53878991305503 
1420	 0.539488970852439 
1421	 0.54014546989655 
1422	 0.540744317612014 
1423	 0.54130898603513 
1424	 0.541778930881915 
1425	 0.542156401341623 
1426	 0.542509565943661 
1427	 0.542789973598033 
1428	 0.543056336201776 
1429	 0.543292434987495 
1430	 0.543488578474654 
1431	 0.543643183896369 
1432	 0.543779241685974 
1433	 0.543863989310295 
1434	 0.543961487760025 
1435	 0.544038032725578 
1436	 0.544120063601825 
1437	 0.544214647158484 
1438	 0.544288626241858 
1439	 0.544359506547575 
1440	 0.544412488798575 
1441	 0.544429456449013 
1442	 0.54443518660507 
1443	 0.544426582026309 
1444	 0.544397754518394 
1445	 0.544386412328563 
1446	 0.544358579888042 
1447	 0.544315825672819 
1448	 0.544295334984014 
1449	 0.544270945973663 
1450	 0.544225602843864 
1451	 0.544180080200752 
1452	 0.544136398044292 
1453	 0.544076065120793 
1454	 0.543996582664615 
1455	 0.543931147681574 
1456	 0.543869225109072 
1457	 0.543791313045215 
1458	 0.543700933028194 
1459	 0.543626617635994 
1460	 0.543548479815627 
1461	 0.543472468759089 
1462	 0.543419093434611 
1463	 0.543348235210201 
1464	 0.543250206977314 
1465	 0.543173282435626 
1466	 0.543082562339803 
1467	 0.543037703031529 
1468	 0.543020747678218 
1469	 0.543018165479453 
1470	 0.543056563495959 
1471	 0.5430885681392 
1472	 0.543109446404684 
1473	 0.543161042131 
1474	 0.543205199709244 
1475	 0.543257396795556 
1476	 0.543358204386841 
1477	 0.543442367948722 
1478	 0.543557496632868 
1479	 0.543691769927163 
1480	 0.543801939653266 
1481	 0.54394688058076 
1482	 0.544061926286239 
1483	 0.544156227013335 
1484	 0.544279010286354 
1485	 0.544403507271136 
1486	 0.544522468885495 
1487	 0.544659522870287 
1488	 0.544787619125757 
1489	 0.544900009616924 
1490	 0.545024639601128 
1491	 0.545174487586731 
1492	 0.545291009169315 
1493	 0.545394750794048 
1494	 0.545486292805418 
1495	 0.545555193682117 
1496	 0.545627736679776 
1497	 0.545692709559477 
1498	 0.545754374634813 
1499	 0.545807418090155 
1500	 0.545862671635492 
1501	 0.545912304747264 
1502	 0.545970932190674 
1503	 0.546040161289813 
1504	 0.546101436848521 
1505	 0.546150811007785 
1506	 0.546217062365445 
1507	 0.54626451839702 
1508	 0.546301547442309 
1509	 0.546365108548252 
1510	 0.546398450565428 
1511	 0.546400715654484 
1512	 0.546432565045786 
1513	 0.546492568014455 
1514	 0.546545047304457 
1515	 0.546648790114182 
1516	 0.546770821305852 
1517	 0.546851642792197 
1518	 0.546913179100997 
1519	 0.546974033887526 
1520	 0.547015306593389 
1521	 0.547065323235247 
1522	 0.547107015113665 
1523	 0.54716473502543 
1524	 0.547226869757838 
1525	 0.547292425279655 
1526	 0.547373293131229 
1527	 0.547441998473516 
1528	 0.547514953203139 
1529	 0.547571458818747 
1530	 0.547611304427965 
1531	 0.547665283537338 
1532	 0.54771465309406 
1533	 0.547758530060494 
1534	 0.547816836131233 
1535	 0.547860003622437 
1536	 0.547869513560544 
1537	 0.547913655576906 
1538	 0.54797565786486 
1539	 0.548029161369171 
1540	 0.548099193921851 
1541	 0.548166837870936 
1542	 0.54824064707682 
1543	 0.548287160464328 
1544	 0.548319732573258 
1545	 0.548352968478388 
1546	 0.548358603760297 
1547	 0.548372760988039 
1548	 0.548425846296884 
1549	 0.548485850623519 
1550	 0.548547455920637 
1551	 0.548605986080968 
1552	 0.548645160136699 
1553	 0.54867363463518 
1554	 0.548717625473503 
1555	 0.548801253683359 
1556	 0.548921020862514 
1557	 0.549037468110671 
1558	 0.549141994082748 
1559	 0.54923489969845 
1560	 0.549311532523561 
1561	 0.549361502873062 
1562	 0.549418552805445 
1563	 0.549458224840394 
1564	 0.549529465346185 
1565	 0.549605358610827 
1566	 0.549688897261039 
1567	 0.549797995866998 
1568	 0.549899277466928 
1569	 0.550001849372238 
1570	 0.550091615177435 
1571	 0.55019809994721 
1572	 0.550266274682527 
1573	 0.550299085940197 
1574	 0.550345020999804 
1575	 0.550369390879224 
1576	 0.5504128632421 
1577	 0.55047947193324 
1578	 0.550516356821392 
1579	 0.550542492086596 
1580	 0.550571535709299 
1581	 0.550583268440589 
1582	 0.550601632906416 
1583	 0.550628815749543 
1584	 0.550653174581744 
1585	 0.550650378029878 
1586	 0.55069169925726 
1587	 0.550757319752708 
1588	 0.550828194188854 
1589	 0.550948030788249 
1590	 0.551026383437298 
1591	 0.551090695485288 
1592	 0.551148774756421 
1593	 0.551177299979029 
1594	 0.551222324287196 
1595	 0.551268292464461 
1596	 0.551319636066064 
1597	 0.551382431324554 
1598	 0.551439331830635 
1599	 0.551498796640309 
1600	 0.551555415063169 
1601	 0.551594888091194 
1602	 0.551653507813741 
1603	 0.551730063621679 
1604	 0.551796488784229 
1605	 0.551868459820081 
1606	 0.551942217166203 
1607	 0.552023587585878 
1608	 0.552076318260975 
1609	 0.55213179318865 
1610	 0.552202426164327 
1611	 0.552243689327588 
1612	 0.552296261493887 
1613	 0.552337820596713 
1614	 0.552362465944613 
1615	 0.552405754565015 
1616	 0.552428634181 
1617	 0.552463282021291 
1618	 0.552527701256394 
1619	 0.552568781285734 
1620	 0.552609474758248 
1621	 0.552659996711611 
1622	 0.552715179257651 
1623	 0.552766104187171 
1624	 0.552820531926097 
1625	 0.55287587710614 
1626	 0.552926939761107 
1627	 0.552985111970518 
1628	 0.553057280437587 
1629	 0.553111280553007 
1630	 0.553158002510005 
1631	 0.553203285466158 
1632	 0.553232011579772 
1633	 0.553286114303342 
1634	 0.553359895607624 
1635	 0.553405339705751 
1636	 0.553451203896311 
1637	 0.553491995516943 
1638	 0.553503101581536 
1639	 0.553547765046036 
1640	 0.553615837729152 
1641	 0.553668415201773 
1642	 0.553721152300472 
1643	 0.553779618414432 
1644	 0.553825439716041 
1645	 0.553903213669153 
1646	 0.554017723635728 
1647	 0.554088338343781 
1648	 0.554157226602267 
1649	 0.554219828946079 
1650	 0.554241745539751 
1651	 0.554305320205521 
1652	 0.554411784985219 
1653	 0.554464572083768 
1654	 0.554514662450204 
1655	 0.554534600928702 
1656	 0.554494464504789 
1657	 0.55450543174223 
1658	 0.554520349877855 
1659	 0.554548410360008 
1660	 0.554594817290557 
1661	 0.554654672675187 
1662	 0.554731542822958 
1663	 0.554798673299165 
1664	 0.554895052337485 
1665	 0.5549502065509 
1666	 0.554970390515921 
1667	 0.555009581898787 
1668	 0.555040598358933 
1669	 0.555074705578232 
1670	 0.555115676434316 
1671	 0.555154586360062 
1672	 0.55518853481448 
1673	 0.555224606290521 
1674	 0.555260425630965 
1675	 0.555305429441691 
1676	 0.555327766447835 
1677	 0.555410494437881 
1678	 0.555549430677714 
1679	 0.555650069579523 
1680	 0.555787205422882 
1681	 0.555873221934001 
1682	 0.555903755417302 
1683	 0.555960579931783 
1684	 0.556018237396603 
1685	 0.556066262450626 
1686	 0.556106369649978 
1687	 0.556155593877734 
1688	 0.556206993481269 
1689	 0.556245858055013 
1690	 0.556283648248345 
1691	 0.556324608768881 
1692	 0.556349805182461 
1693	 0.556389842639339 
1694	 0.55644440301442 
1695	 0.55649681051201 
1696	 0.556543357816753 
1697	 0.55660472025683 
1698	 0.55667789732873 
1699	 0.556752899135173 
1700	 0.556850313418537 
1701	 0.556917094223029 
1702	 0.556971486600939 
1703	 0.55702430016617 
1704	 0.557060303980995 
1705	 0.557093282931545 
1706	 0.557135599807195 
1707	 0.557158497958131 
1708	 0.557151321332111 
1709	 0.557167205693699 
1710	 0.557161586624256 
1711	 0.557206508527951 
1712	 0.557296598732321 
1713	 0.557366426117761 
1714	 0.557466926566485 
1715	 0.557538059954168 
1716	 0.557576244452187 
1717	 0.557642639692168 
1718	 0.55772108876824 
1719	 0.557785218477512 
1720	 0.55787175867077 
1721	 0.557904891907713 
1722	 0.557903456785922 
1723	 0.557906800600278 
1724	 0.557858434213667 
1725	 0.557874963328435 
1726	 0.557924275367167 
1727	 0.557962829538587 
1728	 0.558045946840916 
1729	 0.558066925504014 
1730	 0.558059414081811 
1731	 0.558043929987993 
1732	 0.558005148950288 
1733	 0.557949877034807 
1734	 0.557864100893 
1735	 0.557801965320909 
1736	 0.557718153534191 
1737	 0.55768748122714 
1738	 0.557697092649613 
1739	 0.557692192897333 
1740	 0.557706418095767 
1741	 0.557710724565244 
1742	 0.557716291130603 
1743	 0.557705796957012 
1744	 0.55768319249159 
1745	 0.557667760115208 
1746	 0.557634038369156 
1747	 0.557666249710755 
1748	 0.557707899522427 
1749	 0.557710599115041 
1750	 0.557681586015552 
1751	 0.557610729663208 
1752	 0.557536380963469 
1753	 0.557506104749528 
1754	 0.557485747576656 
1755	 0.557488466725274 
1756	 0.55748483751797 
1757	 0.557468805799342 
1758	 0.557488987974523 
1759	 0.557501020949775 
1760	 0.557484038412192 
1761	 0.557467557426849 
1762	 0.557419201150163 
1763	 0.557334729816979 
1764	 0.557308650273097 
1765	 0.557348513607808 
1766	 0.557415337882199 
1767	 0.557532508135352 
1768	 0.55761449056494 
1769	 0.557642485900217 
1770	 0.557666449881109 
1771	 0.557649289563046 
1772	 0.557628943152649 
1773	 0.557589464002223 
1774	 0.557521481575529 
1775	 0.557461250675963 
1776	 0.557420855475316 
1777	 0.557419284042516 
1778	 0.557426188592573 
1779	 0.557487652115777 
1780	 0.557580541630652 
1781	 0.55766577222242 
1782	 0.557744067559252 
1783	 0.557754108870775 
1784	 0.557766931544744 
1785	 0.557744642312313 
1786	 0.557738334185297 
1787	 0.557732100857023 
1788	 0.557736698801678 
1789	 0.557738295273975 
1790	 0.55777300753507 
1791	 0.557853706167554 
1792	 0.557886335544395 
1793	 0.557933012122042 
1794	 0.557941958605181 
1795	 0.557896348390645 
1796	 0.557865139702248 
1797	 0.557789325648938 
1798	 0.557777538078241 
1799	 0.557801621969263 
1800	 0.557840026000576 
1801	 0.553334342290702 
1802	 0.553392197393152 
1803	 0.553464747209099 
1804	 0.553509953667487 
1805	 0.553589840162511 
1806	 0.553681249180166 
1807	 0.553759386252332 
1808	 0.553827435664846 
1809	 0.553925913163671 
1810	 0.553973076436999 
1811	 0.553988988037345 
1812	 0.553985479295141 
1813	 0.553958427272769 
1814	 0.55393242334537 
1815	 0.553887425452699 
1816	 0.553833137786882 
1817	 0.553811564226061 
1818	 0.553801364182933 
1819	 0.553799785178169 
1820	 0.553816127578488 
1821	 0.553849355559649 
1822	 0.553856976984898 
1823	 0.553856168971983 
1824	 0.553829092977582 
1825	 0.55377668707553 
1826	 0.553732225365678 
1827	 0.553675796608528 
1828	 0.553594733652476 
1829	 0.55349090489743 
1830	 0.55339672435752 
1831	 0.553291223403974 
1832	 0.553169928267971 
1833	 0.553054936375001 
1834	 0.552930397563533 
1835	 0.552816706704286 
1836	 0.552702472435003 
1837	 0.552545327536779 
1838	 0.552399076601346 
1839	 0.552281790302234 
1840	 0.552169558621975 
1841	 0.55203293222611 
1842	 0.551950453212523 
1843	 0.551907525413913 
1844	 0.551802412164622 
1845	 0.551698260490584 
1846	 0.551621723152082 
1847	 0.551535965127095 
1848	 0.551473679052994 
1849	 0.551474457705645 
1850	 0.551521103533202 
1851	 0.551631057076974 
1852	 0.55174393494506 
1853	 0.551866355164259 
1854	 0.551989950868119 
1855	 0.552075584844472 
1856	 0.552168331782443 
1857	 0.552272107704098 
1858	 0.552365023705344 
1859	 0.552451680640716 
1860	 0.552523427569346 
1861	 0.552575811354192 
1862	 0.55263215694942 
1863	 0.552690825808082 
1864	 0.552724811960577 
1865	 0.552814439958285 
1866	 0.552911406289336 
1867	 0.552971023636623 
1868	 0.553062642276262 
1869	 0.553121853678617 
1870	 0.55316250830413 
1871	 0.553204494270166 
1872	 0.553259202277901 
1873	 0.553284430650899 
1874	 0.55328899001841 
1875	 0.553276072070894 
1876	 0.553218344332212 
1877	 0.553113727666041 
1878	 0.552974769983591 
1879	 0.552787700583024 
1880	 0.55255879484068 
1881	 0.552281565782361 
1882	 0.55198500969442 
1883	 0.551668116847402 
1884	 0.551271796277238 
1885	 0.550861151341921 
1886	 0.550398832061402 
1887	 0.549838977039808 
1888	 0.549295076413503 
1889	 0.548722859257421 
1890	 0.548103669398161 
1891	 0.547498074394848 
1892	 0.546870234025524 
1893	 0.546271253885428 
1894	 0.545668202414859 
1895	 0.545091290900995 
1896	 0.544543955835387 
1897	 0.544000343262537 
1898	 0.543478134777061 
1899	 0.543009786810958 
1900	 0.542581966893788 
1901	 0.542250957903093 
1902	 0.54199791289577 
1903	 0.541827666145685 
1904	 0.541721028425386 
1905	 0.5417147542686 
1906	 0.541738706595123 
1907	 0.541788049796038 
1908	 0.541865418074622 
1909	 0.541933609779332 
1910	 0.542000694653987 
1911	 0.542080278505879 
1912	 0.542138062577224 
1913	 0.542200872203402 
1914	 0.542266990232863 
1915	 0.542322386165944 
1916	 0.542376876615529 
1917	 0.542415575318872 
1918	 0.542454301174533 
1919	 0.542501455506556 
1920	 0.542539525861876 
1921	 0.542599561415434 
1922	 0.542653718589245 
1923	 0.542699519454488 
1924	 0.542755599873013 
1925	 0.542834453700384 
1926	 0.542884109902377 
1927	 0.542921258501902 
1928	 0.542965959309404 
1929	 0.542994088694304 
1930	 0.542986741554528 
1931	 0.543017119497307 
1932	 0.543025529741416 
1933	 0.543007206998424 
1934	 0.543038984702815 
1935	 0.543060306268374 
1936	 0.543071934766449 
1937	 0.543101167127978 
1938	 0.543139417552601 
1939	 0.543178917872733 
1940	 0.543202452283263 
1941	 0.543278471667772 
1942	 0.543369489721899 
1943	 0.543501859416085 
1944	 0.543669033458251 
1945	 0.543826480881673 
1946	 0.543972912416953 
1947	 0.544119773978348 
1948	 0.544255984785056 
1949	 0.544391824277782 
1950	 0.544508020794407 
1951	 0.54461593219292 
1952	 0.544699348749284 
1953	 0.544780685172961 
1954	 0.544850248606548 
1955	 0.544917722338071 
1956	 0.545004603972802 
1957	 0.545077394379862 
1958	 0.545130125297982 
1959	 0.545209177493905 
1960	 0.545291537445926 
1961	 0.545390066038306 
1962	 0.54551028249565 
1963	 0.545632413805211 
1964	 0.54576651747293 
1965	 0.54591156264546 
1966	 0.546006700353971 
1967	 0.546117043150562 
1968	 0.546236298989054 
1969	 0.546332574316207 
1970	 0.546448940830607 
1971	 0.546614238120224 
1972	 0.546736430343328 
1973	 0.546824769355273 
1974	 0.546939265305782 
1975	 0.547044206383094 
1976	 0.547159834884452 
1977	 0.547327998095975 
1978	 0.547489650523107 
1979	 0.547644052527107 
1980	 0.547825179004269 
1981	 0.547982998546124 
1982	 0.548121782736883 
1983	 0.548268673295489 
1984	 0.548406242569473 
1985	 0.548556040335312 
1986	 0.548717648676296 
1987	 0.548871800437726 
1988	 0.549020680294694 
1989	 0.549188046393273 
1990	 0.549355004548536 
1991	 0.549521342235247 
1992	 0.549707598095149 
1993	 0.549933829524056 
1994	 0.55011886627133 
1995	 0.550290484987202 
1996	 0.55046893570117 
1997	 0.550616879606351 
1998	 0.550797098914721 
1999	 0.551000511055894 
2000	 0.551206186458106 
2001	 0.551412183758949 
2002	 0.55164836423232 
2003	 0.551912681860325 
2004	 0.552130001355818 
2005	 0.552351034191982 
2006	 0.55258645754823 
2007	 0.55278994204043 
2008	 0.55294302505753 
2009	 0.553143450374675 
2010	 0.553347583737672 
2011	 0.553554132013242 
2012	 0.553798034277281 
2013	 0.554016034421786 
2014	 0.554202740160622 
2015	 0.554409360681797 
2016	 0.554626686461181 
2017	 0.554883365700822 
2018	 0.555165356211658 
2019	 0.555519294162335 
2020	 0.555806865584523 
2021	 0.55610760931417 
2022	 0.556365572313146 
2023	 0.556574196982486 
2024	 0.556794336677303 
2025	 0.557002779030173 
2026	 0.557202488731677 
2027	 0.557392869087857 
2028	 0.557572533564896 
2029	 0.557762059290231 
2030	 0.557947040511709 
2031	 0.558132615250814 
2032	 0.558311136799562 
2033	 0.558521449824482 
2034	 0.558736951024202 
2035	 0.558964890040266 
2036	 0.559247904629752 
2037	 0.559481726597677 
2038	 0.559722241336292 
2039	 0.559914261165345 
2040	 0.56008658494169 
2041	 0.560197412905596 
2042	 0.560283249545411 
2043	 0.56038968305045 
2044	 0.560500230634402 
2045	 0.560612832314643 
2046	 0.560728369791626 
2047	 0.560851967314338 
2048	 0.560971159430278 
2049	 0.561092393479286 
2050	 0.561211368679743 
2051	 0.561332740969535 
2052	 0.561446828859414 
2053	 0.561548265040432 
2054	 0.561659517950885 
2055	 0.561774333904767 
2056	 0.561890751728831 
2057	 0.561997620098799 
2058	 0.562102346003347 
2059	 0.562212112503138 
2060	 0.56231152348793 
2061	 0.56242331916072 
2062	 0.56256167662715 
2063	 0.56266946012107 
2064	 0.56276486116549 
2065	 0.562860481454833 
2066	 0.562923093168522 
2067	 0.563016574107713 
2068	 0.563148104717493 
2069	 0.563236275743078 
2070	 0.563347887761405 
2071	 0.563487235095276 
2072	 0.563586337644109 
2073	 0.563665414352533 
2074	 0.563752843585848 
2075	 0.563802903756738 
2076	 0.563906958373084 
2077	 0.564059928924702 
2078	 0.564172183821905 
2079	 0.564317589109324 
2080	 0.564412075288208 
2081	 0.564445816228016 
2082	 0.56449276111891 
2083	 0.564521267887614 
2084	 0.564548166921501 
2085	 0.56459350628156 
2086	 0.564649326442516 
2087	 0.564702685975776 
2088	 0.564762192473491 
2089	 0.56482410938901 
2090	 0.564895136599281 
2091	 0.564949436050968 
2092	 0.564989953627281 
2093	 0.565053420835825 
2094	 0.565114843964191 
2095	 0.565179072068413 
2096	 0.565274013765441 
2097	 0.565352390927819 
2098	 0.565399862844385 
2099	 0.56547006033371 
2100	 0.565560960934765 
2101	 0.565666176884272 
2102	 0.565766368630206 
2103	 0.56588554377659 
2104	 0.566003226239614 
2105	 0.566100575419975 
2106	 0.566235933010524 
2107	 0.566398558429706 
2108	 0.56656407158953 
2109	 0.566751666446606 
2110	 0.5669375332993 
2111	 0.56713775298791 
2112	 0.567327413139048 
2113	 0.567516036587397 
2114	 0.567710106088696 
2115	 0.567877395083348 
2116	 0.568016839385767 
2117	 0.568193490840582 
2118	 0.568353474115769 
2119	 0.568562016976712 
2120	 0.568819883653114 
2121	 0.569060548618037 
2122	 0.569323047334844 
2123	 0.569569773463675 
2124	 0.569846229165063 
2125	 0.570056010691788 
2126	 0.570226864963155 
2127	 0.570393513417059 
2128	 0.570510391970604 
2129	 0.570629964384041 
2130	 0.570756107821937 
2131	 0.57087691885022 
2132	 0.570951922219889 
2133	 0.571011229205128 
2134	 0.571014296149291 
2135	 0.570971909423506 
2136	 0.570908439371189 
2137	 0.570789365927141 
2138	 0.570676923519272 
2139	 0.570561961920022 
2140	 0.570403715135785 
2141	 0.57021521867548 
2142	 0.57001396362515 
2143	 0.569770722638898 
2144	 0.56952892728909 
2145	 0.569293140781108 
2146	 0.569026050407489 
2147	 0.568755807153972 
2148	 0.568448315397701 
2149	 0.56808156427875 
2150	 0.567660668336288 
2151	 0.567240357686338 
2152	 0.566766487461455 
2153	 0.566300475943847 
2154	 0.565843430436393 
2155	 0.565350120415925 
2156	 0.564840744932884 
2157	 0.564289750672305 
2158	 0.563714981056523 
2159	 0.563102836503629 
2160	 0.562422187199623 
2161	 0.56175804989432 
2162	 0.561045909457956 
2163	 0.560380081957294 
2164	 0.559752631035937 
2165	 0.559124637483069 
2166	 0.558440729855992 
2167	 0.557768782617589 
2168	 0.557036278156234 
2169	 0.556230857329513 
2170	 0.555436521938523 
2171	 0.554661977254003 
2172	 0.553791262169051 
2173	 0.552853767982008 
2174	 0.551909464340783 
2175	 0.550899975995847 
2176	 0.549893485403432 
2177	 0.548887970332707 
2178	 0.547848251081735 
2179	 0.546760146929973 
2180	 0.545679122585675 
2181	 0.544578994064963 
2182	 0.543479273169672 
2183	 0.542381421611787 
2184	 0.541273318115698 
2185	 0.540146964885789 
2186	 0.538992146748298 
2187	 0.537870425940686 
2188	 0.536728243251698 
2189	 0.53563785024666 
2190	 0.534555065627861 
2191	 0.533550184964883 
2192	 0.532569574316382 
2193	 0.531667845001374 
2194	 0.530808612678102 
2195	 0.530065790080173 
2196	 0.529422565912482 
2197	 0.528831276295233 
2198	 0.528332254129993 
2199	 0.527908782859719 
2200	 0.527533100394534 
2201	 0.527246173667238 
2202	 0.527076705483966 
2203	 0.526952759584037 
2204	 0.526907704206958 
2205	 0.526940173873834 
2206	 0.527026193676127 
2207	 0.527152068371862 
2208	 0.527426289297804 
2209	 0.527813098174499 
2210	 0.528236656178482 
2211	 0.528825325395222 
2212	 0.529347938208548 
2213	 0.529869669904087 
2214	 0.530418456205125 
2215	 0.531005474905818 
2216	 0.531571216737525 
2217	 0.532168462413129 
2218	 0.532719612640003 
2219	 0.533272192095813 
2220	 0.533765222823525 
2221	 0.534190172380468 
2222	 0.534623053798956 
2223	 0.535069455067354 
2224	 0.535431139339294 
2225	 0.535761118703887 
2226	 0.53611126733872 
2227	 0.536309890054248 
2228	 0.536369461590464 
2229	 0.536475313444162 
2230	 0.536513975710198 
2231	 0.536560918118405 
2232	 0.536618996773342 
2233	 0.536644903597794 
2234	 0.536628425826661 
2235	 0.536616213491313 
2236	 0.536590743398167 
2237	 0.536565449613263 
2238	 0.536535892714722 
2239	 0.536488698561929 
2240	 0.536459281500827 
2241	 0.536379339404097 
2242	 0.536256422712648 
2243	 0.53612526098238 
2244	 0.535968140559986 
2245	 0.53578892519525 
2246	 0.535615331058282 
2247	 0.535387747924765 
2248	 0.535155959954711 
2249	 0.534894285968487 
2250	 0.534639169201571 
2251	 0.534358525980474 
2252	 0.534118604162192 
2253	 0.533891265361204 
2254	 0.533665290200949 
2255	 0.533436836462556 
2256	 0.533255046194324 
2257	 0.533056813572775 
2258	 0.532949703398372 
2259	 0.532938321386828 
2260	 0.532906838126046 
2261	 0.532867918059604 
2262	 0.532931152823175 
2263	 0.533065015096862 
2264	 0.533198600221716 
2265	 0.533419414883196 
2266	 0.533637354531388 
2267	 0.533824776217132 
2268	 0.534054534782056 
2269	 0.534321518538116 
2270	 0.534633734005311 
2271	 0.534956081712761 
2272	 0.535291946351437 
2273	 0.535662223661316 
2274	 0.536072156948282 
2275	 0.536464554636196 
2276	 0.536876857748884 
2277	 0.537259014654392 
2278	 0.537630195183802 
2279	 0.537993886162007 
2280	 0.538336915606756 
2281	 0.538709158128154 
2282	 0.539079973490912 
2283	 0.539462952851953 
2284	 0.539895262234294 
2285	 0.540257035039256 
2286	 0.540588041333894 
2287	 0.540929352514374 
2288	 0.541205183878722 
2289	 0.541536651643334 
2290	 0.541926889532753 
2291	 0.542281738319778 
2292	 0.542637440793223 
2293	 0.542992343540032 
2294	 0.543360686490059 
2295	 0.543673215309556 
2296	 0.543918302273339 
2297	 0.544241014245356 
2298	 0.544533088040799 
2299	 0.544788025933834 
2300	 0.545137126791366 
2301	 0.545414983938679 
2302	 0.54563256217873 
2303	 0.545913349507535 
2304	 0.546137256034172 
2305	 0.546350723148263 
2306	 0.546565123264603 
2307	 0.546766510400138 
2308	 0.546961810147318 
2309	 0.547167555698379 
2310	 0.547349422351271 
2311	 0.547536344226579 
2312	 0.547670001586695 
2313	 0.547752755475843 
2314	 0.547825774493216 
2315	 0.547847012691556 
2316	 0.547908951881056 
2317	 0.547969289390483 
2318	 0.548061493316713 
2319	 0.54817982273504 
2320	 0.548291337262809 
2321	 0.548415991556223 
2322	 0.548538551737921 
2323	 0.548697902709047 
2324	 0.54880182393355 
2325	 0.54887221212781 
2326	 0.548948083009284 
2327	 0.549013993215818 
2328	 0.549019425233124 
2329	 0.549050814135493 
2330	 0.549077016831263 
2331	 0.549039033856596 
2332	 0.549028484694504 
2333	 0.54906910662673 
2334	 0.549161395147362 
2335	 0.549286597504502 
2336	 0.549387533912895 
2337	 0.549473643915733 
2338	 0.549508194933346 
2339	 0.549508680913467 
2340	 0.549512827132733 
2341	 0.549477771663493 
2342	 0.549426251975331 
2343	 0.549346539863681 
2344	 0.549265800951372 
2345	 0.549210466849509 
2346	 0.549134008481253 
2347	 0.549105457677235 
2348	 0.549120195379162 
2349	 0.549160179010736 
2350	 0.549262190897802 
2351	 0.549317316339559 
2352	 0.549406041748455 
2353	 0.549390252197306 
2354	 0.549234177265529 
2355	 0.549211465128877 
2356	 0.549200813523587 
2357	 0.549222246529029 
2358	 0.549361206070466 
2359	 0.54944753640896 
2360	 0.549495440974235 
2361	 0.549566120380927 
2362	 0.54967250451296 
2363	 0.549741586151471 
2364	 0.549774684962076 
2365	 0.549812127754324 
2366	 0.549880677027575 
2367	 0.549871168062222 
2368	 0.54979993821526 
2369	 0.549785609741704 
2370	 0.549806019773303 
2371	 0.549675865669872 
2372	 0.549567539020837 
2373	 0.549456843521325 
2374	 0.549318214580936 
2375	 0.549153048475687 
2376	 0.549076324748848 
2377	 0.549029962317109 
2378	 0.548828571600002 
2379	 0.548662064691184 
2380	 0.548488217279189 
2381	 0.548193008622134 
2382	 0.547941654958222 
2383	 0.547726804868791 
2384	 0.547465470692958 
2385	 0.547267532048333 
2386	 0.547105270724924 
2387	 0.546913693641185 
2388	 0.546782660857514 
2389	 0.546610004105137 
2390	 0.546364487462218 
2391	 0.546198833520257 
2392	 0.545991104137545 
2393	 0.54567378952116 
2394	 0.545471846114124 
2395	 0.545247958795177 
2396	 0.544923985342292 
2397	 0.544673644014253 
2398	 0.544360479586486 
2399	 0.543981749951661 
2400	 0.543697405616785 
2401	 0.543404859851998 
2402	 0.543061743814304 
2403	 0.542787868279671 
2404	 0.542522622664737 
2405	 0.542224196567093 
2406	 0.541912372213825 
2407	 0.541582051868252 
2408	 0.541166212825514 
2409	 0.540656982419545 
2410	 0.540216626828204 
2411	 0.539870109547052 
2412	 0.539540273486766 
2413	 0.539298344377868 
2414	 0.539050145063798 
2415	 0.538644713034902 
2416	 0.53820014089751 
2417	 0.537612692807501 
2418	 0.537093027108701 
2419	 0.536527017651242 
2420	 0.536102990830345 
2421	 0.535748465858094 
2422	 0.535409593061311 
2423	 0.535217985365262 
2424	 0.534870776716203 
2425	 0.534444556166065 
2426	 0.534013443929347 
2427	 0.533482200555366 
2428	 0.533099715719963 
2429	 0.532776144781365 
2430	 0.5325178566901 
2431	 0.53240267447277 
2432	 0.532110262897614 
2433	 0.531754824586923 
2434	 0.531455962568537 
2435	 0.531100574446074 
2436	 0.530771362348803 
2437	 0.530530669040693 
2438	 0.53014442656566 
2439	 0.529631267228544 
2440	 0.52925894564494 
2441	 0.528839593132357 
2442	 0.528601908005303 
2443	 0.528531107378302 
2444	 0.528438828692338 
2445	 0.528468091619004 
2446	 0.528407340463123 
2447	 0.528397947986863 
2448	 0.528196482148015 
2449	 0.527811133858369 
2450	 0.527570672606186 
2451	 0.527201812056298 
2452	 0.527022314597339 
2453	 0.527104065282571 
2454	 0.527019199185032 
2455	 0.526889594320942 
2456	 0.526717118794953 
2457	 0.526470519304936 
2458	 0.526320081809795 
2459	 0.526237962764444 
2460	 0.526101259408208 
2461	 0.525971972705719 
2462	 0.525849642773113 
2463	 0.525604976403773 
2464	 0.525477973362889 
2465	 0.525528900153084 
2466	 0.525410815975469 
2467	 0.525221145642978 
2468	 0.52515326967062 
2469	 0.52506649904511 
2470	 0.525121697340513 
2471	 0.525086923063452 
2472	 0.52513940086514 
2473	 0.525013128533311 
2474	 0.524850345303311 
2475	 0.524951405478111 
2476	 0.524924520956179 
2477	 0.524806447826106 
2478	 0.524613622291882 
2479	 0.524316502264321 
2480	 0.524096577794195 
2481	 0.523890706889887 
2482	 0.523724780301016 
2483	 0.523621732252651 
2484	 0.523410634949122 
2485	 0.523117663297845 
2486	 0.522918170808344 
2487	 0.522861392877413 
2488	 0.522836982827891 
2489	 0.522855347805765 
2490	 0.522953958548107 
2491	 0.5228406498372 
2492	 0.522495517920314 
2493	 0.522219180444618 
2494	 0.521902208847767 
2495	 0.521663942864614 
2496	 0.521718321694972 
2497	 0.521677844264825 
2498	 0.521537939175589 
2499	 0.521586226127094 
2500	 0.521631821572814 
