Wavelength	LMW300005.asd
350	 0.120683231339484 
351	 0.123434407147244 
352	 0.121187621474319 
353	 0.113820319307413 
354	 0.114838504410009 
355	 0.11626370469824 
356	 0.117712975115583 
357	 0.120125587429109 
358	 0.122770498208766 
359	 0.122071653883487 
360	 0.121185362089905 
361	 0.125868945818915 
362	 0.119551345532975 
363	 0.115540167400999 
364	 0.119661588015921 
365	 0.120945278302348 
366	 0.12147254481239 
367	 0.121525056744117 
368	 0.121553722189933 
369	 0.123988497775125 
370	 0.124306083149438 
371	 0.123238980937968 
372	 0.124968019025638 
373	 0.12848009548471 
374	 0.130722830941347 
375	 0.130816358120082 
376	 0.13206709135745 
377	 0.131967475683918 
378	 0.131725430030705 
379	 0.133354599479481 
380	 0.13798856371711 
381	 0.138886333543616 
382	 0.138774640384704 
383	 0.146172711740289 
384	 0.145499929871159 
385	 0.143648985825385 
386	 0.14582482060901 
387	 0.14779308676008 
388	 0.150895419156589 
389	 0.153252685579349 
390	 0.153353181181559 
391	 0.155610948577073 
392	 0.158581918672779 
393	 0.16152746130548 
394	 0.164496815052874 
395	 0.165991139714438 
396	 0.168217653962342 
397	 0.171819740511681 
398	 0.172743485174008 
399	 0.174724305410841 
400	 0.178117635828582 
401	 0.181734154108761 
402	 0.183380218769369 
403	 0.185304197373109 
404	 0.188298735113507 
405	 0.191382414747307 
406	 0.193513485708365 
407	 0.195444273374368 
408	 0.197666845171067 
409	 0.198966442382999 
410	 0.200473597328486 
411	 0.202238085772214 
412	 0.203843140668595 
413	 0.205542432827284 
414	 0.206898538081833 
415	 0.207907698973658 
416	 0.209167331764559 
417	 0.210200145299892 
418	 0.211160799677044 
419	 0.212092487466799 
420	 0.212055903230012 
421	 0.212466329017406 
422	 0.213155547973104 
423	 0.21304614428317 
424	 0.213296035765289 
425	 0.21330327407174 
426	 0.212808294327772 
427	 0.212574417800832 
428	 0.212040545933361 
429	 0.211382129800999 
430	 0.210901370115969 
431	 0.210289202355474 
432	 0.209911801935827 
433	 0.209682933675168 
434	 0.209103507129895 
435	 0.209245708948179 
436	 0.209678191787147 
437	 0.209964463441736 
438	 0.210411471084362 
439	 0.211300503838263 
440	 0.212725026639284 
441	 0.21454658094451 
442	 0.215738784651183 
443	 0.217078265445033 
444	 0.218834548521465 
445	 0.220227431974532 
446	 0.221879026183414 
447	 0.223714076739727 
448	 0.22547687113802 
449	 0.227026670671563 
450	 0.22872981802671 
451	 0.230626705135454 
452	 0.232443731747726 
453	 0.233643664633722 
454	 0.234889772096571 
455	 0.236609970112656 
456	 0.238158179748554 
457	 0.239592883982273 
458	 0.240870389922479 
459	 0.24196586051301 
460	 0.243231320692435 
461	 0.244333483912072 
462	 0.245245134474654 
463	 0.246454580389323 
464	 0.247366909310211 
465	 0.248108609499895 
466	 0.248913807996629 
467	 0.249545343410403 
468	 0.250423498573048 
469	 0.251399690770255 
470	 0.25191570804793 
471	 0.25268698567339 
472	 0.253522296861891 
473	 0.254217733024509 
474	 0.254896938405969 
475	 0.255586687649701 
476	 0.256266508525873 
477	 0.256905792865571 
478	 0.257593270970017 
479	 0.258273880145501 
480	 0.258944766062721 
481	 0.259692848204164 
482	 0.260384898237788 
483	 0.261126686001786 
484	 0.261974893838951 
485	 0.262528743552697 
486	 0.262994613625657 
487	 0.263532337128901 
488	 0.264230794533608 
489	 0.264857692576396 
490	 0.26563021851911 
491	 0.26658999034083 
492	 0.267147355925891 
493	 0.267706159439936 
494	 0.268309220174549 
495	 0.268867735830938 
496	 0.269621540697561 
497	 0.270416553222298 
498	 0.271130165936415 
499	 0.271746754717871 
500	 0.272223216458499 
501	 0.272727284120876 
502	 0.273413469472091 
503	 0.274108442308806 
504	 0.274756701235372 
505	 0.275351848924069 
506	 0.275928043045726 
507	 0.276452249295097 
508	 0.276996876352229 
509	 0.277592674994696 
510	 0.278104719264099 
511	 0.278671520574147 
512	 0.279293585252588 
513	 0.279887664364111 
514	 0.280327129698611 
515	 0.280749099560682 
516	 0.281258706671973 
517	 0.281866864402611 
518	 0.282403576782304 
519	 0.282870274191703 
520	 0.283334277172003 
521	 0.283861158428935 
522	 0.284332805306105 
523	 0.284782816504912 
524	 0.285406094422364 
525	 0.285847693530268 
526	 0.286272898388334 
527	 0.286836415050196 
528	 0.287275491017662 
529	 0.287713611065025 
530	 0.288163321211566 
531	 0.288566997363393 
532	 0.288925619728191 
533	 0.289426771352236 
534	 0.290070765472324 
535	 0.290390075630824 
536	 0.290910710863714 
537	 0.291481332606832 
538	 0.291776289839309 
539	 0.292233365631587 
540	 0.292649977398569 
541	 0.292997093137004 
542	 0.293542436676411 
543	 0.294009485198868 
544	 0.294432064176932 
545	 0.294896699064736 
546	 0.295351106210033 
547	 0.295725955780204 
548	 0.296098345411063 
549	 0.29665069287494 
550	 0.297099548418236 
551	 0.297528510781042 
552	 0.298042692282305 
553	 0.298634138312664 
554	 0.299167886076384 
555	 0.299675676314241 
556	 0.300261474208025 
557	 0.300789298910618 
558	 0.301355102935196 
559	 0.301979666884312 
560	 0.302510787797368 
561	 0.302993991835191 
562	 0.303427722403321 
563	 0.303831792301413 
564	 0.304398308612187 
565	 0.304958328148959 
566	 0.305478736856038 
567	 0.306101430094168 
568	 0.3068404101647 
569	 0.30763687856848 
570	 0.308422264558018 
571	 0.309179099220379 
572	 0.309901291156785 
573	 0.310593152314879 
574	 0.311260905849015 
575	 0.311840395691736 
576	 0.31242895130103 
577	 0.313102537997005 
578	 0.313847669796144 
579	 0.314574159012158 
580	 0.315331026473083 
581	 0.316213327067726 
582	 0.317163552965289 
583	 0.318106461145859 
584	 0.318980766076171 
585	 0.319747692372967 
586	 0.320508997556869 
587	 0.321269780477762 
588	 0.322004780615704 
589	 0.322699862181908 
590	 0.323391020740167 
591	 0.324090341125165 
592	 0.324790582253516 
593	 0.325564576650047 
594	 0.326343634312848 
595	 0.327110099237239 
596	 0.328067224045883 
597	 0.329095337466238 
598	 0.330086057821239 
599	 0.330957047203179 
600	 0.331784969642788 
601	 0.332632631404682 
602	 0.33347830297504 
603	 0.334159351168859 
604	 0.334712696571845 
605	 0.335296652332183 
606	 0.336049927325949 
607	 0.336731487977988 
608	 0.33737141144519 
609	 0.338028801074037 
610	 0.338775545923493 
611	 0.339521798321408 
612	 0.340283804118671 
613	 0.341060657224025 
614	 0.341714881072586 
615	 0.342357390731899 
616	 0.342990003157057 
617	 0.343541883213424 
618	 0.344085308842018 
619	 0.344606169458071 
620	 0.345112646946854 
621	 0.345702941333858 
622	 0.346175241803683 
623	 0.346599152228613 
624	 0.347124452134294 
625	 0.347617878625568 
626	 0.348066349343645 
627	 0.348508674608506 
628	 0.349039175784761 
629	 0.349557745215607 
630	 0.350019076754135 
631	 0.350413859886946 
632	 0.350796391141436 
633	 0.351186948578569 
634	 0.35162353282687 
635	 0.352142033370134 
636	 0.352492879535608 
637	 0.352840741079882 
638	 0.353301148775507 
639	 0.353687007601875 
640	 0.354049424132429 
641	 0.354451923231068 
642	 0.354942351628283 
643	 0.355378890763592 
644	 0.355774644008408 
645	 0.356160148089293 
646	 0.356566978917423 
647	 0.356966618174263 
648	 0.35733892607325 
649	 0.357690543898372 
650	 0.358120639446242 
651	 0.358591566631653 
652	 0.359055659298033 
653	 0.35946397173986 
654	 0.359821817203087 
655	 0.360200659020804 
656	 0.360629097274234 
657	 0.360987433436394 
658	 0.361434376855252 
659	 0.361908396244373 
660	 0.36227707523309 
661	 0.362752049860942 
662	 0.363226883533715 
663	 0.363668384468103 
664	 0.364197310454158 
665	 0.364564874799539 
666	 0.364961355148136 
667	 0.365561259599763 
668	 0.365911532531572 
669	 0.366336361580121 
670	 0.36686676066479 
671	 0.367287923382789 
672	 0.367834292215979 
673	 0.368370303222632 
674	 0.368800987870347 
675	 0.369268994035246 
676	 0.369797284898842 
677	 0.370299801295296 
678	 0.370689448981175 
679	 0.371266020942689 
680	 0.371812900880837 
681	 0.372268460445156 
682	 0.37283039740813 
683	 0.373398842313387 
684	 0.373898933595145 
685	 0.374324769296131 
686	 0.374889663013666 
687	 0.375477575689147 
688	 0.376052169921784 
689	 0.37663303003377 
690	 0.377156862612361 
691	 0.377651526977744 
692	 0.378161373455272 
693	 0.378738770168697 
694	 0.379329571578378 
695	 0.379901045942796 
696	 0.380438354330031 
697	 0.380963548176776 
698	 0.381553781418478 
699	 0.382208327009623 
700	 0.382840936929852 
701	 0.383375595011697 
702	 0.383897534028232 
703	 0.384470741505722 
704	 0.384991290985256 
705	 0.385497901100807 
706	 0.386079882623705 
707	 0.386792360280022 
708	 0.3871941721444 
709	 0.387622765066917 
710	 0.388224912507958 
711	 0.388751380301737 
712	 0.389411002154727 
713	 0.390015396052732 
714	 0.390400794245105 
715	 0.390906837506596 
716	 0.391441584773977 
717	 0.391963841752901 
718	 0.392472038887209 
719	 0.392940653313106 
720	 0.393318255795983 
721	 0.393638781536112 
722	 0.394099565265401 
723	 0.394638272142084 
724	 0.395150593973524 
725	 0.395548634340733 
726	 0.395919917967894 
727	 0.396312401105965 
728	 0.396700700374555 
729	 0.397001281081684 
730	 0.397360078748502 
731	 0.397646969662206 
732	 0.397810043785148 
733	 0.398101551712918 
734	 0.398409284530847 
735	 0.398681122138793 
736	 0.398891422910867 
737	 0.399038347519644 
738	 0.399233384925073 
739	 0.399449527821905 
740	 0.399509155447409 
741	 0.399576985768612 
742	 0.399740366097606 
743	 0.399959140159146 
744	 0.399895407118957 
745	 0.399811556286808 
746	 0.399812264219983 
747	 0.399898495988104 
748	 0.399939628125523 
749	 0.399887654344635 
750	 0.39976093894069 
751	 0.399645096894749 
752	 0.399549326522267 
753	 0.399478861503285 
754	 0.399404552977559 
755	 0.399200719474062 
756	 0.399053663913151 
757	 0.398922565877468 
758	 0.398672223711965 
759	 0.398418254403565 
760	 0.39814635389166 
761	 0.397890185263349 
762	 0.397752174661555 
763	 0.3975241571451 
764	 0.397232589606495 
765	 0.396944601607488 
766	 0.396669737142427 
767	 0.396336826798864 
768	 0.396004469355896 
769	 0.39575986919882 
770	 0.395381429773877 
771	 0.395053600455688 
772	 0.394792215305237 
773	 0.394376841467641 
774	 0.394024073939821 
775	 0.39371748269793 
776	 0.393399727630727 
777	 0.393053058432538 
778	 0.392691497228137 
779	 0.392272882013379 
780	 0.391775974020339 
781	 0.39145848023289 
782	 0.391187169405364 
783	 0.390855967963522 
784	 0.390431596678127 
785	 0.390036492107443 
786	 0.389673759408107 
787	 0.389323510499143 
788	 0.388982171797076 
789	 0.388558294830814 
790	 0.388125728573617 
791	 0.387783613123813 
792	 0.38738830273953 
793	 0.387056547502457 
794	 0.3867655124564 
795	 0.386375298170066 
796	 0.385989414243959 
797	 0.385639488012673 
798	 0.38530300377255 
799	 0.384872221949209 
800	 0.38460800187314 
801	 0.384359282576542 
802	 0.383932474208919 
803	 0.383472102720783 
804	 0.383205926204212 
805	 0.383011397255162 
806	 0.382593501297327 
807	 0.382263744935614 
808	 0.381892995910297 
809	 0.381470826057763 
810	 0.381192056895689 
811	 0.380946892858183 
812	 0.380681048407682 
813	 0.380381040556045 
814	 0.380116034923812 
815	 0.379789173006092 
816	 0.379452765461169 
817	 0.379196512117494 
818	 0.378951258902503 
819	 0.378677327869824 
820	 0.378382820650079 
821	 0.378110520996584 
822	 0.377800565484835 
823	 0.377544553739498 
824	 0.377343041198232 
825	 0.377013782736427 
826	 0.376780976716491 
827	 0.376613393463904 
828	 0.376414087966121 
829	 0.37611710414624 
830	 0.375799741594905 
831	 0.375529429558995 
832	 0.37535593859716 
833	 0.375279206729791 
834	 0.375187010398129 
835	 0.375002483546787 
836	 0.374708790059377 
837	 0.374453417440284 
838	 0.374289223556665 
839	 0.374194333306044 
840	 0.37405750541968 
841	 0.37391336781931 
842	 0.373732621231708 
843	 0.373501909234095 
844	 0.373291474407814 
845	 0.373156982298237 
846	 0.373086377040121 
847	 0.37301263573256 
848	 0.37278317217582 
849	 0.372624884120078 
850	 0.372578771767493 
851	 0.372504787656892 
852	 0.372355193788261 
853	 0.372260247898259 
854	 0.372242535699112 
855	 0.372135311698102 
856	 0.372160300263574 
857	 0.372146330395032 
858	 0.371965065085229 
859	 0.371822285084577 
860	 0.371753413779316 
861	 0.371730567241421 
862	 0.371712348181447 
863	 0.371762167411618 
864	 0.371703017879542 
865	 0.371611921655835 
866	 0.371678405187482 
867	 0.371665011340505 
868	 0.371614109367147 
869	 0.371589466240994 
870	 0.371637063934728 
871	 0.371629462673871 
872	 0.371577443111562 
873	 0.37155367884235 
874	 0.371682909102174 
875	 0.371761010657919 
876	 0.371787632279388 
877	 0.371794698520068 
878	 0.371732111525446 
879	 0.371846189844198 
880	 0.371995256315103 
881	 0.371982033276135 
882	 0.372000404586746 
883	 0.372094488568778 
884	 0.372203999219209 
885	 0.372248937420764 
886	 0.372422019749521 
887	 0.372593377834009 
888	 0.372644486566477 
889	 0.372543721464289 
890	 0.372733480386386 
891	 0.372988750099891 
892	 0.373170962645184 
893	 0.373360988498974 
894	 0.373394632092837 
895	 0.373465322116678 
896	 0.373683513295837 
897	 0.373887086727772 
898	 0.374041473312862 
899	 0.374243308513941 
900	 0.374526385746539 
901	 0.374649004137394 
902	 0.374856160868597 
903	 0.375094341875297 
904	 0.375250474953132 
905	 0.375392072453008 
906	 0.375606107064644 
907	 0.375861675206518 
908	 0.376084139807537 
909	 0.37630432465773 
910	 0.376598326517006 
911	 0.376921786129776 
912	 0.377177845419442 
913	 0.377521376659293 
914	 0.377767119435168 
915	 0.377979867929342 
916	 0.378408399335332 
917	 0.378614659526267 
918	 0.378873696963212 
919	 0.379302223063506 
920	 0.379722144352554 
921	 0.380013047724202 
922	 0.380260547384008 
923	 0.380583139195431 
924	 0.381067171254737 
925	 0.381391780005996 
926	 0.381715154276356 
927	 0.382152075509232 
928	 0.382539882402619 
929	 0.383036931123871 
930	 0.383474521949106 
931	 0.383764092937732 
932	 0.38418774760967 
933	 0.384592057945927 
934	 0.384972447090993 
935	 0.385362293506872 
936	 0.385774084302103 
937	 0.386215342603857 
938	 0.386747415150967 
939	 0.387400527671454 
940	 0.388085263642019 
941	 0.388501668529419 
942	 0.388853163034937 
943	 0.389432627833464 
944	 0.38999391417894 
945	 0.390598093285811 
946	 0.391190599744165 
947	 0.391693369939325 
948	 0.392170353929002 
949	 0.392613494442388 
950	 0.39300983056139 
951	 0.393406515050158 
952	 0.394119330694799 
953	 0.394926063032248 
954	 0.395579677065122 
955	 0.395980100446227 
956	 0.396705595275368 
957	 0.397379337184326 
958	 0.39791337990348 
959	 0.39844614046956 
960	 0.39907520674398 
961	 0.39968389584278 
962	 0.400318671924238 
963	 0.401082771528182 
964	 0.401716122414583 
965	 0.402384555895904 
966	 0.403098628661687 
967	 0.403771650872632 
968	 0.404514912694214 
969	 0.405264132474842 
970	 0.405994384468974 
971	 0.406727181697134 
972	 0.407548600045729 
973	 0.408311492735886 
974	 0.409044873697629 
975	 0.409867656659931 
976	 0.410612421427108 
977	 0.411319175206757 
978	 0.412103556451078 
979	 0.413005143629817 
980	 0.413444873394199 
981	 0.413976729638116 
982	 0.414739225835479 
983	 0.415552924927695 
984	 0.416371437069303 
985	 0.417139503828318 
986	 0.417890952664573 
987	 0.418696255682392 
988	 0.419539691932308 
989	 0.420369320543881 
990	 0.421196619283886 
991	 0.422035687953111 
992	 0.422770311940571 
993	 0.423345910628818 
994	 0.423897717126383 
995	 0.424632228584602 
996	 0.42565851479954 
997	 0.426744555011964 
998	 0.427677085041377 
999	 0.428366631934949 
1000	 0.429019568829927 
1001	 0.43194373564341 
1002	 0.432684428949938 
1003	 0.433478040330454 
1004	 0.434258531884114 
1005	 0.435143395569756 
1006	 0.435918583418497 
1007	 0.43663668331005 
1008	 0.437322832484536 
1009	 0.43799460950574 
1010	 0.438680058409591 
1011	 0.439381946149367 
1012	 0.440117382704943 
1013	 0.440837791348852 
1014	 0.441483248370872 
1015	 0.442102237529036 
1016	 0.44266052246616 
1017	 0.44328698509327 
1018	 0.443912073936263 
1019	 0.44460072968077 
1020	 0.445308113229963 
1021	 0.446054734725532 
1022	 0.446712601144619 
1023	 0.447318677482487 
1024	 0.447947437236818 
1025	 0.4484942428234 
1026	 0.449048091140983 
1027	 0.449651828859293 
1028	 0.450242069170499 
1029	 0.450870990210583 
1030	 0.451487475998696 
1031	 0.452076235067196 
1032	 0.452640089753287 
1033	 0.453208145985975 
1034	 0.453789329938364 
1035	 0.454378723442403 
1036	 0.454995872785633 
1037	 0.455623512136216 
1038	 0.456192739235481 
1039	 0.456757825363441 
1040	 0.457358976824953 
1041	 0.457925865825901 
1042	 0.458500551748591 
1043	 0.45914408520035 
1044	 0.459752399518554 
1045	 0.460354538557142 
1046	 0.460933114232164 
1047	 0.461545189664532 
1048	 0.462086011300308 
1049	 0.462629118943465 
1050	 0.463270862060463 
1051	 0.46387024505979 
1052	 0.46447670262523 
1053	 0.465099998012798 
1054	 0.465623576481947 
1055	 0.466138199111488 
1056	 0.466695834119992 
1057	 0.467226450285209 
1058	 0.467748584370248 
1059	 0.46826780631962 
1060	 0.468809569890537 
1061	 0.469251182793513 
1062	 0.469680909743471 
1063	 0.470105943268985 
1064	 0.470523244803117 
1065	 0.470976070255954 
1066	 0.471393269591692 
1067	 0.471803297595768 
1068	 0.472127641398903 
1069	 0.472423438658447 
1070	 0.472777593046859 
1071	 0.473153124993842 
1072	 0.473508869739032 
1073	 0.473920265019489 
1074	 0.474268962466594 
1075	 0.474573426415353 
1076	 0.474859972591888 
1077	 0.475162107333104 
1078	 0.475450725354432 
1079	 0.475727888023672 
1080	 0.476022603477976 
1081	 0.476303775408975 
1082	 0.476596135548215 
1083	 0.476863583103681 
1084	 0.477097171599711 
1085	 0.47738032997347 
1086	 0.477674406402263 
1087	 0.477951327957542 
1088	 0.478254750424008 
1089	 0.478540908999803 
1090	 0.478779940117995 
1091	 0.479045147779492 
1092	 0.479330983354949 
1093	 0.479685225582011 
1094	 0.480040387003405 
1095	 0.480369849996882 
1096	 0.480723707662232 
1097	 0.481057966247724 
1098	 0.481429294471713 
1099	 0.481826232463705 
1100	 0.482242225192731 
1101	 0.482687594054376 
1102	 0.483120865117885 
1103	 0.483583549738697 
1104	 0.48400707937728 
1105	 0.484384971260746 
1106	 0.484820535374494 
1107	 0.485259413378076 
1108	 0.485705811150736 
1109	 0.486187988329854 
1110	 0.486686893839081 
1111	 0.487196272440882 
1112	 0.487708836832593 
1113	 0.488241694221208 
1114	 0.488806667468167 
1115	 0.489349409584962 
1116	 0.489884526350087 
1117	 0.490443430999102 
1118	 0.490993436077062 
1119	 0.491577577751182 
1120	 0.492201151502813 
1121	 0.492820869156902 
1122	 0.493425710699325 
1123	 0.494005158067217 
1124	 0.494599749408687 
1125	 0.495185531283388 
1126	 0.495763375910427 
1127	 0.496331046093954 
1128	 0.496932638969638 
1129	 0.497554625905696 
1130	 0.498140812106353 
1131	 0.498742398317202 
1132	 0.499327941931288 
1133	 0.499870784277907 
1134	 0.500421964863842 
1135	 0.500976368360121 
1136	 0.501540528069189 
1137	 0.502091728385099 
1138	 0.502612036452259 
1139	 0.503176706592761 
1140	 0.503770867174484 
1141	 0.504338607204902 
1142	 0.504936226648118 
1143	 0.505481404562801 
1144	 0.505990750952206 
1145	 0.506493967531942 
1146	 0.506968172220045 
1147	 0.507448374377147 
1148	 0.507918707591916 
1149	 0.508393422526672 
1150	 0.508887087011484 
1151	 0.509339127478055 
1152	 0.509793365771263 
1153	 0.51025519549808 
1154	 0.510698401492267 
1155	 0.511125007209171 
1156	 0.511564455900501 
1157	 0.512021427839863 
1158	 0.512425366510646 
1159	 0.512804550278968 
1160	 0.51318979289361 
1161	 0.513539594611792 
1162	 0.513903522964258 
1163	 0.514292465554686 
1164	 0.514660406189319 
1165	 0.515016850175736 
1166	 0.515361515568947 
1167	 0.515714350188114 
1168	 0.516043409389179 
1169	 0.516362045476701 
1170	 0.516665626405694 
1171	 0.516971023475092 
1172	 0.517262863662557 
1173	 0.517558180150108 
1174	 0.517862086910207 
1175	 0.518145353322183 
1176	 0.518400344138661 
1177	 0.518686038480893 
1178	 0.518985751807221 
1179	 0.519268769805607 
1180	 0.519569600924934 
1181	 0.51985242126815 
1182	 0.520107498727779 
1183	 0.520367820601823 
1184	 0.52062568605765 
1185	 0.520887959292384 
1186	 0.521137194730284 
1187	 0.521372980654751 
1188	 0.521620239502245 
1189	 0.521871370640096 
1190	 0.522111770319799 
1191	 0.522361162391841 
1192	 0.522589912318734 
1193	 0.522800077009838 
1194	 0.523010096976235 
1195	 0.523201881705431 
1196	 0.523408167524444 
1197	 0.523615062597307 
1198	 0.52382606693222 
1199	 0.524042118670806 
1200	 0.524276343256945 
1201	 0.524479895883399 
1202	 0.524671966026062 
1203	 0.524869980672199 
1204	 0.525044918739016 
1205	 0.525250380394307 
1206	 0.52548613510891 
1207	 0.525693004681196 
1208	 0.525908084166099 
1209	 0.52610136226272 
1210	 0.526270324068656 
1211	 0.526439668498018 
1212	 0.526597174137104 
1213	 0.526757039357677 
1214	 0.526919674564207 
1215	 0.527069688808641 
1216	 0.52721334202276 
1217	 0.527341699637057 
1218	 0.527502776144084 
1219	 0.527669307338317 
1220	 0.52783364190936 
1221	 0.52803635810553 
1222	 0.528191736681251 
1223	 0.528303853709426 
1224	 0.52844795483426 
1225	 0.528593874371189 
1226	 0.528736340540443 
1227	 0.528891294463259 
1228	 0.529041326808602 
1229	 0.529171250471788 
1230	 0.529320185451226 
1231	 0.529508040093243 
1232	 0.529657885341019 
1233	 0.529794450765205 
1234	 0.529922435793067 
1235	 0.530050371139403 
1236	 0.530146170582054 
1237	 0.530272177948635 
1238	 0.53042715352331 
1239	 0.53055422427801 
1240	 0.53067014954951 
1241	 0.530792051528268 
1242	 0.530903201849087 
1243	 0.531022438395233 
1244	 0.531153837248741 
1245	 0.531276428738831 
1246	 0.531403464204045 
1247	 0.531516465241381 
1248	 0.531611457183572 
1249	 0.531717156794402 
1250	 0.531817418733975 
1251	 0.531917390721582 
1252	 0.532029667911544 
1253	 0.532164870409157 
1254	 0.53226690081124 
1255	 0.532365893210451 
1256	 0.532450700105044 
1257	 0.532501673121011 
1258	 0.532579059353447 
1259	 0.532661278226965 
1260	 0.532744018685227 
1261	 0.532845353028036 
1262	 0.532928756361073 
1263	 0.532990063381718 
1264	 0.533072118058409 
1265	 0.533153618457368 
1266	 0.533242817576389 
1267	 0.533354301385732 
1268	 0.533462589756517 
1269	 0.533558436851592 
1270	 0.533639401257219 
1271	 0.533747969819368 
1272	 0.533856099083056 
1273	 0.533979337487593 
1274	 0.534119965595014 
1275	 0.534271593602449 
1276	 0.534421134949572 
1277	 0.534600790731087 
1278	 0.534834895116266 
1279	 0.535026022459163 
1280	 0.535209718283372 
1281	 0.53539610568372 
1282	 0.53556635436329 
1283	 0.535731834484177 
1284	 0.535913114477521 
1285	 0.536086168216877 
1286	 0.536187809786575 
1287	 0.536282132577183 
1288	 0.536351395235075 
1289	 0.536383582642514 
1290	 0.536403686644488 
1291	 0.536413143614638 
1292	 0.536395357164614 
1293	 0.536349896414275 
1294	 0.536280337516243 
1295	 0.536186737486322 
1296	 0.536082760319068 
1297	 0.53595241413082 
1298	 0.535811897956394 
1299	 0.535674905825705 
1300	 0.535493146478189 
1301	 0.535253953415368 
1302	 0.535040008462777 
1303	 0.534805824999408 
1304	 0.534583077802751 
1305	 0.534381389688217 
1306	 0.534187653433269 
1307	 0.533985677033028 
1308	 0.533780865179882 
1309	 0.533580709229067 
1310	 0.533380945283257 
1311	 0.533190224745213 
1312	 0.532997275068792 
1313	 0.532823132586112 
1314	 0.53265940263309 
1315	 0.5325077858075 
1316	 0.532343659471403 
1317	 0.532243831404531 
1318	 0.532188065168565 
1319	 0.532133232552306 
1320	 0.532111093542216 
1321	 0.532108631397059 
1322	 0.532113102602497 
1323	 0.532131835420606 
1324	 0.532204010256866 
1325	 0.532297594386587 
1326	 0.532361690720325 
1327	 0.532444016900055 
1328	 0.532527237765811 
1329	 0.532607353259067 
1330	 0.532734041256455 
1331	 0.532874140488452 
1332	 0.533077542920013 
1333	 0.533342803943756 
1334	 0.533590067831612 
1335	 0.533872854618527 
1336	 0.534152809874043 
1337	 0.534426124762174 
1338	 0.534711378128311 
1339	 0.535025664460428 
1340	 0.535326270296715 
1341	 0.535623494514065 
1342	 0.535914771032086 
1343	 0.536196205012067 
1344	 0.536490727611571 
1345	 0.536790955200794 
1346	 0.537087103765419 
1347	 0.53738782487492 
1348	 0.537698967925167 
1349	 0.53800553656623 
1350	 0.538285946152295 
1351	 0.53857655404023 
1352	 0.538867670173632 
1353	 0.539166617610188 
1354	 0.53946600406136 
1355	 0.539761368313344 
1356	 0.540066224009274 
1357	 0.540362887670188 
1358	 0.540664597717874 
1359	 0.540944994106245 
1360	 0.541205016609896 
1361	 0.541475784809908 
1362	 0.541728382471702 
1363	 0.541991142587236 
1364	 0.542284601527274 
1365	 0.542552220636703 
1366	 0.542805193127438 
1367	 0.543053643576379 
1368	 0.543298166659889 
1369	 0.543514299652871 
1370	 0.543725031108826 
1371	 0.543932658019346 
1372	 0.544098130306671 
1373	 0.544259658785299 
1374	 0.54441223012633 
1375	 0.54454551747515 
1376	 0.544667172329651 
1377	 0.544794854296107 
1378	 0.544889492234278 
1379	 0.54495082787078 
1380	 0.545018927567345 
1381	 0.545087727765185 
1382	 0.545120063123582 
1383	 0.545159034714762 
1384	 0.545140745233492 
1385	 0.545097302082317 
1386	 0.544991028356586 
1387	 0.544836657854847 
1388	 0.544631496420866 
1389	 0.544381996339207 
1390	 0.544061795903315 
1391	 0.543711684289778 
1392	 0.543310594583582 
1393	 0.542837446710998 
1394	 0.542351052998915 
1395	 0.54177533658166 
1396	 0.541177700720546 
1397	 0.540581275058025 
1398	 0.539933038121585 
1399	 0.539329234613022 
1400	 0.538729890220498 
1401	 0.538159394590048 
1402	 0.537607152524414 
1403	 0.537076457158205 
1404	 0.536540233568759 
1405	 0.536082710871527 
1406	 0.535637805489566 
1407	 0.535284518242513 
1408	 0.534990228992093 
1409	 0.534791902890403 
1410	 0.53462390273282 
1411	 0.534612355180297 
1412	 0.534710740645145 
1413	 0.534919275997744 
1414	 0.535289566054973 
1415	 0.535768343340923 
1416	 0.536326628142313 
1417	 0.536978056327429 
1418	 0.537673999384372 
1419	 0.538357470190724 
1420	 0.539036106872896 
1421	 0.53967941063673 
1422	 0.540246638099069 
1423	 0.540786066594917 
1424	 0.541261871285905 
1425	 0.541688144572823 
1426	 0.542054051667406 
1427	 0.542354950645979 
1428	 0.542627341071277 
1429	 0.54284358587957 
1430	 0.543042643968565 
1431	 0.543200746310972 
1432	 0.543342459143199 
1433	 0.543452089950604 
1434	 0.5435558193514 
1435	 0.543636296847138 
1436	 0.543718871753334 
1437	 0.543800792494115 
1438	 0.54385502997923 
1439	 0.543894992063818 
1440	 0.54392962350034 
1441	 0.543915540159729 
1442	 0.543906984993137 
1443	 0.543893599563206 
1444	 0.543852720006532 
1445	 0.543833032994127 
1446	 0.543817973451053 
1447	 0.543790326005775 
1448	 0.543755069870406 
1449	 0.543703311469126 
1450	 0.543648053971628 
1451	 0.543599025485466 
1452	 0.543549916638549 
1453	 0.543497332017764 
1454	 0.543445525319381 
1455	 0.543392726788221 
1456	 0.543347718066317 
1457	 0.543278728855081 
1458	 0.54319164921213 
1459	 0.543118674535833 
1460	 0.543034699916518 
1461	 0.542956010625579 
1462	 0.542896452595995 
1463	 0.542825144111546 
1464	 0.542725086744631 
1465	 0.542651281746711 
1466	 0.542580913734037 
1467	 0.542538198526737 
1468	 0.5425159091264 
1469	 0.542507210545166 
1470	 0.542523986871168 
1471	 0.542541745256249 
1472	 0.542573598784917 
1473	 0.5426305251667 
1474	 0.542684735982538 
1475	 0.542762061321856 
1476	 0.542841010708256 
1477	 0.542916143815265 
1478	 0.543050056824759 
1479	 0.543182379618484 
1480	 0.543302466806743 
1481	 0.543451529630118 
1482	 0.543553943673548 
1483	 0.543600772012057 
1484	 0.543705637067314 
1485	 0.543817718916306 
1486	 0.543933250560572 
1487	 0.544077806436118 
1488	 0.544212341191489 
1489	 0.544346119872703 
1490	 0.544467595022715 
1491	 0.544600028196141 
1492	 0.544710478348791 
1493	 0.54478802784287 
1494	 0.544878869410009 
1495	 0.544980595228677 
1496	 0.545060396516777 
1497	 0.545128375386515 
1498	 0.545199759141334 
1499	 0.545262079435382 
1500	 0.545311081112263 
1501	 0.545343481308881 
1502	 0.545395159018797 
1503	 0.545442278354368 
1504	 0.545494667905066 
1505	 0.545573666235011 
1506	 0.545660711790047 
1507	 0.545725535027453 
1508	 0.545776228738199 
1509	 0.545820391860309 
1510	 0.545859654252295 
1511	 0.545887541441549 
1512	 0.545929016184634 
1513	 0.54600983773367 
1514	 0.54607674816066 
1515	 0.546156865266747 
1516	 0.546256910392766 
1517	 0.546304942080163 
1518	 0.546307195481716 
1519	 0.546348686119924 
1520	 0.54637119469659 
1521	 0.546422778218537 
1522	 0.546511449613422 
1523	 0.546577303514117 
1524	 0.546641307609412 
1525	 0.546707417619483 
1526	 0.546761318570499 
1527	 0.546837469473467 
1528	 0.546934918127726 
1529	 0.547009748568215 
1530	 0.547095256042781 
1531	 0.547164878232779 
1532	 0.547214084063683 
1533	 0.547256630288601 
1534	 0.547290839447979 
1535	 0.547325271106733 
1536	 0.547333987342478 
1537	 0.54737183824508 
1538	 0.547432130702315 
1539	 0.547480821880887 
1540	 0.547538151602515 
1541	 0.547593344369801 
1542	 0.547653638832437 
1543	 0.547695514602735 
1544	 0.547726745647592 
1545	 0.547755306945992 
1546	 0.547763520452453 
1547	 0.547774349279732 
1548	 0.54781312986857 
1549	 0.547866095310104 
1550	 0.547921200074418 
1551	 0.547987432491531 
1552	 0.548061276221769 
1553	 0.548137103581364 
1554	 0.548224493967516 
1555	 0.548312893736687 
1556	 0.548385912643048 
1557	 0.548463974553611 
1558	 0.548546938228031 
1559	 0.548622179454286 
1560	 0.548694089354162 
1561	 0.548764623941586 
1562	 0.548823287432123 
1563	 0.548856823255819 
1564	 0.548937856212838 
1565	 0.549032172486754 
1566	 0.549132048201177 
1567	 0.549268912986103 
1568	 0.549382537053683 
1569	 0.549485320053844 
1570	 0.549584224355967 
1571	 0.549700162171368 
1572	 0.549775245778986 
1573	 0.549818555692189 
1574	 0.54986720881177 
1575	 0.549880109817497 
1576	 0.54993058372426 
1577	 0.550021323621678 
1578	 0.550060260596546 
1579	 0.550093229373986 
1580	 0.550112454524311 
1581	 0.550077818835312 
1582	 0.550083260181182 
1583	 0.550094038899154 
1584	 0.550130912274858 
1585	 0.550181845959198 
1586	 0.550247187958908 
1587	 0.550353979211847 
1588	 0.550438184603508 
1589	 0.550542790566594 
1590	 0.550609781068637 
1591	 0.550637386025014 
1592	 0.55068640004774 
1593	 0.550720137740542 
1594	 0.550760378546031 
1595	 0.550810339677348 
1596	 0.550869870057396 
1597	 0.550937398500429 
1598	 0.550998082224734 
1599	 0.551071332963625 
1600	 0.55113744162504 
1601	 0.551179267352489 
1602	 0.551239746653927 
1603	 0.551325587811448 
1604	 0.551388497790684 
1605	 0.551439915200529 
1606	 0.55150034336428 
1607	 0.551547057244663 
1608	 0.551608091264822 
1609	 0.551675199913463 
1610	 0.5517342402979 
1611	 0.551776810438472 
1612	 0.551809259228716 
1613	 0.551833954527886 
1614	 0.551854469798047 
1615	 0.551887310848813 
1616	 0.551926549541487 
1617	 0.551982663066918 
1618	 0.552051750378864 
1619	 0.552095960760201 
1620	 0.552137198987345 
1621	 0.552191061771892 
1622	 0.552239403013107 
1623	 0.552301879903126 
1624	 0.552386968034417 
1625	 0.552445949075031 
1626	 0.552496876967608 
1627	 0.5525448381452 
1628	 0.552585440073858 
1629	 0.552624319230738 
1630	 0.55266102904922 
1631	 0.552695054620291 
1632	 0.552715419376559 
1633	 0.552758331987633 
1634	 0.552814000882147 
1635	 0.552855798668361 
1636	 0.552903310645593 
1637	 0.55294822142258 
1638	 0.552979094734273 
1639	 0.553023436439811 
1640	 0.553076916594928 
1641	 0.553133099311321 
1642	 0.553191430611927 
1643	 0.553252945938956 
1644	 0.553317419363502 
1645	 0.553395049676876 
1646	 0.553482180125557 
1647	 0.553562143087788 
1648	 0.553656404609804 
1649	 0.55373427896696 
1650	 0.553802860145382 
1651	 0.553861562308704 
1652	 0.55391742108782 
1653	 0.553958046781165 
1654	 0.553981097590095 
1655	 0.554003038972812 
1656	 0.554012183829106 
1657	 0.554028885776513 
1658	 0.554030630215952 
1659	 0.554062888174066 
1660	 0.554104310378906 
1661	 0.554167002351457 
1662	 0.554278460599794 
1663	 0.55433621235362 
1664	 0.554384380759705 
1665	 0.554426690516399 
1666	 0.554429386427692 
1667	 0.554460265666982 
1668	 0.554510203403919 
1669	 0.554549157350775 
1670	 0.554583502486016 
1671	 0.554623670410882 
1672	 0.554669491904829 
1673	 0.554705723839031 
1674	 0.554740809312326 
1675	 0.554773413415841 
1676	 0.554777492858871 
1677	 0.554832795124442 
1678	 0.554914445923855 
1679	 0.554996161185544 
1680	 0.555124745304997 
1681	 0.55520695030149 
1682	 0.555263443637857 
1683	 0.555329706749404 
1684	 0.555372988154154 
1685	 0.555446361576455 
1686	 0.55554523960655 
1687	 0.555622448062774 
1688	 0.555713666191687 
1689	 0.555776092692042 
1690	 0.555809360122945 
1691	 0.555851182113687 
1692	 0.555876416844247 
1693	 0.555922733326512 
1694	 0.555978464268834 
1695	 0.556032700523749 
1696	 0.55609354466938 
1697	 0.556157943086437 
1698	 0.556223073598372 
1699	 0.55629298254908 
1700	 0.556373484339996 
1701	 0.556447964545791 
1702	 0.556533916460436 
1703	 0.556586977503442 
1704	 0.556637344362787 
1705	 0.556658305551321 
1706	 0.556625890366843 
1707	 0.556633103954701 
1708	 0.556649383461463 
1709	 0.55664463165222 
1710	 0.556620433713435 
1711	 0.556653304017289 
1712	 0.556691503414304 
1713	 0.556751293839716 
1714	 0.556886524376405 
1715	 0.556962930516455 
1716	 0.557009696103647 
1717	 0.557066522706945 
1718	 0.55711063567998 
1719	 0.557165338360269 
1720	 0.557237124218073 
1721	 0.557271746088435 
1722	 0.557298052727111 
1723	 0.557319953197541 
1724	 0.557296590763182 
1725	 0.55732076242432 
1726	 0.557369797455432 
1727	 0.557410405507728 
1728	 0.557479450618189 
1729	 0.557509899848689 
1730	 0.557534823660564 
1731	 0.557526258923987 
1732	 0.557481226631438 
1733	 0.557439765605615 
1734	 0.557369678629944 
1735	 0.557316439917762 
1736	 0.557273099143367 
1737	 0.557213743898539 
1738	 0.557142802414422 
1739	 0.557090890295994 
1740	 0.557015680100858 
1741	 0.557009853810377 
1742	 0.557066743349475 
1743	 0.557071296666224 
1744	 0.557093385355694 
1745	 0.557086034932624 
1746	 0.557029258220923 
1747	 0.557023967454525 
1748	 0.55705164466557 
1749	 0.55706867932403 
1750	 0.55703064743737 
1751	 0.556963485356741 
1752	 0.55690338934976 
1753	 0.556849023741813 
1754	 0.556815503367387 
1755	 0.556840824828512 
1756	 0.556852165777321 
1757	 0.556858136643332 
1758	 0.556900830203122 
1759	 0.556913446642501 
1760	 0.556909868248256 
1761	 0.556904814570841 
1762	 0.556867780829487 
1763	 0.556809042854693 
1764	 0.556789452806817 
1765	 0.556817163684962 
1766	 0.556866896058988 
1767	 0.55696610324686 
1768	 0.557054170582012 
1769	 0.557094942401267 
1770	 0.557114787962732 
1771	 0.557098965050464 
1772	 0.557049100040564 
1773	 0.556981645769497 
1774	 0.556942531427169 
1775	 0.556902246398218 
1776	 0.556878513834125 
1777	 0.556912589409113 
1778	 0.556919689028775 
1779	 0.556972302903072 
1780	 0.557050896295601 
1781	 0.557086868546024 
1782	 0.557145048951533 
1783	 0.557177896352734 
1784	 0.557195003498133 
1785	 0.557179239510079 
1786	 0.55718661522327 
1787	 0.557181466310123 
1788	 0.557198055619186 
1789	 0.55726589307863 
1790	 0.557314267683123 
1791	 0.557353450362941 
1792	 0.557389577851141 
1793	 0.5574302423343 
1794	 0.55743487112311 
1795	 0.557425716571234 
1796	 0.557410179420212 
1797	 0.557337558538109 
1798	 0.557325811137663 
1799	 0.557356561247222 
1800	 0.557378170476777 
1801	 0.552777753936005 
1802	 0.552823582615635 
1803	 0.552915040730926 
1804	 0.553022879270497 
1805	 0.553091924386399 
1806	 0.553175104248337 
1807	 0.55327604289372 
1808	 0.553356039249679 
1809	 0.553433138894333 
1810	 0.553488640087863 
1811	 0.553550888234773 
1812	 0.553552362602737 
1813	 0.553545379633687 
1814	 0.55355843318595 
1815	 0.553516053162704 
1816	 0.5534899589217 
1817	 0.553466070456506 
1818	 0.55340176261497 
1819	 0.55338353190837 
1820	 0.553390401440415 
1821	 0.553415358627451 
1822	 0.553449000574958 
1823	 0.553473395286261 
1824	 0.553458413933123 
1825	 0.553420277466177 
1826	 0.55334999519621 
1827	 0.553268892596037 
1828	 0.553174426546012 
1829	 0.553059109234681 
1830	 0.55295027835332 
1831	 0.552840212678224 
1832	 0.552699846030769 
1833	 0.552565618010249 
1834	 0.552431659039664 
1835	 0.552305696291242 
1836	 0.552191717980711 
1837	 0.552047274086775 
1838	 0.551912491399629 
1839	 0.551792032953464 
1840	 0.551670794852815 
1841	 0.551530032962091 
1842	 0.551436625837807 
1843	 0.551370455357589 
1844	 0.551261131833213 
1845	 0.55115621215677 
1846	 0.55108790081927 
1847	 0.551031846230105 
1848	 0.550983293522491 
1849	 0.550991014135039 
1850	 0.551045209584306 
1851	 0.551155086089833 
1852	 0.551254275674179 
1853	 0.551380060669066 
1854	 0.551500204115044 
1855	 0.551580631960274 
1856	 0.551658116914902 
1857	 0.551725549050898 
1858	 0.551811658346242 
1859	 0.551886101989965 
1860	 0.551951067075456 
1861	 0.552003879243454 
1862	 0.552058475459786 
1863	 0.552110939384764 
1864	 0.552209585180394 
1865	 0.552327898945664 
1866	 0.552430652719662 
1867	 0.552497925703612 
1868	 0.552550934037317 
1869	 0.552622332073371 
1870	 0.552687328664323 
1871	 0.552736328800881 
1872	 0.552813627159607 
1873	 0.552854843524995 
1874	 0.552804920782767 
1875	 0.552750423094689 
1876	 0.552683465296976 
1877	 0.552572163978704 
1878	 0.552446179506314 
1879	 0.552278256907936 
1880	 0.552056439588055 
1881	 0.551783395428208 
1882	 0.551476972785003 
1883	 0.551141979105649 
1884	 0.550718464595767 
1885	 0.55026368133445 
1886	 0.549773303272322 
1887	 0.549203502847854 
1888	 0.548676866271503 
1889	 0.548149156543348 
1890	 0.547585793643975 
1891	 0.547013371298727 
1892	 0.546418698597903 
1893	 0.545822368159959 
1894	 0.545194861302417 
1895	 0.544590887787198 
1896	 0.544023616366056 
1897	 0.543471229653466 
1898	 0.54296755736808 
1899	 0.542540886494064 
1900	 0.542137112380927 
1901	 0.541836097397549 
1902	 0.541597313031309 
1903	 0.541423898834928 
1904	 0.54131229577008 
1905	 0.541284972555137 
1906	 0.541308549245413 
1907	 0.541359818207656 
1908	 0.541425987741315 
1909	 0.541493496124695 
1910	 0.541544729038058 
1911	 0.541599055665237 
1912	 0.541679849302326 
1913	 0.541753361777396 
1914	 0.541839583965646 
1915	 0.541900759261441 
1916	 0.541956228343322 
1917	 0.542000980345983 
1918	 0.542031802177403 
1919	 0.542083098712583 
1920	 0.542124144676277 
1921	 0.542156464462271 
1922	 0.54220349478417 
1923	 0.542262117527324 
1924	 0.542313543911411 
1925	 0.542378477359966 
1926	 0.542437537237024 
1927	 0.542498024505104 
1928	 0.54253593671076 
1929	 0.542580442909076 
1930	 0.542606438061578 
1931	 0.542599324575012 
1932	 0.542564571706492 
1933	 0.542517873463886 
1934	 0.542502499839724 
1935	 0.54250565331324 
1936	 0.542522788985305 
1937	 0.542558554321046 
1938	 0.542622825125957 
1939	 0.542684108497527 
1940	 0.542748198837626 
1941	 0.542833663726217 
1942	 0.542924166635156 
1943	 0.543051532859911 
1944	 0.543190475216875 
1945	 0.543325761923916 
1946	 0.543466537865465 
1947	 0.54362568763243 
1948	 0.54375686190738 
1949	 0.543899797515431 
1950	 0.544005470587603 
1951	 0.544083518253508 
1952	 0.544138802012545 
1953	 0.544195681580769 
1954	 0.54425659203851 
1955	 0.544321862985709 
1956	 0.54440736186641 
1957	 0.544493867285509 
1958	 0.544586579346066 
1959	 0.54467103053475 
1960	 0.544753645176936 
1961	 0.544849675992209 
1962	 0.544949727121682 
1963	 0.545052135487253 
1964	 0.545155380787085 
1965	 0.545281066728094 
1966	 0.545424085087448 
1967	 0.545541333311315 
1968	 0.545658889233396 
1969	 0.545786775487203 
1970	 0.545901151286079 
1971	 0.545997307044331 
1972	 0.546101646371222 
1973	 0.546198545695939 
1974	 0.546314484205053 
1975	 0.546429715903668 
1976	 0.546554332074769 
1977	 0.546710726854523 
1978	 0.546869942528995 
1979	 0.547030156291901 
1980	 0.547200917986227 
1981	 0.54736047224632 
1982	 0.547508058224074 
1983	 0.547676374996602 
1984	 0.547860973002251 
1985	 0.548020867904423 
1986	 0.548167865825637 
1987	 0.548339774925436 
1988	 0.548495911848763 
1989	 0.548674115763302 
1990	 0.548901226786179 
1991	 0.549142522465783 
1992	 0.549353416922254 
1993	 0.549569879641273 
1994	 0.549761542991488 
1995	 0.549924232000332 
1996	 0.550088518855549 
1997	 0.55023002521416 
1998	 0.550397711906185 
1999	 0.550562271272103 
2000	 0.55074829562006 
2001	 0.55094922637187 
2002	 0.551165981498896 
2003	 0.551424293347228 
2004	 0.55165489099356 
2005	 0.551896568135776 
2006	 0.552181105018843 
2007	 0.552404174894951 
2008	 0.552574656976833 
2009	 0.552785543930405 
2010	 0.552990097833474 
2011	 0.553190355893853 
2012	 0.553399630386211 
2013	 0.553620853167838 
2014	 0.553831555279752 
2015	 0.554050632695417 
2016	 0.55429115633108 
2017	 0.554559332489675 
2018	 0.554829795609801 
2019	 0.555122870467827 
2020	 0.555384974497684 
2021	 0.555659584860953 
2022	 0.555906433058285 
2023	 0.556123537123986 
2024	 0.556340995493634 
2025	 0.556560231734024 
2026	 0.5567537729613 
2027	 0.556937433597169 
2028	 0.557078998133553 
2029	 0.557242619393642 
2030	 0.557378488540344 
2031	 0.55756694698042 
2032	 0.557779891711119 
2033	 0.557995922183702 
2034	 0.558236404476376 
2035	 0.558479584742537 
2036	 0.558755417618656 
2037	 0.558986205005505 
2038	 0.559232985289124 
2039	 0.559427044508786 
2040	 0.559574113160195 
2041	 0.559688442485578 
2042	 0.559797996479405 
2043	 0.559919442540073 
2044	 0.560041808617306 
2045	 0.560161485584366 
2046	 0.560300483442749 
2047	 0.560461345596791 
2048	 0.560593997237919 
2049	 0.560728672443504 
2050	 0.560856235200034 
2051	 0.56095641970484 
2052	 0.561070725346164 
2053	 0.561204136498026 
2054	 0.561321656243123 
2055	 0.561433243724723 
2056	 0.561539791301036 
2057	 0.561632792474747 
2058	 0.561706319195544 
2059	 0.561791431739554 
2060	 0.561865320088157 
2061	 0.56195807211226 
2062	 0.562050342316546 
2063	 0.562168610545718 
2064	 0.562327985874348 
2065	 0.562449116467296 
2066	 0.562569244542948 
2067	 0.562689479978596 
2068	 0.562810690997028 
2069	 0.562883196827815 
2070	 0.562981262227499 
2071	 0.563097301627177 
2072	 0.563188479258168 
2073	 0.563258292994762 
2074	 0.563340640238375 
2075	 0.563414367515027 
2076	 0.563502336011228 
2077	 0.563600222124232 
2078	 0.563698215955783 
2079	 0.563806946635865 
2080	 0.563909642496381 
2081	 0.56401818856104 
2082	 0.564110293807863 
2083	 0.564203946926415 
2084	 0.564278939505939 
2085	 0.564340044568697 
2086	 0.564377990275345 
2087	 0.564429056629377 
2088	 0.56446371436384 
2089	 0.564520392129914 
2090	 0.564604469629277 
2091	 0.564654793335453 
2092	 0.564697941457813 
2093	 0.5647370863598 
2094	 0.564733557725358 
2095	 0.564769970883394 
2096	 0.564830049169235 
2097	 0.564890354447435 
2098	 0.564949229533892 
2099	 0.565043728288975 
2100	 0.565140907077745 
2101	 0.565247212377538 
2102	 0.565349912108273 
2103	 0.565472492676125 
2104	 0.565583523722903 
2105	 0.565664262250407 
2106	 0.56579410196877 
2107	 0.565944124122323 
2108	 0.566108552266139 
2109	 0.566309496809272 
2110	 0.566505085529695 
2111	 0.566738660826486 
2112	 0.566925412331302 
2113	 0.5670868955984 
2114	 0.56725029687082 
2115	 0.567411582566245 
2116	 0.567526574422571 
2117	 0.567710034852206 
2118	 0.567934800279759 
2119	 0.568144124482411 
2120	 0.568376734928265 
2121	 0.568598053502324 
2122	 0.56881194550483 
2123	 0.569032414561817 
2124	 0.569275511030739 
2125	 0.569484829709612 
2126	 0.569694119184868 
2127	 0.569873258226627 
2128	 0.570031069768784 
2129	 0.570160082996907 
2130	 0.570251706343507 
2131	 0.570347663457606 
2132	 0.570400481725321 
2133	 0.570415539068148 
2134	 0.570424999733164 
2135	 0.570426588717971 
2136	 0.570375789531212 
2137	 0.570286291213962 
2138	 0.570190820345116 
2139	 0.570072491274071 
2140	 0.56991258353023 
2141	 0.569736314179931 
2142	 0.569528316894787 
2143	 0.569245189069368 
2144	 0.568983514155107 
2145	 0.568729893169412 
2146	 0.568450051467856 
2147	 0.568166658370416 
2148	 0.567859899582196 
2149	 0.567516627764337 
2150	 0.567143314401105 
2151	 0.566744481062617 
2152	 0.566321007659877 
2153	 0.565857133012936 
2154	 0.56536296654606 
2155	 0.564837329401809 
2156	 0.564266632039369 
2157	 0.563681255174456 
2158	 0.563048540836521 
2159	 0.56242983236684 
2160	 0.561790642144326 
2161	 0.561157977961165 
2162	 0.560543328583836 
2163	 0.559909986588001 
2164	 0.55928333984625 
2165	 0.558625099519791 
2166	 0.557935360705709 
2167	 0.557224115495327 
2168	 0.556487208037909 
2169	 0.55571922112877 
2170	 0.554922987714683 
2171	 0.554119929113578 
2172	 0.553249180943074 
2173	 0.552322622920667 
2174	 0.551375205192025 
2175	 0.550373184569475 
2176	 0.549362956518883 
2177	 0.548321821900502 
2178	 0.547272796698496 
2179	 0.546206480917496 
2180	 0.54511991837423 
2181	 0.544002137442184 
2182	 0.542894560031022 
2183	 0.541780597624263 
2184	 0.540644492910903 
2185	 0.539517784717307 
2186	 0.538391769377257 
2187	 0.537265614522141 
2188	 0.536109230397909 
2189	 0.535021761749387 
2190	 0.533943107027281 
2191	 0.532929305003501 
2192	 0.531941928173118 
2193	 0.531038657847126 
2194	 0.530153781923997 
2195	 0.529412070936944 
2196	 0.528817490278944 
2197	 0.528235010805336 
2198	 0.527719098922423 
2199	 0.527294318982929 
2200	 0.526898523146965 
2201	 0.52660929110416 
2202	 0.526443022244019 
2203	 0.526363275850234 
2204	 0.526334892876565 
2205	 0.526370517609331 
2206	 0.526493620904553 
2207	 0.526691513070744 
2208	 0.526974356293729 
2209	 0.527360802108643 
2210	 0.527787726252106 
2211	 0.528321142979626 
2212	 0.528834689795918 
2213	 0.529411257451798 
2214	 0.529952722505753 
2215	 0.530484162380929 
2216	 0.531038890902933 
2217	 0.531634914592973 
2218	 0.532168228110098 
2219	 0.532705473759736 
2220	 0.533199646960684 
2221	 0.533610014352346 
2222	 0.534048334583577 
2223	 0.53449838989508 
2224	 0.534873662844209 
2225	 0.53520379872487 
2226	 0.535514354986589 
2227	 0.535718775644503 
2228	 0.535823869483578 
2229	 0.535937973398682 
2230	 0.535979067019814 
2231	 0.536036209130855 
2232	 0.536088706840621 
2233	 0.53611939082031 
2234	 0.536123919694902 
2235	 0.536120542751471 
2236	 0.536099563816738 
2237	 0.536073737598671 
2238	 0.536050667599232 
2239	 0.535990768246006 
2240	 0.535903230097134 
2241	 0.535815062570519 
2242	 0.535710444129004 
2243	 0.535580687401469 
2244	 0.535426730375997 
2245	 0.535297491051264 
2246	 0.535104780859272 
2247	 0.534879147208778 
2248	 0.534660400289376 
2249	 0.534427392029923 
2250	 0.534178268130496 
2251	 0.533897401187444 
2252	 0.533674919424483 
2253	 0.533470214040524 
2254	 0.533250868928147 
2255	 0.533049203025161 
2256	 0.532855513200694 
2257	 0.532603328794154 
2258	 0.532465945696716 
2259	 0.532407182016487 
2260	 0.532357755753661 
2261	 0.53234767123002 
2262	 0.532381897712586 
2263	 0.532436487419786 
2264	 0.532551112054342 
2265	 0.532747360073916 
2266	 0.532951729611313 
2267	 0.533204752176153 
2268	 0.533461963565111 
2269	 0.533724687725611 
2270	 0.534031595778643 
2271	 0.534358126057283 
2272	 0.534681400739901 
2273	 0.535035909592922 
2274	 0.535390054504422 
2275	 0.535752061720014 
2276	 0.53612478533766 
2277	 0.53649158622623 
2278	 0.536861366299135 
2279	 0.537224387903576 
2280	 0.537569419992934 
2281	 0.537954943727767 
2282	 0.538362582383018 
2283	 0.538770404655024 
2284	 0.539215479307399 
2285	 0.539619058887549 
2286	 0.540011096910077 
2287	 0.54038778599274 
2288	 0.540731003405 
2289	 0.541089455391429 
2290	 0.541451060571173 
2291	 0.541799689921198 
2292	 0.542164145282877 
2293	 0.542492858093031 
2294	 0.542776742444311 
2295	 0.543076681803745 
2296	 0.543339809939648 
2297	 0.543659185364777 
2298	 0.544014320518596 
2299	 0.544301912355509 
2300	 0.544566090707863 
2301	 0.544819012595722 
2302	 0.545030110812686 
2303	 0.545219001256891 
2304	 0.545438577146416 
2305	 0.54567133299531 
2306	 0.54590481041616 
2307	 0.546152232487626 
2308	 0.546395136973188 
2309	 0.54666684521477 
2310	 0.546869371341142 
2311	 0.54704479535042 
2312	 0.547194552673522 
2313	 0.547287124528383 
2314	 0.547366614500881 
2315	 0.547398509184497 
2316	 0.547493912276183 
2317	 0.54759947104857 
2318	 0.547719207111874 
2319	 0.547901713513495 
2320	 0.548031343986965 
2321	 0.5481087103256 
2322	 0.548223192113374 
2323	 0.548375817125345 
2324	 0.548480607286277 
2325	 0.548600351816875 
2326	 0.548655514775247 
2327	 0.548646164755124 
2328	 0.548610638691986 
2329	 0.548586489132493 
2330	 0.548578826690991 
2331	 0.548584725216692 
2332	 0.548588633790389 
2333	 0.548600296202528 
2334	 0.548653968631311 
2335	 0.548685639927757 
2336	 0.54872430754356 
2337	 0.548755170917987 
2338	 0.54876376942224 
2339	 0.548774926886408 
2340	 0.548745531907688 
2341	 0.548749962515199 
2342	 0.54873252176163 
2343	 0.548645482594396 
2344	 0.548619630036592 
2345	 0.548582061184214 
2346	 0.548482700971459 
2347	 0.548454874613373 
2348	 0.548486969064495 
2349	 0.548534348350212 
2350	 0.548656034153748 
2351	 0.548683330552894 
2352	 0.548709875251706 
2353	 0.548642329978019 
2354	 0.548383347450336 
2355	 0.548339761134073 
2356	 0.54837515713869 
2357	 0.548421099660846 
2358	 0.548588898043947 
2359	 0.548714709889068 
2360	 0.54881416082101 
2361	 0.548906665458296 
2362	 0.549085358334084 
2363	 0.549139734608028 
2364	 0.549058122986914 
2365	 0.549050426124739 
2366	 0.54903773012513 
2367	 0.548995933368725 
2368	 0.548964344564986 
2369	 0.548950085274064 
2370	 0.548934663782575 
2371	 0.548849745844909 
2372	 0.54883316224924 
2373	 0.548762929785611 
2374	 0.548593460540242 
2375	 0.548407321580538 
2376	 0.548199295530208 
2377	 0.548010025259509 
2378	 0.5478206963951 
2379	 0.547592773400147 
2380	 0.547327878945882 
2381	 0.547038552196892 
2382	 0.546836623286493 
2383	 0.546758887297652 
2384	 0.546626929244002 
2385	 0.546543330895862 
2386	 0.546438567290103 
2387	 0.546173534925132 
2388	 0.546030270428454 
2389	 0.545816496672946 
2390	 0.545626025049297 
2391	 0.545569766545369 
2392	 0.545333700192482 
2393	 0.545147859387261 
2394	 0.544941229417146 
2395	 0.544677957979558 
2396	 0.544504474706587 
2397	 0.544293048997313 
2398	 0.543969659124206 
2399	 0.543485079061386 
2400	 0.543119130432262 
2401	 0.542828777651777 
2402	 0.542457880421518 
2403	 0.542204201100461 
2404	 0.541870365736069 
2405	 0.541437539115335 
2406	 0.54110190565337 
2407	 0.540802611888372 
2408	 0.540495765398273 
2409	 0.540156460653426 
2410	 0.539726532593234 
2411	 0.539212929252884 
2412	 0.538838348620538 
2413	 0.538486974697117 
2414	 0.538100370403306 
2415	 0.537879753196829 
2416	 0.537515411238267 
2417	 0.536956039466946 
2418	 0.536512317963058 
2419	 0.536084961905196 
2420	 0.535632257626757 
2421	 0.535215558876728 
2422	 0.5348161705554 
2423	 0.534399754433166 
2424	 0.534027195200212 
2425	 0.533684154150363 
2426	 0.533275135455 
2427	 0.532883837361552 
2428	 0.532493861160612 
2429	 0.532007521130696 
2430	 0.531670408362974 
2431	 0.531473958402225 
2432	 0.531173843250872 
2433	 0.53093138364027 
2434	 0.530639032039397 
2435	 0.53019683415898 
2436	 0.529815916531188 
2437	 0.529502117903401 
2438	 0.529100683691115 
2439	 0.528641994930516 
2440	 0.528297714230784 
2441	 0.527881776083442 
2442	 0.527630883646144 
2443	 0.527603812628257 
2444	 0.527511007401273 
2445	 0.5274823202605 
2446	 0.527417090486028 
2447	 0.527299136137234 
2448	 0.527118163507664 
2449	 0.526959627239047 
2450	 0.52679489314079 
2451	 0.526540715066848 
2452	 0.526329824782553 
2453	 0.526127075791197 
2454	 0.525924545912537 
2455	 0.525746946436258 
2456	 0.525588866945127 
2457	 0.525466130508447 
2458	 0.525285503937643 
2459	 0.525019608429152 
2460	 0.524907469030993 
2461	 0.52486048425992 
2462	 0.524795297096464 
2463	 0.524833430398818 
2464	 0.524783856300596 
2465	 0.524673510947663 
2466	 0.524594406513066 
2467	 0.524502303331596 
2468	 0.524479226193062 
2469	 0.524495996326325 
2470	 0.524458500064935 
2471	 0.524456651863552 
2472	 0.524231118811695 
2473	 0.523941027084984 
2474	 0.523740394671239 
2475	 0.523574779972301 
2476	 0.523451201562725 
2477	 0.523413900896609 
2478	 0.523316751769769 
2479	 0.52311512101586 
2480	 0.523148229199954 
2481	 0.523237574461053 
2482	 0.523209616531722 
2483	 0.5231990050281 
2484	 0.523010349246145 
2485	 0.522653307121441 
2486	 0.522351968095041 
2487	 0.522178622479142 
2488	 0.522124974441569 
2489	 0.522009629920793 
2490	 0.521820577681821 
2491	 0.521727828851396 
2492	 0.521669367012156 
2493	 0.521639642947526 
2494	 0.521500029306513 
2495	 0.52132733443679 
2496	 0.521288381453791 
2497	 0.521009561690406 
2498	 0.520819809058255 
2499	 0.520798473273317 
2500	 0.520475213326414 
