Wavelength	LMW300002.asd
350	 0.1229563450499 
351	 0.121899204215763 
352	 0.120002031766173 
353	 0.123417769053203 
354	 0.123480823919623 
355	 0.119059450352025 
356	 0.11337875776122 
357	 0.111410754871191 
358	 0.119459515795674 
359	 0.120365640028273 
360	 0.115053133939017 
361	 0.115610290672419 
362	 0.116766312271506 
363	 0.120097515197109 
364	 0.124366946424097 
365	 0.122415178019937 
366	 0.123439021976299 
367	 0.124090625578205 
368	 0.121061553326475 
369	 0.125415943640814 
370	 0.128254311218344 
371	 0.127756822327361 
372	 0.127512484590816 
373	 0.129952907139086 
374	 0.131334765975367 
375	 0.130578727755336 
376	 0.132752938656573 
377	 0.13264037189072 
378	 0.132304863492336 
379	 0.134807487918376 
380	 0.138016338323099 
381	 0.140313568259049 
382	 0.141218904514064 
383	 0.141380909792631 
384	 0.144295468006445 
385	 0.144947149526972 
386	 0.142424422340647 
387	 0.145827301046661 
388	 0.150636260242057 
389	 0.153316949943967 
390	 0.152543797640731 
391	 0.155649081589489 
392	 0.158421181190498 
393	 0.160537361919167 
394	 0.165048070245764 
395	 0.167026391944277 
396	 0.167980570075798 
397	 0.169826317454946 
398	 0.173202227106805 
399	 0.176224718300626 
400	 0.179181325821925 
401	 0.182589741884921 
402	 0.183213344372066 
403	 0.184784294239195 
404	 0.187829459140062 
405	 0.189363651428163 
406	 0.191993172351197 
407	 0.194656024766225 
408	 0.196222566186626 
409	 0.196987836998439 
410	 0.198936479368066 
411	 0.201702796399172 
412	 0.203892870575753 
413	 0.205884142640615 
414	 0.206577885337111 
415	 0.206589560681003 
416	 0.208809329057134 
417	 0.209814073761669 
418	 0.210100441967282 
419	 0.210881100408514 
420	 0.212554973355148 
421	 0.212699491112234 
422	 0.211974769093174 
423	 0.212763646393938 
424	 0.212925632543364 
425	 0.21272981849575 
426	 0.212561800451546 
427	 0.212518794966651 
428	 0.211523625248772 
429	 0.210562672916361 
430	 0.210762902303114 
431	 0.210518206113447 
432	 0.20944821725009 
433	 0.208332634373644 
434	 0.2088553572634 
435	 0.209152882599948 
436	 0.209256207495908 
437	 0.209538405785325 
438	 0.210252140783643 
439	 0.210998361234953 
440	 0.212024387130777 
441	 0.213738232230858 
442	 0.21501349512923 
443	 0.216641292036863 
444	 0.218717626899475 
445	 0.220003174050651 
446	 0.221380608615345 
447	 0.223148017185807 
448	 0.225194057327703 
449	 0.226398742731874 
450	 0.228049253459956 
451	 0.230128949893281 
452	 0.231518030790926 
453	 0.232947129932287 
454	 0.234539694217892 
455	 0.236206934507506 
456	 0.237610775444573 
457	 0.238905518944333 
458	 0.240197475577814 
459	 0.241529978779301 
460	 0.242636574534287 
461	 0.243707478294591 
462	 0.244767481548282 
463	 0.245541302293814 
464	 0.246667326535963 
465	 0.247744908828112 
466	 0.24836806103792 
467	 0.249341391025862 
468	 0.25019623823789 
469	 0.25082725646378 
470	 0.251453519617461 
471	 0.252207008854538 
472	 0.252887727104411 
473	 0.253425261087707 
474	 0.254188583702067 
475	 0.255009967595807 
476	 0.255754683114924 
477	 0.256352028823341 
478	 0.257115182579153 
479	 0.257925579746355 
480	 0.258664537643657 
481	 0.259265113609821 
482	 0.259930266670662 
483	 0.260644067706814 
484	 0.261330361460947 
485	 0.261972534973179 
486	 0.262436460572607 
487	 0.262882415057445 
488	 0.263676284485325 
489	 0.264355813832433 
490	 0.26496491828812 
491	 0.265612937343685 
492	 0.266354156113869 
493	 0.2669758244911 
494	 0.267575617086568 
495	 0.268362784749971 
496	 0.269201878486186 
497	 0.269780127443363 
498	 0.27017004090169 
499	 0.271036053336541 
500	 0.271740761330249 
501	 0.272277069438325 
502	 0.27282227157005 
503	 0.273477644805323 
504	 0.274248185828204 
505	 0.274971300527256 
506	 0.275369768659294 
507	 0.275951245451845 
508	 0.276584564554893 
509	 0.277093484073294 
510	 0.2775220267223 
511	 0.277973707179947 
512	 0.27853959094991 
513	 0.279251527010915 
514	 0.279707770221617 
515	 0.280212747923989 
516	 0.280872645518582 
517	 0.281319103394379 
518	 0.281743830913939 
519	 0.282195235344689 
520	 0.282682715305184 
521	 0.283246028102377 
522	 0.283793165685822 
523	 0.284299932450914 
524	 0.284819350428085 
525	 0.28527000837092 
526	 0.285681733696115 
527	 0.286109737320945 
528	 0.286614279297771 
529	 0.287076610682975 
530	 0.287481205086286 
531	 0.287886751165057 
532	 0.288333993721785 
533	 0.288875183179759 
534	 0.289451934999923 
535	 0.28974459323581 
536	 0.29022360401578 
537	 0.290781663687235 
538	 0.291140083737196 
539	 0.291544890461628 
540	 0.291991051992663 
541	 0.292463491658842 
542	 0.292963646600087 
543	 0.293370902582158 
544	 0.293765868993577 
545	 0.294244461045626 
546	 0.294732744421288 
547	 0.295147254476438 
548	 0.295533662362355 
549	 0.296037051730341 
550	 0.296524407899971 
551	 0.296961318968725 
552	 0.297384759091115 
553	 0.297976941428664 
554	 0.298530502322952 
555	 0.29903458430556 
556	 0.299577467800751 
557	 0.300125231846762 
558	 0.300733490790387 
559	 0.301389586888701 
560	 0.301950783082737 
561	 0.302457917450325 
562	 0.302868720082976 
563	 0.303181593608065 
564	 0.303731304149959 
565	 0.30427414675444 
566	 0.304783607537827 
567	 0.305509419542548 
568	 0.306225819696981 
569	 0.30698095952839 
570	 0.307817953520094 
571	 0.30855051370504 
572	 0.309229815137813 
573	 0.309906238444308 
574	 0.310612723903485 
575	 0.311171078252199 
576	 0.311752127896028 
577	 0.312461149436322 
578	 0.31314009971558 
579	 0.313864644585975 
580	 0.314648118532288 
581	 0.315490828868105 
582	 0.316484743114994 
583	 0.317469268553244 
584	 0.318346378763456 
585	 0.319140002744931 
586	 0.319890126619926 
587	 0.320610241536096 
588	 0.321314349802571 
589	 0.322068183814157 
590	 0.322777677237978 
591	 0.323460205617239 
592	 0.324232934983384 
593	 0.324977858070605 
594	 0.325701806858169 
595	 0.32646493615797 
596	 0.32740789992027 
597	 0.328442853058001 
598	 0.329461725064091 
599	 0.330362982999909 
600	 0.331194356742033 
601	 0.332028447331951 
602	 0.33285089270589 
603	 0.333486265203961 
604	 0.334069601896862 
605	 0.334686024122463 
606	 0.335378700393123 
607	 0.336059392035433 
608	 0.336691585666263 
609	 0.337326528668606 
610	 0.338107727823506 
611	 0.338898001563157 
612	 0.339672564244448 
613	 0.340412594904553 
614	 0.341030461618441 
615	 0.34163120901643 
616	 0.342261397182114 
617	 0.342909542285678 
618	 0.343441496053403 
619	 0.343925481763889 
620	 0.344432080829036 
621	 0.34496900371904 
622	 0.345488591844897 
623	 0.345974441607403 
624	 0.34643373637296 
625	 0.346929780500156 
626	 0.347385948143024 
627	 0.34780972229118 
628	 0.34833314259422 
629	 0.348887813673985 
630	 0.34934906905476 
631	 0.349662048404833 
632	 0.3501009836968 
633	 0.350466695450783 
634	 0.350823993347512 
635	 0.351426347193701 
636	 0.351817457893154 
637	 0.352163342533185 
638	 0.352615876473505 
639	 0.35301877215447 
640	 0.353400131522154 
641	 0.353798566455429 
642	 0.35424441330554 
643	 0.354636281463049 
644	 0.355031697258024 
645	 0.355461401203293 
646	 0.3558967795272 
647	 0.356267290202433 
648	 0.356616094522584 
649	 0.357006704431091 
650	 0.357423097299271 
651	 0.357853130642373 
652	 0.358293836140014 
653	 0.358747646953014 
654	 0.35915742683922 
655	 0.359531754745945 
656	 0.3598945480509 
657	 0.360260422318438 
658	 0.360721013657164 
659	 0.361215915043425 
660	 0.361628389772767 
661	 0.362055320889277 
662	 0.362501518626036 
663	 0.362965524248578 
664	 0.363453235264392 
665	 0.363793354710846 
666	 0.364193372727022 
667	 0.364819202229666 
668	 0.36517507422118 
669	 0.365635952771666 
670	 0.366212173871021 
671	 0.366611985869722 
672	 0.367107189645662 
673	 0.367625215144663 
674	 0.368088288444784 
675	 0.368536454540261 
676	 0.369071628579533 
677	 0.369601632725686 
678	 0.369998157004184 
679	 0.370545823759931 
680	 0.3710986342948 
681	 0.371589367555131 
682	 0.372102844842919 
683	 0.372635075735801 
684	 0.373146558599029 
685	 0.373620933634163 
686	 0.374161214291932 
687	 0.374718841175475 
688	 0.375297436148839 
689	 0.375925510427995 
690	 0.376454182872938 
691	 0.376935767309927 
692	 0.377445003622745 
693	 0.378044508448368 
694	 0.378634314769143 
695	 0.379200518188155 
696	 0.379761340896949 
697	 0.380307892255505 
698	 0.3809083773147 
699	 0.381546614361518 
700	 0.382116722690421 
701	 0.382656389645364 
702	 0.383186372639384 
703	 0.383721506015553 
704	 0.384269126421703 
705	 0.384781352538808 
706	 0.385347807956089 
707	 0.386067175078912 
708	 0.386495343534649 
709	 0.386925654724724 
710	 0.387511724775804 
711	 0.38809287594721 
712	 0.388709981004524 
713	 0.389261235943064 
714	 0.389681072726413 
715	 0.3901572972874 
716	 0.390709910065425 
717	 0.391281647312421 
718	 0.391768831463388 
719	 0.392236445481067 
720	 0.392627458751564 
721	 0.392952220009052 
722	 0.39337370114608 
723	 0.39389329499413 
724	 0.394411785959205 
725	 0.394823385994026 
726	 0.395200088703107 
727	 0.395596221150874 
728	 0.395990770845161 
729	 0.396300102458311 
730	 0.396639608820736 
731	 0.396913457125972 
732	 0.397092590525141 
733	 0.397399391281698 
734	 0.397705589479952 
735	 0.397970182342083 
736	 0.398185724112672 
737	 0.398324817966218 
738	 0.398523455095389 
739	 0.398757203248918 
740	 0.398823783084911 
741	 0.398885985403988 
742	 0.39904608744521 
743	 0.399275941118574 
744	 0.39923364622697 
745	 0.39915522159396 
746	 0.399144187044973 
747	 0.399212323728171 
748	 0.399218843221019 
749	 0.399154263125083 
750	 0.399033542451215 
751	 0.398885622783342 
752	 0.398805481167944 
753	 0.398750074068432 
754	 0.398650659881039 
755	 0.398462880102291 
756	 0.398318534949971 
757	 0.398181449316959 
758	 0.397943741324015 
759	 0.397675481562749 
760	 0.397389239013165 
761	 0.397132562636817 
762	 0.396996856879687 
763	 0.39676952551446 
764	 0.396480349171497 
765	 0.396193923554161 
766	 0.395890011940154 
767	 0.395545672043052 
768	 0.395235592499107 
769	 0.39503732376973 
770	 0.394681477501385 
771	 0.394346603008254 
772	 0.394068626747588 
773	 0.393670192034231 
774	 0.393315363378999 
775	 0.392997657072126 
776	 0.392673216449725 
777	 0.392308833325205 
778	 0.39190631743273 
779	 0.391472455066741 
780	 0.391034122641357 
781	 0.390706057431219 
782	 0.390425105059482 
783	 0.390106865380516 
784	 0.389672752339958 
785	 0.389267781791361 
786	 0.388923092044607 
787	 0.388614951432035 
788	 0.388254116408745 
789	 0.387847042759825 
790	 0.387431194219212 
791	 0.387049269799013 
792	 0.38667901291034 
793	 0.386360419977108 
794	 0.386036859118991 
795	 0.385588310816975 
796	 0.385202784963415 
797	 0.384895286040029 
798	 0.384601836343587 
799	 0.384163397813299 
800	 0.383864718079273 
801	 0.383606928463618 
802	 0.383229435933464 
803	 0.382804973997432 
804	 0.3825667695412 
805	 0.382375913613791 
806	 0.381916870416092 
807	 0.381556903821775 
808	 0.381172659680419 
809	 0.380751107045558 
810	 0.380481411801373 
811	 0.380244997016356 
812	 0.379977054887035 
813	 0.379663054952087 
814	 0.379395004604078 
815	 0.379063821854199 
816	 0.378719690095201 
817	 0.378455308264654 
818	 0.378207968755648 
819	 0.377942326552893 
820	 0.377648702385126 
821	 0.377342971286898 
822	 0.377058099824086 
823	 0.376836698201285 
824	 0.376640744088124 
825	 0.376302507674755 
826	 0.376105727714543 
827	 0.375958527837355 
828	 0.375712423711217 
829	 0.375383381184789 
830	 0.375089723142961 
831	 0.374855668033669 
832	 0.374662841841596 
833	 0.374579553270139 
834	 0.374494757817583 
835	 0.37432501738586 
836	 0.37404193212663 
837	 0.37375861331815 
838	 0.37357936161238 
839	 0.373502792645389 
840	 0.373362832723324 
841	 0.373169241828766 
842	 0.372961605291217 
843	 0.372771772455687 
844	 0.372550419750175 
845	 0.372452853794197 
846	 0.372419963700786 
847	 0.372304152628465 
848	 0.372099959211681 
849	 0.371941724748785 
850	 0.371870931192752 
851	 0.371828354527115 
852	 0.371689942357777 
853	 0.371573216575067 
854	 0.371516915239002 
855	 0.371396723339233 
856	 0.371412467401723 
857	 0.371402630936377 
858	 0.371237722527468 
859	 0.371076710616137 
860	 0.371002242771868 
861	 0.370979503392071 
862	 0.370949762029603 
863	 0.371003559245618 
864	 0.370947660309909 
865	 0.370862267673 
866	 0.370949442758523 
867	 0.370957390176948 
868	 0.370917539738958 
869	 0.37089626722964 
870	 0.370952872812146 
871	 0.370920750611607 
872	 0.370894551397407 
873	 0.370942599057332 
874	 0.371018894094776 
875	 0.371054550384135 
876	 0.371083010693157 
877	 0.371126343907129 
878	 0.371083522384938 
879	 0.371208197626722 
880	 0.371348445729853 
881	 0.371298969408739 
882	 0.371264873304213 
883	 0.37134684059722 
884	 0.371484464580147 
885	 0.371559635515153 
886	 0.371726060333622 
887	 0.371908859855798 
888	 0.371992247641418 
889	 0.371895922082495 
890	 0.372023969511077 
891	 0.372286421437267 
892	 0.372547317990122 
893	 0.372709724356548 
894	 0.372730477482684 
895	 0.372804241630127 
896	 0.373020946151058 
897	 0.373199885795419 
898	 0.373356263002267 
899	 0.373542983352292 
900	 0.373777098335276 
901	 0.373936883540625 
902	 0.374203374646236 
903	 0.374443905375583 
904	 0.374531051320475 
905	 0.374775962698933 
906	 0.37503501733953 
907	 0.375248019843797 
908	 0.375418854346964 
909	 0.375622239544708 
910	 0.375899844529141 
911	 0.376237825342934 
912	 0.376575932485992 
913	 0.376827510070453 
914	 0.377050974259343 
915	 0.377319955876712 
916	 0.377681699819604 
917	 0.377949269398389 
918	 0.378230286367658 
919	 0.378614217834296 
920	 0.37909765785493 
921	 0.379382562670287 
922	 0.379617247851221 
923	 0.379958552970814 
924	 0.380438236559952 
925	 0.380764985417419 
926	 0.381108453521001 
927	 0.381560281232214 
928	 0.381881988281522 
929	 0.382384256022794 
930	 0.382828492413524 
931	 0.383069409571891 
932	 0.38349600428916 
933	 0.383944750726647 
934	 0.384340221952418 
935	 0.384684773518849 
936	 0.385130442336901 
937	 0.385567364003826 
938	 0.386043557797829 
939	 0.386629288308301 
940	 0.387319421360181 
941	 0.387740711451044 
942	 0.388119138130023 
943	 0.388777790902295 
944	 0.389383385065226 
945	 0.389975355559303 
946	 0.390528233044337 
947	 0.391013565303083 
948	 0.391513696861339 
949	 0.391969412315381 
950	 0.392387315978967 
951	 0.392844830529082 
952	 0.393548754764149 
953	 0.394328104796324 
954	 0.394963902931176 
955	 0.395353303228064 
956	 0.396007873464402 
957	 0.396659905565687 
958	 0.397243617050716 
959	 0.397841634984696 
960	 0.398440654012246 
961	 0.399078584629254 
962	 0.399751695805839 
963	 0.40042761641651 
964	 0.401095708805419 
965	 0.401823868455451 
966	 0.402588079322405 
967	 0.403302203487671 
968	 0.403914044964089 
969	 0.40458763283315 
970	 0.405281478844156 
971	 0.405872998945607 
972	 0.406714871290405 
973	 0.407615381580785 
974	 0.408427732419272 
975	 0.409114701445437 
976	 0.409868880481345 
977	 0.410578456749036 
978	 0.41131369224615 
979	 0.41217332987735 
980	 0.41266429886684 
981	 0.413194795751642 
982	 0.413957370758929 
983	 0.414895928282157 
984	 0.415709772007376 
985	 0.416526911044382 
986	 0.417282448613886 
987	 0.417892607171907 
988	 0.418790815569208 
989	 0.419660231577781 
990	 0.420450949881047 
991	 0.421237134956153 
992	 0.421873625034796 
993	 0.422547419302386 
994	 0.423336568297688 
995	 0.424230934454196 
996	 0.425155087899012 
997	 0.426096178159893 
998	 0.426971026356827 
999	 0.427744398315984 
1000	 0.428630981177178 
1001	 0.431341256085383 
1002	 0.432046013204341 
1003	 0.432803811884271 
1004	 0.433554564924889 
1005	 0.434323608290563 
1006	 0.435086665889115 
1007	 0.435863570277631 
1008	 0.436601825578029 
1009	 0.437333324315363 
1010	 0.438056199846774 
1011	 0.438767235152228 
1012	 0.439462484900687 
1013	 0.44011664266421 
1014	 0.44070860849998 
1015	 0.441311770335516 
1016	 0.44195929430522 
1017	 0.442620602771639 
1018	 0.443305748614317 
1019	 0.444019256807652 
1020	 0.444721949397785 
1021	 0.445382807691908 
1022	 0.446008554393057 
1023	 0.44660532365813 
1024	 0.447202467201208 
1025	 0.447794447264013 
1026	 0.448387211852518 
1027	 0.449022876363 
1028	 0.44963727330665 
1029	 0.450203896454024 
1030	 0.450759710690274 
1031	 0.451321412231899 
1032	 0.45185433318504 
1033	 0.452431831046929 
1034	 0.453047618870434 
1035	 0.453667834426105 
1036	 0.454331462621398 
1037	 0.454937988780335 
1038	 0.45551085332246 
1039	 0.456142215051628 
1040	 0.456716659421112 
1041	 0.457262488523518 
1042	 0.457896022221309 
1043	 0.458507611335795 
1044	 0.459084315616679 
1045	 0.459639841438203 
1046	 0.460262257496843 
1047	 0.460843388316284 
1048	 0.461360795097538 
1049	 0.461951601558538 
1050	 0.462571689864579 
1051	 0.463153032569986 
1052	 0.463762884239853 
1053	 0.464402351464062 
1054	 0.464985759806379 
1055	 0.465482574890273 
1056	 0.465978386644192 
1057	 0.466488360072492 
1058	 0.466951898116534 
1059	 0.467444533985847 
1060	 0.467971965777884 
1061	 0.468510061264267 
1062	 0.468997302206449 
1063	 0.469445542439313 
1064	 0.469906246407935 
1065	 0.470335512583363 
1066	 0.470722956785023 
1067	 0.471112046153967 
1068	 0.471492461926129 
1069	 0.471871350363463 
1070	 0.472214879982938 
1071	 0.472534095578863 
1072	 0.472870136668268 
1073	 0.47315005511479 
1074	 0.473474679081279 
1075	 0.473836396683159 
1076	 0.474195888441297 
1077	 0.474544756564545 
1078	 0.474913416738987 
1079	 0.475201773338717 
1080	 0.475426102609564 
1081	 0.475674199315315 
1082	 0.475914541212731 
1083	 0.476175569313468 
1084	 0.476463875751403 
1085	 0.47677460328046 
1086	 0.477084471141806 
1087	 0.477405633439454 
1088	 0.477779969636312 
1089	 0.478100863971215 
1090	 0.478356083357684 
1091	 0.478623946673555 
1092	 0.478844903462666 
1093	 0.479107240331569 
1094	 0.479436790146969 
1095	 0.47978176403077 
1096	 0.480143653309147 
1097	 0.480486100304833 
1098	 0.480857044196119 
1099	 0.481241778279518 
1100	 0.481629622357089 
1101	 0.482039349076061 
1102	 0.48244133489425 
1103	 0.482850683465182 
1104	 0.483224070242305 
1105	 0.483622947969945 
1106	 0.484080117550728 
1107	 0.484526722031947 
1108	 0.48501520734081 
1109	 0.485482769387243 
1110	 0.485940834918097 
1111	 0.486448809692846 
1112	 0.486968371947369 
1113	 0.487507711127307 
1114	 0.48811040069272 
1115	 0.48867379897493 
1116	 0.489229786821144 
1117	 0.489795894271675 
1118	 0.490364190042024 
1119	 0.490906863633 
1120	 0.491488816529795 
1121	 0.492101851729776 
1122	 0.49269928397936 
1123	 0.49329486513968 
1124	 0.493880783215502 
1125	 0.494446922300647 
1126	 0.495028627509049 
1127	 0.495613316408223 
1128	 0.496204571998719 
1129	 0.496803699489555 
1130	 0.497391105226679 
1131	 0.497974259702394 
1132	 0.498561475317219 
1133	 0.499168360809273 
1134	 0.499748223611783 
1135	 0.500317914605353 
1136	 0.500871011067859 
1137	 0.501413536104907 
1138	 0.501937173963372 
1139	 0.502505801670326 
1140	 0.503115357545158 
1141	 0.503674813649087 
1142	 0.504249932293869 
1143	 0.504784460625452 
1144	 0.505268460107428 
1145	 0.505772121856396 
1146	 0.506279244480356 
1147	 0.506764533488847 
1148	 0.507227693653715 
1149	 0.507703624935103 
1150	 0.508188643217288 
1151	 0.508645147686351 
1152	 0.509102463590722 
1153	 0.509559983277653 
1154	 0.510002327201167 
1155	 0.510427375675606 
1156	 0.510846634399437 
1157	 0.511268503475988 
1158	 0.511665031383664 
1159	 0.512036817583245 
1160	 0.512408169132049 
1161	 0.512772062324605 
1162	 0.513127274146134 
1163	 0.513466656594622 
1164	 0.513810161978334 
1165	 0.514139681532458 
1166	 0.51448870076178 
1167	 0.514842138322577 
1168	 0.515190406495636 
1169	 0.515525612576128 
1170	 0.51586819917492 
1171	 0.516172800881043 
1172	 0.516443957935939 
1173	 0.516735030138254 
1174	 0.517016998519606 
1175	 0.517295992551122 
1176	 0.517588061268665 
1177	 0.517860525699957 
1178	 0.518097482852951 
1179	 0.518364237415026 
1180	 0.518634315103955 
1181	 0.518915206450285 
1182	 0.519223069141186 
1183	 0.519530880478813 
1184	 0.519806853527466 
1185	 0.520077486046678 
1186	 0.520331207556044 
1187	 0.520548157803087 
1188	 0.520792183968298 
1189	 0.521046740599472 
1190	 0.521285678103801 
1191	 0.521531854182109 
1192	 0.521758805666499 
1193	 0.521967001989999 
1194	 0.522175032964743 
1195	 0.522365142427985 
1196	 0.52256850462248 
1197	 0.522781528951709 
1198	 0.522983136381198 
1199	 0.523182606423875 
1200	 0.523383908592853 
1201	 0.523589446949101 
1202	 0.523784853678339 
1203	 0.523994484888384 
1204	 0.524224760912358 
1205	 0.524435064174389 
1206	 0.524637921430588 
1207	 0.524843187799872 
1208	 0.525056619238706 
1209	 0.52524529268279 
1210	 0.525416160362761 
1211	 0.525596144685648 
1212	 0.52576813187196 
1213	 0.525932439830951 
1214	 0.526098506290272 
1215	 0.526264888778653 
1216	 0.526426533252174 
1217	 0.526569743447532 
1218	 0.526730775899304 
1219	 0.526908698970141 
1220	 0.527067141670038 
1221	 0.527219099710824 
1222	 0.527371198675518 
1223	 0.527508289425701 
1224	 0.527663797530566 
1225	 0.527841542794835 
1226	 0.527992600625956 
1227	 0.528142825629619 
1228	 0.5282833558323 
1229	 0.528385843360363 
1230	 0.52851716488372 
1231	 0.528663035796257 
1232	 0.528808316584923 
1233	 0.528959566747475 
1234	 0.529132576991466 
1235	 0.529272246292654 
1236	 0.529401741511037 
1237	 0.529528322566541 
1238	 0.529640629897192 
1239	 0.529753397872453 
1240	 0.529857413419175 
1241	 0.529971959385876 
1242	 0.530089602148157 
1243	 0.530201070902299 
1244	 0.530308018115744 
1245	 0.530430249391718 
1246	 0.530554164115144 
1247	 0.53067826277806 
1248	 0.530812871125383 
1249	 0.530960550936564 
1250	 0.531080099787085 
1251	 0.531203089969401 
1252	 0.531320093537248 
1253	 0.531437500978405 
1254	 0.531539571406745 
1255	 0.531631562750478 
1256	 0.531721468291585 
1257	 0.531789002596164 
1258	 0.531882954968106 
1259	 0.532000219928337 
1260	 0.532091636613664 
1261	 0.532197272368577 
1262	 0.53227155607662 
1263	 0.532283726467203 
1264	 0.532345961403792 
1265	 0.532420110730831 
1266	 0.532496719463962 
1267	 0.532605143855291 
1268	 0.532713238638369 
1269	 0.532800807767006 
1270	 0.532863448126911 
1271	 0.532964277884787 
1272	 0.533062176433489 
1273	 0.533190299593756 
1274	 0.533352482311724 
1275	 0.533506704549217 
1276	 0.533666996463081 
1277	 0.533842837564418 
1278	 0.534039552608586 
1279	 0.534220363773981 
1280	 0.534415535575731 
1281	 0.534594967206578 
1282	 0.534758458212555 
1283	 0.534918790201579 
1284	 0.535079631785213 
1285	 0.535230576236764 
1286	 0.535364753111234 
1287	 0.535478645814682 
1288	 0.535565878154856 
1289	 0.535636641631932 
1290	 0.535670346627799 
1291	 0.535679074588312 
1292	 0.535650736960524 
1293	 0.535576948175845 
1294	 0.535495402580073 
1295	 0.535383541262896 
1296	 0.535263780855166 
1297	 0.535121846005997 
1298	 0.534981401767864 
1299	 0.534828924568529 
1300	 0.534666561924875 
1301	 0.534512500328136 
1302	 0.534330135280772 
1303	 0.534129454124837 
1304	 0.533904511225379 
1305	 0.533667418803286 
1306	 0.533444867659333 
1307	 0.533247252540878 
1308	 0.533040586429494 
1309	 0.532831056620953 
1310	 0.532617900779195 
1311	 0.532433409382283 
1312	 0.532243164961486 
1313	 0.532081413330378 
1314	 0.531958710800819 
1315	 0.531824918133682 
1316	 0.531675768276976 
1317	 0.531574498981706 
1318	 0.531497901507465 
1319	 0.531435083999674 
1320	 0.531411485695331 
1321	 0.531387539491562 
1322	 0.531368474401492 
1323	 0.531353373005373 
1324	 0.53138308391614 
1325	 0.531428506124841 
1326	 0.531508171934 
1327	 0.53161897148234 
1328	 0.531713614004258 
1329	 0.531815896670504 
1330	 0.53195755850372 
1331	 0.532103363151112 
1332	 0.532305015456199 
1333	 0.532565950893657 
1334	 0.532813154808192 
1335	 0.533080205976004 
1336	 0.533358315918132 
1337	 0.533648052849874 
1338	 0.53394045604472 
1339	 0.53426187869433 
1340	 0.534561466373422 
1341	 0.534840075286425 
1342	 0.535138535201533 
1343	 0.53545322711814 
1344	 0.535744758848821 
1345	 0.536037610509462 
1346	 0.536343768041597 
1347	 0.536631032209685 
1348	 0.536940234788539 
1349	 0.537263808001932 
1350	 0.53755174150331 
1351	 0.537832868571604 
1352	 0.538083240143334 
1353	 0.538377523020202 
1354	 0.538682536072858 
1355	 0.538981049672181 
1356	 0.539310987441649 
1357	 0.539605510797374 
1358	 0.539875426153499 
1359	 0.540152494024003 
1360	 0.54041395164402 
1361	 0.540691720905049 
1362	 0.540978718621323 
1363	 0.541254905105667 
1364	 0.541551934747428 
1365	 0.541822187768016 
1366	 0.542073376548823 
1367	 0.542309663926043 
1368	 0.542552393515558 
1369	 0.542766157477815 
1370	 0.542958337018963 
1371	 0.543141829951396 
1372	 0.543320252070959 
1373	 0.543490080717984 
1374	 0.543641474760814 
1375	 0.543800586823894 
1376	 0.543920000122212 
1377	 0.544005804329076 
1378	 0.544084172206874 
1379	 0.544145831915889 
1380	 0.544200800675098 
1381	 0.544241825125849 
1382	 0.544264586832469 
1383	 0.544296383924089 
1384	 0.544269783006046 
1385	 0.544229089968995 
1386	 0.544126175153103 
1387	 0.5439708848185 
1388	 0.543777363933487 
1389	 0.54354390757373 
1390	 0.543259924735824 
1391	 0.542928167988062 
1392	 0.542531681523847 
1393	 0.542064645299121 
1394	 0.541549482679659 
1395	 0.540982104318127 
1396	 0.54041064480233 
1397	 0.539819689116106 
1398	 0.539191967917487 
1399	 0.538575195206772 
1400	 0.537930739562232 
1401	 0.537337325581396 
1402	 0.53674304327986 
1403	 0.536202124096395 
1404	 0.535680958654432 
1405	 0.535223842086323 
1406	 0.53479897346909 
1407	 0.534450157141104 
1408	 0.534135049022063 
1409	 0.533932969060071 
1410	 0.533767091280354 
1411	 0.533754261096394 
1412	 0.53384210345826 
1413	 0.534080635374163 
1414	 0.534468616667711 
1415	 0.5349377036912 
1416	 0.535526166813613 
1417	 0.536188356072503 
1418	 0.536855679097069 
1419	 0.537543665176246 
1420	 0.538226375045523 
1421	 0.538849982528796 
1422	 0.539412207081229 
1423	 0.539955166483039 
1424	 0.540429823757749 
1425	 0.540844668899762 
1426	 0.541204701094938 
1427	 0.541497892885563 
1428	 0.541779855918696 
1429	 0.542017113783039 
1430	 0.542217945684775 
1431	 0.542397532072491 
1432	 0.542534495544887 
1433	 0.542598339233451 
1434	 0.54268129898549 
1435	 0.542751982843181 
1436	 0.542815561486341 
1437	 0.54286336615656 
1438	 0.542910189432631 
1439	 0.542950879216106 
1440	 0.542985794797203 
1441	 0.543019045870839 
1442	 0.543055735885174 
1443	 0.54306257379273 
1444	 0.543048970114338 
1445	 0.54302475257995 
1446	 0.542992114961856 
1447	 0.542967579336992 
1448	 0.542931713510177 
1449	 0.542876470192609 
1450	 0.542821362309853 
1451	 0.542770256985547 
1452	 0.54271359909018 
1453	 0.542659321855178 
1454	 0.542611062582611 
1455	 0.542558068678804 
1456	 0.542503343448471 
1457	 0.542438404853905 
1458	 0.542372134319267 
1459	 0.542297821101874 
1460	 0.542207707646254 
1461	 0.542126531984655 
1462	 0.54204691488279 
1463	 0.54196767252049 
1464	 0.541881022857213 
1465	 0.541806314217659 
1466	 0.541725206833478 
1467	 0.541672399602272 
1468	 0.541628889289285 
1469	 0.541612833432111 
1470	 0.541627713817456 
1471	 0.541651502644282 
1472	 0.541674416133615 
1473	 0.5417254178837 
1474	 0.541769520486218 
1475	 0.541831830609951 
1476	 0.541939918819941 
1477	 0.542033497110383 
1478	 0.542161554622389 
1479	 0.54230391659487 
1480	 0.542428791176088 
1481	 0.542572509555681 
1482	 0.542671711291893 
1483	 0.542726042842236 
1484	 0.542825326907806 
1485	 0.542909007370911 
1486	 0.54303104442863 
1487	 0.543201659134717 
1488	 0.543345735136829 
1489	 0.543502439994055 
1490	 0.543627641818299 
1491	 0.543733563433515 
1492	 0.543851141791425 
1493	 0.543954745666882 
1494	 0.5440613053918 
1495	 0.544192057446462 
1496	 0.544284688749776 
1497	 0.544347471097699 
1498	 0.54441651383457 
1499	 0.544469087070519 
1500	 0.544522271245136 
1501	 0.544575727809527 
1502	 0.54463282650419 
1503	 0.544686637270394 
1504	 0.54473550105806 
1505	 0.544810627504277 
1506	 0.544873601933857 
1507	 0.544921103441172 
1508	 0.544968078115293 
1509	 0.544982778221154 
1510	 0.544997703353845 
1511	 0.545021635994702 
1512	 0.545056393196669 
1513	 0.545157093374576 
1514	 0.545252551441864 
1515	 0.545358105275747 
1516	 0.545465637438891 
1517	 0.54552017432265 
1518	 0.545523317442852 
1519	 0.545561189417983 
1520	 0.545576909442338 
1521	 0.54561639803327 
1522	 0.545680361083299 
1523	 0.545731222629696 
1524	 0.545770410104254 
1525	 0.545835911154052 
1526	 0.545915156072899 
1527	 0.545991872129458 
1528	 0.546093475876945 
1529	 0.54616430413741 
1530	 0.546217505941092 
1531	 0.546281601324664 
1532	 0.546341785860314 
1533	 0.546391323438563 
1534	 0.546448274998562 
1535	 0.546487217986593 
1536	 0.546480935173795 
1537	 0.546520801282884 
1538	 0.54658419717156 
1539	 0.546635435655262 
1540	 0.546713809985335 
1541	 0.546777474183655 
1542	 0.546823669457568 
1543	 0.546870483132745 
1544	 0.546919486640268 
1545	 0.546960343026758 
1546	 0.546979884120893 
1547	 0.547016546033896 
1548	 0.547084034178006 
1549	 0.547130024708985 
1550	 0.547198163382194 
1551	 0.54727025104691 
1552	 0.547314067477369 
1553	 0.547367296917843 
1554	 0.547425576848057 
1555	 0.547489571918358 
1556	 0.547567520538184 
1557	 0.547653268959424 
1558	 0.547748597402803 
1559	 0.547843458280772 
1560	 0.547916706862085 
1561	 0.547978466824254 
1562	 0.548038511339898 
1563	 0.54807439874521 
1564	 0.548137541286814 
1565	 0.54820679803588 
1566	 0.548297453098484 
1567	 0.548404386092319 
1568	 0.548512464518766 
1569	 0.548649743202755 
1570	 0.548749586661906 
1571	 0.548849362769828 
1572	 0.548919972472413 
1573	 0.548956283818224 
1574	 0.548997408444674 
1575	 0.549012209818973 
1576	 0.549049849215826 
1577	 0.549106129842667 
1578	 0.549142069735215 
1579	 0.549176397064473 
1580	 0.549205931419445 
1581	 0.549219097489909 
1582	 0.54923197003105 
1583	 0.549233921003563 
1584	 0.549263105721417 
1585	 0.54928199244307 
1586	 0.54933705380222 
1587	 0.549447522116967 
1588	 0.549527189177763 
1589	 0.549614553171965 
1590	 0.54969078786987 
1591	 0.549751984664113 
1592	 0.5498095902701 
1593	 0.549867772323173 
1594	 0.549918024472981 
1595	 0.549945955654591 
1596	 0.549992488793688 
1597	 0.550045478547698 
1598	 0.550095274258195 
1599	 0.55014938938842 
1600	 0.550210670913085 
1601	 0.550276934151489 
1602	 0.550337777600423 
1603	 0.550410185311531 
1604	 0.550469517265787 
1605	 0.550492768023881 
1606	 0.550553363933325 
1607	 0.550637377359311 
1608	 0.550718278453114 
1609	 0.550807047203198 
1610	 0.550902480195375 
1611	 0.550936784348949 
1612	 0.550965639166877 
1613	 0.551011376913388 
1614	 0.551039399743991 
1615	 0.551090045266657 
1616	 0.551148765907184 
1617	 0.551201977857767 
1618	 0.551271173205909 
1619	 0.551319417610814 
1620	 0.551357050891994 
1621	 0.551404595382993 
1622	 0.551439919506642 
1623	 0.551480062572307 
1624	 0.551537183701208 
1625	 0.551574100250075 
1626	 0.551588837779365 
1627	 0.551633311274723 
1628	 0.551688916174429 
1629	 0.551737540043071 
1630	 0.551799916106732 
1631	 0.551838568806857 
1632	 0.551860394785034 
1633	 0.551890453800475 
1634	 0.551909689658128 
1635	 0.551952184739753 
1636	 0.552008195207307 
1637	 0.552056731138118 
1638	 0.552108367868714 
1639	 0.552170284357792 
1640	 0.552231311978136 
1641	 0.552302158891066 
1642	 0.552393205757406 
1643	 0.55247291603207 
1644	 0.552544796985946 
1645	 0.552628367665333 
1646	 0.552723032710404 
1647	 0.552803273449472 
1648	 0.552886117022724 
1649	 0.552959488466576 
1650	 0.553007797185715 
1651	 0.553088848513934 
1652	 0.55321082816067 
1653	 0.553258869106179 
1654	 0.553292642885921 
1655	 0.553308420474417 
1656	 0.553247459513196 
1657	 0.553247937563286 
1658	 0.553280113043969 
1659	 0.553296667225617 
1660	 0.55330755589759 
1661	 0.553345574954394 
1662	 0.553390922144991 
1663	 0.553447914141513 
1664	 0.553543181748648 
1665	 0.553607000069725 
1666	 0.553663453555854 
1667	 0.553712439891299 
1668	 0.553744999445304 
1669	 0.553786628604051 
1670	 0.5538239299483 
1671	 0.553867282861056 
1672	 0.553918678515006 
1673	 0.553962713459296 
1674	 0.554000260458939 
1675	 0.554048751936593 
1676	 0.554086009766981 
1677	 0.554155894654584 
1678	 0.554264879217238 
1679	 0.554339497504047 
1680	 0.554420500232561 
1681	 0.554487115824924 
1682	 0.554516064070823 
1683	 0.554576945720978 
1684	 0.554659748832547 
1685	 0.554724735398683 
1686	 0.554791930211243 
1687	 0.554853293553509 
1688	 0.554909965554019 
1689	 0.554954548946175 
1690	 0.554984767914847 
1691	 0.555029954521112 
1692	 0.555075827076854 
1693	 0.555110026175422 
1694	 0.555138144463621 
1695	 0.555190796516903 
1696	 0.555228266688108 
1697	 0.555301763443266 
1698	 0.555430743993174 
1699	 0.555524765451594 
1700	 0.555624818148156 
1701	 0.555698357237344 
1702	 0.555754913072359 
1703	 0.555799230228648 
1704	 0.555823691066819 
1705	 0.555849546274183 
1706	 0.555856009411412 
1707	 0.555881646958186 
1708	 0.555921657493927 
1709	 0.555934278636794 
1710	 0.555931330162265 
1711	 0.555954706718404 
1712	 0.555956358933786 
1713	 0.556003391737408 
1714	 0.556104261000389 
1715	 0.55617251172212 
1716	 0.556239675363002 
1717	 0.556318994484404 
1718	 0.556407134447809 
1719	 0.556471399801985 
1720	 0.556546768029032 
1721	 0.556590034003575 
1722	 0.556597760933962 
1723	 0.556608958500673 
1724	 0.556603695385552 
1725	 0.556612475088421 
1726	 0.556606937119534 
1727	 0.556628952162973 
1728	 0.556686998042651 
1729	 0.556701556095479 
1730	 0.55672852979684 
1731	 0.556708693887245 
1732	 0.556638894432573 
1733	 0.556580841308564 
1734	 0.556491481313157 
1735	 0.556430137022664 
1736	 0.556389979705177 
1737	 0.556329159774805 
1738	 0.556252884149795 
1739	 0.556212764827311 
1740	 0.556163252930827 
1741	 0.556152380032732 
1742	 0.556204385423767 
1743	 0.556207708696138 
1744	 0.556199680004122 
1745	 0.556189012694569 
1746	 0.556162264296086 
1747	 0.556156595680267 
1748	 0.556164232775968 
1749	 0.556166538153235 
1750	 0.556149219411721 
1751	 0.556113014242092 
1752	 0.556084379103081 
1753	 0.556065732819921 
1754	 0.556030217423648 
1755	 0.556053062910931 
1756	 0.556068961061739 
1757	 0.556051556215124 
1758	 0.55608497016875 
1759	 0.556067367736742 
1760	 0.556023548871872 
1761	 0.556016079239628 
1762	 0.555976709576672 
1763	 0.555927861279593 
1764	 0.555929530939184 
1765	 0.555963529244086 
1766	 0.556036765437893 
1767	 0.556147545842374 
1768	 0.556192420989165 
1769	 0.556200307488098 
1770	 0.556186798156582 
1771	 0.556152978474681 
1772	 0.556137706834036 
1773	 0.556096010883767 
1774	 0.556074203926102 
1775	 0.556027419058628 
1776	 0.555975199068166 
1777	 0.556012952188509 
1778	 0.556062257446036 
1779	 0.556139904431974 
1780	 0.556253935095194 
1781	 0.556347795628436 
1782	 0.556381740353569 
1783	 0.55636271321509 
1784	 0.556382517663506 
1785	 0.556397862225019 
1786	 0.556396442499779 
1787	 0.556401872965306 
1788	 0.55640393136532 
1789	 0.556371025259371 
1790	 0.556388391032349 
1791	 0.556458121509309 
1792	 0.556477340948245 
1793	 0.556491758364565 
1794	 0.556499382854972 
1795	 0.556481142129975 
1796	 0.556463395071451 
1797	 0.556438913455586 
1798	 0.556433745914512 
1799	 0.556394478701516 
1800	 0.556437794622047 
1801	 0.552116887536404 
1802	 0.552223151201827 
1803	 0.552344155156208 
1804	 0.552431866538852 
1805	 0.552509395400664 
1806	 0.552550574471696 
1807	 0.552586667807875 
1808	 0.552647447160926 
1809	 0.552764149683042 
1810	 0.55281431641604 
1811	 0.552863989751668 
1812	 0.552858155408981 
1813	 0.552825968385224 
1814	 0.552779578582545 
1815	 0.552732870257658 
1816	 0.552713259818003 
1817	 0.552698632318635 
1818	 0.552676192909748 
1819	 0.552670921280195 
1820	 0.552684979456689 
1821	 0.552704469656292 
1822	 0.552737753924515 
1823	 0.552755891005457 
1824	 0.552723018707131 
1825	 0.552682374694615 
1826	 0.552588064732752 
1827	 0.552463684678983 
1828	 0.55236241631848 
1829	 0.552268141167479 
1830	 0.552160606065961 
1831	 0.552044861370991 
1832	 0.55194267052098 
1833	 0.551846851479447 
1834	 0.551735100189215 
1835	 0.551620718838417 
1836	 0.551525352080065 
1837	 0.551376332918725 
1838	 0.551248123132685 
1839	 0.551148261164492 
1840	 0.551085460276206 
1841	 0.550959328985416 
1842	 0.550857968030524 
1843	 0.550780309180041 
1844	 0.550631654375565 
1845	 0.550519624703251 
1846	 0.550456299085273 
1847	 0.550394946690701 
1848	 0.550376216722066 
1849	 0.550411049853087 
1850	 0.550468230308624 
1851	 0.550571183463708 
1852	 0.550664848908125 
1853	 0.550781708365296 
1854	 0.550902313053562 
1855	 0.550984687513292 
1856	 0.551071265834268 
1857	 0.551152845363258 
1858	 0.551232600885121 
1859	 0.551315177085253 
1860	 0.551379809588866 
1861	 0.551441147063627 
1862	 0.551486749859927 
1863	 0.551517013976547 
1864	 0.551553208851232 
1865	 0.551614068388886 
1866	 0.551697412007455 
1867	 0.551761612414701 
1868	 0.551811902318186 
1869	 0.551871613393638 
1870	 0.551900849855508 
1871	 0.551934604229494 
1872	 0.551976994144353 
1873	 0.552018478651838 
1874	 0.552004380106142 
1875	 0.551989113469137 
1876	 0.551932201916662 
1877	 0.55183871386365 
1878	 0.55172946305362 
1879	 0.551559567700534 
1880	 0.551343026191835 
1881	 0.551094573653877 
1882	 0.550775144588096 
1883	 0.550390586610618 
1884	 0.549952991184564 
1885	 0.549508325285731 
1886	 0.54901744790346 
1887	 0.548504863766632 
1888	 0.548018546109651 
1889	 0.547468300401237 
1890	 0.546881033948364 
1891	 0.546307130570401 
1892	 0.545710104484461 
1893	 0.545117756632936 
1894	 0.544525945025937 
1895	 0.543936238035582 
1896	 0.543331668978051 
1897	 0.542777582871571 
1898	 0.542249461551479 
1899	 0.541792890834146 
1900	 0.54142384196523 
1901	 0.541123493551216 
1902	 0.540883935345546 
1903	 0.540732156889114 
1904	 0.540614233543911 
1905	 0.54055361184609 
1906	 0.540535585355759 
1907	 0.540563488452751 
1908	 0.540615116797998 
1909	 0.540681065394547 
1910	 0.540765005704776 
1911	 0.540858324434764 
1912	 0.540959033588017 
1913	 0.541048710107699 
1914	 0.541158499499826 
1915	 0.541223810879108 
1916	 0.541262455939609 
1917	 0.54129135608608 
1918	 0.541310682324844 
1919	 0.541344837908399 
1920	 0.541400409315578 
1921	 0.541437460278989 
1922	 0.541493279317891 
1923	 0.541535701451915 
1924	 0.541560482515433 
1925	 0.541570479119199 
1926	 0.541600039766566 
1927	 0.54162216000083 
1928	 0.541636006499693 
1929	 0.541687210356291 
1930	 0.541699473088958 
1931	 0.541696600041149 
1932	 0.541686621592087 
1933	 0.54163426467371 
1934	 0.541609072672213 
1935	 0.541623318954568 
1936	 0.541658732721966 
1937	 0.5417018987045 
1938	 0.541790439363918 
1939	 0.541867365833206 
1940	 0.541918172106446 
1941	 0.5420158287962 
1942	 0.542155814651254 
1943	 0.542320901800658 
1944	 0.542492245460952 
1945	 0.542630302505929 
1946	 0.542760319431338 
1947	 0.542857470744598 
1948	 0.542972016643477 
1949	 0.543114225364766 
1950	 0.543209335515037 
1951	 0.543280960001403 
1952	 0.543332135977869 
1953	 0.543397246170881 
1954	 0.54346390366618 
1955	 0.54353967223338 
1956	 0.543639197383602 
1957	 0.543740356728299 
1958	 0.543835858447928 
1959	 0.543928409870484 
1960	 0.544048980121868 
1961	 0.544148599267708 
1962	 0.544218154218878 
1963	 0.544307245075191 
1964	 0.54440073446576 
1965	 0.544495067784076 
1966	 0.544609520184099 
1967	 0.54472236976707 
1968	 0.544833921771944 
1969	 0.544953253245233 
1970	 0.545069450783176 
1971	 0.545177996522128 
1972	 0.545297323372685 
1973	 0.545414990887296 
1974	 0.545547643152228 
1975	 0.545678772883414 
1976	 0.545835479415963 
1977	 0.546024872415063 
1978	 0.546211529911117 
1979	 0.546371020787841 
1980	 0.546528581872176 
1981	 0.546684894294922 
1982	 0.546811406401411 
1983	 0.546962718732864 
1984	 0.547140608497638 
1985	 0.547296560031874 
1986	 0.547444219075926 
1987	 0.547593246482822 
1988	 0.547726541309451 
1989	 0.547869940967528 
1990	 0.548058099221328 
1991	 0.548241972140292 
1992	 0.548431377089864 
1993	 0.54866255131296 
1994	 0.548852593183593 
1995	 0.549012018830032 
1996	 0.549187354449212 
1997	 0.549343838468994 
1998	 0.549531798209339 
1999	 0.549739137776559 
2000	 0.549948761498786 
2001	 0.550176243234718 
2002	 0.550408876407429 
2003	 0.550645554724749 
2004	 0.550868022247155 
2005	 0.551086297236209 
2006	 0.551312177963009 
2007	 0.551514883969661 
2008	 0.551685411474229 
2009	 0.551882580993356 
2010	 0.552076710726681 
2011	 0.552279639250878 
2012	 0.552493002911422 
2013	 0.552712790178471 
2014	 0.552932443054747 
2015	 0.553160377678226 
2016	 0.553407275359482 
2017	 0.553684575212784 
2018	 0.553963499891246 
2019	 0.554284914418787 
2020	 0.554554827748746 
2021	 0.554819927932725 
2022	 0.555061475408204 
2023	 0.555273122513596 
2024	 0.555474046563483 
2025	 0.555644948968104 
2026	 0.55583399035035 
2027	 0.556022588707692 
2028	 0.556191769300603 
2029	 0.556380523637556 
2030	 0.556587022195878 
2031	 0.556784355796856 
2032	 0.556958875940214 
2033	 0.557187217979802 
2034	 0.557452613758222 
2035	 0.557699886069033 
2036	 0.557997942373127 
2037	 0.558237811461394 
2038	 0.558458629899713 
2039	 0.558640866246636 
2040	 0.558780570662766 
2041	 0.558905864275405 
2042	 0.559010478015163 
2043	 0.559135197362406 
2044	 0.55925824853722 
2045	 0.559388136467424 
2046	 0.559524047187278 
2047	 0.559666997885243 
2048	 0.559800752621347 
2049	 0.559948032029521 
2050	 0.560077141315715 
2051	 0.560189182706214 
2052	 0.560298774034608 
2053	 0.560404490324581 
2054	 0.560504519624852 
2055	 0.56059409945072 
2056	 0.560686053430357 
2057	 0.560767832134399 
2058	 0.560840661031582 
2059	 0.560916267756132 
2060	 0.560968323577283 
2061	 0.561065222410085 
2062	 0.561176689380016 
2063	 0.561301578891284 
2064	 0.561493878143921 
2065	 0.561618676935802 
2066	 0.561706681078946 
2067	 0.561811127461725 
2068	 0.561903131442537 
2069	 0.561963025193021 
2070	 0.562071208404662 
2071	 0.562215322142022 
2072	 0.562339142234486 
2073	 0.562477063062883 
2074	 0.562589391979651 
2075	 0.562676441141553 
2076	 0.562789870059779 
2077	 0.562916028980417 
2078	 0.563020458078795 
2079	 0.563140934098934 
2080	 0.563235447961176 
2081	 0.56329885322242 
2082	 0.563355681338044 
2083	 0.563397476419832 
2084	 0.563444586946365 
2085	 0.563479938907496 
2086	 0.563493879356314 
2087	 0.563526642883743 
2088	 0.5635614262331 
2089	 0.563601636469539 
2090	 0.563648954270615 
2091	 0.563695372665802 
2092	 0.563748241297455 
2093	 0.563796693091792 
2094	 0.563829459869077 
2095	 0.56388519856289 
2096	 0.563949220512906 
2097	 0.564022494579296 
2098	 0.564106697123925 
2099	 0.564219423885484 
2100	 0.564303213573671 
2101	 0.564378005192377 
2102	 0.564460450555733 
2103	 0.564524702251919 
2104	 0.564626625124 
2105	 0.564736983226867 
2106	 0.564877938339045 
2107	 0.565049708193564 
2108	 0.565225968365155 
2109	 0.565424869399691 
2110	 0.565633008123866 
2111	 0.565878145923922 
2112	 0.566089079314982 
2113	 0.56630043474624 
2114	 0.566511727359305 
2115	 0.566669021821387 
2116	 0.56676010669104 
2117	 0.566920983400604 
2118	 0.567056612538365 
2119	 0.567260593337291 
2120	 0.567546772595106 
2121	 0.567781579144071 
2122	 0.56802560378663 
2123	 0.568261228379214 
2124	 0.568491388663036 
2125	 0.568701665778616 
2126	 0.568931454363241 
2127	 0.569112123421365 
2128	 0.569242642591675 
2129	 0.569369520959094 
2130	 0.569468293800345 
2131	 0.56956766827274 
2132	 0.569629984287718 
2133	 0.56968742363245 
2134	 0.56968978972839 
2135	 0.569646968119978 
2136	 0.569585642175529 
2137	 0.569486509688011 
2138	 0.569372890974256 
2139	 0.569244755215215 
2140	 0.569076538677914 
2141	 0.568863772146437 
2142	 0.568651891320401 
2143	 0.568407076080986 
2144	 0.568160883838413 
2145	 0.567920294682359 
2146	 0.567654932873567 
2147	 0.567382420788203 
2148	 0.56707581182605 
2149	 0.566746927113116 
2150	 0.566419492554362 
2151	 0.566004392938194 
2152	 0.565521992983156 
2153	 0.565042823499964 
2154	 0.564498758418713 
2155	 0.563971937398661 
2156	 0.563470768798562 
2157	 0.562912623901186 
2158	 0.562320608166936 
2159	 0.561704141582711 
2160	 0.561031380285945 
2161	 0.56037396264716 
2162	 0.55969404307124 
2163	 0.5590279262213 
2164	 0.558378198191959 
2165	 0.557728043707418 
2166	 0.557030158299624 
2167	 0.556316390710385 
2168	 0.555585497045005 
2169	 0.554824605226567 
2170	 0.554037417728519 
2171	 0.553264579081854 
2172	 0.552403287202247 
2173	 0.551468730091984 
2174	 0.55052411340431 
2175	 0.549514989413962 
2176	 0.548517004796661 
2177	 0.547511560191683 
2178	 0.546480687839828 
2179	 0.54543191174979 
2180	 0.544365706349 
2181	 0.543262387777175 
2182	 0.542166085968218 
2183	 0.541075323115329 
2184	 0.539957358831753 
2185	 0.538815718039597 
2186	 0.537625686309878 
2187	 0.5365118632654 
2188	 0.53538629987653 
2189	 0.534311575287823 
2190	 0.533298859324228 
2191	 0.532299046999689 
2192	 0.531259897854957 
2193	 0.530354287116258 
2194	 0.529506111138625 
2195	 0.528754240663793 
2196	 0.528120960350076 
2197	 0.527527595940418 
2198	 0.526971096724547 
2199	 0.526539356729777 
2200	 0.52622179194524 
2201	 0.525942707303339 
2202	 0.525746744513067 
2203	 0.525637780162565 
2204	 0.525601248847279 
2205	 0.525600625200031 
2206	 0.525717731808037 
2207	 0.525956176050227 
2208	 0.526250933462818 
2209	 0.526630738378604 
2210	 0.527063508490344 
2211	 0.527615779259604 
2212	 0.528136489197575 
2213	 0.528717088475889 
2214	 0.529254200605354 
2215	 0.529773160183659 
2216	 0.530317169501644 
2217	 0.530879346413307 
2218	 0.531412931230831 
2219	 0.531972272910678 
2220	 0.532482970490148 
2221	 0.532941388020087 
2222	 0.533407322801427 
2223	 0.533826980854452 
2224	 0.534208914758094 
2225	 0.53453330208105 
2226	 0.534808408292375 
2227	 0.535027988032712 
2228	 0.535191892339972 
2229	 0.535320393018215 
2230	 0.535379111304721 
2231	 0.535443383776587 
2232	 0.535479523108924 
2233	 0.535492573935986 
2234	 0.535479766584919 
2235	 0.535460684896929 
2236	 0.535416051973491 
2237	 0.535361296341555 
2238	 0.535288192792648 
2239	 0.535216538953549 
2240	 0.535148165417608 
2241	 0.535045157791115 
2242	 0.534941703134912 
2243	 0.534808144518819 
2244	 0.534645645791607 
2245	 0.534439256621962 
2246	 0.534220839132898 
2247	 0.533990579710378 
2248	 0.533755380684486 
2249	 0.533497857457171 
2250	 0.533233702731436 
2251	 0.532951627939755 
2252	 0.532708793362362 
2253	 0.532457994334327 
2254	 0.532241057488044 
2255	 0.532055953163782 
2256	 0.531884121122266 
2257	 0.531687716858055 
2258	 0.531595847789156 
2259	 0.531589353031585 
2260	 0.531576597949922 
2261	 0.531604504896258 
2262	 0.531666684509916 
2263	 0.531736735743831 
2264	 0.531853886247644 
2265	 0.532042543877449 
2266	 0.532241530212415 
2267	 0.532466204251519 
2268	 0.532702989479426 
2269	 0.532962149933544 
2270	 0.533252274330921 
2271	 0.533528009263088 
2272	 0.533842813276321 
2273	 0.534142889358391 
2274	 0.534475296961314 
2275	 0.534818784870656 
2276	 0.535172508409532 
2277	 0.535542965649399 
2278	 0.535938265809946 
2279	 0.536331119835912 
2280	 0.536732706538316 
2281	 0.537157537264949 
2282	 0.537608871259572 
2283	 0.538041323528332 
2284	 0.538514407689974 
2285	 0.538911893044534 
2286	 0.539268012439849 
2287	 0.539613240203646 
2288	 0.539884792708799 
2289	 0.540204330019658 
2290	 0.54052707365593 
2291	 0.540863456275464 
2292	 0.541239921790795 
2293	 0.541594098436723 
2294	 0.541960131004161 
2295	 0.542300275267756 
2296	 0.54260328596993 
2297	 0.542929429062564 
2298	 0.543255034919722 
2299	 0.543535742388347 
2300	 0.543795219504054 
2301	 0.544016548080114 
2302	 0.544237785143198 
2303	 0.544443323110331 
2304	 0.544693761631667 
2305	 0.54497081176476 
2306	 0.545198017624806 
2307	 0.545405309261852 
2308	 0.545611856215021 
2309	 0.545805622213198 
2310	 0.545980942709026 
2311	 0.546157213362857 
2312	 0.546298436356556 
2313	 0.546395462638772 
2314	 0.546475826672379 
2315	 0.54652616361901 
2316	 0.546595516324935 
2317	 0.546653663123083 
2318	 0.546717065673766 
2319	 0.546777264254991 
2320	 0.54685847615868 
2321	 0.546912736714698 
2322	 0.547027300964604 
2323	 0.547240046816302 
2324	 0.547379424990156 
2325	 0.547573307730826 
2326	 0.547655586104212 
2327	 0.547673256987829 
2328	 0.547571383736529 
2329	 0.547478875965848 
2330	 0.547422094337535 
2331	 0.547445145090343 
2332	 0.547539300614537 
2333	 0.547653251861313 
2334	 0.547737475268386 
2335	 0.547782148213793 
2336	 0.547827777346908 
2337	 0.547834612015141 
2338	 0.547823215430024 
2339	 0.547823474133253 
2340	 0.547760121757941 
2341	 0.547725350882796 
2342	 0.547713551582257 
2343	 0.547580424311843 
2344	 0.547513152091556 
2345	 0.547455343588086 
2346	 0.547335309394559 
2347	 0.547318032054637 
2348	 0.547411274773897 
2349	 0.547469501679761 
2350	 0.547591949674237 
2351	 0.547643981390218 
2352	 0.547658247202141 
2353	 0.547630084678585 
2354	 0.547508132911371 
2355	 0.547487643279259 
2356	 0.547482024265762 
2357	 0.547527736064558 
2358	 0.547628377833842 
2359	 0.547771442379194 
2360	 0.5480262707738 
2361	 0.548177023016184 
2362	 0.548358726922147 
2363	 0.548445105674778 
2364	 0.548356674192774 
2365	 0.548340421387058 
2366	 0.548331372815667 
2367	 0.548340577249262 
2368	 0.548389242746601 
2369	 0.54842398911987 
2370	 0.548508142979271 
2371	 0.54846219634603 
2372	 0.548359601571096 
2373	 0.548281776306608 
2374	 0.548181572508901 
2375	 0.547975998687972 
2376	 0.54781133689212 
2377	 0.547650642448501 
2378	 0.547347800426511 
2379	 0.547100213075113 
2380	 0.546872019481972 
2381	 0.546619834786267 
2382	 0.546454908540191 
2383	 0.546369438758277 
2384	 0.546288399497743 
2385	 0.546193078337305 
2386	 0.546146608051385 
2387	 0.546033847734084 
2388	 0.545896434304055 
2389	 0.545751942628368 
2390	 0.545474385966331 
2391	 0.545219842725171 
2392	 0.545029528591357 
2393	 0.544781156463725 
2394	 0.544466074875318 
2395	 0.544210693489691 
2396	 0.543986587005941 
2397	 0.543689869722474 
2398	 0.543419559602721 
2399	 0.543100910565212 
2400	 0.542748574548577 
2401	 0.542438880265658 
2402	 0.542047678780022 
2403	 0.541649723723868 
2404	 0.541305335596043 
2405	 0.540921935302014 
2406	 0.540560195440551 
2407	 0.540237346438986 
2408	 0.539780269997789 
2409	 0.539200221710115 
2410	 0.538737930107035 
2411	 0.538424472056398 
2412	 0.53816985099016 
2413	 0.53791989893947 
2414	 0.537499221077132 
2415	 0.537056076631614 
2416	 0.536694808730537 
2417	 0.536322518984136 
2418	 0.535943922383629 
2419	 0.535660573933087 
2420	 0.535285453085124 
2421	 0.534787221990563 
2422	 0.534349915017055 
2423	 0.53401044184931 
2424	 0.53353692078612 
2425	 0.532943040817528 
2426	 0.532486014268423 
2427	 0.532000303470009 
2428	 0.531581247590964 
2429	 0.531284298364244 
2430	 0.530968376353279 
2431	 0.530660259072183 
2432	 0.530394398604163 
2433	 0.530216493351486 
2434	 0.52990130928605 
2435	 0.529482287731675 
2436	 0.529130735549053 
2437	 0.528760832875762 
2438	 0.528434961455379 
2439	 0.528196351855655 
2440	 0.527889282622499 
2441	 0.52745087144452 
2442	 0.527217805478049 
2443	 0.527151846731371 
2444	 0.527039367734652 
2445	 0.527035170819573 
2446	 0.527020249542685 
2447	 0.526886402632115 
2448	 0.526679160079553 
2449	 0.526573913965217 
2450	 0.526356038902239 
2451	 0.525957038282237 
2452	 0.525814865831926 
2453	 0.525796300731377 
2454	 0.525605449018747 
2455	 0.525402635812956 
2456	 0.525181573389918 
2457	 0.524856606336514 
2458	 0.524691078449983 
2459	 0.524650341548896 
2460	 0.524509373053636 
2461	 0.52436018810752 
2462	 0.524190782445934 
2463	 0.523941710928098 
2464	 0.523836072547467 
2465	 0.523831162044015 
2466	 0.523758525718117 
2467	 0.523684022896819 
2468	 0.523661434740525 
2469	 0.523678500156917 
2470	 0.523627804838485 
2471	 0.523572694725819 
2472	 0.523405803978152 
2473	 0.523100194172633 
2474	 0.523024722422549 
2475	 0.523083189635921 
2476	 0.523017296320977 
2477	 0.523012544209552 
2478	 0.522693348633145 
2479	 0.522299546373608 
2480	 0.522282569163547 
2481	 0.522144000138532 
2482	 0.522231347295824 
2483	 0.522498691895452 
2484	 0.522160553021996 
2485	 0.521773955927023 
2486	 0.521532526163517 
2487	 0.521145845136629 
2488	 0.520973936960258 
2489	 0.521003768804961 
2490	 0.521111557984866 
2491	 0.521103082721703 
2492	 0.520943089019172 
2493	 0.520931916882308 
2494	 0.520813898358201 
2495	 0.520695215214575 
2496	 0.520909881884226 
2497	 0.520869604712935 
2498	 0.520693749299755 
2499	 0.520760358648243 
2500	 0.520546792184202 
