Wavelength	LMW300004.asd
350	 0.121269648829436 
351	 0.118711281082721 
352	 0.115614108566101 
353	 0.109583399547623 
354	 0.114332111307712 
355	 0.114819954272564 
356	 0.112725561544971 
357	 0.113616671385492 
358	 0.121451695244316 
359	 0.118492043713411 
360	 0.112160077406985 
361	 0.122728253897214 
362	 0.120057022601083 
363	 0.119225028908609 
364	 0.126048395533111 
365	 0.123204160894158 
366	 0.122189715771985 
367	 0.123301345272816 
368	 0.124272332945162 
369	 0.125351927910755 
370	 0.124994330503967 
371	 0.124964764384933 
372	 0.128583559454602 
373	 0.130044752679264 
374	 0.129727675350851 
375	 0.12936982792218 
376	 0.13164589975612 
377	 0.13190931315613 
378	 0.132508366920012 
379	 0.135938135132202 
380	 0.135924763025538 
381	 0.137577882288277 
382	 0.140994567381197 
383	 0.142489576440369 
384	 0.144639832202415 
385	 0.145488182710452 
386	 0.145085390458505 
387	 0.148708056181756 
388	 0.149816810629179 
389	 0.150207631610686 
390	 0.153233572522356 
391	 0.15602294098348 
392	 0.159264642112116 
393	 0.162883239901703 
394	 0.166007931917132 
395	 0.167109665921944 
396	 0.168378627653545 
397	 0.171155703265232 
398	 0.173803489774338 
399	 0.1764694839465 
400	 0.179071478488905 
401	 0.181540580028589 
402	 0.184123901345863 
403	 0.186575818667894 
404	 0.188519167252737 
405	 0.189550933744069 
406	 0.192437465740066 
407	 0.195761832132661 
408	 0.197889407387346 
409	 0.198796264146232 
410	 0.199402902708739 
411	 0.200696576060812 
412	 0.203323572785261 
413	 0.205863155581969 
414	 0.207233605477016 
415	 0.207746413358856 
416	 0.209353290450959 
417	 0.210158323893074 
418	 0.210499436313728 
419	 0.211071258435005 
420	 0.211912509756305 
421	 0.212296740162486 
422	 0.212421153319972 
423	 0.212982328487813 
424	 0.21315703818214 
425	 0.213062331743169 
426	 0.212836922698298 
427	 0.212424248708754 
428	 0.211803773202149 
429	 0.211164116444802 
430	 0.210676260427563 
431	 0.210110247327139 
432	 0.209322539373272 
433	 0.208561924327337 
434	 0.208414398486887 
435	 0.208926464831163 
436	 0.209341857391398 
437	 0.209294760975494 
438	 0.209739250342255 
439	 0.211011237583196 
440	 0.212598113683598 
441	 0.213683520844377 
442	 0.214871018528826 
443	 0.216559321745863 
444	 0.218611106508415 
445	 0.220140393895656 
446	 0.22150664013708 
447	 0.223082935261513 
448	 0.225030747537219 
449	 0.226574311685068 
450	 0.228193913540953 
451	 0.229973445680582 
452	 0.231633124831008 
453	 0.233263896811771 
454	 0.23472176272967 
455	 0.236006888197546 
456	 0.237576983310817 
457	 0.23895834702123 
458	 0.240176969992931 
459	 0.241442290200511 
460	 0.242518063095039 
461	 0.243577517559436 
462	 0.244692011826604 
463	 0.245741750059689 
464	 0.246784910393037 
465	 0.24771005586712 
466	 0.248440181072668 
467	 0.249178736929292 
468	 0.25004986199386 
469	 0.250881195421756 
470	 0.251327086442643 
471	 0.252254366613146 
472	 0.25307135341298 
473	 0.253434088748435 
474	 0.254155646620465 
475	 0.254888520513274 
476	 0.255544253944287 
477	 0.256165077905996 
478	 0.256956305232731 
479	 0.257812991055818 
480	 0.258616800683261 
481	 0.259271800481055 
482	 0.259857085241071 
483	 0.260529736356125 
484	 0.261361099684205 
485	 0.262027846963833 
486	 0.262546818527559 
487	 0.263069466916073 
488	 0.263821800109502 
489	 0.264420794619167 
490	 0.265113414210754 
491	 0.265990027195463 
492	 0.266462173101779 
493	 0.267052510208026 
494	 0.26771284428089 
495	 0.26821523581166 
496	 0.269172178442051 
497	 0.269973922277474 
498	 0.270426800273093 
499	 0.271120041257575 
500	 0.271653445112706 
501	 0.272209540167053 
502	 0.272983262508916 
503	 0.273467429877181 
504	 0.274055533402189 
505	 0.274811398344551 
506	 0.275474335830785 
507	 0.275973291446452 
508	 0.276443630291187 
509	 0.277004891135169 
510	 0.277628199631732 
511	 0.27819286078068 
512	 0.278685443781476 
513	 0.279159013072174 
514	 0.279645414088544 
515	 0.28016730768733 
516	 0.280719639507667 
517	 0.28125873595696 
518	 0.281770838002881 
519	 0.28227036961333 
520	 0.282780522204641 
521	 0.283313087547178 
522	 0.283792020426829 
523	 0.284244937316135 
524	 0.284807037852888 
525	 0.285243277095392 
526	 0.285649865870667 
527	 0.286142182413756 
528	 0.286658605580395 
529	 0.287149768056499 
530	 0.287562919702461 
531	 0.287870731084104 
532	 0.288331004474105 
533	 0.288890724969476 
534	 0.289451215612749 
535	 0.289919935585659 
536	 0.290361190747076 
537	 0.290777875568322 
538	 0.291159897547432 
539	 0.291553282400554 
540	 0.292025463600126 
541	 0.292554763836691 
542	 0.293004240370872 
543	 0.293405426466546 
544	 0.293821349928199 
545	 0.294305919875325 
546	 0.294850627493648 
547	 0.295285219817248 
548	 0.29563663810599 
549	 0.296092956822 
550	 0.296520902592054 
551	 0.296970619035141 
552	 0.297494648004329 
553	 0.298080275783993 
554	 0.298635696499737 
555	 0.299152288820445 
556	 0.299670200783535 
557	 0.300209967160703 
558	 0.300793263227759 
559	 0.301400243829192 
560	 0.301942826132387 
561	 0.302456540627709 
562	 0.302915138032263 
563	 0.303313605267193 
564	 0.303856563673765 
565	 0.304404534267049 
566	 0.30494092917629 
567	 0.305607434164847 
568	 0.306302515284314 
569	 0.307052828620113 
570	 0.307864410308153 
571	 0.308575365016559 
572	 0.309315090617985 
573	 0.310073527868548 
574	 0.31074024218945 
575	 0.311293032508914 
576	 0.311894415311165 
577	 0.312613235099108 
578	 0.313245091221217 
579	 0.313942047732534 
580	 0.314723080529021 
581	 0.315562531156027 
582	 0.316536247781508 
583	 0.317538586530798 
584	 0.318455824713327 
585	 0.319184415610342 
586	 0.319942355275638 
587	 0.320692098069186 
588	 0.321366423895858 
589	 0.322133635580269 
590	 0.322852262505465 
591	 0.323524043503618 
592	 0.324283982298051 
593	 0.325019028465516 
594	 0.325741891060491 
595	 0.326513833524174 
596	 0.327466947519271 
597	 0.328509209097 
598	 0.329527897678909 
599	 0.330419549622063 
600	 0.331251642049552 
601	 0.332091679014421 
602	 0.332920250494254 
603	 0.333562209125746 
604	 0.334163518721026 
605	 0.334784760005225 
606	 0.335450019421537 
607	 0.336156447506444 
608	 0.336793484778165 
609	 0.337408022227614 
610	 0.33822633433081 
611	 0.33893831039916 
612	 0.339639062802875 
613	 0.340438253174515 
614	 0.341171132669645 
615	 0.341800140951907 
616	 0.34235772041668 
617	 0.342921966794357 
618	 0.343487533949647 
619	 0.344028114555935 
620	 0.34453871685865 
621	 0.345071019356135 
622	 0.345556671647702 
623	 0.346013312767462 
624	 0.346491394880745 
625	 0.34700266081704 
626	 0.347486432447097 
627	 0.347935058368972 
628	 0.34841775773119 
629	 0.348943171807564 
630	 0.349404541343001 
631	 0.349738542589239 
632	 0.350173347163428 
633	 0.350599317420517 
634	 0.351029020154804 
635	 0.351562617406754 
636	 0.351942740454031 
637	 0.352299647299647 
638	 0.352735560813518 
639	 0.353112624642762 
640	 0.353467351133054 
641	 0.353865436458661 
642	 0.354358835227448 
643	 0.354767884805739 
644	 0.355178571694135 
645	 0.355622855467761 
646	 0.35601733473244 
647	 0.356354944032453 
648	 0.35672494915857 
649	 0.357191973113789 
650	 0.357587618645151 
651	 0.357992691978265 
652	 0.358422957727656 
653	 0.358833316376243 
654	 0.359231090362928 
655	 0.359626286724962 
656	 0.360019751486017 
657	 0.360374430550971 
658	 0.360801948156651 
659	 0.361280886666603 
660	 0.361727723109141 
661	 0.362145708022994 
662	 0.36257829564705 
663	 0.363049860129304 
664	 0.363554149751128 
665	 0.363936825574732 
666	 0.364363269498008 
667	 0.364966189367501 
668	 0.3653262777031 
669	 0.365756994390822 
670	 0.366284303806972 
671	 0.366694116343417 
672	 0.367217235626606 
673	 0.367753704192743 
674	 0.368214454666652 
675	 0.368661721415013 
676	 0.369173921754318 
677	 0.369683804691024 
678	 0.370099792060691 
679	 0.370670691067574 
680	 0.371218870502161 
681	 0.371697995176431 
682	 0.372280842995851 
683	 0.372797893144879 
684	 0.373265929997874 
685	 0.373753315070009 
686	 0.374330344948137 
687	 0.374883325543439 
688	 0.375428897028039 
689	 0.376058610008149 
690	 0.376550968642836 
691	 0.377026574288345 
692	 0.377579312229515 
693	 0.378150554915157 
694	 0.37874127927589 
695	 0.379329919562925 
696	 0.379889027278465 
697	 0.380376748301405 
698	 0.380972288470424 
699	 0.381660354521758 
700	 0.382215758728697 
701	 0.382732491220184 
702	 0.383270671036332 
703	 0.38384837258088 
704	 0.384383529077687 
705	 0.384888236992048 
706	 0.38545495402125 
707	 0.386157971387259 
708	 0.386561426914285 
709	 0.386993131977213 
710	 0.387609061316582 
711	 0.388201710516824 
712	 0.388840568050988 
713	 0.389388045488694 
714	 0.389765891872466 
715	 0.390310175872292 
716	 0.390857242780551 
717	 0.391364042108322 
718	 0.391877655674852 
719	 0.392353022604681 
720	 0.392736761835864 
721	 0.393061368400879 
722	 0.393518415619429 
723	 0.394067275023635 
724	 0.394585286381097 
725	 0.394962029739242 
726	 0.395312709758911 
727	 0.395708133124222 
728	 0.396111135604948 
729	 0.39639749255285 
730	 0.396743462315021 
731	 0.397028182084066 
732	 0.397205206060641 
733	 0.397538881255755 
734	 0.397857442740387 
735	 0.398109174556591 
736	 0.398298474628747 
737	 0.398454675298497 
738	 0.39864993103534 
739	 0.398847991463627 
740	 0.398900906556378 
741	 0.398996966743568 
742	 0.399177387066997 
743	 0.399374940660679 
744	 0.399317827643508 
745	 0.399247438365545 
746	 0.399251866579881 
747	 0.399320437965378 
748	 0.399334899465131 
749	 0.399265818222885 
750	 0.399131718494402 
751	 0.398996630702345 
752	 0.39894082935023 
753	 0.398897156281938 
754	 0.398785697333723 
755	 0.398593403001859 
756	 0.39845155348597 
757	 0.398318455031384 
758	 0.398079514758812 
759	 0.397815159541295 
760	 0.397536943910904 
761	 0.397285639722762 
762	 0.397140631832371 
763	 0.396896891332391 
764	 0.396587970590655 
765	 0.396289823840626 
766	 0.396023336055213 
767	 0.395689337806323 
768	 0.395356693983732 
769	 0.395136747642489 
770	 0.394780908909155 
771	 0.394460025424012 
772	 0.39419886699118 
773	 0.393809327125858 
774	 0.393454763225013 
775	 0.39313423795236 
776	 0.392805562690151 
777	 0.392417367002419 
778	 0.392024533935776 
779	 0.39160926714608 
780	 0.391151781933588 
781	 0.390831026058918 
782	 0.390562363994798 
783	 0.39024880628265 
784	 0.389815568475202 
785	 0.389405593088927 
786	 0.389057023503918 
787	 0.388752277386815 
788	 0.388404992045773 
789	 0.387990365314612 
790	 0.387571890233217 
791	 0.387217757584451 
792	 0.386803470585419 
793	 0.386457178539311 
794	 0.386158067417494 
795	 0.385760656023876 
796	 0.385374409199368 
797	 0.385032945187923 
798	 0.384714555234207 
799	 0.384313830978878 
800	 0.384042262384343 
801	 0.383767760147785 
802	 0.38333351049374 
803	 0.382896030472317 
804	 0.382653027359464 
805	 0.382473548944366 
806	 0.382064797380607 
807	 0.381693733200535 
808	 0.381299785377319 
809	 0.380893915765897 
810	 0.380615706266941 
811	 0.380362142880205 
812	 0.38009506576383 
813	 0.379807619885857 
814	 0.379545238326849 
815	 0.379187144552057 
816	 0.378823233477196 
817	 0.378589973398968 
818	 0.378359751602146 
819	 0.378108906337868 
820	 0.377834890582528 
821	 0.377548779950821 
822	 0.377220663057156 
823	 0.376962185389299 
824	 0.376782546513204 
825	 0.376493236510225 
826	 0.376282731090569 
827	 0.376098743821832 
828	 0.375852454712025 
829	 0.375553050269189 
830	 0.375257853458579 
831	 0.37500215003447 
832	 0.374807376047512 
833	 0.374706508333767 
834	 0.374615920435842 
835	 0.374452092378618 
836	 0.37416006530965 
837	 0.373886274001105 
838	 0.373720597723739 
839	 0.373645726976199 
840	 0.373489580416774 
841	 0.373326471791563 
842	 0.373146538929611 
843	 0.372935589390599 
844	 0.37271503553468 
845	 0.3726096766911 
846	 0.37257284502462 
847	 0.372476507070994 
848	 0.372260214346312 
849	 0.37208972642999 
850	 0.372009964134571 
851	 0.371939602222524 
852	 0.371767297220606 
853	 0.371669007211145 
854	 0.371682908291182 
855	 0.371593666730671 
856	 0.371638100376296 
857	 0.371619116648758 
858	 0.371401551832089 
859	 0.371249281434927 
860	 0.371210976686095 
861	 0.37120541981018 
862	 0.371144999752749 
863	 0.371190850611998 
864	 0.371146927308155 
865	 0.371061049421605 
866	 0.371102357582718 
867	 0.371106956585604 
868	 0.371075684854597 
869	 0.371050218776234 
870	 0.371086518569446 
871	 0.371060722875427 
872	 0.371023875385786 
873	 0.371040175739986 
874	 0.371143352238489 
875	 0.371186421097522 
876	 0.371213465383539 
877	 0.371265400331456 
878	 0.37122389322374 
879	 0.371321049799083 
880	 0.371443660180364 
881	 0.371422429392783 
882	 0.371394248694941 
883	 0.371479573254495 
884	 0.371625257036975 
885	 0.371709715792694 
886	 0.371867658287485 
887	 0.372051190071038 
888	 0.372127850100281 
889	 0.371977380155836 
890	 0.372140418194478 
891	 0.372419789771252 
892	 0.372639308197979 
893	 0.372784335603622 
894	 0.372821156013055 
895	 0.372893620078566 
896	 0.373088089229162 
897	 0.373326532845943 
898	 0.373493919132278 
899	 0.373653133496539 
900	 0.373875450760571 
901	 0.374113478355898 
902	 0.374360540340419 
903	 0.374561167995533 
904	 0.374690327186419 
905	 0.374879987410797 
906	 0.375099121994192 
907	 0.375331406362896 
908	 0.375565890554304 
909	 0.375780362091778 
910	 0.376038531061898 
911	 0.376340305661654 
912	 0.376641000489089 
913	 0.376943777251312 
914	 0.37719223395682 
915	 0.377444248603164 
916	 0.377826758063925 
917	 0.378089504107026 
918	 0.378416747028721 
919	 0.378848417946893 
920	 0.379196900098104 
921	 0.379394968608869 
922	 0.379640374644672 
923	 0.380047972495832 
924	 0.380532197849189 
925	 0.380883548785105 
926	 0.381219912986364 
927	 0.381620303016673 
928	 0.381949253129316 
929	 0.382514072744929 
930	 0.382991993077164 
931	 0.383198342618582 
932	 0.383635826305274 
933	 0.384050895590587 
934	 0.384442257274369 
935	 0.384864020521666 
936	 0.385323392772074 
937	 0.385766525128017 
938	 0.386239837805562 
939	 0.386802013559405 
940	 0.387453626869729 
941	 0.387912744781531 
942	 0.388334924763748 
943	 0.388949040300632 
944	 0.389508392283077 
945	 0.390078968831898 
946	 0.39062417957742 
947	 0.391094119593648 
948	 0.39159836099815 
949	 0.392040571314972 
950	 0.39245526603999 
951	 0.392950680428849 
952	 0.393599719834015 
953	 0.394383493610234 
954	 0.395099251845643 
955	 0.395560829624201 
956	 0.396181131097163 
957	 0.396814584304788 
958	 0.397410475935627 
959	 0.397995910984957 
960	 0.398560943176622 
961	 0.399194384533529 
962	 0.399880971118295 
963	 0.400544261517584 
964	 0.401225630696329 
965	 0.401834775606088 
966	 0.402451464991391 
967	 0.403219595819895 
968	 0.4039106971902 
969	 0.40464885452137 
970	 0.405414757852833 
971	 0.406115111086054 
972	 0.406952176071612 
973	 0.407703976249158 
974	 0.408384186804972 
975	 0.409164928868561 
976	 0.410021250479245 
977	 0.410768165437807 
978	 0.411490792545908 
979	 0.412343771441886 
980	 0.412775056371224 
981	 0.413283110699962 
982	 0.414100938900035 
983	 0.415136730886721 
984	 0.415900607454679 
985	 0.416624619214669 
986	 0.417377265980537 
987	 0.418111370431384 
988	 0.418826909827748 
989	 0.419731406191656 
990	 0.420654742530515 
991	 0.421331866036138 
992	 0.422041967366755 
993	 0.422650971605608 
994	 0.423316849487624 
995	 0.424226953688046 
996	 0.425124312510675 
997	 0.426184141979822 
998	 0.427094179582735 
999	 0.427634295646081 
1000	 0.428556033761577 
1001	 0.431409562161306 
1002	 0.432125660729004 
1003	 0.432876115127136 
1004	 0.433614892270709 
1005	 0.434383176245086 
1006	 0.43513460605252 
1007	 0.435873825840414 
1008	 0.436591909970463 
1009	 0.437358433713261 
1010	 0.438022035585943 
1011	 0.438708998172642 
1012	 0.439438326040758 
1013	 0.44003396432787 
1014	 0.440654391466032 
1015	 0.441277004576532 
1016	 0.441857462569734 
1017	 0.442502580328379 
1018	 0.443203787199135 
1019	 0.443888836624336 
1020	 0.444572968375061 
1021	 0.445249697423978 
1022	 0.44587599006837 
1023	 0.446465159005501 
1024	 0.447040497678053 
1025	 0.44766260884662 
1026	 0.44825059936246 
1027	 0.448852641145037 
1028	 0.449483398220797 
1029	 0.450047691827174 
1030	 0.450638486784252 
1031	 0.451227427572657 
1032	 0.45182841116868 
1033	 0.452393961571366 
1034	 0.453008314147637 
1035	 0.453607162948892 
1036	 0.45415328211015 
1037	 0.454726128871134 
1038	 0.455320235908319 
1039	 0.455911875674153 
1040	 0.456544842725801 
1041	 0.457195059827637 
1042	 0.457809595869639 
1043	 0.45843662528025 
1044	 0.459043702206167 
1045	 0.459638781973176 
1046	 0.460248514361621 
1047	 0.46089873362654 
1048	 0.461452037229353 
1049	 0.4620104388111 
1050	 0.462632924894567 
1051	 0.46319782889385 
1052	 0.463739311640443 
1053	 0.464337264647599 
1054	 0.464928666216872 
1055	 0.465464356828058 
1056	 0.466057625290896 
1057	 0.466575833091989 
1058	 0.466999447895821 
1059	 0.467472499043978 
1060	 0.467941590504245 
1061	 0.468396881230052 
1062	 0.468865305136277 
1063	 0.469371900791712 
1064	 0.469842379728947 
1065	 0.470270855940997 
1066	 0.470663796307796 
1067	 0.471049145021368 
1068	 0.471412816730284 
1069	 0.471717295429949 
1070	 0.472038433652962 
1071	 0.472355552191916 
1072	 0.47270610228028 
1073	 0.473062055846784 
1074	 0.473393205893216 
1075	 0.473736929960858 
1076	 0.474078333024311 
1077	 0.474366469437721 
1078	 0.474701529977394 
1079	 0.47506290423704 
1080	 0.475312563038064 
1081	 0.475550289102245 
1082	 0.475843085638799 
1083	 0.476107761382467 
1084	 0.476349123160586 
1085	 0.476641849285731 
1086	 0.476935514856278 
1087	 0.477228440092435 
1088	 0.477554402207347 
1089	 0.477871604341229 
1090	 0.478124819722572 
1091	 0.478439095628406 
1092	 0.478746853423549 
1093	 0.479094866317825 
1094	 0.479466158617137 
1095	 0.479767631330962 
1096	 0.480086489806575 
1097	 0.480382149469318 
1098	 0.480735615357304 
1099	 0.481148605335372 
1100	 0.481546189642279 
1101	 0.481960093124332 
1102	 0.482372860414924 
1103	 0.482790813019912 
1104	 0.483176511637978 
1105	 0.483598490143786 
1106	 0.484068792596657 
1107	 0.48453722281447 
1108	 0.484999559306359 
1109	 0.485471544575578 
1110	 0.485956519650904 
1111	 0.486457667473653 
1112	 0.486958407685338 
1113	 0.48749804983086 
1114	 0.488091185162094 
1115	 0.488645373906145 
1116	 0.489195143931841 
1117	 0.489769472504433 
1118	 0.490348595853054 
1119	 0.490896063979149 
1120	 0.491522101521029 
1121	 0.492132827101988 
1122	 0.492717113740126 
1123	 0.493314047744632 
1124	 0.493887036913511 
1125	 0.494429187106599 
1126	 0.495012732844996 
1127	 0.495588626264979 
1128	 0.496188541534296 
1129	 0.496837824772241 
1130	 0.497444062805639 
1131	 0.498044980387258 
1132	 0.498638192341561 
1133	 0.499216276404195 
1134	 0.499781423440974 
1135	 0.500335802372971 
1136	 0.500892758693127 
1137	 0.501422400951451 
1138	 0.501941412433737 
1139	 0.502486299423431 
1140	 0.503034937760007 
1141	 0.503593844961617 
1142	 0.504183071601483 
1143	 0.504739437163807 
1144	 0.505306396800923 
1145	 0.505826112502564 
1146	 0.506307550922877 
1147	 0.506797016734337 
1148	 0.507252040122162 
1149	 0.507723136669347 
1150	 0.508221795097841 
1151	 0.508688811251305 
1152	 0.509129603864023 
1153	 0.509577774416009 
1154	 0.510020756169632 
1155	 0.510452865347684 
1156	 0.510877075350672 
1157	 0.511317545649651 
1158	 0.511714299935851 
1159	 0.512072369739556 
1160	 0.512442283103896 
1161	 0.512788063207511 
1162	 0.51315353628665 
1163	 0.513540255126819 
1164	 0.513905364731299 
1165	 0.514264655353693 
1166	 0.514630035304167 
1167	 0.514971472024321 
1168	 0.515291483678734 
1169	 0.515617080398678 
1170	 0.515944727926513 
1171	 0.516246564059388 
1172	 0.516533650909592 
1173	 0.516821851048186 
1174	 0.517092786502576 
1175	 0.517368730908645 
1176	 0.517644208652311 
1177	 0.517922686547179 
1178	 0.518195162423523 
1179	 0.518473069411106 
1180	 0.518772517385221 
1181	 0.519048356249863 
1182	 0.519308093290472 
1183	 0.519574590000204 
1184	 0.519834027535657 
1185	 0.520074840784036 
1186	 0.520339052678015 
1187	 0.520616368671314 
1188	 0.520883830430679 
1189	 0.521163617155192 
1190	 0.521420363991889 
1191	 0.521671329453632 
1192	 0.521907747927327 
1193	 0.52213039151468 
1194	 0.522343841780463 
1195	 0.522540265268506 
1196	 0.52273646208989 
1197	 0.522908549211898 
1198	 0.523101688723089 
1199	 0.523302716250505 
1200	 0.523507902146542 
1201	 0.52372237248689 
1202	 0.523959288567418 
1203	 0.524175293989984 
1204	 0.524394806518752 
1205	 0.524595873305614 
1206	 0.52477798278606 
1207	 0.524969683557988 
1208	 0.525157337038181 
1209	 0.525341683200756 
1210	 0.52552946260961 
1211	 0.525712545304282 
1212	 0.52589328821036 
1213	 0.526063955349488 
1214	 0.526231508510475 
1215	 0.526393078172913 
1216	 0.526547339198634 
1217	 0.526683548604291 
1218	 0.52683852275244 
1219	 0.526998400279143 
1220	 0.527154923120106 
1221	 0.527313369938124 
1222	 0.527477114081858 
1223	 0.527641246813061 
1224	 0.527806328167069 
1225	 0.527995550482148 
1226	 0.528150575922905 
1227	 0.52828753593928 
1228	 0.52842151451232 
1229	 0.528510132706917 
1230	 0.528641639057703 
1231	 0.528809135160018 
1232	 0.528955806116227 
1233	 0.52910372962347 
1234	 0.529276832253783 
1235	 0.529412767598915 
1236	 0.529513067728116 
1237	 0.52964081415365 
1238	 0.529779061671321 
1239	 0.529896937073835 
1240	 0.530004109909021 
1241	 0.530126645799617 
1242	 0.530250335376117 
1243	 0.530362980864931 
1244	 0.530487429288932 
1245	 0.530599457899667 
1246	 0.530680721756979 
1247	 0.530779680855792 
1248	 0.53087821566167 
1249	 0.530998982593368 
1250	 0.531115285732034 
1251	 0.531235495431711 
1252	 0.531349909208935 
1253	 0.53147091970416 
1254	 0.531571300566002 
1255	 0.531654407727412 
1256	 0.531752782293763 
1257	 0.531845256249897 
1258	 0.531945371809223 
1259	 0.532069190922332 
1260	 0.532162866432526 
1261	 0.532249636323128 
1262	 0.532322570456891 
1263	 0.532353519582632 
1264	 0.532417391206642 
1265	 0.532485316986553 
1266	 0.532560798307354 
1267	 0.532647518304793 
1268	 0.532762052855409 
1269	 0.532858392526503 
1270	 0.532945171661492 
1271	 0.533052693035514 
1272	 0.533158719894878 
1273	 0.533293947625808 
1274	 0.533454223612047 
1275	 0.533612824180262 
1276	 0.533788626600637 
1277	 0.533965396523698 
1278	 0.534146624038645 
1279	 0.534329630537908 
1280	 0.534526740813059 
1281	 0.534713479701995 
1282	 0.534900243346196 
1283	 0.53507837109179 
1284	 0.535263301395745 
1285	 0.535428515084427 
1286	 0.535551951643585 
1287	 0.535663445039427 
1288	 0.53573703004969 
1289	 0.535767706256821 
1290	 0.535787879384412 
1291	 0.535791620790284 
1292	 0.535762991025241 
1293	 0.535699146750531 
1294	 0.535627575117771 
1295	 0.535539839077807 
1296	 0.535421649156835 
1297	 0.535271680710801 
1298	 0.535124142789065 
1299	 0.5349542453964 
1300	 0.534775140208585 
1301	 0.534586255739383 
1302	 0.534398580418214 
1303	 0.534194179381092 
1304	 0.533996819484911 
1305	 0.533779060796179 
1306	 0.533586489512739 
1307	 0.533398679277628 
1308	 0.533170906739653 
1309	 0.532967298534834 
1310	 0.532776889125532 
1311	 0.532588895014633 
1312	 0.532391506331008 
1313	 0.532218752004066 
1314	 0.532059967191 
1315	 0.531915722912298 
1316	 0.531763899384939 
1317	 0.531670395136275 
1318	 0.531619002224244 
1319	 0.531573774840492 
1320	 0.531573467604754 
1321	 0.531565485465343 
1322	 0.531553368208482 
1323	 0.531559182766444 
1324	 0.531589264704026 
1325	 0.531627166367124 
1326	 0.531694289622122 
1327	 0.531770204034844 
1328	 0.53184413375185 
1329	 0.531953159964693 
1330	 0.532091107653374 
1331	 0.532240850897943 
1332	 0.532441218460465 
1333	 0.532703610053716 
1334	 0.532940317568488 
1335	 0.533187174096731 
1336	 0.533455452020039 
1337	 0.533728580311409 
1338	 0.534011134126254 
1339	 0.534341095488611 
1340	 0.534637252559984 
1341	 0.534902860771702 
1342	 0.535189580091595 
1343	 0.535481922028892 
1344	 0.535760995038181 
1345	 0.53607904943965 
1346	 0.536416278556503 
1347	 0.536727530115769 
1348	 0.53704819290231 
1349	 0.537341571444851 
1350	 0.537614463388537 
1351	 0.537907179455595 
1352	 0.53819604276934 
1353	 0.538509327669681 
1354	 0.538849674957296 
1355	 0.53915821883341 
1356	 0.539480428305257 
1357	 0.539771269911197 
1358	 0.540029590619175 
1359	 0.540301096374956 
1360	 0.540556378039754 
1361	 0.540824915401182 
1362	 0.541104545844995 
1363	 0.541368782152723 
1364	 0.541641698697253 
1365	 0.541898771209361 
1366	 0.542134071249229 
1367	 0.542373283088072 
1368	 0.542629513522047 
1369	 0.542854396355623 
1370	 0.543043628699423 
1371	 0.543236792751194 
1372	 0.543405306281768 
1373	 0.543557877388544 
1374	 0.543714104436897 
1375	 0.543890229328053 
1376	 0.544015521671508 
1377	 0.544122546053086 
1378	 0.544206070197013 
1379	 0.544255842733426 
1380	 0.544304932430262 
1381	 0.544337538989546 
1382	 0.544355139582186 
1383	 0.544379835361131 
1384	 0.544352568906895 
1385	 0.544314289790841 
1386	 0.544219499087917 
1387	 0.544094707847678 
1388	 0.543900571154307 
1389	 0.543657932240911 
1390	 0.543348624134653 
1391	 0.542990668414164 
1392	 0.542578942136593 
1393	 0.542104134884579 
1394	 0.541608160883113 
1395	 0.541050144505616 
1396	 0.540453509285127 
1397	 0.539863882046308 
1398	 0.53924365355806 
1399	 0.538645255699273 
1400	 0.538037216118776 
1401	 0.537459800211192 
1402	 0.5368840761841 
1403	 0.536349589244099 
1404	 0.53581341813413 
1405	 0.535363732946479 
1406	 0.5349513838424 
1407	 0.534613461521298 
1408	 0.534319353012578 
1409	 0.534127867354094 
1410	 0.533974815065255 
1411	 0.533965602436691 
1412	 0.534051158788656 
1413	 0.534277202468595 
1414	 0.534649058592368 
1415	 0.535113150916733 
1416	 0.53568496438444 
1417	 0.536338448437049 
1418	 0.537013783344685 
1419	 0.537678379111961 
1420	 0.538348110220986 
1421	 0.538987394915421 
1422	 0.539566080090816 
1423	 0.540135122168832 
1424	 0.540612434586587 
1425	 0.541018804952709 
1426	 0.541380910669317 
1427	 0.541664898461934 
1428	 0.541937661990132 
1429	 0.542184391506036 
1430	 0.542384172172201 
1431	 0.542537271177102 
1432	 0.542674370625718 
1433	 0.542754275290871 
1434	 0.54284414766282 
1435	 0.542919325760552 
1436	 0.542994241426541 
1437	 0.543074509310993 
1438	 0.543129865249611 
1439	 0.543171649665845 
1440	 0.543211358715436 
1441	 0.543209394576056 
1442	 0.543195782493097 
1443	 0.543183086112677 
1444	 0.543151146647524 
1445	 0.543134916861136 
1446	 0.543119116979751 
1447	 0.543099596874049 
1448	 0.543079172250416 
1449	 0.543025241039824 
1450	 0.542978680000407 
1451	 0.542936958918332 
1452	 0.542889623595337 
1453	 0.542838784232008 
1454	 0.542800361300739 
1455	 0.542740950047186 
1456	 0.542662558740768 
1457	 0.54258858069696 
1458	 0.542509727179979 
1459	 0.542433518810504 
1460	 0.542355937401247 
1461	 0.542274576920077 
1462	 0.542188728217363 
1463	 0.542114020641937 
1464	 0.542027910441039 
1465	 0.541963477895698 
1466	 0.541911845810722 
1467	 0.541874148882653 
1468	 0.541849335985036 
1469	 0.541842365423904 
1470	 0.541857634901465 
1471	 0.541876162476503 
1472	 0.541896801266382 
1473	 0.541930777919566 
1474	 0.541967866095333 
1475	 0.542022042900228 
1476	 0.542113121350595 
1477	 0.542205738775045 
1478	 0.542329517117766 
1479	 0.542473211897434 
1480	 0.542599442001997 
1481	 0.54272782805637 
1482	 0.542828956512843 
1483	 0.542889689235413 
1484	 0.542990926964505 
1485	 0.543088333409144 
1486	 0.543212833263386 
1487	 0.54337449984392 
1488	 0.543518577916121 
1489	 0.543678223818331 
1490	 0.543801353888493 
1491	 0.543905605897575 
1492	 0.544013005470284 
1493	 0.544102381835817 
1494	 0.544194403562546 
1495	 0.544290672821086 
1496	 0.544378709540098 
1497	 0.544449262413102 
1498	 0.544529282450867 
1499	 0.544622679325672 
1500	 0.544700538644406 
1501	 0.544774141816338 
1502	 0.544842449798232 
1503	 0.544900860286297 
1504	 0.54495059754278 
1505	 0.545012131781208 
1506	 0.545070012536713 
1507	 0.545119440442595 
1508	 0.545157020932315 
1509	 0.545167260458966 
1510	 0.545184651317026 
1511	 0.545205480778013 
1512	 0.545228258613289 
1513	 0.545301321234468 
1514	 0.54536741002342 
1515	 0.545460444894956 
1516	 0.545577563229018 
1517	 0.545644418562891 
1518	 0.545690746923784 
1519	 0.545744795591396 
1520	 0.545765900579347 
1521	 0.545812552412475 
1522	 0.545877953851226 
1523	 0.545937169037809 
1524	 0.545992201163593 
1525	 0.546055681071418 
1526	 0.546127174910102 
1527	 0.546197002544977 
1528	 0.546273145437932 
1529	 0.54634039848684 
1530	 0.546404898485297 
1531	 0.546470741341872 
1532	 0.546525518106516 
1533	 0.546590550014429 
1534	 0.546678404092466 
1535	 0.546738701980205 
1536	 0.546782968540356 
1537	 0.546834441908306 
1538	 0.546876732807508 
1539	 0.546910793273047 
1540	 0.546944538091397 
1541	 0.546984038632993 
1542	 0.547015186355429 
1543	 0.547047358060015 
1544	 0.547091429987359 
1545	 0.547124202018133 
1546	 0.547142182804699 
1547	 0.547159339266447 
1548	 0.547203829489841 
1549	 0.547267251391191 
1550	 0.547333519277137 
1551	 0.547398120044871 
1552	 0.547437899820443 
1553	 0.54746244565943 
1554	 0.547514401464973 
1555	 0.547591546197801 
1556	 0.547684491940967 
1557	 0.547789672879733 
1558	 0.547878132464451 
1559	 0.547957519795849 
1560	 0.548035507936773 
1561	 0.548106596771765 
1562	 0.548171344754715 
1563	 0.548223866251479 
1564	 0.548296843936775 
1565	 0.548361154434082 
1566	 0.548461088209386 
1567	 0.548596183973427 
1568	 0.548713810930258 
1569	 0.548850623934379 
1570	 0.548954260816526 
1571	 0.549055428750883 
1572	 0.549119797642851 
1573	 0.54914352094568 
1574	 0.549189451631689 
1575	 0.549207386405957 
1576	 0.549255674217153 
1577	 0.549351388523293 
1578	 0.549389385704289 
1579	 0.549404997179766 
1580	 0.549422837868562 
1581	 0.549402276457306 
1582	 0.549407963934937 
1583	 0.54941888622344 
1584	 0.549453499123728 
1585	 0.549492253710911 
1586	 0.54955419732813 
1587	 0.54965819696665 
1588	 0.549746054420045 
1589	 0.549851688420885 
1590	 0.549935036060736 
1591	 0.550008893854337 
1592	 0.550073194425897 
1593	 0.550120432577223 
1594	 0.550167415872009 
1595	 0.550190145894898 
1596	 0.550240743677669 
1597	 0.550304764084588 
1598	 0.550366222287245 
1599	 0.550466045294507 
1600	 0.550530653582237 
1601	 0.550559717208853 
1602	 0.550605288451167 
1603	 0.550639923666386 
1604	 0.55067516800305 
1605	 0.550711989296679 
1606	 0.550765031135643 
1607	 0.550826876353269 
1608	 0.550889897627578 
1609	 0.550948473992425 
1610	 0.551013134129207 
1611	 0.551030209855561 
1612	 0.551056619435396 
1613	 0.551115379335168 
1614	 0.551143601431937 
1615	 0.551196225932797 
1616	 0.551261894640698 
1617	 0.551308818945844 
1618	 0.551375618984977 
1619	 0.551428820201238 
1620	 0.551481662015253 
1621	 0.551542879674564 
1622	 0.551607808704096 
1623	 0.551661063041667 
1624	 0.551722410135415 
1625	 0.551761570893516 
1626	 0.551769387019853 
1627	 0.551820024800874 
1628	 0.551887356648481 
1629	 0.551936968646497 
1630	 0.552003528249921 
1631	 0.552047683634751 
1632	 0.552056946009163 
1633	 0.552106445296762 
1634	 0.552175044569966 
1635	 0.552232697142856 
1636	 0.552305111451515 
1637	 0.552357801866827 
1638	 0.552390325617726 
1639	 0.552444448103106 
1640	 0.552502791507577 
1641	 0.552560148205447 
1642	 0.552620641638018 
1643	 0.552694761904429 
1644	 0.552767732757494 
1645	 0.552858174987536 
1646	 0.552981901980324 
1647	 0.553072250735559 
1648	 0.553157987715953 
1649	 0.553233796128383 
1650	 0.553291388812613 
1651	 0.553351672848922 
1652	 0.553421263606646 
1653	 0.553457218464149 
1654	 0.553478146050744 
1655	 0.553483527456749 
1656	 0.553445698701529 
1657	 0.553445407571324 
1658	 0.553439593553594 
1659	 0.553463770280419 
1660	 0.553520364302461 
1661	 0.553567670327827 
1662	 0.553629197799049 
1663	 0.553684098304452 
1664	 0.553743353087522 
1665	 0.553789214993037 
1666	 0.553833347428124 
1667	 0.553866965418984 
1668	 0.553878525795649 
1669	 0.55390857449313 
1670	 0.553940850027101 
1671	 0.553976086083497 
1672	 0.554018673257603 
1673	 0.554062772238766 
1674	 0.554102234331957 
1675	 0.554156828014221 
1676	 0.554213704461444 
1677	 0.554294211472412 
1678	 0.554406822731084 
1679	 0.55449221969468 
1680	 0.554587438385228 
1681	 0.554665900160151 
1682	 0.554721213020049 
1683	 0.554780198924349 
1684	 0.554830391564357 
1685	 0.554897035010171 
1686	 0.554961833435513 
1687	 0.555034743921707 
1688	 0.555151582825005 
1689	 0.555202796983553 
1690	 0.555210133847689 
1691	 0.555243267312943 
1692	 0.555252923470776 
1693	 0.555272465235119 
1694	 0.555304016875254 
1695	 0.55534749033186 
1696	 0.555377944377429 
1697	 0.555435554737095 
1698	 0.555534841232645 
1699	 0.555614088293062 
1700	 0.555693604351448 
1701	 0.555768676242489 
1702	 0.555849975462438 
1703	 0.555907721256281 
1704	 0.555960925753828 
1705	 0.555990396833993 
1706	 0.555981213808866 
1707	 0.556001882027677 
1708	 0.556022905271746 
1709	 0.556040724587354 
1710	 0.556056012496995 
1711	 0.556097396007719 
1712	 0.556137592942614 
1713	 0.556199895362381 
1714	 0.556309284070123 
1715	 0.556387436838462 
1716	 0.556450008735758 
1717	 0.556533518272347 
1718	 0.556638696231693 
1719	 0.556698638693795 
1720	 0.556758981669157 
1721	 0.556786002660612 
1722	 0.556759846175192 
1723	 0.556756735320226 
1724	 0.556738854437154 
1725	 0.556752185622053 
1726	 0.55679028036928 
1727	 0.556798786411504 
1728	 0.556820160916317 
1729	 0.556813751420657 
1730	 0.55676260687567 
1731	 0.556744507659011 
1732	 0.556753802336278 
1733	 0.556719017979898 
1734	 0.556666201492414 
1735	 0.556611653261303 
1736	 0.556520560133543 
1737	 0.556464661836946 
1738	 0.556423156182882 
1739	 0.556401439603072 
1740	 0.556388567857934 
1741	 0.556390281791663 
1742	 0.556435162069624 
1743	 0.55642634449004 
1744	 0.556399976254763 
1745	 0.556378546534604 
1746	 0.556326561255946 
1747	 0.556310034141094 
1748	 0.55632411551128 
1749	 0.556332703302574 
1750	 0.556302990107688 
1751	 0.556266665514386 
1752	 0.556231943525 
1753	 0.556183172382415 
1754	 0.55614856794097 
1755	 0.556167287244302 
1756	 0.556176967114689 
1757	 0.556176994800399 
1758	 0.556226743461209 
1759	 0.556235911063268 
1760	 0.556217886415825 
1761	 0.556214308339452 
1762	 0.556171336063157 
1763	 0.556132755081504 
1764	 0.55611583197957 
1765	 0.556112974830922 
1766	 0.556153776234014 
1767	 0.556217084957976 
1768	 0.556252475426977 
1769	 0.556286545474675 
1770	 0.556306936113733 
1771	 0.556297506473061 
1772	 0.556282199108547 
1773	 0.556233580983896 
1774	 0.556192534221238 
1775	 0.55614460802896 
1776	 0.556115660320332 
1777	 0.556136180020962 
1778	 0.556173105781025 
1779	 0.556273855534748 
1780	 0.556351798832962 
1781	 0.55639737270654 
1782	 0.556446867409962 
1783	 0.556424395546341 
1784	 0.556444727766705 
1785	 0.55650301339303 
1786	 0.55652434600785 
1787	 0.556517462096651 
1788	 0.556541065438861 
1789	 0.556572858821646 
1790	 0.556620296989201 
1791	 0.556709900448724 
1792	 0.556742788838822 
1793	 0.55676108025004 
1794	 0.556739974662014 
1795	 0.556669560426126 
1796	 0.556621755011478 
1797	 0.556531025198327 
1798	 0.556501426554893 
1799	 0.556487832203859 
1800	 0.556537442082225 
1801	 0.552171386848391 
1802	 0.552225716305722 
1803	 0.552304570918178 
1804	 0.552367373191359 
1805	 0.552409639485797 
1806	 0.552480585740504 
1807	 0.552567567644624 
1808	 0.552638405509237 
1809	 0.552733862300903 
1810	 0.552794616328926 
1811	 0.552840093926888 
1812	 0.552858589551598 
1813	 0.552872246478623 
1814	 0.552882441947788 
1815	 0.552833509269694 
1816	 0.552789339404165 
1817	 0.552768221565062 
1818	 0.55271718606493 
1819	 0.55271355448505 
1820	 0.55275989665368 
1821	 0.552792509324174 
1822	 0.552814716026882 
1823	 0.552815106416976 
1824	 0.552768623847634 
1825	 0.55271423659525 
1826	 0.552632930394181 
1827	 0.552568382444983 
1828	 0.552508265347215 
1829	 0.55246505230994 
1830	 0.552388849943002 
1831	 0.552312959971402 
1832	 0.55221892623238 
1833	 0.552072939439699 
1834	 0.551944716602712 
1835	 0.551827898333446 
1836	 0.551683665571535 
1837	 0.551521153676023 
1838	 0.551368967938113 
1839	 0.551244565428998 
1840	 0.551127075133796 
1841	 0.551005951692569 
1842	 0.550923570516796 
1843	 0.550870661878204 
1844	 0.550801667525739 
1845	 0.550719694773227 
1846	 0.550643039881987 
1847	 0.550582158883213 
1848	 0.550506683664054 
1849	 0.550495392864491 
1850	 0.550544773309116 
1851	 0.550674969448997 
1852	 0.550792749496456 
1853	 0.550927367287793 
1854	 0.55105157410269 
1855	 0.551148907359222 
1856	 0.551244096045347 
1857	 0.551323229937417 
1858	 0.551412756884838 
1859	 0.551478393644525 
1860	 0.551535487652799 
1861	 0.551572425634737 
1862	 0.551626772947166 
1863	 0.551675818919194 
1864	 0.551744185721361 
1865	 0.551838613357421 
1866	 0.551926994122185 
1867	 0.55198393304103 
1868	 0.552034640966556 
1869	 0.552089698243444 
1870	 0.552128669712506 
1871	 0.552168639639543 
1872	 0.552229562005464 
1873	 0.552273029894183 
1874	 0.55228404277085 
1875	 0.552271958293466 
1876	 0.55219377710727 
1877	 0.552088527113489 
1878	 0.551944362519042 
1879	 0.551762183675186 
1880	 0.551533855626089 
1881	 0.551280366667646 
1882	 0.550970623353108 
1883	 0.550613605659798 
1884	 0.550180796326701 
1885	 0.549733388966035 
1886	 0.549270394870464 
1887	 0.54874382790038 
1888	 0.548218812256488 
1889	 0.547675933784795 
1890	 0.547101750555344 
1891	 0.546523032136785 
1892	 0.545910828698822 
1893	 0.545324658990743 
1894	 0.54473947150774 
1895	 0.544147659041788 
1896	 0.543582165064377 
1897	 0.543016688871261 
1898	 0.542467057810455 
1899	 0.54199506072185 
1900	 0.541546966087269 
1901	 0.541227365663923 
1902	 0.540984669386757 
1903	 0.540840463089512 
1904	 0.540731691680357 
1905	 0.540720239189357 
1906	 0.540735881181454 
1907	 0.540751562504447 
1908	 0.540803663056101 
1909	 0.540883714097435 
1910	 0.540949715275527 
1911	 0.541047264849801 
1912	 0.541139207587258 
1913	 0.541221278713139 
1914	 0.541312196203389 
1915	 0.541386085300988 
1916	 0.541453103399073 
1917	 0.541487817302015 
1918	 0.541533445319341 
1919	 0.541555425623104 
1920	 0.54156862324704 
1921	 0.541605993257747 
1922	 0.541659542983139 
1923	 0.541727382972907 
1924	 0.541777728202143 
1925	 0.541838660033076 
1926	 0.541887388623086 
1927	 0.541929472989882 
1928	 0.541944618727613 
1929	 0.541959720165748 
1930	 0.541973942108899 
1931	 0.541998306590897 
1932	 0.541996036182452 
1933	 0.541990895510895 
1934	 0.542016970350735 
1935	 0.542040001459898 
1936	 0.542053377182387 
1937	 0.54209170411958 
1938	 0.542144857155031 
1939	 0.542198262474976 
1940	 0.542250582981127 
1941	 0.542326025816439 
1942	 0.542416378846192 
1943	 0.542552883192746 
1944	 0.542695441340786 
1945	 0.542840519369476 
1946	 0.54297852709789 
1947	 0.54311236438455 
1948	 0.543243566690108 
1949	 0.543389882258289 
1950	 0.543500810731259 
1951	 0.54359745589959 
1952	 0.543676824317778 
1953	 0.543726543579211 
1954	 0.543799571026019 
1955	 0.54387657513924 
1956	 0.543955584800785 
1957	 0.544035949277568 
1958	 0.544120964212875 
1959	 0.544202601740666 
1960	 0.544274590352468 
1961	 0.544367933872865 
1962	 0.544485181639657 
1963	 0.544584703567425 
1964	 0.544682039836237 
1965	 0.544787662390196 
1966	 0.5448769017101 
1967	 0.544949836074629 
1968	 0.545057338236605 
1969	 0.545187515297098 
1970	 0.545303839964864 
1971	 0.545439887030124 
1972	 0.545562955906531 
1973	 0.545652647882388 
1974	 0.545777551414894 
1975	 0.545916723806115 
1976	 0.546065558427143 
1977	 0.546225997714225 
1978	 0.546396466237147 
1979	 0.546549557936256 
1980	 0.546708974703915 
1981	 0.546857090875945 
1982	 0.546993300764005 
1983	 0.547144896890979 
1984	 0.547294758821078 
1985	 0.54744310697274 
1986	 0.547599732522783 
1987	 0.547754638048985 
1988	 0.547895948048316 
1989	 0.548058232399888 
1990	 0.54823344985293 
1991	 0.548408379155075 
1992	 0.54859850734476 
1993	 0.548817312685924 
1994	 0.549008649137123 
1995	 0.549198697685198 
1996	 0.549384332085905 
1997	 0.549541105683365 
1998	 0.549724957849771 
1999	 0.549918711991236 
2000	 0.550123577700662 
2001	 0.550340386879247 
2002	 0.550566256315823 
2003	 0.55082327733787 
2004	 0.551062156507626 
2005	 0.551296092657005 
2006	 0.551550095417198 
2007	 0.551766536161092 
2008	 0.551940542975021 
2009	 0.552144261854938 
2010	 0.552348762346788 
2011	 0.552541908935045 
2012	 0.552724586176875 
2013	 0.552929823741508 
2014	 0.55311135371663 
2015	 0.553346804646127 
2016	 0.553591916752359 
2017	 0.553856388160457 
2018	 0.554124740458135 
2019	 0.5544185913886 
2020	 0.554671080598724 
2021	 0.554929853284312 
2022	 0.555166304210684 
2023	 0.555362948395255 
2024	 0.555569192604886 
2025	 0.555775330332764 
2026	 0.555970362649037 
2027	 0.556160279077014 
2028	 0.556331774705591 
2029	 0.556511626060377 
2030	 0.556678823208563 
2031	 0.556874410187115 
2032	 0.557068553023761 
2033	 0.557296228568183 
2034	 0.557560396375388 
2035	 0.557815200451881 
2036	 0.558114985048386 
2037	 0.558358890911907 
2038	 0.558595871246397 
2039	 0.558793207903545 
2040	 0.558947338940608 
2041	 0.559079515983643 
2042	 0.559199140843371 
2043	 0.559325500270971 
2044	 0.55945585500395 
2045	 0.559587495227526 
2046	 0.559722281938713 
2047	 0.559867941892501 
2048	 0.559999096123938 
2049	 0.560117184737477 
2050	 0.560249629369256 
2051	 0.560399668215417 
2052	 0.560517021030931 
2053	 0.560628503532617 
2054	 0.560734574324641 
2055	 0.560803772589573 
2056	 0.560880017919594 
2057	 0.560980902720393 
2058	 0.561110086242248 
2059	 0.561206848802789 
2060	 0.561298041061031 
2061	 0.561401457263332 
2062	 0.561485130652236 
2063	 0.561591737852506 
2064	 0.561731346199847 
2065	 0.561853733136656 
2066	 0.56198095782683 
2067	 0.562095592386909 
2068	 0.562221167061796 
2069	 0.562301703326758 
2070	 0.562399564877428 
2071	 0.562487386772447 
2072	 0.56258111765456 
2073	 0.562686078888096 
2074	 0.562765680926294 
2075	 0.562811527542537 
2076	 0.562900534644802 
2077	 0.563000145968831 
2078	 0.563097182458223 
2079	 0.563236984405375 
2080	 0.563339763374582 
2081	 0.563421729880224 
2082	 0.563489993665017 
2083	 0.563541630651155 
2084	 0.563588154628009 
2085	 0.563626419297512 
2086	 0.563639815378786 
2087	 0.563680010028495 
2088	 0.563723136319582 
2089	 0.563775019575304 
2090	 0.563838688907147 
2091	 0.563901336630949 
2092	 0.563974772276634 
2093	 0.564038130862303 
2094	 0.564093631902011 
2095	 0.564159563922365 
2096	 0.564230389786725 
2097	 0.564295756251674 
2098	 0.564352658116567 
2099	 0.564431515366501 
2100	 0.564513206744604 
2101	 0.564592732627751 
2102	 0.564678383446697 
2103	 0.564781142083539 
2104	 0.564878907461351 
2105	 0.56495720029559 
2106	 0.565071341417152 
2107	 0.565188154665118 
2108	 0.565348541427254 
2109	 0.56555896470063 
2110	 0.56575750940268 
2111	 0.566005232759892 
2112	 0.566210645355674 
2113	 0.566382326457857 
2114	 0.566562083314097 
2115	 0.566755334703837 
2116	 0.566938845523871 
2117	 0.567139408112295 
2118	 0.567368894727963 
2119	 0.567574449593115 
2120	 0.56775982306586 
2121	 0.567975489028252 
2122	 0.568200929369182 
2123	 0.568427658582188 
2124	 0.568699279345516 
2125	 0.568916161501853 
2126	 0.569110331031244 
2127	 0.569292770282214 
2128	 0.569446726104881 
2129	 0.569587386854154 
2130	 0.56971671592608 
2131	 0.569846521986405 
2132	 0.569917403036166 
2133	 0.569956289097609 
2134	 0.569962902717262 
2135	 0.569929808415291 
2136	 0.569867837781712 
2137	 0.569779233973195 
2138	 0.569653450883454 
2139	 0.569469687568288 
2140	 0.569292257168642 
2141	 0.569097238281247 
2142	 0.568881086721935 
2143	 0.56864526382694 
2144	 0.568404640814169 
2145	 0.568149273836978 
2146	 0.567873493130571 
2147	 0.567599960161709 
2148	 0.567294144471343 
2149	 0.566961585184724 
2150	 0.566605931039145 
2151	 0.566206682504572 
2152	 0.565780720507276 
2153	 0.56531233140904 
2154	 0.564779242917821 
2155	 0.564261564281991 
2156	 0.563726153951105 
2157	 0.563171784421831 
2158	 0.562627225313174 
2159	 0.562025545715657 
2160	 0.561367918128488 
2161	 0.560711988634671 
2162	 0.559998584713972 
2163	 0.559321883312062 
2164	 0.558680390612925 
2165	 0.558005463498166 
2166	 0.55731845533711 
2167	 0.55664704993172 
2168	 0.555921408492469 
2169	 0.555170955365473 
2170	 0.554364623756435 
2171	 0.553521143685316 
2172	 0.552640723088006 
2173	 0.551696744112762 
2174	 0.550745553817605 
2175	 0.549768167593307 
2176	 0.548771782249003 
2177	 0.547752639947219 
2178	 0.546703724299666 
2179	 0.545607094226518 
2180	 0.544524724532216 
2181	 0.543422253354285 
2182	 0.542317656258834 
2183	 0.541199657333625 
2184	 0.540114372107034 
2185	 0.539007641187302 
2186	 0.537875929071197 
2187	 0.536767033537793 
2188	 0.53565474155211 
2189	 0.53457876548848 
2190	 0.53349548976726 
2191	 0.532484647016321 
2192	 0.531499568692526 
2193	 0.530587499872183 
2194	 0.529696294623262 
2195	 0.528929763220467 
2196	 0.528250791074143 
2197	 0.527655040350007 
2198	 0.527179423342152 
2199	 0.526758205740673 
2200	 0.526399305685608 
2201	 0.526123623134386 
2202	 0.525926981726975 
2203	 0.525808625023496 
2204	 0.525770519101858 
2205	 0.525814506585497 
2206	 0.52594263232394 
2207	 0.526153202016561 
2208	 0.526446006499805 
2209	 0.526855991649568 
2210	 0.527279509749134 
2211	 0.527794529256959 
2212	 0.528298041018142 
2213	 0.528844761814228 
2214	 0.52937684761118 
2215	 0.529924425677001 
2216	 0.530469129303356 
2217	 0.53102756874779 
2218	 0.531561693802377 
2219	 0.532114205563867 
2220	 0.532618957664315 
2221	 0.533079402998555 
2222	 0.533539479595794 
2223	 0.533972093530622 
2224	 0.534349320840797 
2225	 0.534677007888786 
2226	 0.534979932122802 
2227	 0.535177499247885 
2228	 0.535285693725514 
2229	 0.535380384061611 
2230	 0.535372921681156 
2231	 0.535434496702669 
2232	 0.535500731272232 
2233	 0.535546553571485 
2234	 0.535609685282792 
2235	 0.535636279872702 
2236	 0.535641467768231 
2237	 0.535622700918114 
2238	 0.535594091235379 
2239	 0.535525286562882 
2240	 0.535407054722238 
2241	 0.5352808443401 
2242	 0.535122741595881 
2243	 0.534961823416726 
2244	 0.534775564315512 
2245	 0.53460780582817 
2246	 0.534430416084582 
2247	 0.534226461789939 
2248	 0.53402464280451 
2249	 0.533831596435516 
2250	 0.533581714719328 
2251	 0.533289248597136 
2252	 0.533030841971561 
2253	 0.532721112269764 
2254	 0.532493747454757 
2255	 0.532310828562997 
2256	 0.532150351385264 
2257	 0.532008377850781 
2258	 0.531924784062022 
2259	 0.531901594213051 
2260	 0.531882593133643 
2261	 0.531898240329804 
2262	 0.531946079254518 
2263	 0.532003146229775 
2264	 0.532104641281139 
2265	 0.532251243382443 
2266	 0.532431370127772 
2267	 0.532661768179415 
2268	 0.532900704701007 
2269	 0.533150724438436 
2270	 0.533469919825286 
2271	 0.533788422334505 
2272	 0.534112653566482 
2273	 0.534509007525954 
2274	 0.534890288747393 
2275	 0.535255780831151 
2276	 0.535621175674197 
2277	 0.535993281499607 
2278	 0.536343608125146 
2279	 0.536716257884645 
2280	 0.537104107238116 
2281	 0.537518710960625 
2282	 0.537956819081464 
2283	 0.538379921565823 
2284	 0.538857748622806 
2285	 0.539250196061368 
2286	 0.539572386858101 
2287	 0.539916296761525 
2288	 0.540212479134817 
2289	 0.540553268098492 
2290	 0.540953887664196 
2291	 0.541295894056556 
2292	 0.541609202470791 
2293	 0.541939248188635 
2294	 0.542242630414992 
2295	 0.54255117706664 
2296	 0.542879644243992 
2297	 0.543213756684773 
2298	 0.543515217628277 
2299	 0.543791431855302 
2300	 0.544061399962864 
2301	 0.544273450105689 
2302	 0.544480577501903 
2303	 0.544679481347131 
2304	 0.544912654735912 
2305	 0.545212982857434 
2306	 0.545431779420065 
2307	 0.54562807561146 
2308	 0.545837123794933 
2309	 0.54601095911252 
2310	 0.546192962237282 
2311	 0.546437569891752 
2312	 0.546569203519651 
2313	 0.54661404235228 
2314	 0.546674983289647 
2315	 0.546662775053248 
2316	 0.546717932487792 
2317	 0.546797850136329 
2318	 0.546889208390232 
2319	 0.547019465519889 
2320	 0.547145331545075 
2321	 0.547266393141474 
2322	 0.547400468818979 
2323	 0.547573509677909 
2324	 0.547690638426828 
2325	 0.547817383792291 
2326	 0.547899520490951 
2327	 0.547939818061708 
2328	 0.547925318951321 
2329	 0.547915168279641 
2330	 0.547904484448285 
2331	 0.547909256944247 
2332	 0.547934877485825 
2333	 0.547956167383387 
2334	 0.547988956123405 
2335	 0.548024198868976 
2336	 0.548073238274624 
2337	 0.548150148873408 
2338	 0.548187437184379 
2339	 0.548181481791346 
2340	 0.548163504129684 
2341	 0.548166621121068 
2342	 0.548164685946906 
2343	 0.548086274565019 
2344	 0.548026322594441 
2345	 0.547968187990123 
2346	 0.547821623451809 
2347	 0.5477734732195 
2348	 0.547802589424204 
2349	 0.547823776481677 
2350	 0.547904554258183 
2351	 0.547928689378096 
2352	 0.547947866543138 
2353	 0.547933219303451 
2354	 0.547798626310056 
2355	 0.547799821102093 
2356	 0.547887115601056 
2357	 0.547959911656712 
2358	 0.548094207886049 
2359	 0.548224889880559 
2360	 0.54836133243683 
2361	 0.548470823990822 
2362	 0.548633441020648 
2363	 0.548686441398141 
2364	 0.548601684128123 
2365	 0.548601407078495 
2366	 0.548614177252032 
2367	 0.548611110237516 
2368	 0.548623335044331 
2369	 0.548659135490244 
2370	 0.54871435469852 
2371	 0.548700321219675 
2372	 0.548661422623664 
2373	 0.548528730133939 
2374	 0.548362753751915 
2375	 0.548133363792284 
2376	 0.547859645514296 
2377	 0.547704958234616 
2378	 0.547491759627 
2379	 0.547225630135486 
2380	 0.547122151965416 
2381	 0.547037180374851 
2382	 0.546861813431173 
2383	 0.546799469867281 
2384	 0.546717096626018 
2385	 0.546543995604433 
2386	 0.546447730469067 
2387	 0.546218528310894 
2388	 0.545986507073375 
2389	 0.545823981316456 
2390	 0.5454994435515 
2391	 0.545295505031578 
2392	 0.545121431345098 
2393	 0.544804254478228 
2394	 0.54461635810319 
2395	 0.544436627252406 
2396	 0.544179081257934 
2397	 0.543933064289876 
2398	 0.543618909571592 
2399	 0.543234938057832 
2400	 0.542933794462694 
2401	 0.542638518680865 
2402	 0.542314895807296 
2403	 0.542069977497141 
2404	 0.541665556520683 
2405	 0.541207219585483 
2406	 0.540808562159176 
2407	 0.540308398723043 
2408	 0.539926966183948 
2409	 0.539632728307745 
2410	 0.539231968966228 
2411	 0.538877590879774 
2412	 0.538495068402708 
2413	 0.53804598380247 
2414	 0.5377231582019 
2415	 0.537420072379752 
2416	 0.537048021489386 
2417	 0.53669019319487 
2418	 0.536189336135456 
2419	 0.535524451671464 
2420	 0.534999195358755 
2421	 0.534390490697064 
2422	 0.533955543293737 
2423	 0.533721319760009 
2424	 0.533386311856758 
2425	 0.533083756356492 
2426	 0.532727112906326 
2427	 0.532303185592902 
2428	 0.531941920038508 
2429	 0.531600683442451 
2430	 0.531265943627922 
2431	 0.530958570197226 
2432	 0.530688217160963 
2433	 0.530453433769439 
2434	 0.530183168263473 
2435	 0.52993411249539 
2436	 0.529592461944296 
2437	 0.529112279027616 
2438	 0.528779683758189 
2439	 0.528545731424823 
2440	 0.528228618750143 
2441	 0.52791042057828 
2442	 0.527654449199477 
2443	 0.52735429617655 
2444	 0.527163967185999 
2445	 0.52712247150689 
2446	 0.527077622397309 
2447	 0.527040579036258 
2448	 0.526912611407505 
2449	 0.526794701608447 
2450	 0.526622989272168 
2451	 0.526402089813723 
2452	 0.526217588899217 
2453	 0.526037205830805 
2454	 0.525865690053943 
2455	 0.525641530060514 
2456	 0.525375796449952 
2457	 0.525094317123869 
2458	 0.52493647190073 
2459	 0.524786276033082 
2460	 0.524697881012847 
2461	 0.524770622577769 
2462	 0.524704850599795 
2463	 0.524612582156192 
2464	 0.524454570740212 
2465	 0.524201360351869 
2466	 0.524059996590034 
2467	 0.523921360613903 
2468	 0.523790135517513 
2469	 0.523681217551936 
2470	 0.5237169717472 
2471	 0.523759450189199 
2472	 0.523717177498438 
2473	 0.523502148038546 
2474	 0.523389809586857 
2475	 0.523240932980882 
2476	 0.523060232631209 
2477	 0.523072418389372 
2478	 0.522839676446053 
2479	 0.522622697756489 
2480	 0.522591878973919 
2481	 0.522625135085335 
2482	 0.522758198467342 
2483	 0.52279386527394 
2484	 0.522891653411591 
2485	 0.522817417553867 
2486	 0.522322072550629 
2487	 0.52201453404038 
2488	 0.521766091985624 
2489	 0.521358101734622 
2490	 0.521372530260553 
2491	 0.521367909657701 
2492	 0.521086355186047 
2493	 0.52092023897513 
2494	 0.520670841364753 
2495	 0.520540196711272 
2496	 0.52064572107941 
2497	 0.520689497862 
2498	 0.520779565314206 
2499	 0.520724792270789 
2500	 0.520283362336874 
