Wavelength	LMW400001.asd
350	 0.126729639558645 
351	 0.128538966421469 
352	 0.126320159979327 
353	 0.123162503124738 
354	 0.126847543674135 
355	 0.127455696167803 
356	 0.12334146391533 
357	 0.118841223905316 
358	 0.132822874212547 
359	 0.132343463819024 
360	 0.122389548345306 
361	 0.12981299546968 
362	 0.129175671356104 
363	 0.128088002916462 
364	 0.130558130519382 
365	 0.128532496521178 
366	 0.129051670698554 
367	 0.129691040958258 
368	 0.128327118441991 
369	 0.135014255885356 
370	 0.137260746190613 
371	 0.135145269702282 
372	 0.137167925421357 
373	 0.139462568730578 
374	 0.139123367061567 
375	 0.136743734198219 
376	 0.138721194715606 
377	 0.139272841580581 
378	 0.139993073421735 
379	 0.142933299391673 
380	 0.142634858487151 
381	 0.142264138270252 
382	 0.14413481102498 
383	 0.148953296279013 
384	 0.148918888248981 
385	 0.148356585712792 
386	 0.15005301303255 
387	 0.150477420518119 
388	 0.150522146967242 
389	 0.150321809373524 
390	 0.15042395875071 
391	 0.154342229274319 
392	 0.156530867862858 
393	 0.156219072492291 
394	 0.156965395233728 
395	 0.158444112100008 
396	 0.160571624828222 
397	 0.162627928162647 
398	 0.162617528593991 
399	 0.161877374425025 
400	 0.162102002365244 
401	 0.164274827140506 
402	 0.164871444903886 
403	 0.165642018799584 
404	 0.166494389037483 
405	 0.165313566336971 
406	 0.166427796624316 
407	 0.168317855690221 
408	 0.169026660803526 
409	 0.168407950046496 
410	 0.168485871662281 
411	 0.169301803932916 
412	 0.169942090846879 
413	 0.170264487086494 
414	 0.17062707786251 
415	 0.17106386750744 
416	 0.171125877041446 
417	 0.17140376977194 
418	 0.171961200047097 
419	 0.1726238063681 
420	 0.172900467667079 
421	 0.173383271380206 
422	 0.173823146418127 
423	 0.173601839993581 
424	 0.174644389272591 
425	 0.174854104532171 
426	 0.173791786350617 
427	 0.174979387980453 
428	 0.175405091942414 
429	 0.175346798218412 
430	 0.175810306085023 
431	 0.175870684711251 
432	 0.176097270450376 
433	 0.176503374564052 
434	 0.176542298654362 
435	 0.176906646331906 
436	 0.177368329035443 
437	 0.177562263019634 
438	 0.177102860021642 
439	 0.177521797917026 
440	 0.178371961500272 
441	 0.178408608369018 
442	 0.178842592556275 
443	 0.179238078833909 
444	 0.179313144540151 
445	 0.179228826749548 
446	 0.17945113542376 
447	 0.1798392894689 
448	 0.180124466442758 
449	 0.180350294246347 
450	 0.180784276658614 
451	 0.181305857083233 
452	 0.181490912048386 
453	 0.181687841400341 
454	 0.181745296006556 
455	 0.181688981709397 
456	 0.182217644482677 
457	 0.182632798399365 
458	 0.182893527902315 
459	 0.183207239619044 
460	 0.183233527312108 
461	 0.183271781887872 
462	 0.183433889491551 
463	 0.183488631940734 
464	 0.183726719002549 
465	 0.184100643474563 
466	 0.184418683081318 
467	 0.184291651533561 
468	 0.18442381450528 
469	 0.184847002441717 
470	 0.18503967124147 
471	 0.185075461303963 
472	 0.185098954795942 
473	 0.185229437907369 
474	 0.185518568365234 
475	 0.185590581354033 
476	 0.185643587781068 
477	 0.186034699285451 
478	 0.186241635750458 
479	 0.186393103690415 
480	 0.186571217854556 
481	 0.186709364384729 
482	 0.186959118382042 
483	 0.187171007063566 
484	 0.187207381572515 
485	 0.187326055083482 
486	 0.187432101620708 
487	 0.187563579227458 
488	 0.187846536018838 
489	 0.187824991374158 
490	 0.18784297764198 
491	 0.188135954105654 
492	 0.188357586838942 
493	 0.188356581735112 
494	 0.188302407357079 
495	 0.188477047654726 
496	 0.188639826533578 
497	 0.18879353594439 
498	 0.188961907007835 
499	 0.189172510780766 
500	 0.189212717182962 
501	 0.189238768529809 
502	 0.189430986575015 
503	 0.18955478703827 
504	 0.189696146967454 
505	 0.18986916743958 
506	 0.19001229178421 
507	 0.190054183485829 
508	 0.190108607267396 
509	 0.190234205436172 
510	 0.190224417634008 
511	 0.190354685558505 
512	 0.190566557123106 
513	 0.190640909043584 
514	 0.190655741354663 
515	 0.190712232202065 
516	 0.190859404916883 
517	 0.191069994554967 
518	 0.191166242011913 
519	 0.191186848521672 
520	 0.191245836418382 
521	 0.191411926345169 
522	 0.191533977619042 
523	 0.191580681331203 
524	 0.191657739170373 
525	 0.191789354376322 
526	 0.191872796389805 
527	 0.191857153713193 
528	 0.191950364652346 
529	 0.192024652372793 
530	 0.192065544463842 
531	 0.192134693193282 
532	 0.192245121229687 
533	 0.192389508364688 
534	 0.192531737402558 
535	 0.192574827928422 
536	 0.19264372423766 
537	 0.192751442219789 
538	 0.192863546392999 
539	 0.192959510931723 
540	 0.193024788542863 
541	 0.193075518026643 
542	 0.193166203062888 
543	 0.193233687971345 
544	 0.193340743264652 
545	 0.193512142749269 
546	 0.193476777228135 
547	 0.193480244040016 
548	 0.193582098711309 
549	 0.193674177241629 
550	 0.193801668201718 
551	 0.193933693959517 
552	 0.194047704930964 
553	 0.194180130832035 
554	 0.194261332294835 
555	 0.194325237606731 
556	 0.194451298372069 
557	 0.194591769156344 
558	 0.194705626355719 
559	 0.194788783868226 
560	 0.194901795316608 
561	 0.194980215831682 
562	 0.195012922305641 
563	 0.195034453973835 
564	 0.195215069372293 
565	 0.19536496152311 
566	 0.195419807712865 
567	 0.19547968786026 
568	 0.195639591356785 
569	 0.195868049555665 
570	 0.196096650159536 
571	 0.196273914868772 
572	 0.196348604492761 
573	 0.196407802997699 
574	 0.196608794506442 
575	 0.196641366751298 
576	 0.19671346689139 
577	 0.196930019943545 
578	 0.196993158247265 
579	 0.197023729211925 
580	 0.197097531163948 
581	 0.19726269859333 
582	 0.197453245823619 
583	 0.197690372484395 
584	 0.197924887281954 
585	 0.197996607786814 
586	 0.198046509447619 
587	 0.198118142066469 
588	 0.198216283175815 
589	 0.198308276830924 
590	 0.19840469806176 
591	 0.198503664923908 
592	 0.198593470762279 
593	 0.198735559879955 
594	 0.198839229321071 
595	 0.19886971716028 
596	 0.199016832160234 
597	 0.199213056110492 
598	 0.199405532619393 
599	 0.199552474714456 
600	 0.199664664488535 
601	 0.199767217118073 
602	 0.199865590738124 
603	 0.199930703133762 
604	 0.199913745280449 
605	 0.199934033228877 
606	 0.200108076098438 
607	 0.200184547868827 
608	 0.200240220885194 
609	 0.200343791239868 
610	 0.200529821187581 
611	 0.200700494072319 
612	 0.200836851496246 
613	 0.200941869241261 
614	 0.201011775197143 
615	 0.201103577480974 
616	 0.201230407763172 
617	 0.201367103893299 
618	 0.201449144261135 
619	 0.20149170110346 
620	 0.201527605836254 
621	 0.201599854819166 
622	 0.201662519724323 
623	 0.201722407149834 
624	 0.201800725947147 
625	 0.201861247461687 
626	 0.201949573728322 
627	 0.202059384029598 
628	 0.202108165309167 
629	 0.202200766321658 
630	 0.202276763752438 
631	 0.202282919018352 
632	 0.202380034557503 
633	 0.202435313594448 
634	 0.202449220018011 
635	 0.202529959624539 
636	 0.202610834374708 
637	 0.202682134640045 
638	 0.202740424399084 
639	 0.202770699643622 
640	 0.202801284445606 
641	 0.202881357181276 
642	 0.203035188424541 
643	 0.203036097012307 
644	 0.203039394137737 
645	 0.203127358533025 
646	 0.203224665607018 
647	 0.203271824850552 
648	 0.203305841398796 
649	 0.203372804628961 
650	 0.203410918029951 
651	 0.203463691546033 
652	 0.203528680873868 
653	 0.203565626680124 
654	 0.203645856434006 
655	 0.2036921202493 
656	 0.20367394212857 
657	 0.203742087106294 
658	 0.20384125558245 
659	 0.203923937736012 
660	 0.203953413987121 
661	 0.203966029321229 
662	 0.204042317457641 
663	 0.204177446785144 
664	 0.204241278650358 
665	 0.204257131428942 
666	 0.20427686919635 
667	 0.204335978293544 
668	 0.204349626632131 
669	 0.204390373077246 
670	 0.204475495990502 
671	 0.204568639964358 
672	 0.204599273538358 
673	 0.20464559005235 
674	 0.204744980203541 
675	 0.20477176103457 
676	 0.204813933189122 
677	 0.204851408008821 
678	 0.204840760839391 
679	 0.204914195729803 
680	 0.204971061041267 
681	 0.205006866161013 
682	 0.205168261206593 
683	 0.205203674041536 
684	 0.205205596417491 
685	 0.205296672530109 
686	 0.205360071479455 
687	 0.205428055529581 
688	 0.205494533576409 
689	 0.205529813023537 
690	 0.205575414486058 
691	 0.205591198776697 
692	 0.205586465787635 
693	 0.205701449423264 
694	 0.205760534148454 
695	 0.205778141695167 
696	 0.2058223827387 
697	 0.205835424889176 
698	 0.205877156067106 
699	 0.205969765721658 
700	 0.206086417447013 
701	 0.206124365672462 
702	 0.206151203385805 
703	 0.206221268609034 
704	 0.206240419379802 
705	 0.206242222113969 
706	 0.20626675300565 
707	 0.206339044847297 
708	 0.206321565784039 
709	 0.20635003309914 
710	 0.206455924327285 
711	 0.206480770768928 
712	 0.206501609779915 
713	 0.206527486325634 
714	 0.206562530994062 
715	 0.206663415801055 
716	 0.206737587236844 
717	 0.206758370602267 
718	 0.206755287113688 
719	 0.206778336859433 
720	 0.206802714044367 
721	 0.206817473955992 
722	 0.206862301639606 
723	 0.206916902967859 
724	 0.206963187992155 
725	 0.2069872535696 
726	 0.206991244686358 
727	 0.207013976372235 
728	 0.207048822419256 
729	 0.20705091088212 
730	 0.20711809116394 
731	 0.207149235019374 
732	 0.20710019265046 
733	 0.207150124186548 
734	 0.207191529774711 
735	 0.207197263863757 
736	 0.207185670706016 
737	 0.207243666138039 
738	 0.207313092226577 
739	 0.207340949480642 
740	 0.207297438572634 
741	 0.207299201757668 
742	 0.207345806968378 
743	 0.207394471640807 
744	 0.207362630934904 
745	 0.207336221674459 
746	 0.207347224049101 
747	 0.207389572487259 
748	 0.207396308303207 
749	 0.207410197078777 
750	 0.207440242741365 
751	 0.207443303300319 
752	 0.207432389546089 
753	 0.207427782665823 
754	 0.20744046283629 
755	 0.207443116895572 
756	 0.207503974963736 
757	 0.207548436453473 
758	 0.207465180072728 
759	 0.207454631745378 
760	 0.207448415904507 
761	 0.207421525653302 
762	 0.207434051215342 
763	 0.207473888388932 
764	 0.207476453803652 
765	 0.207420204164141 
766	 0.207447675511273 
767	 0.207453824073892 
768	 0.207435152721675 
769	 0.207438024629134 
770	 0.207468882724378 
771	 0.207473363379834 
772	 0.207441607524127 
773	 0.207423089466529 
774	 0.207428970476175 
775	 0.207438983090437 
776	 0.207429616391336 
777	 0.207384866038175 
778	 0.207391401395552 
779	 0.207419129257651 
780	 0.207396311669945 
781	 0.207366062614738 
782	 0.207385919770048 
783	 0.2074226338779 
784	 0.207356453049606 
785	 0.207352324328093 
786	 0.207391779791764 
787	 0.207418251429401 
788	 0.207369354947385 
789	 0.207348191946504 
790	 0.207354687639829 
791	 0.207356201805086 
792	 0.207382878518544 
793	 0.207378650943024 
794	 0.207341283727227 
795	 0.207319105621991 
796	 0.207332462354181 
797	 0.20734422308432 
798	 0.207327340065208 
799	 0.20728919049809 
800	 0.207283235093942 
801	 0.207316117425757 
802	 0.20735653622184 
803	 0.207291687994085 
804	 0.207299441598982 
805	 0.207358976201068 
806	 0.207338267830533 
807	 0.207363859355387 
808	 0.207337881243643 
809	 0.207269014705614 
810	 0.207326692240178 
811	 0.207356978520146 
812	 0.207342158318887 
813	 0.207316483858991 
814	 0.207371971687824 
815	 0.207379807357856 
816	 0.207321006555429 
817	 0.20724508098303 
818	 0.207275360254806 
819	 0.207341534549424 
820	 0.20738593802793 
821	 0.207378477430874 
822	 0.207338050662442 
823	 0.207341408148102 
824	 0.207388963585291 
825	 0.207345194293792 
826	 0.207324315386391 
827	 0.207350460235585 
828	 0.207398839049853 
829	 0.207375564082019 
830	 0.20733944136703 
831	 0.207320873184193 
832	 0.207330848538102 
833	 0.207355493138177 
834	 0.207404145112772 
835	 0.207447415420703 
836	 0.207426122525712 
837	 0.207385066753877 
838	 0.207382559945239 
839	 0.207423547333417 
840	 0.207420816979537 
841	 0.207445275007525 
842	 0.207435252008646 
843	 0.207358220668238 
844	 0.207380238813492 
845	 0.207442037846567 
846	 0.20747542024999 
847	 0.207436032216671 
848	 0.207434111547616 
849	 0.207461991297224 
850	 0.207495031790281 
851	 0.207500841269395 
852	 0.207455451924822 
853	 0.207422816735303 
854	 0.207445780898916 
855	 0.207515526405054 
856	 0.207571132292377 
857	 0.207598284696864 
858	 0.207586565405546 
859	 0.207483004709805 
860	 0.20749975877884 
861	 0.207594872477752 
862	 0.20764456845744 
863	 0.207634243110921 
864	 0.207627385875164 
865	 0.20764363270338 
866	 0.207666259177592 
867	 0.207653688378779 
868	 0.207665862180873 
869	 0.20769662529384 
870	 0.207672559501004 
871	 0.207679365161245 
872	 0.20769612673069 
873	 0.207710473442736 
874	 0.207751514562435 
875	 0.20781425060744 
876	 0.2078274103067 
877	 0.207771530712897 
878	 0.207800414607725 
879	 0.207843083481624 
880	 0.207846014696549 
881	 0.207797875923889 
882	 0.207832522964172 
883	 0.207865487275125 
884	 0.207878911031103 
885	 0.207897799496873 
886	 0.207941083652639 
887	 0.207987225462138 
888	 0.208006375435013 
889	 0.207976765724502 
890	 0.207975722677555 
891	 0.208013934691701 
892	 0.208088458149667 
893	 0.2081845338859 
894	 0.208123955179706 
895	 0.20805601842925 
896	 0.208097657270641 
897	 0.208186015181272 
898	 0.208188982446677 
899	 0.208147149331658 
900	 0.208131979810525 
901	 0.208150218501623 
902	 0.208228867183877 
903	 0.208314329006436 
904	 0.208342985283449 
905	 0.208322724444095 
906	 0.208354420102788 
907	 0.208405943282348 
908	 0.208407413146017 
909	 0.208469359185074 
910	 0.208491065415073 
911	 0.208480799309674 
912	 0.208514012377946 
913	 0.208552090945385 
914	 0.20853994375428 
915	 0.2085354764325 
916	 0.208659848813335 
917	 0.208647030259103 
918	 0.208655436209227 
919	 0.208744438859611 
920	 0.208795901633776 
921	 0.20875119719982 
922	 0.20874825178178 
923	 0.208831776692134 
924	 0.208863702201034 
925	 0.208871609149363 
926	 0.208925379753592 
927	 0.209027662141936 
928	 0.209042731339948 
929	 0.209213981220517 
930	 0.209321335858535 
931	 0.209224182120281 
932	 0.209231408710843 
933	 0.209296479635342 
934	 0.209325057698764 
935	 0.209272924507423 
936	 0.209295987857494 
937	 0.209280740434253 
938	 0.209277168936471 
939	 0.209361218795777 
940	 0.209514932723648 
941	 0.209588529797894 
942	 0.209643607422006 
943	 0.209755946572413 
944	 0.20967980217011 
945	 0.209685354863467 
946	 0.209784170242091 
947	 0.209858327623553 
948	 0.209836112954747 
949	 0.209854870701011 
950	 0.209859572191576 
951	 0.209772308946234 
952	 0.209923530544158 
953	 0.210132199018455 
954	 0.210219743010593 
955	 0.210116174021982 
956	 0.21017384792159 
957	 0.210212222501069 
958	 0.210211641586987 
959	 0.210255115119913 
960	 0.21029380550875 
961	 0.210401297663238 
962	 0.210464250772196 
963	 0.210334212637264 
964	 0.210381539078275 
965	 0.210552651935912 
966	 0.210707016918127 
967	 0.210707212649885 
968	 0.210643251740393 
969	 0.2107045793611 
970	 0.210833854868405 
971	 0.210847560145088 
972	 0.210925481140991 
973	 0.211044349430156 
974	 0.211110265020403 
975	 0.211056622019341 
976	 0.211195754749226 
977	 0.211198550324349 
978	 0.2111133110904 
979	 0.211203396347647 
980	 0.211298057482435 
981	 0.211236357091795 
982	 0.211174047786653 
983	 0.2113734887136 
984	 0.211573227998371 
985	 0.211724096367001 
986	 0.21172093901267 
987	 0.211535020568139 
988	 0.211605629119819 
989	 0.211730752872865 
990	 0.21175264555563 
991	 0.211659232150681 
992	 0.211861482833872 
993	 0.211925889025563 
994	 0.211888525380795 
995	 0.211975161941193 
996	 0.212167919327436 
997	 0.21218534290614 
998	 0.212104527316408 
999	 0.212130646164935 
1000	 0.212338496394365 
1001	 0.213627441842936 
1002	 0.213633631955018 
1003	 0.213616750019603 
1004	 0.213638064301741 
1005	 0.213622636575976 
1006	 0.213669967067606 
1007	 0.213794992628574 
1008	 0.213901626883488 
1009	 0.21391729100947 
1010	 0.213925049943117 
1011	 0.213908439197563 
1012	 0.213900152563109 
1013	 0.213954178781608 
1014	 0.213979218237681 
1015	 0.213992673423776 
1016	 0.214010536805392 
1017	 0.214044691104468 
1018	 0.214083682271281 
1019	 0.214145199853493 
1020	 0.214192876099903 
1021	 0.214229203112259 
1022	 0.214261258603015 
1023	 0.214285471491681 
1024	 0.214289912816842 
1025	 0.214321030575311 
1026	 0.21436504475184 
1027	 0.214322237499614 
1028	 0.214293652034204 
1029	 0.214318228852141 
1030	 0.214303406439254 
1031	 0.214302124570218 
1032	 0.214329602269211 
1033	 0.214375075097243 
1034	 0.214412328757701 
1035	 0.214452263658886 
1036	 0.21447611291015 
1037	 0.214516868939823 
1038	 0.214543215129308 
1039	 0.214551944273215 
1040	 0.21460298714764 
1041	 0.214674135032687 
1042	 0.214704126973436 
1043	 0.214745087725907 
1044	 0.214795864279674 
1045	 0.214871148379746 
1046	 0.214883726497908 
1047	 0.214891218449306 
1048	 0.214904455235783 
1049	 0.21485657530466 
1050	 0.214877203607804 
1051	 0.214937506047726 
1052	 0.214974754575895 
1053	 0.21507007905777 
1054	 0.215140186797596 
1055	 0.215152743698222 
1056	 0.215197735522569 
1057	 0.215247016982281 
1058	 0.215292439775515 
1059	 0.215318374115209 
1060	 0.215366114276322 
1061	 0.21536537500983 
1062	 0.215339721366866 
1063	 0.215363411394978 
1064	 0.215399951548155 
1065	 0.215417033962319 
1066	 0.215480544565906 
1067	 0.215497300881161 
1068	 0.215498276047483 
1069	 0.215564260092695 
1070	 0.215594109745054 
1071	 0.215614740260643 
1072	 0.215616310493486 
1073	 0.215584379779718 
1074	 0.215578621609503 
1075	 0.215575472638736 
1076	 0.215552263335729 
1077	 0.215567117966068 
1078	 0.215585801816518 
1079	 0.215577947667572 
1080	 0.215553760884172 
1081	 0.215544970245687 
1082	 0.215549460844092 
1083	 0.215525943214296 
1084	 0.215494299790895 
1085	 0.215480066446817 
1086	 0.21543135001963 
1087	 0.21542074700372 
1088	 0.21546488313831 
1089	 0.215456426506192 
1090	 0.215416433659126 
1091	 0.215416941152204 
1092	 0.215388146866088 
1093	 0.215393774566306 
1094	 0.215387593792065 
1095	 0.215342322218102 
1096	 0.215342441857134 
1097	 0.215298086812493 
1098	 0.215301283078535 
1099	 0.215384347923122 
1100	 0.215404345191781 
1101	 0.21539930220642 
1102	 0.215412577893457 
1103	 0.215429477054938 
1104	 0.215387816954363 
1105	 0.215413255212039 
1106	 0.215449809668719 
1107	 0.215453144009616 
1108	 0.215476923331591 
1109	 0.215501259899088 
1110	 0.215510043312672 
1111	 0.21553786723439 
1112	 0.215584090423049 
1113	 0.215619012241173 
1114	 0.215666808889397 
1115	 0.215699292710417 
1116	 0.215712533575469 
1117	 0.215746396181954 
1118	 0.215788466783418 
1119	 0.215804487129965 
1120	 0.215867515334085 
1121	 0.215950395152053 
1122	 0.216022295633781 
1123	 0.216072822012371 
1124	 0.216122745323837 
1125	 0.216148678961082 
1126	 0.216205556966296 
1127	 0.216281430316228 
1128	 0.216339840866673 
1129	 0.216408897737156 
1130	 0.216453487186902 
1131	 0.216467139207339 
1132	 0.216503409918769 
1133	 0.216547841284078 
1134	 0.216584992123629 
1135	 0.216630308415951 
1136	 0.216665448891463 
1137	 0.216691467195488 
1138	 0.216709248545672 
1139	 0.216735922577908 
1140	 0.216760670843354 
1141	 0.216797492286892 
1142	 0.216840754580421 
1143	 0.216882753870725 
1144	 0.216943433497858 
1145	 0.216979850868113 
1146	 0.217003276538576 
1147	 0.217030633479525 
1148	 0.217047064306617 
1149	 0.217066894802741 
1150	 0.217096129471989 
1151	 0.217110116882282 
1152	 0.217130375565178 
1153	 0.217146485779843 
1154	 0.217156703405085 
1155	 0.217157455466119 
1156	 0.217176272964065 
1157	 0.217196401840754 
1158	 0.217217238228405 
1159	 0.217256027817528 
1160	 0.217279068192033 
1161	 0.217294841241589 
1162	 0.21730665349167 
1163	 0.217309319825681 
1164	 0.217318646403954 
1165	 0.217327246134825 
1166	 0.217333010705302 
1167	 0.217351305624677 
1168	 0.217351792820734 
1169	 0.217361969382621 
1170	 0.217378469176189 
1171	 0.217378074156984 
1172	 0.217371690932095 
1173	 0.217367516761636 
1174	 0.21733912831276 
1175	 0.217340923443095 
1176	 0.217361896010462 
1177	 0.217378537677403 
1178	 0.217419341710654 
1179	 0.217436448795244 
1180	 0.217436373604244 
1181	 0.217444089440205 
1182	 0.217455155580813 
1183	 0.217443525886828 
1184	 0.217447519939379 
1185	 0.217463409691539 
1186	 0.217462137306078 
1187	 0.21744695066245 
1188	 0.217450970050408 
1189	 0.217453720291609 
1190	 0.217463785929716 
1191	 0.217492364081633 
1192	 0.217510442820581 
1193	 0.217531177713091 
1194	 0.217540346041821 
1195	 0.217534572457725 
1196	 0.217541880593268 
1197	 0.217554024625348 
1198	 0.217557845932662 
1199	 0.217561144194694 
1200	 0.217568713049349 
1201	 0.217580461064269 
1202	 0.217585521345854 
1203	 0.217595471893224 
1204	 0.217617501902761 
1205	 0.217635154483745 
1206	 0.21765137295194 
1207	 0.217660100059144 
1208	 0.217667260418072 
1209	 0.217677544731182 
1210	 0.217676381432342 
1211	 0.217684037028162 
1212	 0.217706903456718 
1213	 0.217720982166051 
1214	 0.217729934100664 
1215	 0.217740173090219 
1216	 0.217749707362725 
1217	 0.217757350241242 
1218	 0.217765897168563 
1219	 0.217778488602089 
1220	 0.217781199076544 
1221	 0.21778009996298 
1222	 0.217776839214579 
1223	 0.217759053914332 
1224	 0.217758311234852 
1225	 0.21776883030095 
1226	 0.217770890448809 
1227	 0.217777968395692 
1228	 0.21778211122013 
1229	 0.217771181733966 
1230	 0.217774152567156 
1231	 0.217793991322761 
1232	 0.2178027029378 
1233	 0.2178095842773 
1234	 0.217817801532549 
1235	 0.217825965351776 
1236	 0.217822304849389 
1237	 0.217836282384015 
1238	 0.217871758017326 
1239	 0.217881913465246 
1240	 0.21788600190575 
1241	 0.217890267992752 
1242	 0.217889380029987 
1243	 0.21787567297896 
1244	 0.217847807209874 
1245	 0.217834676966442 
1246	 0.21781015556933 
1247	 0.217796028124638 
1248	 0.217791408977563 
1249	 0.217810010925436 
1250	 0.217809281336127 
1251	 0.217793774789444 
1252	 0.217778859664886 
1253	 0.217747572039916 
1254	 0.217745382670089 
1255	 0.217752992108854 
1256	 0.217757611345879 
1257	 0.217787372685907 
1258	 0.217793046826717 
1259	 0.21777930320013 
1260	 0.217773062479392 
1261	 0.217761747324641 
1262	 0.217756568494984 
1263	 0.217761885265727 
1264	 0.217754892766356 
1265	 0.217740877037443 
1266	 0.217729117941086 
1267	 0.217705375263903 
1268	 0.217693682254665 
1269	 0.217676178291419 
1270	 0.217659221008309 
1271	 0.217653180546108 
1272	 0.217644488167093 
1273	 0.21764464909844 
1274	 0.217649991577555 
1275	 0.2176767370015 
1276	 0.217723705689022 
1277	 0.21775800899193 
1278	 0.217806013619084 
1279	 0.217849611409901 
1280	 0.217876172690221 
1281	 0.217915853403081 
1282	 0.217972559629623 
1283	 0.218023758488979 
1284	 0.218080870542286 
1285	 0.218128336498968 
1286	 0.218158578321096 
1287	 0.218185930799417 
1288	 0.218198490351529 
1289	 0.218182563438877 
1290	 0.218188970690596 
1291	 0.218200608612467 
1292	 0.218204079861149 
1293	 0.218222664555953 
1294	 0.218206162046121 
1295	 0.218166156212976 
1296	 0.218132372869618 
1297	 0.218064470651842 
1298	 0.218032518440304 
1299	 0.218031619408911 
1300	 0.218005561355875 
1301	 0.217991931235856 
1302	 0.21796015181579 
1303	 0.217908289891978 
1304	 0.217844662571674 
1305	 0.217800708388518 
1306	 0.217746950806458 
1307	 0.21766928021969 
1308	 0.217593261989905 
1309	 0.217524833673595 
1310	 0.217439918870952 
1311	 0.217378423826123 
1312	 0.217345606530515 
1313	 0.217291168495352 
1314	 0.217232825040219 
1315	 0.217171882351194 
1316	 0.217090456397819 
1317	 0.217041430373459 
1318	 0.217011945347902 
1319	 0.216971558508903 
1320	 0.216938869700917 
1321	 0.216916221848806 
1322	 0.216896477998715 
1323	 0.216864458288795 
1324	 0.216864916456664 
1325	 0.2168707789 
1326	 0.216843851133249 
1327	 0.216838044552169 
1328	 0.216824733225374 
1329	 0.216777247877197 
1330	 0.216760746225954 
1331	 0.216746024272451 
1332	 0.21675268403958 
1333	 0.21677877330227 
1334	 0.216804076742214 
1335	 0.216844795953563 
1336	 0.216872758124183 
1337	 0.216903022966142 
1338	 0.216929701388756 
1339	 0.216950328435172 
1340	 0.21697320224853 
1341	 0.216990296379028 
1342	 0.217012732046848 
1343	 0.217039366611757 
1344	 0.217066121300489 
1345	 0.21708983314643 
1346	 0.217117536485474 
1347	 0.217143236590228 
1348	 0.21718161278489 
1349	 0.217213556747157 
1350	 0.217224033799412 
1351	 0.217242315711088 
1352	 0.217249389131869 
1353	 0.217267804492214 
1354	 0.217296801858178 
1355	 0.217321522388416 
1356	 0.217353048340422 
1357	 0.217363350982336 
1358	 0.217357632682419 
1359	 0.217364979628613 
1360	 0.217359738968804 
1361	 0.217370892786693 
1362	 0.217392515358821 
1363	 0.21742099366073 
1364	 0.217468475401663 
1365	 0.21750101056573 
1366	 0.217541720799247 
1367	 0.217570965834676 
1368	 0.21756770528523 
1369	 0.217565177943932 
1370	 0.217561744360127 
1371	 0.21756423990892 
1372	 0.217573214788915 
1373	 0.217566719906528 
1374	 0.217552723927369 
1375	 0.217534161448055 
1376	 0.217492305908695 
1377	 0.217436471775507 
1378	 0.217373264751046 
1379	 0.217282742431967 
1380	 0.217208839176636 
1381	 0.217135045316734 
1382	 0.217059658020197 
1383	 0.216992355460082 
1384	 0.216914553381657 
1385	 0.216851070410819 
1386	 0.216750418676309 
1387	 0.216626817003414 
1388	 0.216492633798312 
1389	 0.2163416739663 
1390	 0.216161234852994 
1391	 0.21597067139146 
1392	 0.215794147628312 
1393	 0.21559260768046 
1394	 0.215385799661842 
1395	 0.215176100792429 
1396	 0.214942327653085 
1397	 0.214711464772485 
1398	 0.214462398381444 
1399	 0.214231559058313 
1400	 0.214009893962783 
1401	 0.213780256150589 
1402	 0.213549424849132 
1403	 0.213319577006146 
1404	 0.213072277363238 
1405	 0.212861119005504 
1406	 0.21266694580479 
1407	 0.212481859994187 
1408	 0.212309764346347 
1409	 0.212155265788386 
1410	 0.212012192942431 
1411	 0.211884525092931 
1412	 0.211775062163601 
1413	 0.211684185586042 
1414	 0.211603659500088 
1415	 0.211522456212393 
1416	 0.21146233015039 
1417	 0.211413991795925 
1418	 0.211368265545923 
1419	 0.211314392451577 
1420	 0.211252210697247 
1421	 0.211194530624402 
1422	 0.21112273656673 
1423	 0.211058982378448 
1424	 0.211010472168682 
1425	 0.210976439379854 
1426	 0.210931379024262 
1427	 0.210887976777382 
1428	 0.210855245540784 
1429	 0.210816350024494 
1430	 0.210793533632224 
1431	 0.21079584130413 
1432	 0.210788257600648 
1433	 0.210772144807969 
1434	 0.210771903685216 
1435	 0.210784088935862 
1436	 0.210790919056742 
1437	 0.210801099241029 
1438	 0.210816339808006 
1439	 0.21083490061859 
1440	 0.21085162337776 
1441	 0.210852930969768 
1442	 0.210869763107315 
1443	 0.210876436441727 
1444	 0.210861163130997 
1445	 0.210866484699358 
1446	 0.2108743693968 
1447	 0.210868354672777 
1448	 0.210860783983936 
1449	 0.21085233762602 
1450	 0.210847369139486 
1451	 0.210847055509786 
1452	 0.210850106763661 
1453	 0.210858927262908 
1454	 0.210873964693922 
1455	 0.210882337742091 
1456	 0.210895944453115 
1457	 0.21090492829558 
1458	 0.210903209284819 
1459	 0.210913246052558 
1460	 0.210927148780364 
1461	 0.210941991847774 
1462	 0.210967656442574 
1463	 0.210984764675222 
1464	 0.210995602876736 
1465	 0.211010800225247 
1466	 0.211028747800972 
1467	 0.211042051324404 
1468	 0.211057586914996 
1469	 0.21106678292556 
1470	 0.21107112497439 
1471	 0.211066040361213 
1472	 0.211060399681222 
1473	 0.211057326221413 
1474	 0.211043907903427 
1475	 0.21105336155499 
1476	 0.211085004632289 
1477	 0.211115232533691 
1478	 0.211188218873828 
1479	 0.211275437051934 
1480	 0.211348010963483 
1481	 0.211446557655459 
1482	 0.211537612095311 
1483	 0.211618687176131 
1484	 0.211717131842139 
1485	 0.211835939447247 
1486	 0.211936270369518 
1487	 0.212039133864915 
1488	 0.212128308007621 
1489	 0.212204432281527 
1490	 0.212282246054678 
1491	 0.21235458946964 
1492	 0.212429770385093 
1493	 0.212500851478336 
1494	 0.212574815242151 
1495	 0.212649607747851 
1496	 0.212725837562446 
1497	 0.212810504768988 
1498	 0.212881006246216 
1499	 0.21294782359032 
1500	 0.213007632227777 
1501	 0.21305451672917 
1502	 0.213105063118693 
1503	 0.213151856775863 
1504	 0.213200703889619 
1505	 0.213251557167573 
1506	 0.213301220090276 
1507	 0.21335449011444 
1508	 0.213404847262699 
1509	 0.213450634403508 
1510	 0.213484619353497 
1511	 0.213523956600667 
1512	 0.213575259466531 
1513	 0.213625368745021 
1514	 0.213686679609815 
1515	 0.2137489802331 
1516	 0.213794141478033 
1517	 0.213837006047272 
1518	 0.213876939102247 
1519	 0.213910952315739 
1520	 0.213929184444544 
1521	 0.213968572223442 
1522	 0.214015978224894 
1523	 0.214059209170594 
1524	 0.214116323330664 
1525	 0.214152999895759 
1526	 0.214171853598536 
1527	 0.21420194877713 
1528	 0.21423005508298 
1529	 0.21425942872123 
1530	 0.214291023711856 
1531	 0.214327005061506 
1532	 0.214363817716122 
1533	 0.214399576870243 
1534	 0.21444396206718 
1535	 0.214484044941832 
1536	 0.214522496871024 
1537	 0.214552471871296 
1538	 0.214580500472852 
1539	 0.214600168337803 
1540	 0.214601212952851 
1541	 0.214617024836533 
1542	 0.214641296807512 
1543	 0.214655588071877 
1544	 0.214671683699454 
1545	 0.214685779646081 
1546	 0.214684535315757 
1547	 0.214698002232556 
1548	 0.214719823333617 
1549	 0.214737487755498 
1550	 0.214764996008138 
1551	 0.214787804368924 
1552	 0.214803477567024 
1553	 0.214809427014068 
1554	 0.214815635491352 
1555	 0.214834097696926 
1556	 0.214858024439734 
1557	 0.214897376603933 
1558	 0.214932417873506 
1559	 0.214942515274458 
1560	 0.214945227958986 
1561	 0.214928469622714 
1562	 0.2149274852325 
1563	 0.214912419751674 
1564	 0.214930621237504 
1565	 0.214970645443831 
1566	 0.215004341652597 
1567	 0.215055883876502 
1568	 0.215091394399053 
1569	 0.21512505082262 
1570	 0.215146315231686 
1571	 0.215160083304783 
1572	 0.215172077559031 
1573	 0.21517827626997 
1574	 0.215175740826535 
1575	 0.215155190228706 
1576	 0.215155267988125 
1577	 0.215156528483837 
1578	 0.215156842974382 
1579	 0.215179027434015 
1580	 0.215185240465041 
1581	 0.2151834657375 
1582	 0.215169027456659 
1583	 0.215129289147148 
1584	 0.215121262540598 
1585	 0.215116328694805 
1586	 0.215116159325886 
1587	 0.21514356854179 
1588	 0.215161999396924 
1589	 0.215179665123009 
1590	 0.215183512371856 
1591	 0.215184840636372 
1592	 0.215185119405236 
1593	 0.215161994128086 
1594	 0.21515480784612 
1595	 0.215160817019316 
1596	 0.215166193991425 
1597	 0.215181124311494 
1598	 0.215186303225051 
1599	 0.21519119913852 
1600	 0.215191843872705 
1601	 0.215174307248443 
1602	 0.215169726913772 
1603	 0.215175001485611 
1604	 0.215175523696185 
1605	 0.215171469713556 
1606	 0.215181937446493 
1607	 0.215215407009835 
1608	 0.215217971436529 
1609	 0.215213266276729 
1610	 0.215225368791645 
1611	 0.21520464311261 
1612	 0.215192729307644 
1613	 0.215196611765015 
1614	 0.215185097489426 
1615	 0.215192016575431 
1616	 0.215189975613477 
1617	 0.2151706050513 
1618	 0.21516889043468 
1619	 0.215159619214027 
1620	 0.215155040069837 
1621	 0.215154559222533 
1622	 0.215172503083014 
1623	 0.215171644698876 
1624	 0.215161755143397 
1625	 0.215152126435602 
1626	 0.215134892529381 
1627	 0.215133210088226 
1628	 0.215136033906292 
1629	 0.215135549055217 
1630	 0.215146985773663 
1631	 0.21514512524821 
1632	 0.215128226724228 
1633	 0.215127188574279 
1634	 0.215132709880398 
1635	 0.215134608546318 
1636	 0.215144042106862 
1637	 0.215140031266713 
1638	 0.215123292680555 
1639	 0.215119137036537 
1640	 0.215112111889935 
1641	 0.215117189849091 
1642	 0.215141534251498 
1643	 0.215141702363654 
1644	 0.215136813957477 
1645	 0.21512875528241 
1646	 0.215107146688687 
1647	 0.215090273034445 
1648	 0.215068214059691 
1649	 0.215063052355739 
1650	 0.2150609849213 
1651	 0.215064065539804 
1652	 0.215092914714948 
1653	 0.215093235534118 
1654	 0.215081797088412 
1655	 0.215066477115803 
1656	 0.215038554958332 
1657	 0.215012146943091 
1658	 0.214971073480523 
1659	 0.214956230523203 
1660	 0.214955421523289 
1661	 0.214944645888955 
1662	 0.21494464922392 
1663	 0.21494214378995 
1664	 0.214929414105753 
1665	 0.214922292932746 
1666	 0.214928589009641 
1667	 0.214923387697666 
1668	 0.214902653472357 
1669	 0.21489877409468 
1670	 0.214909813584714 
1671	 0.214901818439591 
1672	 0.214886780065678 
1673	 0.214881052647213 
1674	 0.214865515413197 
1675	 0.214858929191494 
1676	 0.214872261850921 
1677	 0.214869163399944 
1678	 0.214853856287156 
1679	 0.214846220570667 
1680	 0.21484492448978 
1681	 0.214828990208695 
1682	 0.21480201088595 
1683	 0.214788159547817 
1684	 0.214768000032912 
1685	 0.214755726048807 
1686	 0.214760006133968 
1687	 0.214754730044942 
1688	 0.214741550087247 
1689	 0.21473829820594 
1690	 0.214736115283013 
1691	 0.214743029774102 
1692	 0.214766631000587 
1693	 0.214770260665396 
1694	 0.214775990775947 
1695	 0.214767862723301 
1696	 0.21473189526039 
1697	 0.214719681889581 
1698	 0.214721878626486 
1699	 0.214706034015344 
1700	 0.214684857136468 
1701	 0.214672449112572 
1702	 0.214655902141333 
1703	 0.214632662417954 
1704	 0.214618324564053 
1705	 0.214597970027714 
1706	 0.21455452001745 
1707	 0.214532478989777 
1708	 0.214523178339538 
1709	 0.214516596359038 
1710	 0.214522622979768 
1711	 0.21451632966326 
1712	 0.214507192826181 
1713	 0.214501897838724 
1714	 0.21449218550545 
1715	 0.214484818295232 
1716	 0.214481606749657 
1717	 0.214482344574308 
1718	 0.214487294235015 
1719	 0.214477967684931 
1720	 0.21448514478496 
1721	 0.214450092317581 
1722	 0.21436888863304 
1723	 0.214323199100129 
1724	 0.214262067055049 
1725	 0.21422962721639 
1726	 0.214237948810105 
1727	 0.214214652197017 
1728	 0.214195236331514 
1729	 0.214148694886834 
1730	 0.2140721214131 
1731	 0.214019449602513 
1732	 0.213961617056104 
1733	 0.213902351472769 
1734	 0.213856057534233 
1735	 0.213800089950951 
1736	 0.213736080704083 
1737	 0.213667820390076 
1738	 0.213591733830359 
1739	 0.213535416541647 
1740	 0.213470546879333 
1741	 0.213429999956825 
1742	 0.213427529473231 
1743	 0.213386299790163 
1744	 0.213341299152319 
1745	 0.213277758734395 
1746	 0.21318200335108 
1747	 0.213134744744871 
1748	 0.213085402612737 
1749	 0.213032781061995 
1750	 0.212995560626036 
1751	 0.21294756137236 
1752	 0.212880093883425 
1753	 0.21282632107415 
1754	 0.212788346037488 
1755	 0.212756250380287 
1756	 0.212720704778572 
1757	 0.212702315270245 
1758	 0.212687314400673 
1759	 0.212648333094664 
1760	 0.212623171823766 
1761	 0.212561421084645 
1762	 0.212474351400075 
1763	 0.212425541772372 
1764	 0.212363857845383 
1765	 0.21234574963172 
1766	 0.21236654454969 
1767	 0.2123452684062 
1768	 0.212327448789798 
1769	 0.21231107395492 
1770	 0.21226658186666 
1771	 0.212236011210689 
1772	 0.212207028719039 
1773	 0.21215424182677 
1774	 0.212128350494901 
1775	 0.212108862363346 
1776	 0.212091589681599 
1777	 0.212084663341857 
1778	 0.21207311616451 
1779	 0.212073263676922 
1780	 0.212047883879222 
1781	 0.212029526050235 
1782	 0.212035994921783 
1783	 0.212030728385597 
1784	 0.21202851139002 
1785	 0.212036230230055 
1786	 0.212026080259464 
1787	 0.212000609060669 
1788	 0.211996172126746 
1789	 0.212001589307422 
1790	 0.212004381751154 
1791	 0.212006025425728 
1792	 0.212009286981571 
1793	 0.2120125501515 
1794	 0.212015621564902 
1795	 0.212034756297386 
1796	 0.212041083912664 
1797	 0.212023694767922 
1798	 0.212026719384936 
1799	 0.212053234083321 
1800	 0.212047887036009 
1801	 0.210115068834713 
1802	 0.210149177644445 
1803	 0.210170741068511 
1804	 0.210208478306533 
1805	 0.210239613482572 
1806	 0.210243821630722 
1807	 0.210287614179626 
1808	 0.210323479109314 
1809	 0.210362759530609 
1810	 0.210388772414546 
1811	 0.210429657197278 
1812	 0.210439059726603 
1813	 0.210432269940943 
1814	 0.210407065495706 
1815	 0.210384125299335 
1816	 0.210367774558912 
1817	 0.210346576630017 
1818	 0.210303091985096 
1819	 0.210305540307845 
1820	 0.210334338978486 
1821	 0.210351598142384 
1822	 0.21035647918182 
1823	 0.210366801542053 
1824	 0.210356223193691 
1825	 0.210340750617206 
1826	 0.21034733796023 
1827	 0.210347564225893 
1828	 0.210326484919723 
1829	 0.210274075099985 
1830	 0.210233740424782 
1831	 0.210184482691094 
1832	 0.210141873976051 
1833	 0.210106343856678 
1834	 0.210069090928371 
1835	 0.210051542019302 
1836	 0.210065433895066 
1837	 0.210070496773769 
1838	 0.210079663584215 
1839	 0.210084237087076 
1840	 0.210094279595173 
1841	 0.210065266912682 
1842	 0.210049107898026 
1843	 0.21003778502047 
1844	 0.209982574714927 
1845	 0.209936296598026 
1846	 0.209866372278955 
1847	 0.209790718123609 
1848	 0.209753470333519 
1849	 0.209701994536884 
1850	 0.209665738022012 
1851	 0.209649621677537 
1852	 0.209636804885923 
1853	 0.209601346533896 
1854	 0.209576869575006 
1855	 0.209555390625596 
1856	 0.209513226621504 
1857	 0.20944775997665 
1858	 0.209343905818143 
1859	 0.209207006979749 
1860	 0.209086583416668 
1861	 0.208958742198357 
1862	 0.208815371110357 
1863	 0.208679050848248 
1864	 0.208559485893067 
1865	 0.208394185607946 
1866	 0.208226819700924 
1867	 0.208060202938992 
1868	 0.207847313566472 
1869	 0.207630294246377 
1870	 0.207419246233125 
1871	 0.207177415062065 
1872	 0.206920407625575 
1873	 0.206650686382497 
1874	 0.206360895981221 
1875	 0.20604947918485 
1876	 0.205717261284712 
1877	 0.205385369903501 
1878	 0.205036735817351 
1879	 0.204629030243269 
1880	 0.204188649829601 
1881	 0.20371132911315 
1882	 0.20321075419975 
1883	 0.202671638392466 
1884	 0.202109589348709 
1885	 0.20152020580163 
1886	 0.20089568269989 
1887	 0.200224574601301 
1888	 0.199519438787 
1889	 0.19878337314454 
1890	 0.198030276639334 
1891	 0.197277603433319 
1892	 0.196477470584975 
1893	 0.195726407390682 
1894	 0.194996127772496 
1895	 0.19427095421547 
1896	 0.193542703899137 
1897	 0.192838440008726 
1898	 0.192135504990383 
1899	 0.191480841000915 
1900	 0.190870663085252 
1901	 0.190298129357607 
1902	 0.189775438390798 
1903	 0.189300286837124 
1904	 0.18886248808041 
1905	 0.188470551780351 
1906	 0.188124608428597 
1907	 0.187813490338262 
1908	 0.187504871727024 
1909	 0.187224893081149 
1910	 0.186961197187257 
1911	 0.186692499213756 
1912	 0.18644521669243 
1913	 0.18622018563581 
1914	 0.186013481715685 
1915	 0.185815569057724 
1916	 0.185634466429371 
1917	 0.185471181735744 
1918	 0.185335614107973 
1919	 0.185219620863584 
1920	 0.185131832161861 
1921	 0.18505338820994 
1922	 0.184960036555738 
1923	 0.184866448072541 
1924	 0.184796033267035 
1925	 0.184736095590713 
1926	 0.184698479856643 
1927	 0.184677039993364 
1928	 0.184676634729009 
1929	 0.184697854054027 
1930	 0.184720672068147 
1931	 0.184755532196897 
1932	 0.184793703182106 
1933	 0.184840360145513 
1934	 0.184913316944011 
1935	 0.184982434885525 
1936	 0.185057941129646 
1937	 0.185147252435363 
1938	 0.185239471142595 
1939	 0.185340440942327 
1940	 0.185452839212532 
1941	 0.185584908102108 
1942	 0.185708656829362 
1943	 0.185843352904617 
1944	 0.185989662303579 
1945	 0.186127694461333 
1946	 0.186283768376079 
1947	 0.186460951142664 
1948	 0.18662311030785 
1949	 0.186791537071684 
1950	 0.186955093575033 
1951	 0.187117966540617 
1952	 0.187262339973438 
1953	 0.187394044346701 
1954	 0.187560175154241 
1955	 0.187723090380167 
1956	 0.187875423848162 
1957	 0.188050219431473 
1958	 0.18825080155924 
1959	 0.188433370323107 
1960	 0.188616443237272 
1961	 0.188807786784471 
1962	 0.189001064930937 
1963	 0.189192532137565 
1964	 0.18939192722387 
1965	 0.189579150082213 
1966	 0.189773799958271 
1967	 0.189978884568204 
1968	 0.190180182834736 
1969	 0.190390857253053 
1970	 0.190593062719933 
1971	 0.190788803902195 
1972	 0.190991058995796 
1973	 0.191198099979635 
1974	 0.191395826122567 
1975	 0.191595214142065 
1976	 0.191784083452928 
1977	 0.191970294100543 
1978	 0.192157955518613 
1979	 0.192349504005606 
1980	 0.192552334553384 
1981	 0.192748990941427 
1982	 0.192942989284832 
1983	 0.19314589736928 
1984	 0.193352896290157 
1985	 0.193553846971593 
1986	 0.193765520311167 
1987	 0.193963019587491 
1988	 0.194144763287229 
1989	 0.194338189731013 
1990	 0.194524476403505 
1991	 0.194702198661146 
1992	 0.194898128603772 
1993	 0.19511094357344 
1994	 0.195308949669512 
1995	 0.195509252232775 
1996	 0.195702875939635 
1997	 0.195882634277699 
1998	 0.196069862756979 
1999	 0.19627313546112 
2000	 0.196459555939888 
2001	 0.19663523630472 
2002	 0.196810496841718 
2003	 0.196985320487074 
2004	 0.197142593199647 
2005	 0.197316305429829 
2006	 0.197501935127398 
2007	 0.197679428617029 
2008	 0.19784761479392 
2009	 0.198034180077941 
2010	 0.198248661899282 
2011	 0.198427806147874 
2012	 0.198588789007436 
2013	 0.198763809856707 
2014	 0.198922833948776 
2015	 0.199086510327379 
2016	 0.199252695062364 
2017	 0.199450233029323 
2018	 0.199628415837011 
2019	 0.199787811795546 
2020	 0.19996385258507 
2021	 0.200160931845343 
2022	 0.200335156510319 
2023	 0.200499546697863 
2024	 0.200668834993189 
2025	 0.200838809695382 
2026	 0.200993317038258 
2027	 0.201145068121201 
2028	 0.201293989359006 
2029	 0.201426374438683 
2030	 0.201528081272433 
2031	 0.201659894043178 
2032	 0.201795284893384 
2033	 0.201938190438228 
2034	 0.202093685021307 
2035	 0.20224676204599 
2036	 0.202409133692014 
2037	 0.202558460166803 
2038	 0.202715501487296 
2039	 0.202853955559532 
2040	 0.202989537481675 
2041	 0.203093635531581 
2042	 0.203180059311233 
2043	 0.203275940754069 
2044	 0.203382385153316 
2045	 0.2034855210573 
2046	 0.203601318839072 
2047	 0.20373970703071 
2048	 0.203862853551604 
2049	 0.203993228128222 
2050	 0.204102283806974 
2051	 0.204203887178104 
2052	 0.20429625932866 
2053	 0.204357758310725 
2054	 0.20443490244289 
2055	 0.204521647000251 
2056	 0.204593998364259 
2057	 0.204674183871293 
2058	 0.20476559555001 
2059	 0.204839440057007 
2060	 0.204892162289909 
2061	 0.20497611724138 
2062	 0.205066754962461 
2063	 0.205159125897662 
2064	 0.205280440476961 
2065	 0.20538072012024 
2066	 0.205465287243284 
2067	 0.205555335450657 
2068	 0.205646566059781 
2069	 0.20572800755273 
2070	 0.205824577291109 
2071	 0.205930775821071 
2072	 0.206024749026659 
2073	 0.20612333536514 
2074	 0.206214044023486 
2075	 0.206284388007108 
2076	 0.206374738779285 
2077	 0.206489194850131 
2078	 0.206574038698318 
2079	 0.206644265098281 
2080	 0.206725496040306 
2081	 0.206794585448545 
2082	 0.20686522886474 
2083	 0.206943509129457 
2084	 0.207028306677689 
2085	 0.207105189446176 
2086	 0.207172593264226 
2087	 0.207241350867471 
2088	 0.207312347721158 
2089	 0.207382814139664 
2090	 0.2074571606538 
2091	 0.207512119301296 
2092	 0.20754698146924 
2093	 0.207607156596686 
2094	 0.207656505423386 
2095	 0.207722103914342 
2096	 0.207825385439558 
2097	 0.207910747491725 
2098	 0.207987098103034 
2099	 0.208070546471505 
2100	 0.208142380582265 
2101	 0.20821211710351 
2102	 0.208273713730653 
2103	 0.208315223230447 
2104	 0.208382890770317 
2105	 0.208452186972553 
2106	 0.208532756281815 
2107	 0.208646978799778 
2108	 0.208730810658404 
2109	 0.208800463311692 
2110	 0.208877637409987 
2111	 0.208950937287789 
2112	 0.209014722091515 
2113	 0.209083707016793 
2114	 0.209144068350344 
2115	 0.209192634971831 
2116	 0.209220098769591 
2117	 0.209262737841418 
2118	 0.209301471963812 
2119	 0.209350081024188 
2120	 0.209403414041466 
2121	 0.209459470546802 
2122	 0.209531610941552 
2123	 0.209584799917402 
2124	 0.209630767919895 
2125	 0.209677023914047 
2126	 0.209720795345628 
2127	 0.209752471091524 
2128	 0.209791634788895 
2129	 0.209806305198491 
2130	 0.209787060186703 
2131	 0.209773068356912 
2132	 0.209765641508637 
2133	 0.209759130096826 
2134	 0.209731747725079 
2135	 0.209703640005505 
2136	 0.209669626368034 
2137	 0.209626292578008 
2138	 0.209559043954737 
2139	 0.209490407997449 
2140	 0.209401337653041 
2141	 0.209260557296083 
2142	 0.209146412996896 
2143	 0.20904189092408 
2144	 0.20893290215937 
2145	 0.208820530122914 
2146	 0.208714482844043 
2147	 0.208633193771777 
2148	 0.20852631459694 
2149	 0.208376779149783 
2150	 0.208210432930668 
2151	 0.208023937954179 
2152	 0.207760810568984 
2153	 0.207571891119175 
2154	 0.207412632839686 
2155	 0.207242749656432 
2156	 0.207103603915773 
2157	 0.206936100621384 
2158	 0.206742632062305 
2159	 0.206566163490797 
2160	 0.20639551453592 
2161	 0.206213808966915 
2162	 0.206021495913242 
2163	 0.205848369359291 
2164	 0.205673233482917 
2165	 0.205515736645204 
2166	 0.205337640351701 
2167	 0.205170935543977 
2168	 0.204988151664322 
2169	 0.204775561188525 
2170	 0.204588865189433 
2171	 0.204416346940187 
2172	 0.204238676853328 
2173	 0.204062545612456 
2174	 0.203885618042412 
2175	 0.203711356571767 
2176	 0.203534047018569 
2177	 0.203348874370543 
2178	 0.203174160871775 
2179	 0.202990891481921 
2180	 0.202830157547455 
2181	 0.20269609836417 
2182	 0.20255410651936 
2183	 0.202413785131823 
2184	 0.202288838634003 
2185	 0.202159181909916 
2186	 0.202014486908955 
2187	 0.20190379728351 
2188	 0.201821574631465 
2189	 0.201716205629693 
2190	 0.201615238136969 
2191	 0.201517558214656 
2192	 0.201406583201184 
2193	 0.201308371773308 
2194	 0.201224609251057 
2195	 0.201141859899643 
2196	 0.201049931507456 
2197	 0.200979764224958 
2198	 0.200936728336987 
2199	 0.200880694800097 
2200	 0.200851851770627 
2201	 0.200786008548327 
2202	 0.200674307342458 
2203	 0.200581602135312 
2204	 0.200516293990716 
2205	 0.200445428268644 
2206	 0.200395851090246 
2207	 0.200389571329557 
2208	 0.2003670082475 
2209	 0.200321938771005 
2210	 0.200318645469874 
2211	 0.200340963625667 
2212	 0.200373924345168 
2213	 0.200439188495148 
2214	 0.200489175380886 
2215	 0.200544493535628 
2216	 0.200602651449733 
2217	 0.20065432952266 
2218	 0.200715829264328 
2219	 0.200775414340322 
2220	 0.200858339144269 
2221	 0.200959053054856 
2222	 0.201065738584428 
2223	 0.20116512920961 
2224	 0.201276386375566 
2225	 0.20136906199772 
2226	 0.201448383008542 
2227	 0.201508587087501 
2228	 0.201567940416056 
2229	 0.20160196025503 
2230	 0.20159562557218 
2231	 0.201605829539808 
2232	 0.201608478654673 
2233	 0.201617938732609 
2234	 0.20162222951213 
2235	 0.201642689335871 
2236	 0.201677280924508 
2237	 0.201704706514881 
2238	 0.20174800288752 
2239	 0.20177292849972 
2240	 0.201788975390486 
2241	 0.201794063517989 
2242	 0.201776483712368 
2243	 0.201769209154218 
2244	 0.201737131873142 
2245	 0.201750536308049 
2246	 0.201781133511616 
2247	 0.201783052863007 
2248	 0.201786911009374 
2249	 0.201795965724953 
2250	 0.201785619117878 
2251	 0.201753454318921 
2252	 0.201746900970129 
2253	 0.201736564984872 
2254	 0.201738533642741 
2255	 0.20175139892456 
2256	 0.201771529531136 
2257	 0.201811338087379 
2258	 0.201833393046207 
2259	 0.201863415706649 
2260	 0.201883145298771 
2261	 0.201879528572571 
2262	 0.20188190229367 
2263	 0.201893141237114 
2264	 0.201892322808519 
2265	 0.201862418479171 
2266	 0.201868903138539 
2267	 0.201903783859871 
2268	 0.201915506463851 
2269	 0.201922349483298 
2270	 0.201960216103214 
2271	 0.201958521260593 
2272	 0.201946702274357 
2273	 0.20197563947655 
2274	 0.202023623192498 
2275	 0.20203483356332 
2276	 0.202038731361493 
2277	 0.202047747222559 
2278	 0.202033625292546 
2279	 0.202026329770955 
2280	 0.202046593529903 
2281	 0.202027168994471 
2282	 0.201963980392374 
2283	 0.201935478601694 
2284	 0.201911160388426 
2285	 0.201894673150148 
2286	 0.201900961809475 
2287	 0.201892507054463 
2288	 0.201875677157491 
2289	 0.201852079107331 
2290	 0.201824222063832 
2291	 0.201798698986927 
2292	 0.201755442077525 
2293	 0.201735999868774 
2294	 0.201720883911925 
2295	 0.201725762672395 
2296	 0.201748070700476 
2297	 0.201800718049429 
2298	 0.201844647305604 
2299	 0.201832575432095 
2300	 0.201805949274901 
2301	 0.20177069890894 
2302	 0.201717536061429 
2303	 0.201670553222043 
2304	 0.201654226387171 
2305	 0.201605689315554 
2306	 0.201550915374667 
2307	 0.201503557524853 
2308	 0.201441552063837 
2309	 0.201345821934108 
2310	 0.201280251388996 
2311	 0.201235727927972 
2312	 0.201162102061171 
2313	 0.201084926385888 
2314	 0.200988380675596 
2315	 0.200854815431141 
2316	 0.200753131494006 
2317	 0.200638788754439 
2318	 0.200569296052197 
2319	 0.200538431399971 
2320	 0.20050943405916 
2321	 0.200495950410288 
2322	 0.200502743710824 
2323	 0.20053890884582 
2324	 0.200559653462628 
2325	 0.200594490604426 
2326	 0.200627903765624 
2327	 0.200667574067312 
2328	 0.200670125404778 
2329	 0.2006790683299 
2330	 0.200687686602852 
2331	 0.200695940275116 
2332	 0.200710790567786 
2333	 0.200739058743539 
2334	 0.200781740491607 
2335	 0.200784736182478 
2336	 0.200837192498401 
2337	 0.200930085195983 
2338	 0.200982980924673 
2339	 0.201020675784671 
2340	 0.200999929254813 
2341	 0.200974340722782 
2342	 0.200972205989482 
2343	 0.200941936242388 
2344	 0.200953065482606 
2345	 0.200926420790332 
2346	 0.200837912264686 
2347	 0.200801402136168 
2348	 0.200790948819715 
2349	 0.200763216560912 
2350	 0.200763372108886 
2351	 0.20072738128981 
2352	 0.200668653682134 
2353	 0.200588378847331 
2354	 0.200449467477882 
2355	 0.200385519485871 
2356	 0.20035084361067 
2357	 0.200302653269854 
2358	 0.2003068695453 
2359	 0.200262734017345 
2360	 0.200155089564777 
2361	 0.200096247902104 
2362	 0.200083363610619 
2363	 0.200013105140602 
2364	 0.19992086623914 
2365	 0.199840139666975 
2366	 0.199722433785051 
2367	 0.199633977090918 
2368	 0.199566895291392 
2369	 0.199498421838421 
2370	 0.199469843650646 
2371	 0.199365952463317 
2372	 0.199216246664612 
2373	 0.199101818278144 
2374	 0.19892745154972 
2375	 0.198714023449684 
2376	 0.198584679255332 
2377	 0.198477093987734 
2378	 0.19831572735031 
2379	 0.19822619699501 
2380	 0.198110877572387 
2381	 0.197923319935367 
2382	 0.19783978179001 
2383	 0.197770724083892 
2384	 0.197669692242669 
2385	 0.197597867072511 
2386	 0.197462597035564 
2387	 0.197267579588229 
2388	 0.197115641070321 
2389	 0.196971719524798 
2390	 0.19675583106068 
2391	 0.196566310372859 
2392	 0.196403774574988 
2393	 0.19616270075791 
2394	 0.196087730743935 
2395	 0.196096459036993 
2396	 0.195955402687378 
2397	 0.19590043964022 
2398	 0.195818488198042 
2399	 0.195628941907516 
2400	 0.195502429577684 
2401	 0.195385130124713 
2402	 0.195243084315327 
2403	 0.195109615852669 
2404	 0.195030573851493 
2405	 0.194952180171747 
2406	 0.194824955384961 
2407	 0.19466806024621 
2408	 0.19452627843903 
2409	 0.194363842764579 
2410	 0.194157797260325 
2411	 0.193998724412014 
2412	 0.193880556632638 
2413	 0.193762767055531 
2414	 0.193624472614767 
2415	 0.193494878194996 
2416	 0.193365458211832 
2417	 0.193165363754471 
2418	 0.193015453166689 
2419	 0.192950849367182 
2420	 0.192812299962266 
2421	 0.192659510658489 
2422	 0.192414237789121 
2423	 0.192089592079191 
2424	 0.191840406283568 
2425	 0.191495455639288 
2426	 0.191289328828432 
2427	 0.191221007837722 
2428	 0.191078722314993 
2429	 0.190954365595968 
2430	 0.190815820000206 
2431	 0.190681148945684 
2432	 0.190541742843045 
2433	 0.190381624235725 
2434	 0.190247392128933 
2435	 0.190138064606222 
2436	 0.189967526660439 
2437	 0.189782016757435 
2438	 0.189607489808643 
2439	 0.189393776948221 
2440	 0.189195841913593 
2441	 0.188993592584843 
2442	 0.188823044232601 
2443	 0.188639462430287 
2444	 0.188555777806572 
2445	 0.188630392284445 
2446	 0.188516031556733 
2447	 0.18833841976557 
2448	 0.188146755953018 
2449	 0.187785952139856 
2450	 0.187614530554478 
2451	 0.18761381032959 
2452	 0.187529702291143 
2453	 0.187461891733692 
2454	 0.187336390896517 
2455	 0.187140907132903 
2456	 0.186958809371858 
2457	 0.186809191374771 
2458	 0.186571174676149 
2459	 0.186262108818175 
2460	 0.185997077178708 
2461	 0.185690554616145 
2462	 0.185435133302653 
2463	 0.185136763934269 
2464	 0.184943436281907 
2465	 0.184859985038063 
2466	 0.184772139657797 
2467	 0.184840958440824 
2468	 0.184783009605194 
2469	 0.184583803666072 
2470	 0.184343036709074 
2471	 0.184308403414124 
2472	 0.184169005223625 
2473	 0.183980396313576 
2474	 0.183836838134237 
2475	 0.183601982134511 
2476	 0.183527554805889 
2477	 0.183477464340041 
2478	 0.183384157418629 
2479	 0.183295252667956 
2480	 0.1829516739141 
2481	 0.182697784000323 
2482	 0.182668156333252 
2483	 0.182549820864241 
2484	 0.182408571865599 
2485	 0.182057741444752 
2486	 0.181554942841478 
2487	 0.181235476353453 
2488	 0.181024440586194 
2489	 0.181081571385953 
2490	 0.181216621476966 
2491	 0.181007349118885 
2492	 0.180820432185901 
2493	 0.180617879201802 
2494	 0.180346060888051 
2495	 0.180323521955068 
2496	 0.180263437110318 
2497	 0.180022550026482 
2498	 0.179711933182582 
2499	 0.179404016799666 
2500	 0.179220487258928 
