Wavelength	LMW400002.asd
350	 0.115742146696166 
351	 0.125026301058819 
352	 0.125638373884394 
353	 0.120879568408365 
354	 0.126014555225232 
355	 0.12441458397721 
356	 0.122368613753285 
357	 0.126876761042486 
358	 0.124103609177419 
359	 0.124697078898925 
360	 0.128051017050838 
361	 0.126616835110422 
362	 0.124418588757531 
363	 0.125244184027059 
364	 0.129236869647219 
365	 0.13123071345928 
366	 0.132057668378313 
367	 0.132402039449677 
368	 0.132882758542161 
369	 0.133427481217803 
370	 0.135360475232205 
371	 0.137485985340338 
372	 0.137263328900708 
373	 0.137890347073534 
374	 0.13820455310186 
375	 0.137737237105571 
376	 0.138158932365407 
377	 0.139065145689108 
378	 0.141004588250844 
379	 0.143915721477697 
380	 0.14473567998834 
381	 0.143542451470324 
382	 0.143189207452132 
383	 0.147724332291404 
384	 0.150701310640242 
385	 0.150961341266386 
386	 0.149609440431291 
387	 0.150219172871446 
388	 0.151816566267043 
389	 0.153161352899106 
390	 0.153339946992812 
391	 0.153707686488616 
392	 0.153461901020385 
393	 0.154238255629945 
394	 0.159159448635816 
395	 0.160557117535717 
396	 0.159798669337891 
397	 0.159442777286663 
398	 0.161309570214825 
399	 0.162579799961412 
400	 0.163335712452192 
401	 0.164363120223138 
402	 0.163682297634454 
403	 0.163994260642164 
404	 0.16569060595398 
405	 0.166636088978829 
406	 0.167268585236524 
407	 0.168000589737662 
408	 0.168729827035064 
409	 0.167769835373278 
410	 0.168053253340363 
411	 0.169132893357426 
412	 0.169297822698206 
413	 0.170437860956535 
414	 0.171030463928339 
415	 0.170830783574837 
416	 0.171570556426503 
417	 0.171359894830484 
418	 0.171548633463255 
419	 0.17321442484645 
420	 0.174111220555209 
421	 0.173417888119034 
422	 0.172715816715984 
423	 0.174586802330896 
424	 0.174938854704628 
425	 0.174756189610417 
426	 0.174997594761137 
427	 0.17537545583629 
428	 0.175438138115767 
429	 0.175292591886506 
430	 0.175274887969196 
431	 0.175799232077522 
432	 0.176228235076341 
433	 0.176331705943881 
434	 0.176328566022541 
435	 0.176650433684049 
436	 0.177001377793105 
437	 0.177097853203842 
438	 0.177039305019099 
439	 0.17722138775772 
440	 0.177766421926356 
441	 0.178537994544502 
442	 0.178647777547162 
443	 0.178830342092235 
444	 0.179285741830595 
445	 0.17914631717713 
446	 0.179426019428325 
447	 0.179980928712732 
448	 0.180399327683526 
449	 0.180676540653185 
450	 0.180941210214782 
451	 0.181211115873731 
452	 0.181403818201904 
453	 0.181437018926399 
454	 0.18165552972563 
455	 0.182175183099527 
456	 0.182400270338706 
457	 0.182513665105412 
458	 0.182571285974947 
459	 0.182616645665772 
460	 0.182940222318339 
461	 0.183144892625455 
462	 0.183212859539147 
463	 0.183746051335728 
464	 0.183971218058006 
465	 0.183971519995554 
466	 0.184029291266172 
467	 0.184166194634083 
468	 0.184386214739005 
469	 0.184624163071171 
470	 0.18476928862548 
471	 0.18487059208722 
472	 0.185006250262914 
473	 0.185211994455448 
474	 0.185423942576771 
475	 0.185585007134671 
476	 0.185702837343379 
477	 0.185819262132418 
478	 0.185949847466143 
479	 0.186132325366447 
480	 0.186362722847765 
481	 0.186578313134362 
482	 0.18689394950965 
483	 0.187155273309031 
484	 0.187234972265525 
485	 0.187451188944056 
486	 0.187377863371858 
487	 0.187175557786755 
488	 0.187461735436437 
489	 0.187853847687848 
490	 0.188095044315561 
491	 0.188104085126744 
492	 0.188161036177613 
493	 0.188092335661719 
494	 0.18811023792651 
495	 0.188501099381156 
496	 0.188686592971765 
497	 0.188825874737585 
498	 0.188988038658167 
499	 0.188993167713235 
500	 0.189060330889857 
501	 0.189166292588015 
502	 0.189264501014455 
503	 0.189573494232654 
504	 0.189709648404532 
505	 0.189675758046135 
506	 0.189826447415952 
507	 0.189939992275967 
508	 0.190039478159923 
509	 0.190142935432967 
510	 0.190124267079237 
511	 0.190120445459322 
512	 0.190213240806418 
513	 0.190430086389377 
514	 0.190630691873247 
515	 0.190747454341181 
516	 0.190824240604981 
517	 0.191093065538457 
518	 0.191122897591517 
519	 0.191035637386427 
520	 0.19109880553135 
521	 0.191306485044393 
522	 0.191391515089641 
523	 0.191362614949875 
524	 0.191523537087696 
525	 0.191677920587285 
526	 0.191729614411549 
527	 0.191683143834479 
528	 0.191781528788757 
529	 0.19186817773023 
530	 0.191961919530515 
531	 0.192173323688946 
532	 0.192242040066488 
533	 0.192272463620126 
534	 0.192360294583645 
535	 0.192477196936331 
536	 0.192572615352063 
537	 0.192645930441735 
538	 0.19272267830065 
539	 0.192849388989837 
540	 0.192919024739575 
541	 0.192925380619349 
542	 0.193008849779504 
543	 0.193096482233952 
544	 0.193199941732748 
545	 0.19332628602591 
546	 0.193383348988701 
547	 0.193405482436469 
548	 0.193441806215779 
549	 0.193545167544859 
550	 0.193659254882596 
551	 0.19376006651907 
552	 0.193859778850042 
553	 0.194063127978535 
554	 0.19416796633886 
555	 0.194198182090938 
556	 0.194293594392557 
557	 0.194453719009743 
558	 0.19457678082097 
559	 0.194641312973373 
560	 0.194793207807783 
561	 0.194863468729879 
562	 0.194880399943093 
563	 0.194942828225765 
564	 0.195135172285048 
565	 0.195253057069149 
566	 0.195276830092074 
567	 0.195408067618048 
568	 0.195547789731809 
569	 0.195729901721784 
570	 0.195969965331737 
571	 0.196127210053793 
572	 0.196296463274856 
573	 0.196467188404978 
574	 0.196557199571359 
575	 0.196593390577403 
576	 0.196637125195567 
577	 0.196723726177618 
578	 0.196822152505059 
579	 0.196941574773028 
580	 0.197050352646699 
581	 0.197127650027614 
582	 0.197351095638809 
583	 0.19759377321059 
584	 0.197775718309431 
585	 0.197925030987175 
586	 0.198001566412932 
587	 0.198064975923393 
588	 0.198171409460486 
589	 0.19822564251353 
590	 0.198274802832019 
591	 0.198362024009389 
592	 0.198514989806072 
593	 0.198596860882978 
594	 0.198664617631998 
595	 0.198787800014462 
596	 0.198969771924817 
597	 0.199121673999228 
598	 0.199248145609102 
599	 0.199400771082722 
600	 0.199536442672391 
601	 0.199653523272215 
602	 0.199751583145755 
603	 0.199828230038586 
604	 0.199810400820428 
605	 0.199798968957614 
606	 0.199920305553791 
607	 0.200071212126127 
608	 0.20019796253591 
609	 0.200295493609581 
610	 0.200410924546149 
611	 0.200570279361182 
612	 0.200724930271073 
613	 0.200829050537909 
614	 0.200914449140198 
615	 0.200994512095827 
616	 0.201102286366277 
617	 0.20126909809056 
618	 0.201349989941804 
619	 0.201385306241172 
620	 0.20142812802117 
621	 0.201494579396328 
622	 0.201567740523622 
623	 0.201636729127338 
624	 0.201701167241218 
625	 0.201822100472515 
626	 0.201896516961787 
627	 0.201910082575425 
628	 0.201980084734978 
629	 0.20208234883369 
630	 0.202179146405585 
631	 0.20224051371975 
632	 0.202291523034356 
633	 0.20233757356172 
634	 0.202388518340665 
635	 0.202455774192068 
636	 0.202515268711301 
637	 0.202575301777738 
638	 0.202634355409578 
639	 0.20264426063774 
640	 0.202701717325668 
641	 0.202799811176879 
642	 0.202880788139392 
643	 0.20291785607691 
644	 0.202957258305415 
645	 0.203026185915767 
646	 0.203115146160556 
647	 0.203152050069884 
648	 0.203170979969691 
649	 0.203226100670779 
650	 0.203310025589069 
651	 0.203365152389908 
652	 0.203398382798111 
653	 0.20347129684527 
654	 0.203567985534994 
655	 0.203597353383524 
656	 0.203544937985184 
657	 0.20361907636798 
658	 0.203709600432608 
659	 0.203779482196424 
660	 0.203825356542974 
661	 0.203840266416881 
662	 0.203903169480997 
663	 0.204027872296984 
664	 0.204127159621686 
665	 0.204136165734568 
666	 0.204143918763935 
667	 0.2042329776366 
668	 0.204245981949673 
669	 0.204289659925736 
670	 0.204377354076383 
671	 0.204438754124972 
672	 0.204443008709216 
673	 0.204493330473244 
674	 0.204629032204949 
675	 0.204685321166191 
676	 0.204727520165274 
677	 0.204752931841333 
678	 0.204746618909081 
679	 0.204791704610579 
680	 0.204846290201167 
681	 0.204902783338793 
682	 0.205013205147893 
683	 0.205076626888309 
684	 0.20511705470932 
685	 0.205183274359176 
686	 0.205291604666313 
687	 0.205341418937756 
688	 0.205352123100246 
689	 0.205420553839743 
690	 0.205457829270433 
691	 0.205462132997061 
692	 0.205472783743848 
693	 0.205595193217685 
694	 0.205664119462201 
695	 0.205674756436351 
696	 0.205689155659804 
697	 0.205775563722409 
698	 0.205834358925524 
699	 0.205872114828671 
700	 0.206009438677596 
701	 0.206047503631033 
702	 0.206045745471731 
703	 0.206079910846465 
704	 0.206108615279265 
705	 0.206122927736627 
706	 0.20615175838961 
707	 0.206228741921975 
708	 0.206247873878414 
709	 0.2062690708819 
710	 0.20632796623498 
711	 0.206400946020232 
712	 0.206437572903955 
713	 0.206463704762278 
714	 0.206510156485659 
715	 0.206529011909422 
716	 0.206574212186494 
717	 0.206640077892402 
718	 0.206676190411552 
719	 0.206665872048802 
720	 0.206656530208537 
721	 0.206685849761124 
722	 0.206759299958076 
723	 0.206802622935899 
724	 0.206831837607621 
725	 0.206880773957419 
726	 0.20689326920929 
727	 0.206909333303978 
728	 0.206933293564555 
729	 0.206935882199017 
730	 0.206985398235842 
731	 0.207020260903504 
732	 0.20700207344044 
733	 0.206996759606671 
734	 0.207048346840371 
735	 0.20710286231698 
736	 0.207089985479368 
737	 0.207127435882214 
738	 0.207190021468036 
739	 0.207230506264761 
740	 0.207194397024911 
741	 0.207188280533315 
742	 0.207229867361208 
743	 0.207287440029716 
744	 0.207248782543128 
745	 0.207248703084743 
746	 0.207278494391437 
747	 0.207268565811378 
748	 0.207248171539999 
749	 0.207268140664008 
750	 0.207317941264386 
751	 0.207312969636586 
752	 0.20728931670685 
753	 0.207271596817716 
754	 0.20728406811713 
755	 0.207365234234754 
756	 0.207400037076837 
757	 0.207365681805714 
758	 0.207302433473855 
759	 0.207296060298099 
760	 0.207314836219309 
761	 0.207330059918245 
762	 0.207333664225909 
763	 0.207348166639052 
764	 0.207359693025017 
765	 0.207353443445512 
766	 0.207334769015357 
767	 0.207336256162172 
768	 0.207337383809367 
769	 0.207304381365704 
770	 0.207321387136685 
771	 0.207338913094325 
772	 0.207330802934941 
773	 0.207314208757091 
774	 0.20731547752497 
775	 0.207318983735709 
776	 0.207303507458059 
777	 0.20725323240363 
778	 0.20726102575415 
779	 0.207301286139501 
780	 0.207302198352866 
781	 0.207293180031724 
782	 0.207296204550126 
783	 0.207296244464859 
784	 0.20724480009469 
785	 0.207235092671759 
786	 0.207266302348055 
787	 0.207297712897738 
788	 0.207235731908499 
789	 0.207204520195161 
790	 0.207215942728753 
791	 0.207236468910629 
792	 0.207248641539797 
793	 0.20723924007219 
794	 0.207225029596061 
795	 0.207243457116181 
796	 0.207259591753335 
797	 0.207252175412557 
798	 0.207216239032408 
799	 0.207169192656266 
800	 0.207144274932832 
801	 0.207160708089429 
802	 0.207207191807747 
803	 0.207182249071263 
804	 0.207208251721098 
805	 0.207252811319022 
806	 0.207206391443853 
807	 0.207227523649071 
808	 0.207200650966694 
809	 0.20712058367091 
810	 0.207157185268404 
811	 0.207230984382653 
812	 0.207249639266658 
813	 0.207190892048847 
814	 0.207231104168818 
815	 0.207233023054504 
816	 0.207187486766271 
817	 0.207146330772308 
818	 0.207174577114711 
819	 0.207217276233972 
820	 0.207245581031158 
821	 0.207260068837907 
822	 0.207244470146712 
823	 0.207245217964872 
824	 0.207264335105353 
825	 0.207215904475534 
826	 0.207234499661794 
827	 0.20728368943256 
828	 0.207295571080398 
829	 0.207265320841482 
830	 0.207207697144433 
831	 0.207164740163217 
832	 0.207181757552856 
833	 0.207244652523727 
834	 0.207307822249372 
835	 0.207344703351096 
836	 0.207350701680941 
837	 0.207304762479154 
838	 0.207280858579339 
839	 0.207312038382942 
840	 0.207337571649203 
841	 0.207342834314411 
842	 0.207306622235136 
843	 0.207245417553004 
844	 0.207287314400753 
845	 0.207332791482607 
846	 0.207340642551832 
847	 0.207316699650495 
848	 0.207355879538667 
849	 0.20735044423117 
850	 0.207312628368234 
851	 0.207351359903037 
852	 0.207343999892453 
853	 0.207339422274016 
854	 0.207365135726305 
855	 0.207383239750519 
856	 0.207401427217545 
857	 0.207429094128775 
858	 0.20745860052053 
859	 0.207431825193752 
860	 0.207440291752205 
861	 0.207490538181576 
862	 0.207548022287518 
863	 0.207561264802611 
864	 0.207539646252199 
865	 0.207520188875796 
866	 0.20754090905196 
867	 0.207526345528715 
868	 0.207549452275029 
869	 0.207596011903217 
870	 0.207562441776985 
871	 0.207549160535527 
872	 0.207543804145845 
873	 0.207552880748046 
874	 0.207640342229385 
875	 0.207691429850579 
876	 0.207692268456084 
877	 0.207674252755077 
878	 0.207709957872292 
879	 0.207756442709881 
880	 0.207770089242022 
881	 0.207736550489475 
882	 0.207759055357529 
883	 0.207759087868902 
884	 0.207750742919349 
885	 0.207791524093286 
886	 0.207852287926614 
887	 0.207898263785549 
888	 0.207909288004426 
889	 0.207888589512211 
890	 0.207911549602074 
891	 0.207943909947702 
892	 0.20797975003245 
893	 0.208058041701754 
894	 0.207988989517343 
895	 0.207911633043412 
896	 0.20794552497077 
897	 0.208053086139615 
898	 0.208123585870973 
899	 0.208116947666151 
900	 0.208054649242621 
901	 0.208037424687691 
902	 0.208143895612643 
903	 0.208256922763859 
904	 0.208252109346414 
905	 0.208266309785095 
906	 0.208255062394359 
907	 0.208257227623148 
908	 0.208325761041958 
909	 0.208389307066275 
910	 0.208361141594246 
911	 0.208325052650259 
912	 0.208430612783062 
913	 0.208463996913539 
914	 0.208450981086505 
915	 0.208461392217991 
916	 0.208558081077603 
917	 0.208546016967514 
918	 0.208563916700233 
919	 0.208648446243108 
920	 0.208677839762536 
921	 0.208726741495896 
922	 0.208749163117734 
923	 0.208739626659946 
924	 0.208773342054288 
925	 0.20875034686878 
926	 0.208785269430554 
927	 0.208906621017314 
928	 0.208909078368707 
929	 0.209056452440435 
930	 0.209184034780864 
931	 0.209157567816336 
932	 0.209168310803454 
933	 0.209134275504708 
934	 0.209120463129842 
935	 0.209176917942971 
936	 0.209200914720134 
937	 0.209186989041755 
938	 0.2092145867269 
939	 0.209334431336963 
940	 0.209399966227916 
941	 0.209446918903431 
942	 0.209506300010899 
943	 0.209580413460379 
944	 0.209558749564687 
945	 0.209600148340943 
946	 0.209702258420745 
947	 0.209781972869301 
948	 0.209789605099067 
949	 0.209784404107641 
950	 0.20975686791986 
951	 0.209710386381449 
952	 0.209900065192266 
953	 0.210037263849751 
954	 0.210056823568469 
955	 0.210051363069804 
956	 0.21009316975354 
957	 0.210094888779867 
958	 0.210096369429513 
959	 0.21017996200883 
960	 0.210170454136426 
961	 0.210200004923733 
962	 0.210303267389326 
963	 0.210418954687523 
964	 0.210422541423727 
965	 0.210458479065606 
966	 0.210541612653329 
967	 0.210592189535956 
968	 0.210624055121755 
969	 0.210626901527148 
970	 0.210612775731823 
971	 0.210624877904149 
972	 0.210789768690675 
973	 0.210935806256114 
974	 0.211018818867253 
975	 0.211089703592745 
976	 0.211100761693062 
977	 0.211053506131562 
978	 0.211039009817237 
979	 0.211148155062779 
980	 0.211174598234134 
981	 0.211145270006318 
982	 0.211158753899362 
983	 0.211304556557931 
984	 0.21146036638164 
985	 0.211515857544034 
986	 0.211489343951151 
987	 0.211467633743774 
988	 0.211430781233647 
989	 0.211586008509512 
990	 0.211743995949259 
991	 0.21164957309632 
992	 0.211744471684079 
993	 0.211784619043407 
994	 0.211805315305627 
995	 0.211933717248448 
996	 0.212094480643979 
997	 0.212098876896976 
998	 0.212068599766015 
999	 0.212179930612849 
1000	 0.212321494773134 
1001	 0.213797579546078 
1002	 0.213814541295135 
1003	 0.213805738346418 
1004	 0.213838636785958 
1005	 0.213884389133779 
1006	 0.213922694677041 
1007	 0.21400139239246 
1008	 0.214026851682733 
1009	 0.214037748857502 
1010	 0.214061912257498 
1011	 0.214050034390387 
1012	 0.214104968484572 
1013	 0.214179656242828 
1014	 0.214160569402353 
1015	 0.21414892865706 
1016	 0.214192940845771 
1017	 0.214247342924215 
1018	 0.214314738258276 
1019	 0.214361051429735 
1020	 0.214425077437204 
1021	 0.214493932650242 
1022	 0.214488977506745 
1023	 0.214476061774208 
1024	 0.214484014542056 
1025	 0.214439155205863 
1026	 0.21439491570265 
1027	 0.214421929742097 
1028	 0.214451639691741 
1029	 0.214475365658279 
1030	 0.214508702942757 
1031	 0.214506233517637 
1032	 0.214443829282769 
1033	 0.214433158611561 
1034	 0.214471659714581 
1035	 0.214469905327326 
1036	 0.214612758158464 
1037	 0.214710714799111 
1038	 0.214699700817822 
1039	 0.214777923379267 
1040	 0.214776595744702 
1041	 0.214739977374529 
1042	 0.21478258148021 
1043	 0.214829676508222 
1044	 0.214870073577929 
1045	 0.214924570464569 
1046	 0.214954414126547 
1047	 0.214976991025326 
1048	 0.215029590883662 
1049	 0.215063765551844 
1050	 0.215117731246597 
1051	 0.215191284493762 
1052	 0.215202711800504 
1053	 0.215218481791521 
1054	 0.215288925138051 
1055	 0.215300903942092 
1056	 0.215296322830425 
1057	 0.215329390105175 
1058	 0.215363242245179 
1059	 0.215391732627191 
1060	 0.215453925220521 
1061	 0.215507693544855 
1062	 0.215470301709534 
1063	 0.215486120576287 
1064	 0.215535478834153 
1065	 0.21555036611443 
1066	 0.215601509467619 
1067	 0.215626791189241 
1068	 0.215619611441204 
1069	 0.215661261672703 
1070	 0.215676403992028 
1071	 0.215706904861793 
1072	 0.215729795887745 
1073	 0.215721047440955 
1074	 0.215707222389961 
1075	 0.215706963537624 
1076	 0.215695869983042 
1077	 0.215652851682916 
1078	 0.215637742912609 
1079	 0.215637239569667 
1080	 0.215641636674675 
1081	 0.215635817520813 
1082	 0.215628636484936 
1083	 0.215601056369145 
1084	 0.215539916085667 
1085	 0.215518893411964 
1086	 0.215497398514102 
1087	 0.215485404197382 
1088	 0.215513563577269 
1089	 0.21550660502845 
1090	 0.21546321706836 
1091	 0.215448776302797 
1092	 0.215436024895095 
1093	 0.21543564511834 
1094	 0.215466687867568 
1095	 0.21547550605904 
1096	 0.215434748030834 
1097	 0.215410354584758 
1098	 0.215401505953626 
1099	 0.215378640462647 
1100	 0.2153827566167 
1101	 0.215424628085085 
1102	 0.215451952355679 
1103	 0.21548719705258 
1104	 0.215510001584887 
1105	 0.215507372251642 
1106	 0.215504101916859 
1107	 0.215507540098321 
1108	 0.215504343827905 
1109	 0.21552918027915 
1110	 0.215581276727798 
1111	 0.21561847346818 
1112	 0.215647591568789 
1113	 0.215688161272593 
1114	 0.215742570789701 
1115	 0.215780114640422 
1116	 0.21580599923052 
1117	 0.215847211415249 
1118	 0.215882061425679 
1119	 0.215936558558498 
1120	 0.215996924067412 
1121	 0.216034884179314 
1122	 0.216070073967953 
1123	 0.216094436514823 
1124	 0.216141291042394 
1125	 0.216198790399354 
1126	 0.216258217601156 
1127	 0.21632985040474 
1128	 0.21639333732277 
1129	 0.216462151271185 
1130	 0.216515765489305 
1131	 0.216569490147698 
1132	 0.216612595387316 
1133	 0.216632679402241 
1134	 0.216659695489614 
1135	 0.216680502718433 
1136	 0.216712473847361 
1137	 0.216736308530958 
1138	 0.216784460951856 
1139	 0.216817256386543 
1140	 0.216840091286721 
1141	 0.216880933043481 
1142	 0.216928359528656 
1143	 0.216968853537466 
1144	 0.217036023649605 
1145	 0.217072008999572 
1146	 0.217070803899548 
1147	 0.217095937622459 
1148	 0.21712923180321 
1149	 0.217147251659247 
1150	 0.217161836643854 
1151	 0.217192340250203 
1152	 0.217202564425839 
1153	 0.21721910456754 
1154	 0.217231538742924 
1155	 0.217246091732336 
1156	 0.217266826901142 
1157	 0.217287259396589 
1158	 0.217301860000475 
1159	 0.217333993980101 
1160	 0.217340243390188 
1161	 0.217300082146571 
1162	 0.217312122010052 
1163	 0.217346820247268 
1164	 0.217371197174082 
1165	 0.217425161883476 
1166	 0.217470427782491 
1167	 0.217459680113375 
1168	 0.217472610770915 
1169	 0.217480643592957 
1170	 0.217483789194451 
1171	 0.217484194293538 
1172	 0.217487686986413 
1173	 0.217487773099764 
1174	 0.217477542191209 
1175	 0.217477422508288 
1176	 0.217480977800303 
1177	 0.21748773516166 
1178	 0.217493621708739 
1179	 0.2175080169187 
1180	 0.217541221120217 
1181	 0.217559330696178 
1182	 0.217583178934557 
1183	 0.217593296596713 
1184	 0.217588104151759 
1185	 0.217555915939392 
1186	 0.217552472412969 
1187	 0.217546857383374 
1188	 0.2175485140683 
1189	 0.217561095739204 
1190	 0.217581909845378 
1191	 0.21761916449294 
1192	 0.217631261608299 
1193	 0.21764614217846 
1194	 0.217654120476829 
1195	 0.217626357581878 
1196	 0.217623393480191 
1197	 0.217641747870197 
1198	 0.21765180473378 
1199	 0.217662267830071 
1200	 0.217676438212829 
1201	 0.217686619662878 
1202	 0.217694753626226 
1203	 0.217700129394771 
1204	 0.217697187753856 
1205	 0.217710325531019 
1206	 0.217728046401425 
1207	 0.217745827365249 
1208	 0.21777671242645 
1209	 0.217800466173522 
1210	 0.217822247545101 
1211	 0.217838940808824 
1212	 0.217862057276588 
1213	 0.217870410783538 
1214	 0.217855286568597 
1215	 0.217853506158364 
1216	 0.217853265957938 
1217	 0.217845932749915 
1218	 0.217853763272074 
1219	 0.217877390337445 
1220	 0.217890639329971 
1221	 0.217909761966311 
1222	 0.217916059959466 
1223	 0.217913018958213 
1224	 0.217913987008655 
1225	 0.217908331069683 
1226	 0.217906689319066 
1227	 0.217912203559404 
1228	 0.217910711462333 
1229	 0.217899722418058 
1230	 0.217897439904761 
1231	 0.217892559991505 
1232	 0.217894649297689 
1233	 0.217902602959561 
1234	 0.217927744345493 
1235	 0.217926721667947 
1236	 0.217912256648176 
1237	 0.21791822973172 
1238	 0.217918646398088 
1239	 0.217926553479905 
1240	 0.217967500522113 
1241	 0.217970652086117 
1242	 0.217947068264126 
1243	 0.217936262036208 
1244	 0.217907128392941 
1245	 0.217897884091058 
1246	 0.217910011246067 
1247	 0.217910008985741 
1248	 0.217903321560345 
1249	 0.217913731035806 
1250	 0.217915372687889 
1251	 0.217906376800246 
1252	 0.217902877643284 
1253	 0.217904553520637 
1254	 0.217897907811266 
1255	 0.21788415188694 
1256	 0.217877103880275 
1257	 0.21786778550249 
1258	 0.217862727904144 
1259	 0.217864955127912 
1260	 0.21786111274729 
1261	 0.217858997994279 
1262	 0.217851855543128 
1263	 0.217845418891828 
1264	 0.217827618831244 
1265	 0.217790049040155 
1266	 0.217769673685111 
1267	 0.217755249275251 
1268	 0.217729153559988 
1269	 0.217720423380668 
1270	 0.217727769256261 
1271	 0.217731117946 
1272	 0.217732864641461 
1273	 0.217750540880389 
1274	 0.217781971264432 
1275	 0.21780693624637 
1276	 0.217832735754995 
1277	 0.217870600346136 
1278	 0.217914845017919 
1279	 0.217956485881264 
1280	 0.218007935992318 
1281	 0.218056573787165 
1282	 0.218102496146527 
1283	 0.218149096494998 
1284	 0.218201700408816 
1285	 0.218250859062325 
1286	 0.218305919299123 
1287	 0.218333716392908 
1288	 0.218351503703668 
1289	 0.218357781348298 
1290	 0.218362192040784 
1291	 0.218352181817636 
1292	 0.218342224308091 
1293	 0.21833498168623 
1294	 0.218314893107781 
1295	 0.21826820931661 
1296	 0.218244412691118 
1297	 0.218240852429662 
1298	 0.21820884391405 
1299	 0.218173381192307 
1300	 0.218134397808323 
1301	 0.218061842422622 
1302	 0.218013200490324 
1303	 0.217989811586409 
1304	 0.21795364055632 
1305	 0.217893362001113 
1306	 0.21782560902829 
1307	 0.217752860357994 
1308	 0.217669550250548 
1309	 0.217606350387601 
1310	 0.217569208329363 
1311	 0.21750616178057 
1312	 0.217436418904128 
1313	 0.217364812015698 
1314	 0.217279294467885 
1315	 0.217205758458995 
1316	 0.217129006706261 
1317	 0.21707119110108 
1318	 0.217016298974093 
1319	 0.216978746403134 
1320	 0.216969651449775 
1321	 0.216949682769795 
1322	 0.216935695672937 
1323	 0.216922609347815 
1324	 0.21690198314196 
1325	 0.216881925559969 
1326	 0.216878588707581 
1327	 0.2168839477323 
1328	 0.216879683281772 
1329	 0.216864835424497 
1330	 0.216857805864739 
1331	 0.21683692464717 
1332	 0.216838250833549 
1333	 0.216860430713516 
1334	 0.21687132825811 
1335	 0.216880984203094 
1336	 0.216897924899081 
1337	 0.216910318513947 
1338	 0.216933714568157 
1339	 0.21697104201336 
1340	 0.217001961479411 
1341	 0.217048718553111 
1342	 0.217074683800982 
1343	 0.217088990277912 
1344	 0.217097795630849 
1345	 0.217106953025437 
1346	 0.217109670705662 
1347	 0.217132669071597 
1348	 0.217171655167317 
1349	 0.217191934758456 
1350	 0.217210764393737 
1351	 0.217229155339433 
1352	 0.217229808787506 
1353	 0.217258253803664 
1354	 0.217311843268643 
1355	 0.217335823429176 
1356	 0.217362011258252 
1357	 0.217378839230261 
1358	 0.217371202018771 
1359	 0.217378972445275 
1360	 0.217385262965805 
1361	 0.217405933929702 
1362	 0.217436430964953 
1363	 0.217459831065271 
1364	 0.21749875707193 
1365	 0.217526496077417 
1366	 0.217535005928336 
1367	 0.217562644304818 
1368	 0.217592776207993 
1369	 0.217610370249263 
1370	 0.217639173029152 
1371	 0.217649950864095 
1372	 0.217635055352275 
1373	 0.217621739449646 
1374	 0.217595752513413 
1375	 0.217553222383325 
1376	 0.217505373675051 
1377	 0.217447109110728 
1378	 0.217392004340968 
1379	 0.217331829714653 
1380	 0.217261606342623 
1381	 0.217193595503958 
1382	 0.217113911444487 
1383	 0.217016186967504 
1384	 0.216922387739275 
1385	 0.216838935769897 
1386	 0.216733705368607 
1387	 0.216618606340377 
1388	 0.216488498841028 
1389	 0.216353359841647 
1390	 0.216188335914393 
1391	 0.215998312807872 
1392	 0.215790959059886 
1393	 0.215554040874009 
1394	 0.215312877297692 
1395	 0.215059005594611 
1396	 0.214809962217653 
1397	 0.214565278323502 
1398	 0.21431332886704 
1399	 0.214074823631677 
1400	 0.213851377956636 
1401	 0.213614945997799 
1402	 0.21337675972263 
1403	 0.213142178032677 
1404	 0.212893447178698 
1405	 0.212675415490143 
1406	 0.212475563819757 
1407	 0.212272405941865 
1408	 0.212069412948737 
1409	 0.21189600729707 
1410	 0.211728378650628 
1411	 0.211584199354093 
1412	 0.211472274758543 
1413	 0.21136574458015 
1414	 0.211279848467205 
1415	 0.211215149287995 
1416	 0.211155474167742 
1417	 0.211109130292895 
1418	 0.211050697401613 
1419	 0.210963474205715 
1420	 0.210884343937147 
1421	 0.210812438388202 
1422	 0.210732182576916 
1423	 0.210667066566598 
1424	 0.210609853842355 
1425	 0.210557999289856 
1426	 0.210518117907424 
1427	 0.210491101351877 
1428	 0.210467108474209 
1429	 0.210450261963819 
1430	 0.210437106438796 
1431	 0.210438573673175 
1432	 0.210427991708406 
1433	 0.210413242546345 
1434	 0.210407963763313 
1435	 0.210386339903365 
1436	 0.210390372807923 
1437	 0.210421904491834 
1438	 0.210443194847551 
1439	 0.210470812549015 
1440	 0.210508000773025 
1441	 0.210518246266596 
1442	 0.210518405145297 
1443	 0.210522496480283 
1444	 0.210527742334851 
1445	 0.210531278544312 
1446	 0.210534946006123 
1447	 0.210544312414542 
1448	 0.210537046982167 
1449	 0.210536902714618 
1450	 0.210543121706756 
1451	 0.210539755292161 
1452	 0.210522248972969 
1453	 0.210527705470574 
1454	 0.21053891016817 
1455	 0.210554402006229 
1456	 0.210593271841357 
1457	 0.210603845016426 
1458	 0.210599966473635 
1459	 0.210602414210211 
1460	 0.210585665348504 
1461	 0.210592008620607 
1462	 0.210616600537577 
1463	 0.210634166098574 
1464	 0.210665181539516 
1465	 0.210683525456334 
1466	 0.210685848663456 
1467	 0.210701583521184 
1468	 0.210718165961073 
1469	 0.210735743783501 
1470	 0.210766713616312 
1471	 0.210789907627101 
1472	 0.210790539478162 
1473	 0.210797307417006 
1474	 0.210785856528069 
1475	 0.210792284642704 
1476	 0.210835777887465 
1477	 0.210872167063281 
1478	 0.210934617778718 
1479	 0.211013643658504 
1480	 0.211082633028541 
1481	 0.211176467164378 
1482	 0.211274028613885 
1483	 0.211385511145439 
1484	 0.211488989455213 
1485	 0.211604397928167 
1486	 0.211701656115927 
1487	 0.211788848862928 
1488	 0.211879356797176 
1489	 0.211961539124653 
1490	 0.212045247644673 
1491	 0.212135477922937 
1492	 0.212215075912442 
1493	 0.212282631606198 
1494	 0.212361932102704 
1495	 0.212446136743141 
1496	 0.212518628659612 
1497	 0.212594871850911 
1498	 0.212664515018681 
1499	 0.21272028883916 
1500	 0.212777087757649 
1501	 0.212831283634142 
1502	 0.212885373591159 
1503	 0.212929287713847 
1504	 0.212989351045784 
1505	 0.213050057759209 
1506	 0.213120746907536 
1507	 0.213181475947732 
1508	 0.213240270242025 
1509	 0.21330088022875 
1510	 0.213349117560979 
1511	 0.213393203181708 
1512	 0.213436246250872 
1513	 0.213504296380683 
1514	 0.213564179012979 
1515	 0.213629195729286 
1516	 0.213698296120403 
1517	 0.213738659629086 
1518	 0.213744631507568 
1519	 0.213777992531079 
1520	 0.213805467763438 
1521	 0.213848026084322 
1522	 0.213910723950676 
1523	 0.213953117497703 
1524	 0.213991889993011 
1525	 0.21403386345835 
1526	 0.214067934773456 
1527	 0.214105141599503 
1528	 0.214150210718733 
1529	 0.214186138736502 
1530	 0.214209848591279 
1531	 0.214248249163192 
1532	 0.214295089391506 
1533	 0.214335101214812 
1534	 0.214379921787516 
1535	 0.214418844051965 
1536	 0.214446623838347 
1537	 0.214484430487339 
1538	 0.214539669025951 
1539	 0.214567978756766 
1540	 0.214580277483525 
1541	 0.214597839292365 
1542	 0.214598175367982 
1543	 0.214609779710828 
1544	 0.21464500123915 
1545	 0.214657275303416 
1546	 0.214652724688261 
1547	 0.214646930098558 
1548	 0.214649322046816 
1549	 0.214668943938379 
1550	 0.214696629467467 
1551	 0.214717352211934 
1552	 0.214753052266494 
1553	 0.214768207239447 
1554	 0.214793705750315 
1555	 0.214838204317371 
1556	 0.214864414246875 
1557	 0.214893604781432 
1558	 0.214917352104213 
1559	 0.21494019448565 
1560	 0.214951528840324 
1561	 0.214946385564475 
1562	 0.21495295213085 
1563	 0.214957849623043 
1564	 0.214968308243482 
1565	 0.214980018971063 
1566	 0.2150039107096 
1567	 0.215034276974846 
1568	 0.21506128159686 
1569	 0.215102075689713 
1570	 0.215128010178048 
1571	 0.215147612177622 
1572	 0.215167817841183 
1573	 0.215187934690685 
1574	 0.215195009173344 
1575	 0.215189117877387 
1576	 0.215188163926668 
1577	 0.215177199452613 
1578	 0.215177759443819 
1579	 0.215194289655601 
1580	 0.215195333598864 
1581	 0.215195542693586 
1582	 0.215183948560122 
1583	 0.215142159175919 
1584	 0.215137828781463 
1585	 0.215149354614899 
1586	 0.215153003498154 
1587	 0.215181604260459 
1588	 0.215192071797098 
1589	 0.215183112670209 
1590	 0.215183577768343 
1591	 0.215183979442362 
1592	 0.215187446180193 
1593	 0.215196000188673 
1594	 0.215196972458096 
1595	 0.215196185913797 
1596	 0.215199043890285 
1597	 0.215194127231069 
1598	 0.215195109709801 
1599	 0.215210524564862 
1600	 0.215214743335409 
1601	 0.215205213448425 
1602	 0.215209985190889 
1603	 0.215220110559644 
1604	 0.215227134562407 
1605	 0.21524098683495 
1606	 0.2152563880683 
1607	 0.215274372660738 
1608	 0.215281639162399 
1609	 0.215297859916371 
1610	 0.215317260797248 
1611	 0.215298055501034 
1612	 0.215282346531873 
1613	 0.215263602989576 
1614	 0.215231112093228 
1615	 0.215240498463073 
1616	 0.215245294828827 
1617	 0.21523225292402 
1618	 0.215240605650402 
1619	 0.215246837965534 
1620	 0.215256653243259 
1621	 0.215267249306438 
1622	 0.215299361496229 
1623	 0.215296492307915 
1624	 0.215270511826072 
1625	 0.215259693087211 
1626	 0.215242197545438 
1627	 0.215230247965069 
1628	 0.215227056403379 
1629	 0.215218764007314 
1630	 0.215200907143094 
1631	 0.215198942040253 
1632	 0.215207635561587 
1633	 0.215209252639132 
1634	 0.215215832558681 
1635	 0.215218152964349 
1636	 0.215216831871084 
1637	 0.215213693222983 
1638	 0.215206269181351 
1639	 0.21520827332808 
1640	 0.215214236323222 
1641	 0.215212845689072 
1642	 0.215215494029889 
1643	 0.215216188381937 
1644	 0.215206378175758 
1645	 0.215204336248439 
1646	 0.215216764452606 
1647	 0.215207873145907 
1648	 0.215179284551125 
1649	 0.215175885777051 
1650	 0.215171219577662 
1651	 0.215177344474262 
1652	 0.215216799751639 
1653	 0.215218130476762 
1654	 0.215206267654541 
1655	 0.215186990283856 
1656	 0.215137323925619 
1657	 0.215118775646733 
1658	 0.21510779321456 
1659	 0.215099269873024 
1660	 0.21511134492425 
1661	 0.215106078402772 
1662	 0.215087846225249 
1663	 0.215082434590215 
1664	 0.215083792008702 
1665	 0.21507435964632 
1666	 0.215069806039466 
1667	 0.215053379867928 
1668	 0.21501550212448 
1669	 0.214996785143206 
1670	 0.214984536820836 
1671	 0.214970072160872 
1672	 0.214963430001448 
1673	 0.214951127653117 
1674	 0.214929625257188 
1675	 0.214920063175212 
1676	 0.214918726188895 
1677	 0.214912445316042 
1678	 0.214908616926455 
1679	 0.214905950283205 
1680	 0.214908551851169 
1681	 0.214894249115616 
1682	 0.21486649455575 
1683	 0.214855931391708 
1684	 0.214835462605166 
1685	 0.214831527025646 
1686	 0.214849823162957 
1687	 0.214864583227498 
1688	 0.214894144748137 
1689	 0.214894693044599 
1690	 0.214873270399561 
1691	 0.214882547616414 
1692	 0.214897736552874 
1693	 0.214891548553131 
1694	 0.214904464964407 
1695	 0.214895290401352 
1696	 0.214844342695599 
1697	 0.214813452683527 
1698	 0.214791156027344 
1699	 0.214773163414851 
1700	 0.214744793295538 
1701	 0.214737363466701 
1702	 0.214755159255843 
1703	 0.214760334279173 
1704	 0.214779274598365 
1705	 0.214768862789039 
1706	 0.214736330337817 
1707	 0.214717773182744 
1708	 0.214692505289903 
1709	 0.214664174024023 
1710	 0.214631190292875 
1711	 0.214616186093609 
1712	 0.214605628502157 
1713	 0.214589239914871 
1714	 0.214589632120272 
1715	 0.214579429909331 
1716	 0.214547155820311 
1717	 0.214533371547237 
1718	 0.214543885266824 
1719	 0.214529689973791 
1720	 0.214502358195321 
1721	 0.214483603163418 
1722	 0.214454287016149 
1723	 0.214438023147184 
1724	 0.214436322656797 
1725	 0.214418553370313 
1726	 0.214406662262282 
1727	 0.214369019649687 
1728	 0.214304806727528 
1729	 0.214269980009565 
1730	 0.214237017125644 
1731	 0.214190254105611 
1732	 0.214167462177622 
1733	 0.214103800671824 
1734	 0.213992912576022 
1735	 0.213914019888143 
1736	 0.213833645352399 
1737	 0.213761739949891 
1738	 0.213697565691966 
1739	 0.213643642614221 
1740	 0.213597205156642 
1741	 0.213555526210067 
1742	 0.213533777693832 
1743	 0.213488858704846 
1744	 0.213437659661801 
1745	 0.213374368412033 
1746	 0.213291009277901 
1747	 0.213238750605241 
1748	 0.213189145362525 
1749	 0.213156857094321 
1750	 0.213104647195794 
1751	 0.213043230433341 
1752	 0.212982590053594 
1753	 0.212936182913671 
1754	 0.21289276890439 
1755	 0.212868892185081 
1756	 0.212853406986439 
1757	 0.21278705572476 
1758	 0.212737905809916 
1759	 0.212670685190843 
1760	 0.212578646604956 
1761	 0.212528199286956 
1762	 0.212475914700889 
1763	 0.212447698592566 
1764	 0.212433017443193 
1765	 0.2124067747358 
1766	 0.212394990658095 
1767	 0.212386522504198 
1768	 0.212375944923951 
1769	 0.212367249455815 
1770	 0.212355453749197 
1771	 0.212325909398405 
1772	 0.212294188655711 
1773	 0.212270943515737 
1774	 0.212234885065672 
1775	 0.212212300437903 
1776	 0.212195113669118 
1777	 0.212164694514305 
1778	 0.212163429273663 
1779	 0.212162454739921 
1780	 0.212142617228993 
1781	 0.212130644479919 
1782	 0.21211842249257 
1783	 0.212098211393661 
1784	 0.212082441330487 
1785	 0.212063310021267 
1786	 0.212062701695541 
1787	 0.212074737457078 
1788	 0.212084035622291 
1789	 0.212115772453713 
1790	 0.212129774347693 
1791	 0.212124479972599 
1792	 0.212135367620704 
1793	 0.212145689025542 
1794	 0.212149969455255 
1795	 0.21216837681334 
1796	 0.212169886679557 
1797	 0.212163117515211 
1798	 0.212159812825115 
1799	 0.21214066081874 
1800	 0.2121334327051 
1801	 0.210286707118031 
1802	 0.210309918092952 
1803	 0.210332122331282 
1804	 0.210358992845887 
1805	 0.210378292222328 
1806	 0.210369954767329 
1807	 0.210370133491197 
1808	 0.210386451262645 
1809	 0.210412510512322 
1810	 0.210438945799728 
1811	 0.210487747286161 
1812	 0.210519795275847 
1813	 0.210529591655184 
1814	 0.210534030864231 
1815	 0.210526292279158 
1816	 0.210505464226523 
1817	 0.210494106095223 
1818	 0.210466694169046 
1819	 0.210472087466252 
1820	 0.210493468649887 
1821	 0.210528239539178 
1822	 0.210541421249933 
1823	 0.210558768891865 
1824	 0.210559857480327 
1825	 0.210506983578952 
1826	 0.210479522494158 
1827	 0.21045549218061 
1828	 0.210432052840592 
1829	 0.210410374290869 
1830	 0.210398549269009 
1831	 0.210400514119186 
1832	 0.210382816458878 
1833	 0.21035716968551 
1834	 0.210322801420436 
1835	 0.210280738311146 
1836	 0.210253756673598 
1837	 0.210228935891436 
1838	 0.210192208105435 
1839	 0.210171967946057 
1840	 0.210162879389104 
1841	 0.210145263451545 
1842	 0.210123638784759 
1843	 0.210113465050912 
1844	 0.210078691960563 
1845	 0.210024065029411 
1846	 0.209980709021863 
1847	 0.209930227272106 
1848	 0.209873517962819 
1849	 0.209836176141466 
1850	 0.209795949255104 
1851	 0.209759764266944 
1852	 0.20971665038007 
1853	 0.209675235990013 
1854	 0.209626661767995 
1855	 0.209566351186678 
1856	 0.209495376608938 
1857	 0.209416811400864 
1858	 0.209323860549293 
1859	 0.209209799221769 
1860	 0.209090596885175 
1861	 0.208962710434454 
1862	 0.2088293826482 
1863	 0.208691286123736 
1864	 0.208541404933404 
1865	 0.208377441003054 
1866	 0.208193473962015 
1867	 0.207992552187258 
1868	 0.207784158557026 
1869	 0.207560797579106 
1870	 0.207335383072939 
1871	 0.207085064216481 
1872	 0.206814765290293 
1873	 0.206524685582827 
1874	 0.20623155603383 
1875	 0.205923931974348 
1876	 0.205602037353223 
1877	 0.205245756621211 
1878	 0.204832874965103 
1879	 0.204384484549124 
1880	 0.203908002180548 
1881	 0.20338718365428 
1882	 0.202840779891971 
1883	 0.202275691512157 
1884	 0.201665336159721 
1885	 0.20100893751631 
1886	 0.200311395386797 
1887	 0.199586300734075 
1888	 0.198845718773061 
1889	 0.198066264207083 
1890	 0.197269157777948 
1891	 0.196478791856363 
1892	 0.195647465343332 
1893	 0.194859140455948 
1894	 0.194079363183398 
1895	 0.193340228265038 
1896	 0.192599331949496 
1897	 0.191865203548295 
1898	 0.191160896290154 
1899	 0.190466396446765 
1900	 0.189800455016736 
1901	 0.189209708749148 
1902	 0.188658513136365 
1903	 0.188154551379838 
1904	 0.187680846226717 
1905	 0.187260924277079 
1906	 0.186869986061251 
1907	 0.186487987026603 
1908	 0.18613801993303 
1909	 0.185822251368949 
1910	 0.18552799904346 
1911	 0.185250572566099 
1912	 0.18500859700941 
1913	 0.184785394265207 
1914	 0.184587973256401 
1915	 0.184401924955301 
1916	 0.184242744964455 
1917	 0.184085715433424 
1918	 0.183943291927276 
1919	 0.183810859309253 
1920	 0.183695165029371 
1921	 0.183586579220872 
1922	 0.18349217606713 
1923	 0.183406721055563 
1924	 0.183336729182505 
1925	 0.183272439730065 
1926	 0.183241524343141 
1927	 0.183233820938509 
1928	 0.183242808522556 
1929	 0.183264177601107 
1930	 0.183289671904462 
1931	 0.183323291605651 
1932	 0.183351010488263 
1933	 0.183390537323913 
1934	 0.183447988706578 
1935	 0.183519510385894 
1936	 0.18360141996689 
1937	 0.183699315896871 
1938	 0.183822233120697 
1939	 0.183943190145034 
1940	 0.184071302271812 
1941	 0.184206779554513 
1942	 0.184346332090824 
1943	 0.184494258913582 
1944	 0.184650284949283 
1945	 0.18480310812587 
1946	 0.184963323534103 
1947	 0.185130573199994 
1948	 0.185298564267826 
1949	 0.185474003067574 
1950	 0.185644706839855 
1951	 0.185815112705805 
1952	 0.185985826524737 
1953	 0.186152472355664 
1954	 0.186313812100912 
1955	 0.186483348591169 
1956	 0.186659344155368 
1957	 0.186848065272473 
1958	 0.1870515198523 
1959	 0.187253968789904 
1960	 0.187478173186534 
1961	 0.187681323388348 
1962	 0.187869509856778 
1963	 0.188067897526904 
1964	 0.188267440279562 
1965	 0.188455329333273 
1966	 0.188654035326979 
1967	 0.188858827963103 
1968	 0.189069619696218 
1969	 0.189287073402497 
1970	 0.189497756142695 
1971	 0.189720585599979 
1972	 0.189930452157969 
1973	 0.190115824533516 
1974	 0.190325290350098 
1975	 0.190549152242482 
1976	 0.190763872799179 
1977	 0.19099174115044 
1978	 0.19119397953111 
1979	 0.191363342638019 
1980	 0.191570754904767 
1981	 0.191778980578137 
1982	 0.191992229567469 
1983	 0.192211610093731 
1984	 0.192457472936675 
1985	 0.192670224701734 
1986	 0.192856223030771 
1987	 0.193073245348778 
1988	 0.193295095705808 
1989	 0.193516554989972 
1990	 0.193752222458656 
1991	 0.193980257470569 
1992	 0.194203242777641 
1993	 0.194416196945858 
1994	 0.194623627629331 
1995	 0.194838034077111 
1996	 0.195026610381269 
1997	 0.19517899391313 
1998	 0.195356807161106 
1999	 0.19553776639449 
2000	 0.195717089859995 
2001	 0.195911181894623 
2002	 0.196087162803462 
2003	 0.196264280224787 
2004	 0.196447957872412 
2005	 0.196633952041068 
2006	 0.196838573021457 
2007	 0.197018173023797 
2008	 0.197181537293346 
2009	 0.19735849401189 
2010	 0.197527890719339 
2011	 0.197697100285598 
2012	 0.197868823789473 
2013	 0.198049246886981 
2014	 0.198203134863956 
2015	 0.198419884646197 
2016	 0.198635769162554 
2017	 0.198828317329543 
2018	 0.19901969235303 
2019	 0.199207186739964 
2020	 0.199379999390059 
2021	 0.199532974445932 
2022	 0.199704073137535 
2023	 0.199880098188331 
2024	 0.200043111216734 
2025	 0.200206822650936 
2026	 0.20037130048714 
2027	 0.200528230145042 
2028	 0.200674146776196 
2029	 0.200828733974234 
2030	 0.200994724995247 
2031	 0.201147490463525 
2032	 0.201285029781356 
2033	 0.201441161173436 
2034	 0.201608901999139 
2035	 0.201769666746649 
2036	 0.201942250138715 
2037	 0.202096325357813 
2038	 0.202245694813831 
2039	 0.202379312587651 
2040	 0.202494310248581 
2041	 0.202609161672043 
2042	 0.202727270784656 
2043	 0.20282071593323 
2044	 0.202925890860242 
2045	 0.203030460039898 
2046	 0.203142348476607 
2047	 0.203260010870661 
2048	 0.203369925644932 
2049	 0.203482119172863 
2050	 0.203593580416107 
2051	 0.203697848503367 
2052	 0.203799842350645 
2053	 0.203902268880425 
2054	 0.204008333809634 
2055	 0.204109882013131 
2056	 0.204222928323257 
2057	 0.204313688404173 
2058	 0.204403146694114 
2059	 0.204479593050329 
2060	 0.2045249108754 
2061	 0.204599279800073 
2062	 0.204680310574801 
2063	 0.204768671765194 
2064	 0.204867020667401 
2065	 0.204967561716918 
2066	 0.205075822210354 
2067	 0.205183954019706 
2068	 0.205298575129905 
2069	 0.205416333751147 
2070	 0.205517589084171 
2071	 0.205614516503654 
2072	 0.205706145888879 
2073	 0.205777240307566 
2074	 0.205870426999008 
2075	 0.205973352584217 
2076	 0.206070153749401 
2077	 0.206170876057955 
2078	 0.206274445774082 
2079	 0.2063854398868 
2080	 0.206480230415155 
2081	 0.206569792162528 
2082	 0.206658790712537 
2083	 0.206729106778748 
2084	 0.206809638762828 
2085	 0.206892831951532 
2086	 0.206993088773232 
2087	 0.207068219277375 
2088	 0.207131593917723 
2089	 0.207198430747252 
2090	 0.20724789599318 
2091	 0.207314354000077 
2092	 0.207392167888712 
2093	 0.207467170389435 
2094	 0.207550799901567 
2095	 0.207624902569461 
2096	 0.207696229800213 
2097	 0.207765165874277 
2098	 0.207818060852411 
2099	 0.207895403632921 
2100	 0.20794658918935 
2101	 0.207985653703807 
2102	 0.208032326498767 
2103	 0.2080563599519 
2104	 0.208119099317336 
2105	 0.208202421242178 
2106	 0.208291109835769 
2107	 0.208411557603951 
2108	 0.208510490696015 
2109	 0.208602157015748 
2110	 0.208700976415209 
2111	 0.20881415412352 
2112	 0.208898694375962 
2113	 0.208968592268876 
2114	 0.209052791411129 
2115	 0.209093426215764 
2116	 0.209080766616273 
2117	 0.209120797562764 
2118	 0.209154505707181 
2119	 0.209215208736295 
2120	 0.209319956249576 
2121	 0.209395371565229 
2122	 0.209481459067432 
2123	 0.209539620003613 
2124	 0.209577309533915 
2125	 0.20961295250024 
2126	 0.209627309573459 
2127	 0.209647696530165 
2128	 0.209662998712937 
2129	 0.209683065305361 
2130	 0.209700120405875 
2131	 0.209730889859895 
2132	 0.209746367680555 
2133	 0.209773060644039 
2134	 0.20976172887467 
2135	 0.209733149729986 
2136	 0.209687826044916 
2137	 0.209622315811429 
2138	 0.209540200995413 
2139	 0.209428986381719 
2140	 0.209326192940716 
2141	 0.209202503969829 
2142	 0.209088138575593 
2143	 0.208984915790584 
2144	 0.208874774105926 
2145	 0.208769554750977 
2146	 0.208648227874794 
2147	 0.208532305314862 
2148	 0.208380099060069 
2149	 0.208230298609747 
2150	 0.208062230506612 
2151	 0.207899500970653 
2152	 0.207722121085601 
2153	 0.207567395739755 
2154	 0.207426873718294 
2155	 0.207271837479854 
2156	 0.207132159240715 
2157	 0.206970044142582 
2158	 0.206781681298682 
2159	 0.206601357746528 
2160	 0.206421722694585 
2161	 0.206233232194921 
2162	 0.206030358069133 
2163	 0.205841524513657 
2164	 0.205655883045784 
2165	 0.205467626686947 
2166	 0.205281270080179 
2167	 0.205092981146424 
2168	 0.204934797304846 
2169	 0.204795848251451 
2170	 0.204634469713794 
2171	 0.204503390106063 
2172	 0.204330135023044 
2173	 0.20410815953062 
2174	 0.203911003900369 
2175	 0.203711049129148 
2176	 0.203515796428541 
2177	 0.203319013387505 
2178	 0.203132991705524 
2179	 0.20294847324055 
2180	 0.202776132797481 
2181	 0.202603128144267 
2182	 0.202456596331805 
2183	 0.2023367138095 
2184	 0.202219133218323 
2185	 0.202103664678866 
2186	 0.202011428749543 
2187	 0.201901321592998 
2188	 0.20177661515093 
2189	 0.201666329264333 
2190	 0.201559562137524 
2191	 0.201457674704578 
2192	 0.201363445706672 
2193	 0.201268895468014 
2194	 0.201161196489558 
2195	 0.201088052821176 
2196	 0.20105267461099 
2197	 0.200985211530351 
2198	 0.200928585371097 
2199	 0.200864189914964 
2200	 0.200766133877737 
2201	 0.200679205337633 
2202	 0.200608914098022 
2203	 0.200520432593049 
2204	 0.200457951813554 
2205	 0.200403390669629 
2206	 0.200347660900378 
2207	 0.20029777648738 
2208	 0.200271291930372 
2209	 0.200238154591971 
2210	 0.200239004636461 
2211	 0.200283524068019 
2212	 0.200317337336908 
2213	 0.200356952548376 
2214	 0.200410556306314 
2215	 0.200471635196129 
2216	 0.200544133506535 
2217	 0.200642554830488 
2218	 0.20072777862531 
2219	 0.200822077839779 
2220	 0.200908427325065 
2221	 0.200989729876126 
2222	 0.201054336026749 
2223	 0.201143064663643 
2224	 0.201239379321672 
2225	 0.2013406955458 
2226	 0.201472902687827 
2227	 0.201553794384038 
2228	 0.20161715080737 
2229	 0.20167450056576 
2230	 0.201714679906875 
2231	 0.201732358715798 
2232	 0.201724288648099 
2233	 0.201735171101606 
2234	 0.20172726524526 
2235	 0.201730970537869 
2236	 0.201762621103825 
2237	 0.20177408537448 
2238	 0.201760613429661 
2239	 0.2017599215663 
2240	 0.201755909107499 
2241	 0.201770217622679 
2242	 0.201807185122567 
2243	 0.201829593795986 
2244	 0.201884671038397 
2245	 0.201880289466654 
2246	 0.201862795722325 
2247	 0.201868436453172 
2248	 0.201848777478446 
2249	 0.201813852012156 
2250	 0.201785333764466 
2251	 0.201739634594311 
2252	 0.201721750281186 
2253	 0.201715175292283 
2254	 0.201713580652676 
2255	 0.201735647358893 
2256	 0.201733280227162 
2257	 0.201719587390679 
2258	 0.201714267774068 
2259	 0.201708817686535 
2260	 0.201699789522992 
2261	 0.201682520778959 
2262	 0.201687405860626 
2263	 0.201693189450997 
2264	 0.201704096453909 
2265	 0.201744545037391 
2266	 0.20176991779803 
2267	 0.201793310491487 
2268	 0.201808072781641 
2269	 0.201811123589096 
2270	 0.201817417956293 
2271	 0.201826238786904 
2272	 0.201845279746219 
2273	 0.201863018119918 
2274	 0.201850887579681 
2275	 0.201855439273843 
2276	 0.201853202085606 
2277	 0.201842396937823 
2278	 0.201835045150683 
2279	 0.20183823856764 
2280	 0.201827231997468 
2281	 0.201828715482792 
2282	 0.201862999806382 
2283	 0.201860677358041 
2284	 0.201837166607387 
2285	 0.201813319643701 
2286	 0.20177502477537 
2287	 0.20174341083544 
2288	 0.201701928922213 
2289	 0.201680194283095 
2290	 0.201666998969085 
2291	 0.201656599077533 
2292	 0.201648709300046 
2293	 0.201657258640475 
2294	 0.20169980635509 
2295	 0.201709239655027 
2296	 0.201712956465943 
2297	 0.201724266840065 
2298	 0.201683177160924 
2299	 0.201636429216134 
2300	 0.201633461723261 
2301	 0.201622397310138 
2302	 0.201626775058452 
2303	 0.201628779352443 
2304	 0.201564103287985 
2305	 0.201503655660482 
2306	 0.201446972793761 
2307	 0.201373681701266 
2308	 0.201301938868176 
2309	 0.201231490951246 
2310	 0.20117561768694 
2311	 0.201120946995093 
2312	 0.20104812905025 
2313	 0.201004028538201 
2314	 0.200912945532492 
2315	 0.20076973282652 
2316	 0.20065300628709 
2317	 0.200495996911348 
2318	 0.200409289187645 
2319	 0.200350289590209 
2320	 0.200318251767723 
2321	 0.200365036777716 
2322	 0.20037981502172 
2323	 0.200385634594397 
2324	 0.200413045245408 
2325	 0.200452079635816 
2326	 0.200484097489753 
2327	 0.200543733623543 
2328	 0.200570504851428 
2329	 0.200566134292827 
2330	 0.200583008999906 
2331	 0.20063026635436 
2332	 0.200682029715305 
2333	 0.200741933318105 
2334	 0.200751859477608 
2335	 0.200716217265059 
2336	 0.200688100389996 
2337	 0.200640998224313 
2338	 0.200646638299426 
2339	 0.200680675057848 
2340	 0.200695330410513 
2341	 0.200746056836878 
2342	 0.200777648528849 
2343	 0.200793723019694 
2344	 0.200774630952371 
2345	 0.2007363100573 
2346	 0.200641542089915 
2347	 0.200620649891215 
2348	 0.200615094239797 
2349	 0.200622318954401 
2350	 0.200701984441329 
2351	 0.200685445479193 
2352	 0.200631139610115 
2353	 0.200533720900957 
2354	 0.200344943617051 
2355	 0.2002494460332 
2356	 0.200152506407597 
2357	 0.200095058329195 
2358	 0.200118755168631 
2359	 0.200087279737829 
2360	 0.200047620273642 
2361	 0.200000756633165 
2362	 0.19995469230043 
2363	 0.199895108616383 
2364	 0.19979676177739 
2365	 0.199715584008722 
2366	 0.199658608346036 
2367	 0.199536682820379 
2368	 0.199375833699162 
2369	 0.199265761596448 
2370	 0.199140218152684 
2371	 0.199011097121502 
2372	 0.198926696009456 
2373	 0.198817496276117 
2374	 0.198703928912209 
2375	 0.198591559438423 
2376	 0.198537849970019 
2377	 0.198467601759418 
2378	 0.198315263714527 
2379	 0.198187993505709 
2380	 0.198014724175681 
2381	 0.197841078392038 
2382	 0.197707373631332 
2383	 0.197503756380603 
2384	 0.197324574014498 
2385	 0.197201617972939 
2386	 0.197089940810163 
2387	 0.196983519234204 
2388	 0.196863906281824 
2389	 0.196724543260863 
2390	 0.196574763328363 
2391	 0.19643715030376 
2392	 0.196246500426009 
2393	 0.196058113985827 
2394	 0.195884449747752 
2395	 0.195711391429931 
2396	 0.195623534845713 
2397	 0.195474318304286 
2398	 0.195285257337035 
2399	 0.195104171041157 
2400	 0.194893877288935 
2401	 0.194749370062749 
2402	 0.194575723172196 
2403	 0.194417954391345 
2404	 0.194337443886034 
2405	 0.194166309057621 
2406	 0.194044953488357 
2407	 0.194051157586831 
2408	 0.193934023465365 
2409	 0.193827466004925 
2410	 0.193767114222138 
2411	 0.193609987573722 
2412	 0.193549907952814 
2413	 0.193516651861327 
2414	 0.193345839966442 
2415	 0.193075859349259 
2416	 0.192843909712776 
2417	 0.192518282799767 
2418	 0.19228668914186 
2419	 0.19215735174056 
2420	 0.191979569714662 
2421	 0.191787809842273 
2422	 0.191532856866631 
2423	 0.191198985704119 
2424	 0.190958767453228 
2425	 0.190710317002329 
2426	 0.190525865173464 
2427	 0.19049180999597 
2428	 0.190345919690443 
2429	 0.190120576349184 
2430	 0.190008048353566 
2431	 0.189969125160585 
2432	 0.189808057739883 
2433	 0.189666405151979 
2434	 0.189430673525213 
2435	 0.188967936191562 
2436	 0.188713763782604 
2437	 0.188574005632138 
2438	 0.188387334315405 
2439	 0.188251748630364 
2440	 0.188136671838146 
2441	 0.187996013899244 
2442	 0.187929344011596 
2443	 0.187977746650595 
2444	 0.187923920110411 
2445	 0.187824152059626 
2446	 0.187755448717655 
2447	 0.187682606797004 
2448	 0.187564606390394 
2449	 0.187467561054554 
2450	 0.187315177704616 
2451	 0.187083351779114 
2452	 0.186872459145209 
2453	 0.186633721140739 
2454	 0.186412108898118 
2455	 0.1861720371442 
2456	 0.185944216472201 
2457	 0.185786403373898 
2458	 0.185567422870293 
2459	 0.18531118175083 
2460	 0.185071722318575 
2461	 0.184763869000786 
2462	 0.18457815765521 
2463	 0.184499753329965 
2464	 0.184308659597371 
2465	 0.184129166031002 
2466	 0.18392274381852 
2467	 0.183533389169734 
2468	 0.183343290913002 
2469	 0.183397649143641 
2470	 0.183100614130867 
2471	 0.182957904660862 
2472	 0.182971289743781 
2473	 0.182811073067548 
2474	 0.182807943914773 
2475	 0.182748929060368 
2476	 0.182383260952026 
2477	 0.18213313802852 
2478	 0.181984253547388 
2479	 0.181895405732514 
2480	 0.181785438524914 
2481	 0.181578046565264 
2482	 0.181281997315419 
2483	 0.180951042701319 
2484	 0.180924178237255 
2485	 0.180894050149655 
2486	 0.180791483963786 
2487	 0.180803222353989 
2488	 0.180680654501351 
2489	 0.180434266952552 
2490	 0.180260860791465 
2491	 0.180131614232591 
2492	 0.180017711858367 
2493	 0.179971574503922 
2494	 0.179828324974188 
2495	 0.179658305569058 
2496	 0.179569144596987 
2497	 0.179370998769908 
2498	 0.179159151439114 
2499	 0.17908597405676 
2500	 0.178861250689161 
