Wavelength	LMW500008.asd
350	 8.78857780537337E-02 
351	 8.56672768099574E-02 
352	 7.82676419882039E-02 
353	 7.06263374142391E-02 
354	 7.25046289753903E-02 
355	 7.34398008223881E-02 
356	 0.075021918568083 
357	 7.99497252585828E-02 
358	 8.42385970439369E-02 
359	 8.05565864866931E-02 
360	 7.54573919893466E-02 
361	 8.19706636518445E-02 
362	 8.02178038958429E-02 
363	 7.77158484048518E-02 
364	 7.96856134022839E-02 
365	 8.28551695024092E-02 
366	 8.27157859923881E-02 
367	 8.21305630117138E-02 
368	 8.43294339646538E-02 
369	 8.51459011327025E-02 
370	 8.58369278785572E-02 
371	 0.086262090481028 
372	 8.55110241811617E-02 
373	 8.64146997924681E-02 
374	 8.65194488255902E-02 
375	 8.58931787381491E-02 
376	 0.09051202492088 
377	 8.99003110167945E-02 
378	 8.88011188896927E-02 
379	 9.33316591155601E-02 
380	 9.49777332664483E-02 
381	 9.55437700403419E-02 
382	 9.69422055592001E-02 
383	 0.100457104560891 
384	 0.101779969711747 
385	 0.100722326965492 
386	 9.94066322500591E-02 
387	 0.103275946441763 
388	 0.105744867633005 
389	 0.106481924772766 
390	 0.10713964516949 
391	 0.108001610828739 
392	 0.10949111510844 
393	 0.11206731303346 
394	 0.115965878658634 
395	 0.117320484005648 
396	 0.118003690422039 
397	 0.119696588251799 
398	 0.12162688024402 
399	 0.123546931354105 
400	 0.125507600186691 
401	 0.127546654133269 
402	 0.128746373030414 
403	 0.130634560375999 
404	 0.132990320965534 
405	 0.133813769542559 
406	 0.135401770313177 
407	 0.13729455682168 
408	 0.138631552858466 
409	 0.138816516810115 
410	 0.139754169805457 
411	 0.141423695120751 
412	 0.142904457104514 
413	 0.144183894820646 
414	 0.145290062721285 
415	 0.146049842892169 
416	 0.145983631735434 
417	 0.146569661495961 
418	 0.147689857147304 
419	 0.148651984590034 
420	 0.148295205047842 
421	 0.148016482525728 
422	 0.148523345489492 
423	 0.149781479575489 
424	 0.149187739537596 
425	 0.148711940406243 
426	 0.149310191261949 
427	 0.149080740084807 
428	 0.148530531102758 
429	 0.148146456286387 
430	 0.148224448443932 
431	 0.147977811392746 
432	 0.147796925966034 
433	 0.147856494167499 
434	 0.14806203543563 
435	 0.148236063346538 
436	 0.148436521924153 
437	 0.14872722939062 
438	 0.14900339191539 
439	 0.149657798182367 
440	 0.1507030265016 
441	 0.151915440135954 
442	 0.152904771842897 
443	 0.154157370602269 
444	 0.155649722165304 
445	 0.156446273125191 
446	 0.157491318537045 
447	 0.158683495121585 
448	 0.159750144518373 
449	 0.161015224911614 
450	 0.162610812866249 
451	 0.164127359574293 
452	 0.164797619404256 
453	 0.165803234200917 
454	 0.166958869730069 
455	 0.167979516157164 
456	 0.168954506136269 
457	 0.169953474858549 
458	 0.170909692027338 
459	 0.171729951828799 
460	 0.172704146542109 
461	 0.173383490024662 
462	 0.173815028794784 
463	 0.174824263368945 
464	 0.1755080908202 
465	 0.176083900691233 
466	 0.17689911831979 
467	 0.177517561495278 
468	 0.178132900086523 
469	 0.178618438467735 
470	 0.178662787658534 
471	 0.17945578572948 
472	 0.180268482531801 
473	 0.18057039126577 
474	 0.181060356414786 
475	 0.181616735622229 
476	 0.182157036001737 
477	 0.182626039042968 
478	 0.183187686034431 
479	 0.18367435369538 
480	 0.184088293062812 
481	 0.184701199845267 
482	 0.185332757976087 
483	 0.18598706148461 
484	 0.186624943033044 
485	 0.186811018761586 
486	 0.187126006640472 
487	 0.187712226509656 
488	 0.188310936570336 
489	 0.188650715325876 
490	 0.188971998243587 
491	 0.18948767374619 
492	 0.190139913250776 
493	 0.190573512375823 
494	 0.190916369317368 
495	 0.191497218384909 
496	 0.192215278797893 
497	 0.192798574935544 
498	 0.193200235917929 
499	 0.19372705085325 
500	 0.194135747415986 
501	 0.194551633160551 
502	 0.195135962700082 
503	 0.195736508216463 
504	 0.19631918632148 
505	 0.196865497606175 
506	 0.197366185788091 
507	 0.197704419061849 
508	 0.198110509300596 
509	 0.198718674572264 
510	 0.199244764445122 
511	 0.19974530161281 
512	 0.200259225446142 
513	 0.200807157722364 
514	 0.201274816159505 
515	 0.201736444220058 
516	 0.202231552147536 
517	 0.202705673240054 
518	 0.203150172313978 
519	 0.203596678915095 
520	 0.204077911929793 
521	 0.204548095878829 
522	 0.205046239939046 
523	 0.205541786223076 
524	 0.205931633404491 
525	 0.206375740794725 
526	 0.20685872343347 
527	 0.207330278765442 
528	 0.207757401613355 
529	 0.208252557004062 
530	 0.208782027053218 
531	 0.209225426874612 
532	 0.209646050637204 
533	 0.210154704313561 
534	 0.21074665455646 
535	 0.211157751962303 
536	 0.211597209338555 
537	 0.212076197489242 
538	 0.212539129840525 
539	 0.21302911598333 
540	 0.2135265809882 
541	 0.214003957064669 
542	 0.214426040511166 
543	 0.214932485727599 
544	 0.215471017019741 
545	 0.215967713154904 
546	 0.216510669933313 
547	 0.216960167663758 
548	 0.217379275926872 
549	 0.21798797650078 
550	 0.21849962641695 
551	 0.218985765330935 
552	 0.219547507461068 
553	 0.220199084817565 
554	 0.220793970577599 
555	 0.221368851836268 
556	 0.222037831594569 
557	 0.222647651154368 
558	 0.223260901013851 
559	 0.223909957653415 
560	 0.224537616349304 
561	 0.225088618415723 
562	 0.225599475646114 
563	 0.226142027242693 
564	 0.226757527419524 
565	 0.227424927318631 
566	 0.228100590438311 
567	 0.228726030167291 
568	 0.229503275787046 
569	 0.23034278585455 
570	 0.231136674618139 
571	 0.231987480598169 
572	 0.232751418801303 
573	 0.233435514280887 
574	 0.234147901798309 
575	 0.234807634064983 
576	 0.235518736211553 
577	 0.236316030276143 
578	 0.23701891302157 
579	 0.23777455839199 
580	 0.238577425826958 
581	 0.239373947784185 
582	 0.240254819276994 
583	 0.241124198301721 
584	 0.241954175173227 
585	 0.242841978235044 
586	 0.243644513653472 
587	 0.24442601913692 
588	 0.245267789689102 
589	 0.246048279470043 
590	 0.246810579316892 
591	 0.247560296594985 
592	 0.24827049874741 
593	 0.249030619964512 
594	 0.249801312529217 
595	 0.250563974285982 
596	 0.251428455665014 
597	 0.252387242248796 
598	 0.253328992846866 
599	 0.254109382432686 
600	 0.254824267725538 
601	 0.255561774098124 
602	 0.256329427009458 
603	 0.257001022688378 
604	 0.257580245287213 
605	 0.258189918555756 
606	 0.25893909402165 
607	 0.259600777251434 
608	 0.260191333262249 
609	 0.260803013964408 
610	 0.261591888918612 
611	 0.262312841020119 
612	 0.262983428145187 
613	 0.263650712720801 
614	 0.264237285086522 
615	 0.264790398018735 
616	 0.265337753532235 
617	 0.265886213839332 
618	 0.266401748590158 
619	 0.26686797112819 
620	 0.267314446309177 
621	 0.267870334763737 
622	 0.268382428084754 
623	 0.268807205605987 
624	 0.269170529301893 
625	 0.269621481868363 
626	 0.27010100654801 
627	 0.27055685020058 
628	 0.270970499867882 
629	 0.271397558777934 
630	 0.271863249457907 
631	 0.27235255715296 
632	 0.272735066734096 
633	 0.27311182767361 
634	 0.273536672454017 
635	 0.274009754788072 
636	 0.274367421915808 
637	 0.274731845185222 
638	 0.275183542862231 
639	 0.275570691979337 
640	 0.275990002424195 
641	 0.276423776724006 
642	 0.276818463058846 
643	 0.277279860071204 
644	 0.27767667372677 
645	 0.278003731317868 
646	 0.278469209688677 
647	 0.278913402722722 
648	 0.279335865195018 
649	 0.279769062603494 
650	 0.280173195357808 
651	 0.280654669665173 
652	 0.281165130446185 
653	 0.281534997094663 
654	 0.281968669274464 
655	 0.28238628425706 
656	 0.282738744838666 
657	 0.283180795880055 
658	 0.283658182431995 
659	 0.284127528737139 
660	 0.284554172299565 
661	 0.28496005871039 
662	 0.285420679763742 
663	 0.285952271486463 
664	 0.286483406342121 
665	 0.286911352277553 
666	 0.287310724672887 
667	 0.287773057245271 
668	 0.288199750291075 
669	 0.288699906211125 
670	 0.289233690942678 
671	 0.289644484089165 
672	 0.290065295620127 
673	 0.290552866141897 
674	 0.291099948312946 
675	 0.291583620500912 
676	 0.292075665870112 
677	 0.292573962439058 
678	 0.293055589957824 
679	 0.293580598819255 
680	 0.294068498486796 
681	 0.294520504260463 
682	 0.295059445688149 
683	 0.29556567673722 
684	 0.296034331176579 
685	 0.296509034298327 
686	 0.297104985944351 
687	 0.297606847177112 
688	 0.298037834515526 
689	 0.298583449639761 
690	 0.299166669271165 
691	 0.299643647758962 
692	 0.300026654258896 
693	 0.30067406996596 
694	 0.301198601786143 
695	 0.301658436508037 
696	 0.302218270062584 
697	 0.302658123230352 
698	 0.303184550550169 
699	 0.303796298859951 
700	 0.304259116110326 
701	 0.304780194631003 
702	 0.305301827423744 
703	 0.305760175298819 
704	 0.30622610524238 
705	 0.306725855463663 
706	 0.30726790103695 
707	 0.307828824547849 
708	 0.308242899222205 
709	 0.308677922468755 
710	 0.30919737811078 
711	 0.309663610232447 
712	 0.310157683910922 
713	 0.310626696254832 
714	 0.311028351958894 
715	 0.31148934172619 
716	 0.311987666532925 
717	 0.312478644815155 
718	 0.312908094594247 
719	 0.313301727823177 
720	 0.313701661429116 
721	 0.314106430856753 
722	 0.314417442423871 
723	 0.314812864958723 
724	 0.315244693831019 
725	 0.315609626908108 
726	 0.315958995495609 
727	 0.316303247682354 
728	 0.31663830147613 
729	 0.316948213251509 
730	 0.317250215453267 
731	 0.317529746224017 
732	 0.317785804524201 
733	 0.318063740154977 
734	 0.31834457076173 
735	 0.318595319385576 
736	 0.318791025771732 
737	 0.318993003570389 
738	 0.319206593423361 
739	 0.319400130598682 
740	 0.319511735577838 
741	 0.319665228187035 
742	 0.319861945726002 
743	 0.320056174057375 
744	 0.320158105793713 
745	 0.32020176471362 
746	 0.320233386065241 
747	 0.32029776008986 
748	 0.320370019419007 
749	 0.320454536737979 
750	 0.320520128193668 
751	 0.320494099276917 
752	 0.320528793079485 
753	 0.320531269742139 
754	 0.320438241143195 
755	 0.320450757726718 
756	 0.32041504507769 
757	 0.320348715787686 
758	 0.32033828281822 
759	 0.320282508303688 
760	 0.32018887842691 
761	 0.3200709844698 
762	 0.319936918082843 
763	 0.319869486505873 
764	 0.319763887007722 
765	 0.31955831227983 
766	 0.319454825357325 
767	 0.319314683071995 
768	 0.319147995485379 
769	 0.319020979752558 
770	 0.318819698626394 
771	 0.318651645745004 
772	 0.318533991248424 
773	 0.318355537853645 
774	 0.318147280630453 
775	 0.317987703374318 
776	 0.317900006806208 
777	 0.317733243696672 
778	 0.317516126859998 
779	 0.317276620297733 
780	 0.317043440252622 
781	 0.316815135861326 
782	 0.316642152114817 
783	 0.316498368703413 
784	 0.316280082417228 
785	 0.31604619594988 
786	 0.315838928539283 
787	 0.315665660680922 
788	 0.315467672887671 
789	 0.315171532054379 
790	 0.314893642636919 
791	 0.314769310331159 
792	 0.314621332759491 
793	 0.314406340128652 
794	 0.314148021880343 
795	 0.313922628316517 
796	 0.313748060063106 
797	 0.31360348985887 
798	 0.313430250150017 
799	 0.313108451284084 
800	 0.312912529372978 
801	 0.31278977796803 
802	 0.312605524994451 
803	 0.312330282680265 
804	 0.312177455903412 
805	 0.312093709290207 
806	 0.311876419460701 
807	 0.311649209316894 
808	 0.311418717298604 
809	 0.311208708050294 
810	 0.311075182592945 
811	 0.310994857323207 
812	 0.310893408964804 
813	 0.310724374664027 
814	 0.310547959742458 
815	 0.310311314342696 
816	 0.31010126011775 
817	 0.310016956164858 
818	 0.30990729312139 
819	 0.309751101081238 
820	 0.309592056786285 
821	 0.309504352096516 
822	 0.309294805495841 
823	 0.309111470007022 
824	 0.309036706103813 
825	 0.308962821942296 
826	 0.308821619090834 
827	 0.308693020112617 
828	 0.308627223021641 
829	 0.308430945180397 
830	 0.308234703858635 
831	 0.308082080455163 
832	 0.307974004237712 
833	 0.307950874825819 
834	 0.307877952964082 
835	 0.307754048263946 
836	 0.307700716853364 
837	 0.307542777779478 
838	 0.307479678671974 
839	 0.307543207513497 
840	 0.307384367425704 
841	 0.307258186380952 
842	 0.307152760658692 
843	 0.307029567491837 
844	 0.307002732342635 
845	 0.306962057778049 
846	 0.30692986999867 
847	 0.306958829660925 
848	 0.306896069377597 
849	 0.306830425262902 
850	 0.306811414385638 
851	 0.306827810318869 
852	 0.306748949949032 
853	 0.30666903552909 
854	 0.306647242999247 
855	 0.306642320800155 
856	 0.30670262900546 
857	 0.306706756338804 
858	 0.306597656864423 
859	 0.306572561182026 
860	 0.306603958998409 
861	 0.306602383378799 
862	 0.30652628590587 
863	 0.306660581261537 
864	 0.306737803743722 
865	 0.306740358594874 
866	 0.306789892028334 
867	 0.306710703217352 
868	 0.306729077973878 
869	 0.30689490040343 
870	 0.307031169422692 
871	 0.306901730247709 
872	 0.306782046469896 
873	 0.306877858465569 
874	 0.307131360026726 
875	 0.307259876603799 
876	 0.307303452433122 
877	 0.30735724987166 
878	 0.307400093078173 
879	 0.307576718995732 
880	 0.307714611855352 
881	 0.307651212247641 
882	 0.307742535795213 
883	 0.307919093504718 
884	 0.308083535569192 
885	 0.308154228314267 
886	 0.308220945020126 
887	 0.308326278768435 
888	 0.308438519824231 
889	 0.308492773357526 
890	 0.30872718901708 
891	 0.308919694999154 
892	 0.309006167450669 
893	 0.30918385116476 
894	 0.30931996436324 
895	 0.309438198345752 
896	 0.309589730926353 
897	 0.309819977694846 
898	 0.309994505212066 
899	 0.310174999127674 
900	 0.310413761365165 
901	 0.310599745081811 
902	 0.310699309348762 
903	 0.310839419601993 
904	 0.311131429079142 
905	 0.311401150228682 
906	 0.311740018764706 
907	 0.312006359704931 
908	 0.312055586280755 
909	 0.312297652292243 
910	 0.312519390899771 
911	 0.312653940303487 
912	 0.312788823107037 
913	 0.313198883529699 
914	 0.313529471653391 
915	 0.313740604186505 
916	 0.314079940670753 
917	 0.314209574896044 
918	 0.314430583903483 
919	 0.314843846292489 
920	 0.315223622624974 
921	 0.315452627368987 
922	 0.315661163894408 
923	 0.315954532494877 
924	 0.316321710403834 
925	 0.31665356375216 
926	 0.316995119079583 
927	 0.317353738883788 
928	 0.31760498172486 
929	 0.318020171876469 
930	 0.318453817202293 
931	 0.318757570172071 
932	 0.31903919111393 
933	 0.319285360360499 
934	 0.319574013158337 
935	 0.31996139221058 
936	 0.320384962731092 
937	 0.320750770408179 
938	 0.321079945244664 
939	 0.321441421466971 
940	 0.321904729534297 
941	 0.322330803466195 
942	 0.32274687475858 
943	 0.323216160040165 
944	 0.323653032102327 
945	 0.324076305450108 
946	 0.324504314995509 
947	 0.324935024209579 
948	 0.325290962065345 
949	 0.325610054992321 
950	 0.325948841771367 
951	 0.326367660354474 
952	 0.326919505110185 
953	 0.327418524490024 
954	 0.327780169006138 
955	 0.328064137660776 
956	 0.328653049516376 
957	 0.329192370572776 
958	 0.329641399061581 
959	 0.330151793763963 
960	 0.330609186794254 
961	 0.331038167899157 
962	 0.331488428752772 
963	 0.331993159949306 
964	 0.332431523629807 
965	 0.332940068002996 
966	 0.33352730604494 
967	 0.334097940751728 
968	 0.334570030676231 
969	 0.335080419474194 
970	 0.335658512961614 
971	 0.336242055109675 
972	 0.33680058344788 
973	 0.337342553297673 
974	 0.33794555327145 
975	 0.338668643067084 
976	 0.339238746371845 
977	 0.339682887045642 
978	 0.340190422739693 
979	 0.340924769813787 
980	 0.34142861060407 
981	 0.341810617507524 
982	 0.342237032432182 
983	 0.342841627155845 
984	 0.343551124797696 
985	 0.344143956380973 
986	 0.344655108137324 
987	 0.345230957461802 
988	 0.345719461785866 
989	 0.34632127454084 
990	 0.346964294106793 
991	 0.347492551875688 
992	 0.348107048148133 
993	 0.348624391345682 
994	 0.349168566434695 
995	 0.349877722826965 
996	 0.350335626283025 
997	 0.350976757814386 
998	 0.351647818294279 
999	 0.352130498634328 
1000	 0.352879173247877 
1001	 0.355097561304275 
1002	 0.355587236933718 
1003	 0.356152908184792 
1004	 0.356711646815995 
1005	 0.35723546665555 
1006	 0.357785617220041 
1007	 0.358386822848643 
1008	 0.358965872119329 
1009	 0.359447478625823 
1010	 0.359909669116929 
1011	 0.36034136960029 
1012	 0.360794817101818 
1013	 0.361296331566129 
1014	 0.361807461788555 
1015	 0.362305714194889 
1016	 0.362765722407388 
1017	 0.363223761369901 
1018	 0.363661003912844 
1019	 0.364113321266365 
1020	 0.364588824101645 
1021	 0.365064314980993 
1022	 0.365507234842369 
1023	 0.365906934042574 
1024	 0.366310933707041 
1025	 0.366714679023985 
1026	 0.367146937519923 
1027	 0.367625371248241 
1028	 0.368050082998515 
1029	 0.368524325882263 
1030	 0.368959903669353 
1031	 0.369344637237213 
1032	 0.369678368262302 
1033	 0.370095611997069 
1034	 0.370463617706869 
1035	 0.370877670042854 
1036	 0.371403696375263 
1037	 0.371844651242994 
1038	 0.37222838382967 
1039	 0.372647870544847 
1040	 0.373041551201572 
1041	 0.373433530214601 
1042	 0.373883645660276 
1043	 0.374270899167256 
1044	 0.37466368170339 
1045	 0.375028163353215 
1046	 0.375460563621662 
1047	 0.375895764817498 
1048	 0.376355326640603 
1049	 0.37680379949222 
1050	 0.377205180105195 
1051	 0.377610290899162 
1052	 0.377996052252508 
1053	 0.378400853249767 
1054	 0.378811421264087 
1055	 0.379147039218556 
1056	 0.379485358728253 
1057	 0.379834419482126 
1058	 0.380150406767682 
1059	 0.380518853182716 
1060	 0.380948175685684 
1061	 0.381324792146206 
1062	 0.381658672931673 
1063	 0.381959284923604 
1064	 0.382207211348724 
1065	 0.382483304534156 
1066	 0.3827778909417 
1067	 0.383074814652008 
1068	 0.38339358398921 
1069	 0.383695614152231 
1070	 0.383974272601119 
1071	 0.384243668394907 
1072	 0.384523895505791 
1073	 0.384791344968079 
1074	 0.385026679229828 
1075	 0.38525556078361 
1076	 0.385475847478012 
1077	 0.385692920167149 
1078	 0.3859165804881 
1079	 0.386102990099403 
1080	 0.386287709369638 
1081	 0.38646077129109 
1082	 0.386620281718187 
1083	 0.386787083817598 
1084	 0.386983656824822 
1085	 0.387168068652876 
1086	 0.387316592267752 
1087	 0.387493679461338 
1088	 0.387692934923699 
1089	 0.387893912313422 
1090	 0.388083985741671 
1091	 0.388288771333923 
1092	 0.388512107728285 
1093	 0.388738270304933 
1094	 0.388947097931584 
1095	 0.389172635876718 
1096	 0.389399693372585 
1097	 0.389613850950335 
1098	 0.3898596682003 
1099	 0.390146557630581 
1100	 0.390405067123449 
1101	 0.390651418149371 
1102	 0.39092316967942 
1103	 0.391207810623118 
1104	 0.391473018066528 
1105	 0.391743394674773 
1106	 0.392044208596455 
1107	 0.392350201453658 
1108	 0.392647010874447 
1109	 0.392969866737832 
1110	 0.393331286716246 
1111	 0.393674340883875 
1112	 0.394024809630259 
1113	 0.394353536025254 
1114	 0.394647771254659 
1115	 0.394988234114038 
1116	 0.395346577577879 
1117	 0.395699619561427 
1118	 0.396074181481091 
1119	 0.396457302516328 
1120	 0.396840228092834 
1121	 0.397172252799789 
1122	 0.397498596469126 
1123	 0.397875732496006 
1124	 0.398256956835661 
1125	 0.398642488174094 
1126	 0.399019631773569 
1127	 0.399421436177758 
1128	 0.399799720033554 
1129	 0.400152647819518 
1130	 0.400510549680126 
1131	 0.400891684423115 
1132	 0.401240705623957 
1133	 0.401567142697557 
1134	 0.40188574539871 
1135	 0.402202300290601 
1136	 0.40248285152063 
1137	 0.402737355749442 
1138	 0.402993973340314 
1139	 0.403278613261274 
1140	 0.403565586166671 
1141	 0.403850110962346 
1142	 0.40416556712374 
1143	 0.404458803932105 
1144	 0.404742641380062 
1145	 0.405007875746832 
1146	 0.40526605214752 
1147	 0.40551505236981 
1148	 0.40572523473628 
1149	 0.405961705151824 
1150	 0.40620882857828 
1151	 0.406462663820411 
1152	 0.406724903207604 
1153	 0.406986135097993 
1154	 0.407232156676528 
1155	 0.407472277336609 
1156	 0.407709680734623 
1157	 0.407938626972296 
1158	 0.408162462174306 
1159	 0.408376638874053 
1160	 0.408604117179068 
1161	 0.408836688888516 
1162	 0.409057888278188 
1163	 0.409288949766545 
1164	 0.40950817433931 
1165	 0.409710765018486 
1166	 0.409909305547448 
1167	 0.410121614329598 
1168	 0.410335566021796 
1169	 0.410545699243981 
1170	 0.410769311097313 
1171	 0.410960485334542 
1172	 0.411132960644892 
1173	 0.411308515296406 
1174	 0.411459434843731 
1175	 0.411632797256962 
1176	 0.411822327723084 
1177	 0.412003320585875 
1178	 0.412182647870368 
1179	 0.412367011947741 
1180	 0.41255875764446 
1181	 0.412737618829741 
1182	 0.412907368594279 
1183	 0.413093650675572 
1184	 0.413262830153838 
1185	 0.413414393575671 
1186	 0.413579892243233 
1187	 0.413754703384351 
1188	 0.413913752139556 
1189	 0.41407196324319 
1190	 0.414221542512713 
1191	 0.414349624734095 
1192	 0.414497273774939 
1193	 0.414649722648935 
1194	 0.41480289591888 
1195	 0.414969055997726 
1196	 0.415126913120983 
1197	 0.415278323754254 
1198	 0.415432217475479 
1199	 0.415586102460909 
1200	 0.415741178807789 
1201	 0.415891163958068 
1202	 0.416045108344857 
1203	 0.416184406866303 
1204	 0.416308143947364 
1205	 0.416446191609277 
1206	 0.416579840357368 
1207	 0.416720500906413 
1208	 0.416876679740053 
1209	 0.417021302349579 
1210	 0.417165220780075 
1211	 0.417302097235504 
1212	 0.417438081977198 
1213	 0.417563802277987 
1214	 0.417676555865711 
1215	 0.417790912751915 
1216	 0.417901948995567 
1217	 0.417999416710942 
1218	 0.418119956101821 
1219	 0.41825143039346 
1220	 0.418376535816757 
1221	 0.418517537815473 
1222	 0.41863806718549 
1223	 0.418746757727082 
1224	 0.418854674116055 
1225	 0.418952379249053 
1226	 0.419054562707989 
1227	 0.419152401799332 
1228	 0.419255917746451 
1229	 0.419376710030638 
1230	 0.419475733322643 
1231	 0.419558569418868 
1232	 0.419649461043831 
1233	 0.419737597774341 
1234	 0.419805589560214 
1235	 0.419902893981019 
1236	 0.420023619264549 
1237	 0.420126980390186 
1238	 0.420239827241734 
1239	 0.420334621364349 
1240	 0.42040886901228 
1241	 0.42049841352345 
1242	 0.420586642880767 
1243	 0.420677131549921 
1244	 0.420786642600309 
1245	 0.420874393367997 
1246	 0.420941847932399 
1247	 0.421021382361301 
1248	 0.421093091342636 
1249	 0.421170226377584 
1250	 0.421270058811231 
1251	 0.421365183421326 
1252	 0.421450910412672 
1253	 0.421539531572684 
1254	 0.421608844044381 
1255	 0.421656352011006 
1256	 0.421719505536727 
1257	 0.421773472097999 
1258	 0.421842333676164 
1259	 0.421932099629555 
1260	 0.422005658224828 
1261	 0.422083231471397 
1262	 0.422145768995356 
1263	 0.422188827646469 
1264	 0.422239726555654 
1265	 0.422281346776519 
1266	 0.422333397311192 
1267	 0.422401184661663 
1268	 0.422453020364099 
1269	 0.422516984065958 
1270	 0.4225850035814 
1271	 0.422655837615425 
1272	 0.422727795177149 
1273	 0.422809063434413 
1274	 0.422897473926437 
1275	 0.42298627099928 
1276	 0.423081571623063 
1277	 0.423179346155984 
1278	 0.423267172157754 
1279	 0.423379221686873 
1280	 0.423518971901952 
1281	 0.423641878666836 
1282	 0.423777116290098 
1283	 0.423900357077183 
1284	 0.424030920176886 
1285	 0.424119064241638 
1286	 0.424177792761956 
1287	 0.424255725716621 
1288	 0.424307892861296 
1289	 0.424329055874244 
1290	 0.424351950122398 
1291	 0.424375193154752 
1292	 0.424384748007461 
1293	 0.424378862025253 
1294	 0.424358229563939 
1295	 0.424333005114836 
1296	 0.424289987417825 
1297	 0.424214484055795 
1298	 0.424153172466456 
1299	 0.424097613166815 
1300	 0.424024727803081 
1301	 0.423952172799675 
1302	 0.423859339732907 
1303	 0.423746129880399 
1304	 0.423625415252962 
1305	 0.42349937885313 
1306	 0.423376578479388 
1307	 0.423228567808714 
1308	 0.423073137660168 
1309	 0.422921352828185 
1310	 0.422747681781072 
1311	 0.422596108138404 
1312	 0.422459052648385 
1313	 0.422321006864357 
1314	 0.422184027340495 
1315	 0.422059390586633 
1316	 0.42193047271699 
1317	 0.42183334025032 
1318	 0.421766886425834 
1319	 0.421684466874467 
1320	 0.421622084836249 
1321	 0.421549184101562 
1322	 0.421457271427928 
1323	 0.421373250575814 
1324	 0.421313725511076 
1325	 0.421267831298844 
1326	 0.421236382689482 
1327	 0.421218954793007 
1328	 0.421184393586172 
1329	 0.421146476079154 
1330	 0.421125508013174 
1331	 0.421090465790933 
1332	 0.421098873495591 
1333	 0.421142249223724 
1334	 0.421180721348052 
1335	 0.421233100957855 
1336	 0.421299700284604 
1337	 0.42137520871603 
1338	 0.421454068338695 
1339	 0.421559383487383 
1340	 0.421645290472849 
1341	 0.421724252771159 
1342	 0.421801918651612 
1343	 0.421868292316798 
1344	 0.421945293218651 
1345	 0.42203081851596 
1346	 0.42210693843209 
1347	 0.422182809237257 
1348	 0.422262297139516 
1349	 0.422315699546691 
1350	 0.422353901113551 
1351	 0.422403378176566 
1352	 0.422442575128313 
1353	 0.422496392400053 
1354	 0.422563625385338 
1355	 0.422625023945569 
1356	 0.422693872066104 
1357	 0.422754021322825 
1358	 0.422810524257709 
1359	 0.422862094226415 
1360	 0.422907702599113 
1361	 0.422951244181825 
1362	 0.422997538923859 
1363	 0.423031647752019 
1364	 0.423070674975473 
1365	 0.42308647659645 
1366	 0.423094072867729 
1367	 0.423066902713191 
1368	 0.423042155438907 
1369	 0.422987652416752 
1370	 0.42290059638552 
1371	 0.422822330900451 
1372	 0.422700110219098 
1373	 0.422541452405348 
1374	 0.422352739115429 
1375	 0.422141934228308 
1376	 0.421869907870003 
1377	 0.42157255635339 
1378	 0.42119508470249 
1379	 0.42074608226006 
1380	 0.420273106963728 
1381	 0.419750413846412 
1382	 0.419178445086846 
1383	 0.418592878221398 
1384	 0.417912137005648 
1385	 0.417194927237344 
1386	 0.416361308447253 
1387	 0.415458435448912 
1388	 0.41444553667928 
1389	 0.413342221312216 
1390	 0.412109436278173 
1391	 0.410785164443913 
1392	 0.409351752957144 
1393	 0.407795541957509 
1394	 0.406183996215342 
1395	 0.404490570854263 
1396	 0.402760408998481 
1397	 0.401042837671582 
1398	 0.399286525895376 
1399	 0.397561650503866 
1400	 0.395812029509844 
1401	 0.394149746030853 
1402	 0.392498245710489 
1403	 0.390932144209526 
1404	 0.389420497765721 
1405	 0.388004701632863 
1406	 0.38663557126628 
1407	 0.385381066795851 
1408	 0.384179208918187 
1409	 0.383150912128791 
1410	 0.382200755922343 
1411	 0.381458164796156 
1412	 0.380868829216003 
1413	 0.380473331536804 
1414	 0.380290221516386 
1415	 0.380243510384427 
1416	 0.380397591445321 
1417	 0.380679568574167 
1418	 0.38101083591642 
1419	 0.381370174094157 
1420	 0.381727943303321 
1421	 0.382070642073255 
1422	 0.382344256774019 
1423	 0.382585930342474 
1424	 0.382763159960882 
1425	 0.382863007618495 
1426	 0.382948386927006 
1427	 0.382982744499452 
1428	 0.383019919666764 
1429	 0.38303202355102 
1430	 0.383029892580678 
1431	 0.383014536631297 
1432	 0.38298174232005 
1433	 0.382913070780175 
1434	 0.38286095657328 
1435	 0.382794645976437 
1436	 0.382751428115643 
1437	 0.382725976604112 
1438	 0.382696575166795 
1439	 0.382681295159992 
1440	 0.382658007499348 
1441	 0.382618009995047 
1442	 0.382571601636569 
1443	 0.382525018955423 
1444	 0.382482966369032 
1445	 0.382466381680893 
1446	 0.382471523577793 
1447	 0.382471290809437 
1448	 0.38247371379741 
1449	 0.382467495542767 
1450	 0.382440777309847 
1451	 0.382426512110999 
1452	 0.382403705125324 
1453	 0.382411880789496 
1454	 0.382436500029683 
1455	 0.382457642077922 
1456	 0.382507796338884 
1457	 0.382531955533238 
1458	 0.38252156567305 
1459	 0.382557334980249 
1460	 0.382598705627171 
1461	 0.382660586652091 
1462	 0.382760364190394 
1463	 0.382856943249649 
1464	 0.382939001076417 
1465	 0.383072751457289 
1466	 0.383229883850293 
1467	 0.383412211230081 
1468	 0.383639415173399 
1469	 0.383872876177013 
1470	 0.384117196985244 
1471	 0.384389907946205 
1472	 0.384677841491831 
1473	 0.385001158239903 
1474	 0.38533338333393 
1475	 0.385673161958666 
1476	 0.386034219136007 
1477	 0.38639183323532 
1478	 0.38678395328913 
1479	 0.387197893534114 
1480	 0.387600773076776 
1481	 0.388023673185511 
1482	 0.388419815895673 
1483	 0.38879544882641 
1484	 0.389177316209962 
1485	 0.389553675281088 
1486	 0.389931688148344 
1487	 0.390306408568376 
1488	 0.390688989695885 
1489	 0.391081853043266 
1490	 0.391452752127953 
1491	 0.391825476521064 
1492	 0.392188153207825 
1493	 0.392518826829087 
1494	 0.392874442840131 
1495	 0.393244089898189 
1496	 0.393600558505999 
1497	 0.393966631197212 
1498	 0.394320286461495 
1499	 0.394670996614866 
1500	 0.39499766353151 
1501	 0.395301737156727 
1502	 0.395612499747882 
1503	 0.395900605096922 
1504	 0.396201613687066 
1505	 0.396531713748139 
1506	 0.396853518255856 
1507	 0.397158161261408 
1508	 0.397460391391257 
1509	 0.397741467695078 
1510	 0.397997571814026 
1511	 0.398271106838127 
1512	 0.398553889187942 
1513	 0.398837940448914 
1514	 0.399129007375712 
1515	 0.399438911059775 
1516	 0.399738500533594 
1517	 0.400012573740277 
1518	 0.400280355337228 
1519	 0.400539272871385 
1520	 0.400757621234496 
1521	 0.401008757624815 
1522	 0.401278995949059 
1523	 0.401536317801122 
1524	 0.401811731069311 
1525	 0.402049192553711 
1526	 0.402254039212465 
1527	 0.402476000778091 
1528	 0.402680547726771 
1529	 0.402895350302676 
1530	 0.403121752622096 
1531	 0.403350218676014 
1532	 0.403580275030408 
1533	 0.403806304304944 
1534	 0.404049706784928 
1535	 0.404272816599361 
1536	 0.404482351278233 
1537	 0.404681900661547 
1538	 0.404858708894722 
1539	 0.405047199720255 
1540	 0.405233415483001 
1541	 0.405419637605642 
1542	 0.405627387424486 
1543	 0.405806667797815 
1544	 0.405960006703588 
1545	 0.406120800413796 
1546	 0.406259102208568 
1547	 0.406414155172363 
1548	 0.406594430621021 
1549	 0.406787105973471 
1550	 0.407019564020087 
1551	 0.407244542647829 
1552	 0.407448359704042 
1553	 0.407632554340882 
1554	 0.407760487711279 
1555	 0.407889365216643 
1556	 0.408049369380705 
1557	 0.408189385523263 
1558	 0.408310895383925 
1559	 0.4084289639712 
1560	 0.408547611093735 
1561	 0.408630685720312 
1562	 0.408757976166477 
1563	 0.408911686884567 
1564	 0.409066231805988 
1565	 0.409231826512719 
1566	 0.409401491736659 
1567	 0.409587937732562 
1568	 0.409761948664934 
1569	 0.40994085527441 
1570	 0.410092708718655 
1571	 0.410250304383377 
1572	 0.410365990589401 
1573	 0.410429808859815 
1574	 0.410528010303456 
1575	 0.410612732744449 
1576	 0.410701875253663 
1577	 0.410826953950387 
1578	 0.410905841327425 
1579	 0.410945419133479 
1580	 0.411008359675572 
1581	 0.411050615046941 
1582	 0.411120314274852 
1583	 0.411214738494815 
1584	 0.41130589651064 
1585	 0.411403408643963 
1586	 0.411504011720234 
1587	 0.411622385758381 
1588	 0.411716929794845 
1589	 0.411805597061857 
1590	 0.411890423831192 
1591	 0.411946364682664 
1592	 0.412026193012157 
1593	 0.412127631533031 
1594	 0.412209998188197 
1595	 0.412294590080384 
1596	 0.412372531129141 
1597	 0.41242862920128 
1598	 0.412497483028959 
1599	 0.412584624466276 
1600	 0.412650590399675 
1601	 0.412698077189083 
1602	 0.412758608149335 
1603	 0.412819372997988 
1604	 0.412873002456849 
1605	 0.412925226938535 
1606	 0.412988407825181 
1607	 0.413050362608995 
1608	 0.413110235461802 
1609	 0.413190744192412 
1610	 0.413253772145199 
1611	 0.413280853148902 
1612	 0.413317427824072 
1613	 0.413347685597999 
1614	 0.41338230267202 
1615	 0.41343630447746 
1616	 0.413466349217961 
1617	 0.41346074030852 
1618	 0.413484593494879 
1619	 0.413518054868627 
1620	 0.413531920564895 
1621	 0.413562118460405 
1622	 0.413611068293099 
1623	 0.41365383347305 
1624	 0.413692745878376 
1625	 0.413731228174612 
1626	 0.413774978831299 
1627	 0.413825514572778 
1628	 0.413872392937104 
1629	 0.413923315206929 
1630	 0.413996623317071 
1631	 0.414032802868784 
1632	 0.414045366061745 
1633	 0.414072914208674 
1634	 0.414094926187515 
1635	 0.414110069377664 
1636	 0.414129516348617 
1637	 0.414139966366586 
1638	 0.414122259357627 
1639	 0.414146699816436 
1640	 0.414201816738232 
1641	 0.414221894733134 
1642	 0.414243761706496 
1643	 0.414266622923079 
1644	 0.414262259522157 
1645	 0.414282800902442 
1646	 0.414332105865093 
1647	 0.41435826198701 
1648	 0.414379473408566 
1649	 0.414392325161733 
1650	 0.414391038225854 
1651	 0.414404070577993 
1652	 0.414426154308336 
1653	 0.41442284448008 
1654	 0.414409141477459 
1655	 0.414409194547717 
1656	 0.414387661811407 
1657	 0.41439153667427 
1658	 0.414441633779136 
1659	 0.414438707126832 
1660	 0.41440370350101 
1661	 0.414394318415919 
1662	 0.414367145469011 
1663	 0.414363837754712 
1664	 0.414403820214566 
1665	 0.414398462707251 
1666	 0.414370031809523 
1667	 0.414354867323635 
1668	 0.414322889490205 
1669	 0.414306027673811 
1670	 0.41431333655495 
1671	 0.414295919625825 
1672	 0.414263831031071 
1673	 0.414240336413154 
1674	 0.414200759832819 
1675	 0.414188163023957 
1676	 0.414191310811748 
1677	 0.414198933990523 
1678	 0.414239071085625 
1679	 0.414239060316677 
1680	 0.41423077696023 
1681	 0.414206074950756 
1682	 0.414146207850266 
1683	 0.414103309363721 
1684	 0.414059426242723 
1685	 0.414016352157751 
1686	 0.41395776351053 
1687	 0.413937178186555 
1688	 0.413935292619715 
1689	 0.413936316035787 
1690	 0.413976226672267 
1691	 0.413985565787335 
1692	 0.41398680890355 
1693	 0.413972795434753 
1694	 0.413945381346442 
1695	 0.413912661554999 
1696	 0.413868654372377 
1697	 0.41381560496883 
1698	 0.413743558111778 
1699	 0.413692258816719 
1700	 0.413634590608151 
1701	 0.413592340812707 
1702	 0.413586878650878 
1703	 0.413537521835151 
1704	 0.413478054171898 
1705	 0.413402897946083 
1706	 0.413284769911529 
1707	 0.413205701552394 
1708	 0.413136902834051 
1709	 0.413065345877567 
1710	 0.4129976116589 
1711	 0.412953500746558 
1712	 0.41292066596995 
1713	 0.412879005407449 
1714	 0.412863935785552 
1715	 0.412824891778389 
1716	 0.412763134669835 
1717	 0.412712043776482 
1718	 0.41266865757543 
1719	 0.412611314722499 
1720	 0.412552185335918 
1721	 0.412467392016713 
1722	 0.412363786623059 
1723	 0.4122633154618 
1724	 0.412140019242331 
1725	 0.41203377444586 
1726	 0.411934884723418 
1727	 0.411838729904004 
1728	 0.411746875226106 
1729	 0.411652426180011 
1730	 0.411564143474072 
1731	 0.411466618180247 
1732	 0.411385255671383 
1733	 0.411245777704447 
1734	 0.411065752265016 
1735	 0.410911795088308 
1736	 0.410723270281903 
1737	 0.410563361177886 
1738	 0.410433629355669 
1739	 0.410303663978113 
1740	 0.410169287002169 
1741	 0.410042788185671 
1742	 0.40994719497575 
1743	 0.409806473849644 
1744	 0.409640987167786 
1745	 0.409482776601056 
1746	 0.40930163603795 
1747	 0.40917187472079 
1748	 0.409047239062801 
1749	 0.408920642384031 
1750	 0.408784329335862 
1751	 0.408625164117581 
1752	 0.40846401963091 
1753	 0.408309687521037 
1754	 0.408148395252012 
1755	 0.407991184638109 
1756	 0.407816816059204 
1757	 0.407634800843752 
1758	 0.407474822811554 
1759	 0.407333378239511 
1760	 0.407186749817224 
1761	 0.407005950665902 
1762	 0.406823691425736 
1763	 0.406637395148313 
1764	 0.406469650477202 
1765	 0.406363005863598 
1766	 0.40627136633748 
1767	 0.406184515594473 
1768	 0.406097446450133 
1769	 0.406023599142428 
1770	 0.405937886995459 
1771	 0.40582589704305 
1772	 0.405693865633569 
1773	 0.405518380363558 
1774	 0.405358328832816 
1775	 0.405199506384892 
1776	 0.405041893174781 
1777	 0.404915135357405 
1778	 0.404807943480806 
1779	 0.40474722305313 
1780	 0.40469328983826 
1781	 0.404635158127859 
1782	 0.404580260590543 
1783	 0.404499005082101 
1784	 0.40442449356975 
1785	 0.404357957313336 
1786	 0.404260844185878 
1787	 0.404128232493739 
1788	 0.404041231442847 
1789	 0.403957729352692 
1790	 0.403902615974449 
1791	 0.403904261995512 
1792	 0.403856629603755 
1793	 0.403786844629878 
1794	 0.403732710153787 
1795	 0.403680793785711 
1796	 0.403610918053284 
1797	 0.403527978154704 
1798	 0.403462391160012 
1799	 0.403367210987924 
1800	 0.403315690275371 
1801	 0.398982126468376 
1802	 0.399033152921486 
1803	 0.399074076203954 
1804	 0.399107136905963 
1805	 0.399185185047161 
1806	 0.399208987463478 
1807	 0.399231895950708 
1808	 0.399288492057535 
1809	 0.399400772806937 
1810	 0.399441505395798 
1811	 0.399479757161524 
1812	 0.399498990129652 
1813	 0.399451009116955 
1814	 0.399401138866073 
1815	 0.399366877096814 
1816	 0.399322364736058 
1817	 0.399282724182439 
1818	 0.399240127353979 
1819	 0.399209210449732 
1820	 0.399185288756188 
1821	 0.399158254422828 
1822	 0.399145949418841 
1823	 0.399095695448304 
1824	 0.399020628084769 
1825	 0.398950498114038 
1826	 0.398866794619121 
1827	 0.398786256499059 
1828	 0.398684020372622 
1829	 0.398565335756569 
1830	 0.398445853079566 
1831	 0.398321151352568 
1832	 0.398174782438544 
1833	 0.398000743978911 
1834	 0.397842626396037 
1835	 0.397668674487425 
1836	 0.3974939591315 
1837	 0.397332266989837 
1838	 0.397167658557266 
1839	 0.397006153782752 
1840	 0.396844604585472 
1841	 0.396665257315545 
1842	 0.396508079667517 
1843	 0.396333375024151 
1844	 0.396108147362924 
1845	 0.395876207843156 
1846	 0.395637295475529 
1847	 0.395394982933402 
1848	 0.395133667498842 
1849	 0.394881075816012 
1850	 0.394642655347941 
1851	 0.394411119870761 
1852	 0.394159440918192 
1853	 0.393930974240909 
1854	 0.39365815819985 
1855	 0.393328815970627 
1856	 0.392992771822268 
1857	 0.392597273837181 
1858	 0.392165086323299 
1859	 0.391697541749982 
1860	 0.391182684449366 
1861	 0.390618482548759 
1862	 0.390009548521313 
1863	 0.38934387126064 
1864	 0.388617926567233 
1865	 0.387808621928183 
1866	 0.386908003326231 
1867	 0.385955734073207 
1868	 0.384950415181659 
1869	 0.383833584317158 
1870	 0.382645308406668 
1871	 0.381365764751059 
1872	 0.380005325246326 
1873	 0.378539444940943 
1874	 0.377021246034086 
1875	 0.375401025808803 
1876	 0.373665223208831 
1877	 0.371802378331977 
1878	 0.369748113801071 
1879	 0.367524123605828 
1880	 0.365117396424479 
1881	 0.36249291094786 
1882	 0.359765434308571 
1883	 0.356900407443815 
1884	 0.353809085489744 
1885	 0.350635464060984 
1886	 0.347331092915367 
1887	 0.343797276230195 
1888	 0.340185906595804 
1889	 0.336435030614297 
1890	 0.332575749339842 
1891	 0.328761233640882 
1892	 0.324833243165148 
1893	 0.321021875231621 
1894	 0.317242667919643 
1895	 0.313517499880848 
1896	 0.309807355713932 
1897	 0.306254206923843 
1898	 0.302788307011412 
1899	 0.299512322732096 
1900	 0.296443650720659 
1901	 0.293518811047744 
1902	 0.290805910848898 
1903	 0.288316359509452 
1904	 0.285966050034534 
1905	 0.283777343683685 
1906	 0.281826388833731 
1907	 0.279982982651441 
1908	 0.278288527648931 
1909	 0.276787246571011 
1910	 0.275351865255491 
1911	 0.274031506639669 
1912	 0.272835416714067 
1913	 0.271709305880244 
1914	 0.270647729395161 
1915	 0.269701913459225 
1916	 0.268876244609595 
1917	 0.268106010507135 
1918	 0.267419261630809 
1919	 0.266798970819045 
1920	 0.266257354443173 
1921	 0.265789726193691 
1922	 0.265351342899765 
1923	 0.264977586943111 
1924	 0.264662288279381 
1925	 0.264380387494552 
1926	 0.264178420702723 
1927	 0.264052197149179 
1928	 0.263986196351633 
1929	 0.263972279346424 
1930	 0.264010661809901 
1931	 0.264090277661024 
1932	 0.26421726820532 
1933	 0.264365467554116 
1934	 0.264564027083412 
1935	 0.264810976035579 
1936	 0.265108721920416 
1937	 0.265431033734891 
1938	 0.265810263111401 
1939	 0.266199198925676 
1940	 0.266599374036419 
1941	 0.267044508385719 
1942	 0.267516731460646 
1943	 0.268035794498831 
1944	 0.268598939875679 
1945	 0.269162864305924 
1946	 0.269747889132561 
1947	 0.270355708166415 
1948	 0.2709754863939 
1949	 0.271622650676778 
1950	 0.27226855386413 
1951	 0.272920745962341 
1952	 0.273590973782085 
1953	 0.274268712348642 
1954	 0.274943582767536 
1955	 0.275650598533238 
1956	 0.276367490295757 
1957	 0.277096621893419 
1958	 0.277838868328444 
1959	 0.278593139048749 
1960	 0.279360999591081 
1961	 0.280142374824471 
1962	 0.280944323607231 
1963	 0.281748540835515 
1964	 0.282572402508645 
1965	 0.283383488721897 
1966	 0.284201279727838 
1967	 0.285003624257085 
1968	 0.285836578597762 
1969	 0.286688907295081 
1970	 0.287530690476987 
1971	 0.288395448816136 
1972	 0.289244109291229 
1973	 0.290065221572051 
1974	 0.290905721223239 
1975	 0.291756996346538 
1976	 0.292607526406502 
1977	 0.293462938875854 
1978	 0.294324688369531 
1979	 0.295164085236576 
1980	 0.296017553489258 
1981	 0.296881536151673 
1982	 0.297736823290606 
1983	 0.298624791033709 
1984	 0.299561678962412 
1985	 0.300456984165002 
1986	 0.301359055621011 
1987	 0.30224298547426 
1988	 0.303094800113924 
1989	 0.303952340636879 
1990	 0.304824931752899 
1991	 0.305697928993177 
1992	 0.30657700380425 
1993	 0.307485064004309 
1994	 0.308348481415761 
1995	 0.309204927699271 
1996	 0.310034836321386 
1997	 0.310819238327864 
1998	 0.311624306292114 
1999	 0.312422831206066 
2000	 0.313220257673241 
2001	 0.314027783946387 
2002	 0.31481401743539 
2003	 0.315611294668164 
2004	 0.316430176240503 
2005	 0.317221099494583 
2006	 0.318024101100212 
2007	 0.318796794941638 
2008	 0.31951758641797 
2009	 0.320280133881335 
2010	 0.321058901332076 
2011	 0.321822319757513 
2012	 0.322609725547043 
2013	 0.323367376965793 
2014	 0.324095025996412 
2015	 0.324824891254294 
2016	 0.325538511319497 
2017	 0.326249463715342 
2018	 0.326983151345289 
2019	 0.327738529857721 
2020	 0.328461463022513 
2021	 0.329195286733364 
2022	 0.329907107626811 
2023	 0.330591218336799 
2024	 0.331270786028647 
2025	 0.33194206744665 
2026	 0.332609107298541 
2027	 0.333269801719148 
2028	 0.333906420550826 
2029	 0.334547195633658 
2030	 0.335193250897574 
2031	 0.335815143323971 
2032	 0.33641608889421 
2033	 0.337025698644426 
2034	 0.337620232749693 
2035	 0.338227890404606 
2036	 0.33885298423049 
2037	 0.339458032993088 
2038	 0.340076371347707 
2039	 0.340658496432458 
2040	 0.341224863903721 
2041	 0.341757434075331 
2042	 0.342270322115731 
2043	 0.342764455107428 
2044	 0.343279486473683 
2045	 0.34379348305721 
2046	 0.344306020465823 
2047	 0.344838697405008 
2048	 0.345344068987443 
2049	 0.345835890615729 
2050	 0.346317357015639 
2051	 0.346792830919723 
2052	 0.34724582769827 
2053	 0.347661714518492 
2054	 0.348098395028253 
2055	 0.348530616815361 
2056	 0.348962936064311 
2057	 0.349390092901141 
2058	 0.349831607893121 
2059	 0.350253408712359 
2060	 0.350654317617229 
2061	 0.35106437482759 
2062	 0.351478223240631 
2063	 0.351884287503114 
2064	 0.352282294865413 
2065	 0.352683581749366 
2066	 0.353079009439537 
2067	 0.353480458688583 
2068	 0.353903155570975 
2069	 0.354294349568731 
2070	 0.354687968367894 
2071	 0.355080986531705 
2072	 0.355467384274307 
2073	 0.355848504837667 
2074	 0.356216168737802 
2075	 0.356574263353441 
2076	 0.356931995418102 
2077	 0.357276970375858 
2078	 0.357620388785218 
2079	 0.357983225839879 
2080	 0.35830749539547 
2081	 0.358588763940352 
2082	 0.358891183602018 
2083	 0.359182157635387 
2084	 0.359472199892067 
2085	 0.359776887807848 
2086	 0.360100406402782 
2087	 0.360422850257428 
2088	 0.360750748668622 
2089	 0.361073330152723 
2090	 0.361416909041804 
2091	 0.361724224782937 
2092	 0.362005488641248 
2093	 0.362293613056982 
2094	 0.362555433490943 
2095	 0.362839683400718 
2096	 0.363149989820591 
2097	 0.363438544546193 
2098	 0.363723675900437 
2099	 0.364010699824086 
2100	 0.364275383609122 
2101	 0.364509498374807 
2102	 0.364767857681002 
2103	 0.365011484636728 
2104	 0.365293491302106 
2105	 0.365604817896979 
2106	 0.365905988356574 
2107	 0.366220888936971 
2108	 0.366540288460591 
2109	 0.366858158996259 
2110	 0.367182142897052 
2111	 0.36754046948419 
2112	 0.367864319546309 
2113	 0.368180403193733 
2114	 0.368480462930212 
2115	 0.368749359717495 
2116	 0.368968360303256 
2117	 0.36924525214081 
2118	 0.369502842607463 
2119	 0.369816301454043 
2120	 0.370187023254141 
2121	 0.370544294173941 
2122	 0.370939025627462 
2123	 0.37129325285893 
2124	 0.371667095742887 
2125	 0.37198137664058 
2126	 0.372244961035564 
2127	 0.372504909880502 
2128	 0.372733897320278 
2129	 0.372946314068003 
2130	 0.373132201928916 
2131	 0.373324494973401 
2132	 0.373503516160797 
2133	 0.373671596256243 
2134	 0.373809109532256 
2135	 0.373944740270419 
2136	 0.374042272474514 
2137	 0.374094823133022 
2138	 0.374143665414166 
2139	 0.374176721994643 
2140	 0.374192358607736 
2141	 0.374180872752562 
2142	 0.374165568149635 
2143	 0.374156007219304 
2144	 0.374106886886614 
2145	 0.374042439757221 
2146	 0.373947098439754 
2147	 0.373818435616823 
2148	 0.373651282764486 
2149	 0.373483021123282 
2150	 0.373296441877267 
2151	 0.373088841484229 
2152	 0.372866081287544 
2153	 0.372622521909711 
2154	 0.372362342475245 
2155	 0.3720708323404 
2156	 0.371756504080491 
2157	 0.371421548056348 
2158	 0.371046598475334 
2159	 0.370668582618492 
2160	 0.370272383602931 
2161	 0.369870025819563 
2162	 0.369436836336453 
2163	 0.369027789208116 
2164	 0.368648136090957 
2165	 0.368241628504757 
2166	 0.367797120009009 
2167	 0.367354720929183 
2168	 0.366862005205401 
2169	 0.366297645889138 
2170	 0.365764732018912 
2171	 0.365244785140109 
2172	 0.364671666935173 
2173	 0.364101070573641 
2174	 0.363457930480258 
2175	 0.36274155281806 
2176	 0.362022625038574 
2177	 0.361260245025827 
2178	 0.36048356027013 
2179	 0.359695554347882 
2180	 0.358880077900925 
2181	 0.35802118642365 
2182	 0.357160876582972 
2183	 0.356291208174146 
2184	 0.355403228026611 
2185	 0.354479381384727 
2186	 0.353505807473496 
2187	 0.352593969015536 
2188	 0.351649496803378 
2189	 0.35077767217099 
2190	 0.349962500403799 
2191	 0.349169210046766 
2192	 0.348378941712779 
2193	 0.347666373088511 
2194	 0.347009647987547 
2195	 0.346400419059356 
2196	 0.345833974452688 
2197	 0.34534070781736 
2198	 0.344889219612713 
2199	 0.344524586083563 
2200	 0.344252206182775 
2201	 0.344033890279357 
2202	 0.343893093974092 
2203	 0.343810397195394 
2204	 0.343777658471377 
2205	 0.343793499134407 
2206	 0.34389650255317 
2207	 0.344035744196328 
2208	 0.344322727986359 
2209	 0.344733220677329 
2210	 0.345192018518374 
2211	 0.345802577907904 
2212	 0.346374995672755 
2213	 0.347011422905571 
2214	 0.347607964024344 
2215	 0.348217792323373 
2216	 0.348800593656715 
2217	 0.349380453720582 
2218	 0.349916968708504 
2219	 0.350443526687514 
2220	 0.350920644254488 
2221	 0.351318406704337 
2222	 0.351751413892492 
2223	 0.352143287581798 
2224	 0.352468987870546 
2225	 0.352771134910226 
2226	 0.35304155221207 
2227	 0.353266399668071 
2228	 0.353461474531391 
2229	 0.353590086664242 
2230	 0.353659506666507 
2231	 0.353708146491306 
2232	 0.353682195128491 
2233	 0.353671633362895 
2234	 0.353645473108797 
2235	 0.353610778461894 
2236	 0.353555759239114 
2237	 0.353501212481988 
2238	 0.353447046931817 
2239	 0.353374114611269 
2240	 0.353274518451573 
2241	 0.353192264692485 
2242	 0.35312146937034 
2243	 0.353022843366969 
2244	 0.352924659350303 
2245	 0.352818426791378 
2246	 0.352679878238216 
2247	 0.35250590917929 
2248	 0.352317223995764 
2249	 0.352104330170698 
2250	 0.351900128348466 
2251	 0.351656629343645 
2252	 0.351466805767707 
2253	 0.351302228501847 
2254	 0.351141082640845 
2255	 0.351013289057914 
2256	 0.350858096775427 
2257	 0.350675435106649 
2258	 0.350539035868551 
2259	 0.350403657170427 
2260	 0.350300238489279 
2261	 0.350248258088185 
2262	 0.350191841790496 
2263	 0.350141209323605 
2264	 0.350105248087968 
2265	 0.350097202437069 
2266	 0.350076234249988 
2267	 0.350058245021111 
2268	 0.350045102838133 
2269	 0.35001905140631 
2270	 0.350009098122427 
2271	 0.350040032551935 
2272	 0.350045313904701 
2273	 0.350063476371849 
2274	 0.350114982786411 
2275	 0.350157375809693 
2276	 0.35021906261494 
2277	 0.350234978996668 
2278	 0.350225552388287 
2279	 0.350236537201728 
2280	 0.350217630973167 
2281	 0.35023575344925 
2282	 0.350311223185955 
2283	 0.350337734787876 
2284	 0.350364033661124 
2285	 0.350343917392846 
2286	 0.350268854659826 
2287	 0.350213262985704 
2288	 0.350114469240891 
2289	 0.350065698941675 
2290	 0.350067250453631 
2291	 0.35004722726822 
2292	 0.350051008893386 
2293	 0.350020145316727 
2294	 0.349958514224737 
2295	 0.349891725988606 
2296	 0.349788804737399 
2297	 0.349725952927535 
2298	 0.34964309530188 
2299	 0.349557758475069 
2300	 0.349500766066366 
2301	 0.349396953823169 
2302	 0.349282616772947 
2303	 0.349191950214164 
2304	 0.349075764520169 
2305	 0.348920759960121 
2306	 0.348761468160248 
2307	 0.348576605106838 
2308	 0.34840720533584 
2309	 0.348244214648171 
2310	 0.348062527474179 
2311	 0.347894435187548 
2312	 0.347675422157725 
2313	 0.347414552597884 
2314	 0.347136290734772 
2315	 0.346806722872406 
2316	 0.346515591106108 
2317	 0.346220102893078 
2318	 0.345938980680582 
2319	 0.345683492449016 
2320	 0.34542023186923 
2321	 0.345149880801213 
2322	 0.344880996480216 
2323	 0.344601483119288 
2324	 0.34435973949004 
2325	 0.344167009449175 
2326	 0.343930468560127 
2327	 0.343720725680654 
2328	 0.343444955241707 
2329	 0.343142397445111 
2330	 0.342796158228363 
2331	 0.3424573904607 
2332	 0.342158017852994 
2333	 0.341826926989595 
2334	 0.341567170670427 
2335	 0.34130101162613 
2336	 0.3409746963264 
2337	 0.340686610037067 
2338	 0.34032081628954 
2339	 0.33988645565625 
2340	 0.339493698653657 
2341	 0.339123328035272 
2342	 0.338697394549584 
2343	 0.338289747400969 
2344	 0.337933006190715 
2345	 0.337591382678405 
2346	 0.337255133778639 
2347	 0.336929349701722 
2348	 0.336653304152421 
2349	 0.336345273865431 
2350	 0.336008877143874 
2351	 0.335715555263721 
2352	 0.335441907479912 
2353	 0.335151501366339 
2354	 0.334856822041432 
2355	 0.334583561610525 
2356	 0.334318969422029 
2357	 0.334088145564259 
2358	 0.333894011738805 
2359	 0.333688637966967 
2360	 0.333501501296432 
2361	 0.333280190149514 
2362	 0.333072372536762 
2363	 0.332821440002421 
2364	 0.332532059833792 
2365	 0.332232544750272 
2366	 0.331870982626711 
2367	 0.331545443612978 
2368	 0.331243187656569 
2369	 0.330932888216261 
2370	 0.330621401500855 
2371	 0.330355197865357 
2372	 0.330041073045928 
2373	 0.329591551800363 
2374	 0.329183990641496 
2375	 0.328754171624258 
2376	 0.328295779847249 
2377	 0.327876457079329 
2378	 0.327433612474153 
2379	 0.326881538282382 
2380	 0.326282115185697 
2381	 0.325728756443116 
2382	 0.325180554202891 
2383	 0.324753550704391 
2384	 0.324418732135085 
2385	 0.32398002350839 
2386	 0.323530517482258 
2387	 0.322984963476599 
2388	 0.32232029816754 
2389	 0.32180975417378 
2390	 0.321354757602815 
2391	 0.320909232742936 
2392	 0.32054765701604 
2393	 0.320125310754329 
2394	 0.319623883117637 
2395	 0.31914403522007 
2396	 0.318652136703043 
2397	 0.318125894822583 
2398	 0.317616668357534 
2399	 0.317019985970445 
2400	 0.316369583261781 
2401	 0.315753070429784 
2402	 0.315131792274779 
2403	 0.314585931820238 
2404	 0.314096114970128 
2405	 0.313538663103211 
2406	 0.31288622445825 
2407	 0.312191958334439 
2408	 0.311446298662345 
2409	 0.310736640015696 
2410	 0.310127328355892 
2411	 0.309454041337554 
2412	 0.308742878671872 
2413	 0.308043070073714 
2414	 0.307319727472324 
2415	 0.306567045287356 
2416	 0.305887919100623 
2417	 0.305366853185476 
2418	 0.304638196320965 
2419	 0.303816826881661 
2420	 0.303077866273161 
2421	 0.302184024384836 
2422	 0.301432941617858 
2423	 0.30085430588891 
2424	 0.300202262025256 
2425	 0.299587556852682 
2426	 0.298909076458049 
2427	 0.298195674707967 
2428	 0.297458127838315 
2429	 0.296617231090936 
2430	 0.295911786634482 
2431	 0.295292732788811 
2432	 0.294630114623564 
2433	 0.294044067633659 
2434	 0.293354918638898 
2435	 0.292532624053345 
2436	 0.291831059836426 
2437	 0.291168240382196 
2438	 0.290479935971382 
2439	 0.289842165421587 
2440	 0.289173891059425 
2441	 0.288462260542919 
2442	 0.287793781602223 
2443	 0.287170709662845 
2444	 0.286534609084299 
2445	 0.285839541908796 
2446	 0.285293010459673 
2447	 0.284848307025746 
2448	 0.284309561906855 
2449	 0.283845196485681 
2450	 0.283288041060443 
2451	 0.282648521915817 
2452	 0.282041061609304 
2453	 0.281435035147908 
2454	 0.280782185630116 
2455	 0.280007695342421 
2456	 0.279373275290234 
2457	 0.278808969510255 
2458	 0.278267190932898 
2459	 0.277867813293733 
2460	 0.277326396005803 
2461	 0.276724062387923 
2462	 0.276106833050577 
2463	 0.27535132561784 
2464	 0.274727092636483 
2465	 0.274152193594611 
2466	 0.273543733354076 
2467	 0.273057282890307 
2468	 0.272521308031527 
2469	 0.27193537929899 
2470	 0.271541676305716 
2471	 0.270930393257615 
2472	 0.27056499884155 
2473	 0.270079210093397 
2474	 0.269488162934558 
2475	 0.269103751406367 
2476	 0.268588318845449 
2477	 0.268148144548849 
2478	 0.267584642196391 
2479	 0.266856681645964 
2480	 0.266319727300388 
2481	 0.265674136518303 
2482	 0.265105986064417 
2483	 0.264769638394194 
2484	 0.264387691693956 
2485	 0.263870553185574 
2486	 0.263221804577062 
2487	 0.26264079505687 
2488	 0.261994986804516 
2489	 0.261415238331465 
2490	 0.261159049051109 
2491	 0.260779043672735 
2492	 0.260279579940498 
2493	 0.259643646597883 
2494	 0.258938767807254 
2495	 0.258552405560528 
2496	 0.25824256894648 
2497	 0.257988415611865 
2498	 0.257898256831297 
2499	 0.257500481387249 
2500	 0.256890242120288 
