Wavelength	LMW500000.asd
350	 6.66786296291711E-02 
351	 8.04347927844411E-02 
352	 8.13343374747291E-02 
353	 6.82241793828845E-02 
354	 7.41692592256495E-02 
355	 7.78849426005305E-02 
356	 7.78899585986361E-02 
357	 7.82916273042884E-02 
358	 8.58984530839748E-02 
359	 8.58455834041061E-02 
360	 7.87712376689836E-02 
361	 7.53716979864671E-02 
362	 7.59664004145054E-02 
363	 7.74098522716703E-02 
364	 7.73966279354935E-02 
365	 7.55068203319852E-02 
366	 7.46449933825522E-02 
367	 7.57470474400809E-02 
368	 7.83069559860595E-02 
369	 7.90855215338982E-02 
370	 7.97885405249347E-02 
371	 8.07480943513602E-02 
372	 8.13665394300251E-02 
373	 8.30320895495357E-02 
374	 8.45247998704728E-02 
375	 8.54068588414507E-02 
376	 8.72535631408493E-02 
377	 8.80476431716794E-02 
378	 8.88961987631896E-02 
379	 0.090938735788643 
380	 9.16064857011502E-02 
381	 9.07943014152546E-02 
382	 9.08945597197209E-02 
383	 0.095270014641675 
384	 9.59788271590106E-02 
385	 0.095009631949182 
386	 9.53678835985605E-02 
387	 9.93738389311944E-02 
388	 0.101860796295867 
389	 0.102275042864128 
390	 0.102022689436305 
391	 0.103306039720069 
392	 0.104998495946612 
393	 0.106843509792445 
394	 0.109356038719678 
395	 0.110797695050714 
396	 0.111876810421297 
397	 0.113293702283598 
398	 0.114947585046866 
399	 0.116094726660985 
400	 0.11732795561881 
401	 0.119374419829929 
402	 0.120634341665917 
403	 0.122622458698947 
404	 0.12515245354116 
405	 0.126247021951456 
406	 0.127326756828364 
407	 0.129007028176416 
408	 0.130976133602317 
409	 0.130889802086963 
410	 0.13147331446545 
411	 0.133026031976788 
412	 0.134628880106571 
413	 0.135871283042529 
414	 0.13619477966078 
415	 0.136090305629747 
416	 0.137345425392041 
417	 0.137457240228086 
418	 0.137765127234705 
419	 0.139397672298949 
420	 0.139649195162482 
421	 0.139126276637535 
422	 0.138875830233543 
423	 0.139904100471458 
424	 0.139958020206997 
425	 0.139824165538495 
426	 0.139997682655053 
427	 0.139701724828401 
428	 0.139344457820758 
429	 0.139093098790934 
430	 0.139003786299319 
431	 0.13900642709796 
432	 0.138774759624904 
433	 0.13836761943321 
434	 0.138211011535669 
435	 0.138676733697551 
436	 0.139206050347243 
437	 0.139436271443155 
438	 0.139984578548629 
439	 0.14083340178361 
440	 0.141792291634255 
441	 0.142613727092514 
442	 0.14342283223925 
443	 0.144410133521499 
444	 0.145537258390776 
445	 0.1464003000521 
446	 0.147629321491871 
447	 0.148923788164057 
448	 0.149863301663081 
449	 0.15070192816255 
450	 0.151712655606557 
451	 0.152955039082747 
452	 0.15428327022184 
453	 0.155320417039188 
454	 0.156217507926018 
455	 0.157142995960364 
456	 0.158054774816031 
457	 0.15888118846739 
458	 0.159762073571207 
459	 0.16082876574889 
460	 0.161396913643076 
461	 0.162013395308387 
462	 0.162854578944046 
463	 0.163420738570137 
464	 0.164248439380538 
465	 0.164951737933105 
466	 0.165195761134344 
467	 0.16588194332667 
468	 0.166545436045273 
469	 0.16695753959513 
470	 0.167149954527036 
471	 0.167681965184843 
472	 0.168327409342093 
473	 0.168861696449831 
474	 0.169408192217164 
475	 0.169886038353336 
476	 0.170272010575745 
477	 0.170611021819219 
478	 0.171246045733068 
479	 0.17169978257925 
480	 0.171867081200425 
481	 0.172236788763649 
482	 0.172919200099313 
483	 0.173559550794313 
484	 0.173858318577609 
485	 0.174336701957512 
486	 0.17478476031075 
487	 0.175152732131833 
488	 0.175547523487639 
489	 0.17619218981491 
490	 0.176767884733921 
491	 0.177093883338752 
492	 0.177559306529485 
493	 0.177962102847734 
494	 0.178386769334008 
495	 0.178989435389986 
496	 0.179443733248759 
497	 0.179789337002206 
498	 0.180133642305472 
499	 0.180625755487519 
500	 0.181174071746197 
501	 0.181667900175836 
502	 0.182067367076607 
503	 0.182683406918885 
504	 0.183170424829184 
505	 0.183512187557638 
506	 0.184002782865612 
507	 0.184601792782864 
508	 0.185132882683923 
509	 0.185493699730355 
510	 0.185845619501615 
511	 0.186172298101232 
512	 0.186615750036888 
513	 0.187324835807012 
514	 0.18774878718728 
515	 0.188135391512431 
516	 0.188639745063934 
517	 0.189107849674942 
518	 0.18947380582218 
519	 0.189832491960925 
520	 0.19030351642954 
521	 0.190812799061338 
522	 0.191313505369 
523	 0.191760698414962 
524	 0.192113688162823 
525	 0.192519649467674 
526	 0.192905827633786 
527	 0.193234596529801 
528	 0.193762714174877 
529	 0.194185621985173 
530	 0.194539641783351 
531	 0.195063565597385 
532	 0.1955366737378 
533	 0.195933615598187 
534	 0.196285460719635 
535	 0.196660113259783 
536	 0.197180903807167 
537	 0.197733102856098 
538	 0.198140327748961 
539	 0.198554602964065 
540	 0.198974545284434 
541	 0.199402321970835 
542	 0.199860095674375 
543	 0.200354411344764 
544	 0.200798263377583 
545	 0.201153784505403 
546	 0.201694078833388 
547	 0.202133992107511 
548	 0.202501722028087 
549	 0.203082185257088 
550	 0.203554724160248 
551	 0.204004156708468 
552	 0.204530012395767 
553	 0.20507506909386 
554	 0.205626171205493 
555	 0.20617154602893 
556	 0.206702788716302 
557	 0.207215250495592 
558	 0.207775771864126 
559	 0.20840383719925 
560	 0.209033554921354 
561	 0.209576438507958 
562	 0.21009124917985 
563	 0.210667064855866 
564	 0.211225302377818 
565	 0.211789327756913 
566	 0.212356799176809 
567	 0.2128941008193 
568	 0.213596234723367 
569	 0.214379014815155 
570	 0.215128271626371 
571	 0.215887249946746 
572	 0.216614956650565 
573	 0.217312640922855 
574	 0.218007361579866 
575	 0.218649922309323 
576	 0.219331201743446 
577	 0.220085291105767 
578	 0.220784207890611 
579	 0.221418973743411 
580	 0.222064769926305 
581	 0.222818048164628 
582	 0.223597343879317 
583	 0.224389676825126 
584	 0.225192362854632 
585	 0.226013482772962 
586	 0.226806908168324 
587	 0.227563848687744 
588	 0.228297971459557 
589	 0.229064316044668 
590	 0.229814301573297 
591	 0.230542402197295 
592	 0.231283784967789 
593	 0.23196105137664 
594	 0.232649307037252 
595	 0.233402546395353 
596	 0.234133880375764 
597	 0.234966925149378 
598	 0.235837841914434 
599	 0.236592013134308 
600	 0.237225849107883 
601	 0.237889189193135 
602	 0.238616174865079 
603	 0.239205170387846 
604	 0.239746046037164 
605	 0.240341428409654 
606	 0.241051539390955 
607	 0.241663134511275 
608	 0.242241108616956 
609	 0.24285554619468 
610	 0.243560669957108 
611	 0.2442239984169 
612	 0.244819846581512 
613	 0.245366101737776 
614	 0.245930528386354 
615	 0.246486130701271 
616	 0.247006071712515 
617	 0.2474717823776 
618	 0.248001855967622 
619	 0.248439672197202 
620	 0.248738388394261 
621	 0.249166370379308 
622	 0.249656646715926 
623	 0.25011403833616 
624	 0.250463905279618 
625	 0.250915483084437 
626	 0.251354718359319 
627	 0.251731011488161 
628	 0.252110977801761 
629	 0.252530473353091 
630	 0.252954981655199 
631	 0.253342000506605 
632	 0.253707008895117 
633	 0.254059927386418 
634	 0.254427861126359 
635	 0.254843998454819 
636	 0.255193490927018 
637	 0.255561393581716 
638	 0.25598635277272 
639	 0.256295851194463 
640	 0.256667558712196 
641	 0.257086616043307 
642	 0.257462633589932 
643	 0.257876968525503 
644	 0.258262711964583 
645	 0.258614261147764 
646	 0.259033476576285 
647	 0.259436405625784 
648	 0.259821503897906 
649	 0.260205524331464 
650	 0.260572094146563 
651	 0.260962553582435 
652	 0.261368304475166 
653	 0.261741355016734 
654	 0.262156296086939 
655	 0.262559148472629 
656	 0.262919272372805 
657	 0.263316195535039 
658	 0.263759790728616 
659	 0.264211667213329 
660	 0.264613008719408 
661	 0.264968465316837 
662	 0.265387687841908 
663	 0.265885311590698 
664	 0.266326724658169 
665	 0.266748862955826 
666	 0.267173491074403 
667	 0.267608734278095 
668	 0.267999746811088 
669	 0.268452819958439 
670	 0.268932486486566 
671	 0.269294777219549 
672	 0.269706791610618 
673	 0.270207902858147 
674	 0.270757344222396 
675	 0.271180523291739 
676	 0.271611664874239 
677	 0.272057056384009 
678	 0.272478055036509 
679	 0.272919503911864 
680	 0.273387656901472 
681	 0.27388148225491 
682	 0.274397638977705 
683	 0.274849612148365 
684	 0.275251303626169 
685	 0.275663698322944 
686	 0.276208830284832 
687	 0.276723753108343 
688	 0.277191861641784 
689	 0.277698378392932 
690	 0.278176623600524 
691	 0.278610329056552 
692	 0.279036007242032 
693	 0.279589763069398 
694	 0.28009858023049 
695	 0.280562439733731 
696	 0.281034555001896 
697	 0.281469070727435 
698	 0.281955673785372 
699	 0.28250448932177 
700	 0.283033874945696 
701	 0.283489003477859 
702	 0.283915424442772 
703	 0.284364701421652 
704	 0.284830420218004 
705	 0.285338381715279 
706	 0.285856862758233 
707	 0.28632984167822 
708	 0.286784426093176 
709	 0.287210031728957 
710	 0.287621108052449 
711	 0.288072060288765 
712	 0.288556078185282 
713	 0.289004866738025 
714	 0.289381834329501 
715	 0.289836239037474 
716	 0.290278165788547 
717	 0.290700017232624 
718	 0.29114989396481 
719	 0.291557889849897 
720	 0.291913928891517 
721	 0.29223874729435 
722	 0.29258561098282 
723	 0.293025400735733 
724	 0.293447843329304 
725	 0.293735440309606 
726	 0.294080035948045 
727	 0.294422233615282 
728	 0.294736828072319 
729	 0.295040485374848 
730	 0.295338381500939 
731	 0.295586189793949 
732	 0.29579068016893 
733	 0.296110210023316 
734	 0.296371637512178 
735	 0.296579939825188 
736	 0.29680154424375 
737	 0.296988872623651 
738	 0.297147182903963 
739	 0.297302464769695 
740	 0.297495655478539 
741	 0.297637465174286 
742	 0.297792300176241 
743	 0.297990500506555 
744	 0.298080339999994 
745	 0.298126050047986 
746	 0.29818786332014 
747	 0.298305247819502 
748	 0.298382837397047 
749	 0.298425170735904 
750	 0.298434304074377 
751	 0.298399330400293 
752	 0.298432616376412 
753	 0.298417772679995 
754	 0.298299870193224 
755	 0.298376560630041 
756	 0.298372924409617 
757	 0.29828705228253 
758	 0.298244248231239 
759	 0.298167907805555 
760	 0.298090862951258 
761	 0.298024061551929 
762	 0.297939809986482 
763	 0.297833482473978 
764	 0.297702395226004 
765	 0.297562400749163 
766	 0.297481252785217 
767	 0.297387013112761 
768	 0.297224320875932 
769	 0.296980668201397 
770	 0.296853321682261 
771	 0.296759070331575 
772	 0.296630315531495 
773	 0.296453589409965 
774	 0.296277319002915 
775	 0.296112690236231 
776	 0.295963356131666 
777	 0.295853454183339 
778	 0.295634930771326 
779	 0.295369262270875 
780	 0.295192461497207 
781	 0.295017976042831 
782	 0.29486443458097 
783	 0.294705189678247 
784	 0.294467033452991 
785	 0.294261162360592 
786	 0.294110863549305 
787	 0.293985487038311 
788	 0.293777256193345 
789	 0.293496885046555 
790	 0.293242390611658 
791	 0.293113227454455 
792	 0.293027688616346 
793	 0.292860901097226 
794	 0.292601457023908 
795	 0.292344919067813 
796	 0.292172515197885 
797	 0.292045361378854 
798	 0.291888788832221 
799	 0.291599080015143 
800	 0.291412973582241 
801	 0.291285734175567 
802	 0.291105975362876 
803	 0.290867626870645 
804	 0.29072630998826 
805	 0.290629132449523 
806	 0.290414429407304 
807	 0.290238554130289 
808	 0.290022529617192 
809	 0.289781112185427 
810	 0.289673944055478 
811	 0.289554928236319 
812	 0.289444519370409 
813	 0.289354145187447 
814	 0.28916854184224 
815	 0.28895335467936 
816	 0.288755305374193 
817	 0.288610556586914 
818	 0.288540869710957 
819	 0.288447166607785 
820	 0.288295974091577 
821	 0.288122092115051 
822	 0.287968045955264 
823	 0.287858478323358 
824	 0.28777308255731 
825	 0.287628552654571 
826	 0.287473966568999 
827	 0.287386468770968 
828	 0.287375104997697 
829	 0.287212797338826 
830	 0.287055054925701 
831	 0.286910514683675 
832	 0.286744115308178 
833	 0.286723326785967 
834	 0.286722543123709 
835	 0.286674325911334 
836	 0.286586276090299 
837	 0.286382259969968 
838	 0.286271334671919 
839	 0.286302165777506 
840	 0.286178108841667 
841	 0.286093307776461 
842	 0.286023103351077 
843	 0.285924745233972 
844	 0.28588800153912 
845	 0.285838941299648 
846	 0.285792595273597 
847	 0.285791451623255 
848	 0.285782388495246 
849	 0.285748206750017 
850	 0.285704436375365 
851	 0.285683924751545 
852	 0.285599577978839 
853	 0.285568210569996 
854	 0.285619711265451 
855	 0.285620648682114 
856	 0.28563551204469 
857	 0.285618346106734 
858	 0.285549958498155 
859	 0.285536819521071 
860	 0.285538400331672 
861	 0.285516598861948 
862	 0.285482779975297 
863	 0.285669051918915 
864	 0.28574492544594 
865	 0.285709886059466 
866	 0.285749965936237 
867	 0.28568886368131 
868	 0.285742838388981 
869	 0.285902326379738 
870	 0.285911671897352 
871	 0.285847323389912 
872	 0.285837914879833 
873	 0.285945955185045 
874	 0.286110335392106 
875	 0.286203464421093 
876	 0.286242894980446 
877	 0.28627760438812 
878	 0.286313199990188 
879	 0.286447800908471 
880	 0.28657190304537 
881	 0.286575049670298 
882	 0.286656972229852 
883	 0.286856845791394 
884	 0.287030586859992 
885	 0.287007679760227 
886	 0.287106033035018 
887	 0.287234255419421 
888	 0.2873231043264 
889	 0.287368890776534 
890	 0.287542219462605 
891	 0.28776314104478 
892	 0.287959308045548 
893	 0.288115898783711 
894	 0.288240480713612 
895	 0.288309353248338 
896	 0.288370312694387 
897	 0.288600676142928 
898	 0.288792414815309 
899	 0.28896125112163 
900	 0.289149245505505 
901	 0.289303199649014 
902	 0.28943219311062 
903	 0.28960701159653 
904	 0.289876420251523 
905	 0.290128336099263 
906	 0.290416530850966 
907	 0.290678392329775 
908	 0.290827476233604 
909	 0.290933659772506 
910	 0.291151032426863 
911	 0.291432109178649 
912	 0.291627489776207 
913	 0.291918901618727 
914	 0.292143947711155 
915	 0.292321316132042 
916	 0.292620143890159 
917	 0.292789774299746 
918	 0.293005845069268 
919	 0.293343500488299 
920	 0.293692509247773 
921	 0.293948093183876 
922	 0.294160247385252 
923	 0.29440342412013 
924	 0.29473225141558 
925	 0.295024473272683 
926	 0.295355136146087 
927	 0.295735547624189 
928	 0.295986823915364 
929	 0.296385669309786 
930	 0.296754011578115 
931	 0.29697262712996 
932	 0.297330303388501 
933	 0.297642521224334 
934	 0.297941689563384 
935	 0.29828144282649 
936	 0.298588992943728 
937	 0.298937441101047 
938	 0.299278799172482 
939	 0.299585923144345 
940	 0.300046232354765 
941	 0.300487181342967 
942	 0.300895355018637 
943	 0.301316080331915 
944	 0.301738350140768 
945	 0.302201192187691 
946	 0.302602417125632 
947	 0.30284739892246 
948	 0.303158819173237 
949	 0.303461020162262 
950	 0.303845747537761 
951	 0.304406254765958 
952	 0.304817594659287 
953	 0.30526706858895 
954	 0.305715561324829 
955	 0.306050965951634 
956	 0.306558983988981 
957	 0.307051090305148 
958	 0.307461950114731 
959	 0.307840583164667 
960	 0.30828686778791 
961	 0.3087565362685 
962	 0.309217447759056 
963	 0.30966703435292 
964	 0.310182350525663 
965	 0.310706212971225 
966	 0.311201087316779 
967	 0.311652754535968 
968	 0.312020014605269 
969	 0.31253434416294 
970	 0.313102430684273 
971	 0.313492694228389 
972	 0.314137598661164 
973	 0.314765534926844 
974	 0.315304461405265 
975	 0.315839222048796 
976	 0.3162825561139 
977	 0.316812943399793 
978	 0.317462350351039 
979	 0.318124026311133 
980	 0.318631486278345 
981	 0.318919954436679 
982	 0.319274961955708 
983	 0.320022608124163 
984	 0.320592437126691 
985	 0.321163099228124 
986	 0.32169634944024 
987	 0.322089558938055 
988	 0.322639535825478 
989	 0.323288623264712 
990	 0.323903850456972 
991	 0.324378848137302 
992	 0.324852940927329 
993	 0.325385922605112 
994	 0.325916449472594 
995	 0.326377191713728 
996	 0.326910585266276 
997	 0.327507363619357 
998	 0.328084075543171 
999	 0.328591248994217 
1000	 0.329199421532519 
1001	 0.331720443579599 
1002	 0.332175392993545 
1003	 0.332646858933243 
1004	 0.333126052546421 
1005	 0.333679893550622 
1006	 0.334188456604595 
1007	 0.334658753548271 
1008	 0.335151262867102 
1009	 0.335644787815418 
1010	 0.336164998791058 
1011	 0.336633588996557 
1012	 0.337028083176163 
1013	 0.337483454783274 
1014	 0.337942982632895 
1015	 0.338355530418465 
1016	 0.338787503793008 
1017	 0.33924162367731 
1018	 0.339695431959492 
1019	 0.340119222753378 
1020	 0.340568316693177 
1021	 0.341036626355803 
1022	 0.341460290617572 
1023	 0.341844551159308 
1024	 0.342257563552086 
1025	 0.342696022975705 
1026	 0.343083700797942 
1027	 0.343447499352839 
1028	 0.34382230899987 
1029	 0.344193494911985 
1030	 0.3445651890834 
1031	 0.344956576603694 
1032	 0.345383655251969 
1033	 0.34581720014242 
1034	 0.346201665729054 
1035	 0.346563354377595 
1036	 0.34690606124913 
1037	 0.347240339799829 
1038	 0.347580528166754 
1039	 0.347951386172009 
1040	 0.348393569014306 
1041	 0.348788345529018 
1042	 0.349136937090834 
1043	 0.349540990835095 
1044	 0.349924780913795 
1045	 0.350275561268962 
1046	 0.350630427672692 
1047	 0.351040492030676 
1048	 0.351415373117411 
1049	 0.351771978548527 
1050	 0.352186351731563 
1051	 0.352584757780077 
1052	 0.352924254344201 
1053	 0.353326461412301 
1054	 0.353725326163685 
1055	 0.354037880635428 
1056	 0.35438249025969 
1057	 0.354731042829254 
1058	 0.355035001831098 
1059	 0.355347257845704 
1060	 0.355681037206054 
1061	 0.356031203572839 
1062	 0.356365538026449 
1063	 0.356682478106372 
1064	 0.357000340998103 
1065	 0.357295390404874 
1066	 0.357508863606617 
1067	 0.357728630287871 
1068	 0.358044004834222 
1069	 0.35833935556778 
1070	 0.35861397917988 
1071	 0.358932006729351 
1072	 0.359207314805677 
1073	 0.35940990159046 
1074	 0.359644674723076 
1075	 0.359898414878978 
1076	 0.36011559124639 
1077	 0.360373652808286 
1078	 0.360621945478539 
1079	 0.3608458184138 
1080	 0.361105058219524 
1081	 0.361336223300147 
1082	 0.361545614623874 
1083	 0.361729391371199 
1084	 0.361883508454176 
1085	 0.362080066952502 
1086	 0.362242475010076 
1087	 0.36245911015342 
1088	 0.362754734169897 
1089	 0.363005458244851 
1090	 0.363186811386955 
1091	 0.363364388083776 
1092	 0.363551044051531 
1093	 0.363741826127961 
1094	 0.363987077923368 
1095	 0.364262118947109 
1096	 0.364516408723805 
1097	 0.364767704783881 
1098	 0.365012829111882 
1099	 0.365241353713872 
1100	 0.365499819790606 
1101	 0.365766383216464 
1102	 0.366034895279829 
1103	 0.36633002797863 
1104	 0.366598129544771 
1105	 0.366883400996557 
1106	 0.367166219222089 
1107	 0.367451871646573 
1108	 0.367761298690395 
1109	 0.368023982744295 
1110	 0.368281162936869 
1111	 0.368574415485876 
1112	 0.368876740659026 
1113	 0.369189004255395 
1114	 0.369546976927591 
1115	 0.36986690152296 
1116	 0.370168403737301 
1117	 0.370479360759558 
1118	 0.37077175463989 
1119	 0.371085274993711 
1120	 0.371447718380323 
1121	 0.371766712144242 
1122	 0.372076157196979 
1123	 0.372393829923803 
1124	 0.372714665927678 
1125	 0.373026190597197 
1126	 0.373342122591814 
1127	 0.373676446643946 
1128	 0.373985222440962 
1129	 0.374263813653203 
1130	 0.374559948721378 
1131	 0.374862167584562 
1132	 0.375168361869693 
1133	 0.375500430924969 
1134	 0.375794370890637 
1135	 0.376081031486317 
1136	 0.376333256876739 
1137	 0.376581758778185 
1138	 0.376819058568594 
1139	 0.377088659278059 
1140	 0.377393555382533 
1141	 0.377663801273059 
1142	 0.37793626295442 
1143	 0.37819408008462 
1144	 0.37842832985841 
1145	 0.378665540147482 
1146	 0.378906716502749 
1147	 0.379136139966181 
1148	 0.37934363936887 
1149	 0.379566053022328 
1150	 0.379795206322181 
1151	 0.380019480837022 
1152	 0.38023248285583 
1153	 0.380449165048747 
1154	 0.380671954527202 
1155	 0.380885774216008 
1156	 0.381111250318781 
1157	 0.381370085349773 
1158	 0.381580957750558 
1159	 0.381762113175765 
1160	 0.381958573932955 
1161	 0.382133657725918 
1162	 0.382329087255368 
1163	 0.382546934039163 
1164	 0.382752350555598 
1165	 0.382958302716935 
1166	 0.383157278186116 
1167	 0.383355665663083 
1168	 0.383572920618456 
1169	 0.383778519560774 
1170	 0.383999804487252 
1171	 0.384182339742348 
1172	 0.384343678290034 
1173	 0.384506896096579 
1174	 0.384630799032596 
1175	 0.384800728216016 
1176	 0.384999061294142 
1177	 0.385182810052657 
1178	 0.38538787038609 
1179	 0.385575363562262 
1180	 0.385760520952327 
1181	 0.385923443006241 
1182	 0.386069324984848 
1183	 0.386208373156391 
1184	 0.386354297440406 
1185	 0.386481206815732 
1186	 0.386627868459928 
1187	 0.38678755014959 
1188	 0.386950388948326 
1189	 0.387127521837632 
1190	 0.387279742761604 
1191	 0.387424872142508 
1192	 0.387576834123114 
1193	 0.387710907401968 
1194	 0.387856247056818 
1195	 0.388026407483033 
1196	 0.388179596076852 
1197	 0.388312409184148 
1198	 0.388458388728305 
1199	 0.38860770566108 
1200	 0.388762465527055 
1201	 0.388904345065996 
1202	 0.389051076919801 
1203	 0.389186534747059 
1204	 0.389301028716157 
1205	 0.389434031081233 
1206	 0.389571898820115 
1207	 0.389711288547628 
1208	 0.389863976640425 
1209	 0.390001736159604 
1210	 0.390136453424465 
1211	 0.390266432682686 
1212	 0.390383647256412 
1213	 0.390505164503989 
1214	 0.39063547206521 
1215	 0.390751584206839 
1216	 0.390860990691102 
1217	 0.390960517562994 
1218	 0.391072447052955 
1219	 0.39117732103004 
1220	 0.391291285075739 
1221	 0.391419356272795 
1222	 0.39154067777064 
1223	 0.391668105827331 
1224	 0.391777437556107 
1225	 0.391883898828887 
1226	 0.39198120084933 
1227	 0.392047598769709 
1228	 0.392137869649086 
1229	 0.392246230481841 
1230	 0.392339488905301 
1231	 0.392447841175372 
1232	 0.392533439055683 
1233	 0.392604140943695 
1234	 0.392640483335326 
1235	 0.39272160642846 
1236	 0.392800718410717 
1237	 0.39290087308401 
1238	 0.393047079143839 
1239	 0.393151144252163 
1240	 0.393244676369441 
1241	 0.393335754479555 
1242	 0.39341381565218 
1243	 0.393490466569755 
1244	 0.393555366074082 
1245	 0.393634505670013 
1246	 0.393713307491249 
1247	 0.393794920775083 
1248	 0.393883329556943 
1249	 0.393992946585074 
1250	 0.394048175217675 
1251	 0.394111917399036 
1252	 0.394178708346766 
1253	 0.394232233936185 
1254	 0.394290590334375 
1255	 0.394356901096177 
1256	 0.394427653079713 
1257	 0.394495919451361 
1258	 0.394566506104702 
1259	 0.394650089309552 
1260	 0.394729218011799 
1261	 0.394816492654387 
1262	 0.394876919844374 
1263	 0.394917018266019 
1264	 0.394971335496882 
1265	 0.395012035013889 
1266	 0.395053084602343 
1267	 0.395103669896877 
1268	 0.39516414546486 
1269	 0.395212480363896 
1270	 0.395241063285828 
1271	 0.395292423337375 
1272	 0.395352012832867 
1273	 0.395419267307875 
1274	 0.395492354286483 
1275	 0.395574479815461 
1276	 0.39566687807844 
1277	 0.395763946433158 
1278	 0.395869329626713 
1279	 0.395979021364073 
1280	 0.396112583882425 
1281	 0.396216588001449 
1282	 0.396304448561139 
1283	 0.396399205855652 
1284	 0.396472450136105 
1285	 0.396568402149238 
1286	 0.396661404743168 
1287	 0.396733927337835 
1288	 0.396806536089693 
1289	 0.396874566314917 
1290	 0.396912008123837 
1291	 0.396942090658233 
1292	 0.396954175921752 
1293	 0.396922001449624 
1294	 0.396910693978397 
1295	 0.396901162049397 
1296	 0.396891918351191 
1297	 0.396880307927252 
1298	 0.396870548539123 
1299	 0.396882401589374 
1300	 0.396855870608121 
1301	 0.396811019515379 
1302	 0.396760406113476 
1303	 0.396676587612985 
1304	 0.396601141581257 
1305	 0.396542495830038 
1306	 0.396482051544067 
1307	 0.396438598738023 
1308	 0.396376954820517 
1309	 0.396301577174279 
1310	 0.396210418940038 
1311	 0.39613316502518 
1312	 0.396040800474086 
1313	 0.395966573954832 
1314	 0.395907128640838 
1315	 0.39584319789962 
1316	 0.395782151902125 
1317	 0.395724574945719 
1318	 0.395672103994523 
1319	 0.395620761167305 
1320	 0.395556673808044 
1321	 0.395516466486859 
1322	 0.395492370272563 
1323	 0.39547112309156 
1324	 0.395453474369876 
1325	 0.395444223868354 
1326	 0.395420647181809 
1327	 0.395389986295733 
1328	 0.395351331341282 
1329	 0.395340013187325 
1330	 0.395335066006233 
1331	 0.395325511618546 
1332	 0.395349232746392 
1333	 0.395409567467808 
1334	 0.395445399800466 
1335	 0.395479758509828 
1336	 0.39553676247691 
1337	 0.39559958501573 
1338	 0.395661698144514 
1339	 0.39576097485082 
1340	 0.395817183343994 
1341	 0.395841272705414 
1342	 0.395872629730328 
1343	 0.395887941024334 
1344	 0.395911208120965 
1345	 0.395945552618519 
1346	 0.395982269375287 
1347	 0.395996854286345 
1348	 0.396028997594653 
1349	 0.396047393242839 
1350	 0.396037229970936 
1351	 0.396060124646819 
1352	 0.396095938123065 
1353	 0.396127792561104 
1354	 0.396179255829327 
1355	 0.39621073286218 
1356	 0.396238594757089 
1357	 0.396249004363571 
1358	 0.396238060643974 
1359	 0.396241160123934 
1360	 0.396229932386701 
1361	 0.396233957246298 
1362	 0.396265668265536 
1363	 0.396276078740252 
1364	 0.396285860226094 
1365	 0.396284177134983 
1366	 0.396271068883384 
1367	 0.39624337079615 
1368	 0.396238114753126 
1369	 0.396209426940924 
1370	 0.396144832071802 
1371	 0.396065957589274 
1372	 0.395928314498256 
1373	 0.395773101335987 
1374	 0.395606836954276 
1375	 0.395436205152735 
1376	 0.395209883344516 
1377	 0.39497258190209 
1378	 0.394662117202319 
1379	 0.394282040282277 
1380	 0.393897460559205 
1381	 0.393476644869376 
1382	 0.393017814811862 
1383	 0.392563400640186 
1384	 0.392020357380397 
1385	 0.391444764944169 
1386	 0.390774540152099 
1387	 0.390055208556193 
1388	 0.389220415949948 
1389	 0.388291660787442 
1390	 0.387265157694053 
1391	 0.38617171955308 
1392	 0.384974712732861 
1393	 0.383684030718169 
1394	 0.382360275402396 
1395	 0.380912673162993 
1396	 0.379427119032294 
1397	 0.377974463807925 
1398	 0.376480307974301 
1399	 0.375034470022965 
1400	 0.373604914616571 
1401	 0.372215490223714 
1402	 0.370828008565072 
1403	 0.369517774131624 
1404	 0.368238683715898 
1405	 0.367050113163765 
1406	 0.36590786488962 
1407	 0.364863044687004 
1408	 0.363859131207881 
1409	 0.363013856465547 
1410	 0.362230056690703 
1411	 0.361647828333318 
1412	 0.361210787341802 
1413	 0.360945951326302 
1414	 0.360883958351216 
1415	 0.360969331446405 
1416	 0.361214765028052 
1417	 0.361568476691892 
1418	 0.361957343938927 
1419	 0.362371327728737 
1420	 0.362798039754075 
1421	 0.363190336045473 
1422	 0.363522728635035 
1423	 0.363825103323347 
1424	 0.364053864174186 
1425	 0.364199953143471 
1426	 0.364334462813579 
1427	 0.364416316231527 
1428	 0.364488291394257 
1429	 0.364528832859357 
1430	 0.364556398570065 
1431	 0.364562767482321 
1432	 0.364553961524874 
1433	 0.364515048310505 
1434	 0.364486579464687 
1435	 0.364440415399457 
1436	 0.3644078791769 
1437	 0.364383719829903 
1438	 0.364358424118346 
1439	 0.364328278167099 
1440	 0.364320690517857 
1441	 0.364309206028441 
1442	 0.36427365761422 
1443	 0.36423140451734 
1444	 0.364186476961568 
1445	 0.364148853858507 
1446	 0.3641316617734 
1447	 0.3641212746791 
1448	 0.364109243292715 
1449	 0.36409487013388 
1450	 0.364083926648329 
1451	 0.364077594581235 
1452	 0.36407602627437 
1453	 0.364082327793697 
1454	 0.364095768936441 
1455	 0.364100931554702 
1456	 0.364120453976566 
1457	 0.364116954308994 
1458	 0.364092688484994 
1459	 0.364081295787742 
1460	 0.364053543031207 
1461	 0.364052622323936 
1462	 0.364054974333673 
1463	 0.364084728051146 
1464	 0.364124512118514 
1465	 0.364200288792445 
1466	 0.364312091331277 
1467	 0.364440476261615 
1468	 0.364597224940256 
1469	 0.364769085552029 
1470	 0.364966312450494 
1471	 0.365160425232709 
1472	 0.36537423037088 
1473	 0.365620486150985 
1474	 0.365864863233829 
1475	 0.366133646119496 
1476	 0.366413422979923 
1477	 0.366703424436612 
1478	 0.367026557027123 
1479	 0.36733849810324 
1480	 0.367662967937638 
1481	 0.367985988430396 
1482	 0.368281373523009 
1483	 0.368548290569833 
1484	 0.368842809830087 
1485	 0.369134420248799 
1486	 0.369424349652456 
1487	 0.369734551229051 
1488	 0.370017961192078 
1489	 0.370277096746009 
1490	 0.370543378794978 
1491	 0.370807124239877 
1492	 0.371072471958975 
1493	 0.371322374003988 
1494	 0.37159739239633 
1495	 0.371894869139592 
1496	 0.37217357270285 
1497	 0.372463132507819 
1498	 0.372747539790652 
1499	 0.373020740815519 
1500	 0.373284495323465 
1501	 0.373550872988847 
1502	 0.373800487266107 
1503	 0.374029704521365 
1504	 0.374262547278052 
1505	 0.374468834651107 
1506	 0.374681699273101 
1507	 0.374903518416401 
1508	 0.375116882399163 
1509	 0.375340478856189 
1510	 0.375569185322476 
1511	 0.375793404120063 
1512	 0.376001584752446 
1513	 0.376236925610157 
1514	 0.376490223406962 
1515	 0.376722010149333 
1516	 0.376957536502354 
1517	 0.377162001615493 
1518	 0.377332242958827 
1519	 0.377521653273547 
1520	 0.377696191406293 
1521	 0.377887686762819 
1522	 0.378096835417224 
1523	 0.378296583184863 
1524	 0.378496944974003 
1525	 0.378695478089224 
1526	 0.378897975195484 
1527	 0.379083151390033 
1528	 0.379259912106869 
1529	 0.379430603298722 
1530	 0.379580665998689 
1531	 0.37975119351461 
1532	 0.379926084904857 
1533	 0.380104000585533 
1534	 0.380298712806792 
1535	 0.380474985153054 
1536	 0.380649263996538 
1537	 0.380813786254597 
1538	 0.380964939818414 
1539	 0.381113968635389 
1540	 0.381258858682261 
1541	 0.381395656634533 
1542	 0.381528416236857 
1543	 0.381650881745127 
1544	 0.381754795447067 
1545	 0.381866046461989 
1546	 0.381964434583519 
1547	 0.382080560394155 
1548	 0.382210808135816 
1549	 0.382343356259473 
1550	 0.382493682137619 
1551	 0.382645828181407 
1552	 0.382796754727493 
1553	 0.382951921792233 
1554	 0.383078438380045 
1555	 0.383198157058269 
1556	 0.383326574354658 
1557	 0.383431530231514 
1558	 0.3835413771742 
1559	 0.383663828427405 
1560	 0.383770639720471 
1561	 0.383861139800029 
1562	 0.383964775150747 
1563	 0.384065122101434 
1564	 0.38418227503025 
1565	 0.384307364562225 
1566	 0.384442203528494 
1567	 0.384598031372103 
1568	 0.384733050896066 
1569	 0.384874099073762 
1570	 0.384991450149307 
1571	 0.385095564283138 
1572	 0.38518704057747 
1573	 0.385261413597222 
1574	 0.385332537390881 
1575	 0.385379600569726 
1576	 0.385447964226002 
1577	 0.385532089697694 
1578	 0.385590898023182 
1579	 0.385646536265563 
1580	 0.38569972140237 
1581	 0.385716901459315 
1582	 0.38577401359044 
1583	 0.385853455228801 
1584	 0.385934659255979 
1585	 0.386032975777365 
1586	 0.386130895270897 
1587	 0.38624609417427 
1588	 0.386340606941568 
1589	 0.386442244497049 
1590	 0.386515821823332 
1591	 0.386555731634581 
1592	 0.386603527537705 
1593	 0.386634278670251 
1594	 0.386674215490069 
1595	 0.386699306072636 
1596	 0.386760299802994 
1597	 0.386857759561549 
1598	 0.386933479350469 
1599	 0.38703816502136 
1600	 0.387111857557215 
1601	 0.387136943609397 
1602	 0.387187443923554 
1603	 0.387250896878197 
1604	 0.387300085669696 
1605	 0.387344804020769 
1606	 0.387396718375425 
1607	 0.38745071697724 
1608	 0.387482180550176 
1609	 0.387549147915777 
1610	 0.38761208793187 
1611	 0.387620379038991 
1612	 0.387643093304195 
1613	 0.387652890337398 
1614	 0.38764390217761 
1615	 0.387661362449139 
1616	 0.387668623459997 
1617	 0.387669508102769 
1618	 0.387699269973816 
1619	 0.387741046652921 
1620	 0.387788618044285 
1621	 0.387831194366358 
1622	 0.387883336296075 
1623	 0.387911378609808 
1624	 0.387923348198316 
1625	 0.387955195904499 
1626	 0.387977459094468 
1627	 0.388022857217277 
1628	 0.388095107315409 
1629	 0.388145000707431 
1630	 0.388200643067966 
1631	 0.388229095708089 
1632	 0.388242012524345 
1633	 0.388249718579068 
1634	 0.388236988983289 
1635	 0.38823538968411 
1636	 0.388228838283312 
1637	 0.388232747600671 
1638	 0.388243237489425 
1639	 0.388249210677368 
1640	 0.388257691265067 
1641	 0.388268887736295 
1642	 0.388279894309705 
1643	 0.388287829610702 
1644	 0.388299151728151 
1645	 0.388309743333153 
1646	 0.388311775721759 
1647	 0.388323940264805 
1648	 0.388340769322471 
1649	 0.388366469319858 
1650	 0.388403243008546 
1651	 0.388428287475579 
1652	 0.388470060307726 
1653	 0.388474209779104 
1654	 0.388449325938288 
1655	 0.3884352265171 
1656	 0.388401368830474 
1657	 0.388384024600384 
1658	 0.388372766559557 
1659	 0.388368855149339 
1660	 0.388382020854161 
1661	 0.388369408740395 
1662	 0.388353930419629 
1663	 0.388332714574594 
1664	 0.388279714648472 
1665	 0.388259904490184 
1666	 0.38826492025092 
1667	 0.38825027865197 
1668	 0.388232788511727 
1669	 0.388225181799707 
1670	 0.38821788094305 
1671	 0.38820274455743 
1672	 0.388202700092539 
1673	 0.388180006739226 
1674	 0.388125702771674 
1675	 0.38809548987924 
1676	 0.388059440164639 
1677	 0.388049275934907 
1678	 0.388076925108 
1679	 0.38806523210107 
1680	 0.388058123947442 
1681	 0.388027013917013 
1682	 0.387951925276054 
1683	 0.387903023957126 
1684	 0.387845950463465 
1685	 0.387818738497195 
1686	 0.387805881530119 
1687	 0.387806797134751 
1688	 0.387849741078338 
1689	 0.387853410063395 
1690	 0.387844159829821 
1691	 0.38784121719357 
1692	 0.387839965107216 
1693	 0.387808059324861 
1694	 0.387759252506625 
1695	 0.387723087018623 
1696	 0.38764893034964 
1697	 0.387617117150408 
1698	 0.38763441288752 
1699	 0.387619378770991 
1700	 0.38759630835602 
1701	 0.387576797002543 
1702	 0.387562090213756 
1703	 0.387525019213008 
1704	 0.387479884725864 
1705	 0.38743266868976 
1706	 0.387355444872733 
1707	 0.387304727851566 
1708	 0.38727961548393 
1709	 0.387229715013611 
1710	 0.387162345749698 
1711	 0.387119695865822 
1712	 0.387072401265337 
1713	 0.387042585712417 
1714	 0.387061929099511 
1715	 0.387024839598484 
1716	 0.386956992118396 
1717	 0.386906136048913 
1718	 0.386833572245457 
1719	 0.386777899646838 
1720	 0.386763970386578 
1721	 0.386683366190742 
1722	 0.38656452254611 
1723	 0.386459332561992 
1724	 0.386307719086367 
1725	 0.38621153441624 
1726	 0.386154256668193 
1727	 0.386075167482311 
1728	 0.386012402812232 
1729	 0.385933220519137 
1730	 0.38585187171223 
1731	 0.385742520827548 
1732	 0.385622904496831 
1733	 0.385482645763312 
1734	 0.385293194949567 
1735	 0.385150640709914 
1736	 0.385020042802148 
1737	 0.384883186027208 
1738	 0.384761463548951 
1739	 0.384638224774651 
1740	 0.384508286141587 
1741	 0.384384419420256 
1742	 0.384281469333336 
1743	 0.384142620782011 
1744	 0.383983217090209 
1745	 0.383827384198875 
1746	 0.383643654253419 
1747	 0.383519177883709 
1748	 0.383415036970013 
1749	 0.383304517350738 
1750	 0.38318281561355 
1751	 0.383040378332674 
1752	 0.382901257137253 
1753	 0.382773271258835 
1754	 0.382653437262309 
1755	 0.382572655932758 
1756	 0.382450736012038 
1757	 0.382306783671499 
1758	 0.382208723779026 
1759	 0.38207955649347 
1760	 0.381953157585778 
1761	 0.381858459152204 
1762	 0.38171873544315 
1763	 0.381533716480537 
1764	 0.381366625635501 
1765	 0.38122225540567 
1766	 0.381119318563433 
1767	 0.381065011612457 
1768	 0.380965248070298 
1769	 0.380836844996205 
1770	 0.380697744720861 
1771	 0.380558582600137 
1772	 0.3804582399904 
1773	 0.380325449193267 
1774	 0.380169948923794 
1775	 0.380014479035132 
1776	 0.37985430442844 
1777	 0.379774676762935 
1778	 0.379749658637663 
1779	 0.379727010110648 
1780	 0.379703802509033 
1781	 0.379633691469707 
1782	 0.379546731506623 
1783	 0.379436883948332 
1784	 0.379351182416209 
1785	 0.379288175184964 
1786	 0.379211755523669 
1787	 0.379134572887129 
1788	 0.379076435141756 
1789	 0.379007922583115 
1790	 0.378962391618391 
1791	 0.378950804976632 
1792	 0.378916980806965 
1793	 0.378888120631094 
1794	 0.37885256893137 
1795	 0.378816991648392 
1796	 0.378763650462787 
1797	 0.378686113640699 
1798	 0.378632258225032 
1799	 0.378560607272928 
1800	 0.378525085895376 
1801	 0.373332888210501 
1802	 0.373350874231055 
1803	 0.373394802946494 
1804	 0.373447723733967 
1805	 0.37346613234586 
1806	 0.373509430277326 
1807	 0.37359315569899 
1808	 0.373662563466018 
1809	 0.373760029355458 
1810	 0.373812920248748 
1811	 0.373870985114346 
1812	 0.37387227522122 
1813	 0.373847247032198 
1814	 0.373786720830498 
1815	 0.373737447073101 
1816	 0.373713351184155 
1817	 0.37367918807625 
1818	 0.373643462854722 
1819	 0.373618163306966 
1820	 0.373599021249284 
1821	 0.373566175120281 
1822	 0.373563109167236 
1823	 0.373548483243121 
1824	 0.373513063761055 
1825	 0.373470327339588 
1826	 0.373388602264832 
1827	 0.373295733079846 
1828	 0.37319402015993 
1829	 0.37305906829335 
1830	 0.372951034122764 
1831	 0.37285915103056 
1832	 0.372740240988464 
1833	 0.372602370652279 
1834	 0.372491724421733 
1835	 0.372353631520454 
1836	 0.37222998624473 
1837	 0.372125370644046 
1838	 0.371988223964085 
1839	 0.371852318448859 
1840	 0.371710218592441 
1841	 0.371542084453896 
1842	 0.371384127316329 
1843	 0.371258968624549 
1844	 0.371131561539446 
1845	 0.370985064213153 
1846	 0.370799105775179 
1847	 0.370607965415255 
1848	 0.370367361986221 
1849	 0.370118883627301 
1850	 0.369915845028858 
1851	 0.369748918201491 
1852	 0.369562845976925 
1853	 0.369409941898179 
1854	 0.369250903530777 
1855	 0.369045450116157 
1856	 0.368828900429529 
1857	 0.368548651356747 
1858	 0.368216921608924 
1859	 0.367856373190251 
1860	 0.367456641234021 
1861	 0.367010462778305 
1862	 0.36651998451215 
1863	 0.365995027671374 
1864	 0.365444694560418 
1865	 0.364841766675362 
1866	 0.364186674225105 
1867	 0.363497049907416 
1868	 0.362738652362979 
1869	 0.361918061085376 
1870	 0.361061360895194 
1871	 0.360117102009818 
1872	 0.359111633356142 
1873	 0.358042789355655 
1874	 0.356895619253617 
1875	 0.355649874726747 
1876	 0.354357504566147 
1877	 0.352968377248067 
1878	 0.351438495386479 
1879	 0.349796962432052 
1880	 0.348001144473613 
1881	 0.346022781212871 
1882	 0.343977646239443 
1883	 0.341835062283168 
1884	 0.339521629238989 
1885	 0.337121348676406 
1886	 0.334583017692845 
1887	 0.33185236540486 
1888	 0.32905128671253 
1889	 0.326140220051386 
1890	 0.323139335892447 
1891	 0.320134383160693 
1892	 0.316998826186839 
1893	 0.313957151277744 
1894	 0.310912845498487 
1895	 0.307909656048416 
1896	 0.304928257360525 
1897	 0.302078753485251 
1898	 0.299280407359942 
1899	 0.296624906149071 
1900	 0.294123924285421 
1901	 0.291750280699443 
1902	 0.289553161624603 
1903	 0.28754278243531 
1904	 0.285632803319088 
1905	 0.283861923590858 
1906	 0.282268329514983 
1907	 0.28074734051955 
1908	 0.27934619081767 
1909	 0.27810800720258 
1910	 0.276953363479962 
1911	 0.275886990684534 
1912	 0.274914407399717 
1913	 0.273994011418237 
1914	 0.273130835410688 
1915	 0.272332827940674 
1916	 0.271612316338512 
1917	 0.270937217099107 
1918	 0.270319587325351 
1919	 0.269784520175263 
1920	 0.269294775285114 
1921	 0.268852230109924 
1922	 0.268451318383343 
1923	 0.268089090195667 
1924	 0.26779281931805 
1925	 0.267563419520426 
1926	 0.267367806089766 
1927	 0.267227197124057 
1928	 0.267122353298454 
1929	 0.267056057082968 
1930	 0.267031446160648 
1931	 0.267056132257863 
1932	 0.267125508911533 
1933	 0.267218582044374 
1934	 0.267328696709302 
1935	 0.267478229169296 
1936	 0.267668627639188 
1937	 0.267870080454416 
1938	 0.268091076474735 
1939	 0.268349331162223 
1940	 0.26862919973424 
1941	 0.26893455274787 
1942	 0.269288529604421 
1943	 0.269677365578713 
1944	 0.270076233038853 
1945	 0.270486505101653 
1946	 0.270907433274621 
1947	 0.271334543041696 
1948	 0.271783379996762 
1949	 0.272259181188248 
1950	 0.272731742202921 
1951	 0.273214469696614 
1952	 0.273708949656971 
1953	 0.274194055569631 
1954	 0.274686177895762 
1955	 0.275195548507979 
1956	 0.275713326844091 
1957	 0.276251452281012 
1958	 0.276803198944316 
1959	 0.277373432173752 
1960	 0.277970098920828 
1961	 0.278567872341634 
1962	 0.279179345970892 
1963	 0.279804464813592 
1964	 0.280437877568499 
1965	 0.281089670811414 
1966	 0.281739206356592 
1967	 0.282378331294988 
1968	 0.283023648353239 
1969	 0.28366505007476 
1970	 0.284303471510303 
1971	 0.284948847963921 
1972	 0.285586670219117 
1973	 0.286192012385713 
1974	 0.28683772597311 
1975	 0.287491909413172 
1976	 0.288180854915272 
1977	 0.288878489538406 
1978	 0.2895650855727 
1979	 0.290235100908853 
1980	 0.2909021161664 
1981	 0.291576752468152 
1982	 0.292250966928217 
1983	 0.292933183138041 
1984	 0.293633430725715 
1985	 0.294311769449932 
1986	 0.29498535479469 
1987	 0.295651677497073 
1988	 0.296299605175618 
1989	 0.296949727573202 
1990	 0.297613919988247 
1991	 0.298292348513105 
1992	 0.298980821210546 
1993	 0.299704101817057 
1994	 0.300391940981177 
1995	 0.301079512377453 
1996	 0.301749112832333 
1997	 0.302385092611959 
1998	 0.303038205753698 
1999	 0.303692105045675 
2000	 0.304345719826794 
2001	 0.30500896378222 
2002	 0.30566650087882 
2003	 0.306308865143928 
2004	 0.306942161569414 
2005	 0.307563084368226 
2006	 0.308162833092743 
2007	 0.308777486003967 
2008	 0.309380634621284 
2009	 0.31000054287453 
2010	 0.310633494623963 
2011	 0.311260349171235 
2012	 0.31190305297591 
2013	 0.312527355533599 
2014	 0.313139957657176 
2015	 0.313761000662981 
2016	 0.314356285444876 
2017	 0.314929734989766 
2018	 0.315514280215886 
2019	 0.31609251999012 
2020	 0.316668449485312 
2021	 0.317256925333158 
2022	 0.317821583315128 
2023	 0.318365606780282 
2024	 0.318912779233934 
2025	 0.319459334438132 
2026	 0.319986810881524 
2027	 0.320505045479701 
2028	 0.321009416995848 
2029	 0.321524548771931 
2030	 0.322021225965868 
2031	 0.322543045335057 
2032	 0.323092158442948 
2033	 0.323620406696831 
2034	 0.324156640907273 
2035	 0.324668769814606 
2036	 0.325171897123769 
2037	 0.325654304065242 
2038	 0.326128626081989 
2039	 0.326572719535446 
2040	 0.326977069127179 
2041	 0.327383882314449 
2042	 0.327798376807848 
2043	 0.328212653990253 
2044	 0.32861613986655 
2045	 0.32902931933442 
2046	 0.329436867240246 
2047	 0.329820519377885 
2048	 0.330218106746319 
2049	 0.330648753270093 
2050	 0.331040859743444 
2051	 0.331418870537597 
2052	 0.331779649942081 
2053	 0.332105393024454 
2054	 0.332443911701399 
2055	 0.332783047093771 
2056	 0.333103243841466 
2057	 0.333432341866775 
2058	 0.333765465401994 
2059	 0.334097476716915 
2060	 0.334424709391482 
2061	 0.334757413565743 
2062	 0.335099019655197 
2063	 0.335431461618186 
2064	 0.335760987448025 
2065	 0.336088781210559 
2066	 0.336417331662091 
2067	 0.33673794398752 
2068	 0.337059901784438 
2069	 0.337360669426182 
2070	 0.337675318472815 
2071	 0.337993285377132 
2072	 0.338294689913342 
2073	 0.338599007580684 
2074	 0.338886589918093 
2075	 0.339148190418522 
2076	 0.339423030837116 
2077	 0.339696942402164 
2078	 0.339970573241616 
2079	 0.340247347068883 
2080	 0.340517110372977 
2081	 0.340797322991602 
2082	 0.341051706306478 
2083	 0.341269182729601 
2084	 0.341520000348987 
2085	 0.341753485271408 
2086	 0.34196398704262 
2087	 0.342197841067415 
2088	 0.342451208607819 
2089	 0.342682757486145 
2090	 0.34291747020416 
2091	 0.343136471097276 
2092	 0.343323085585931 
2093	 0.343542066722712 
2094	 0.343775095728214 
2095	 0.343995733207537 
2096	 0.344231319178035 
2097	 0.34445853577772 
2098	 0.34468229000859 
2099	 0.344883191019439 
2100	 0.345084110599873 
2101	 0.345277018143779 
2102	 0.345483669426641 
2103	 0.345672367967913 
2104	 0.345895749163422 
2105	 0.346142223477376 
2106	 0.346396258346714 
2107	 0.346673751048912 
2108	 0.346942365257545 
2109	 0.347226371557194 
2110	 0.347499842140554 
2111	 0.34776705013521 
2112	 0.348029106448993 
2113	 0.348288618009028 
2114	 0.348545681227402 
2115	 0.348792616377719 
2116	 0.349019752343343 
2117	 0.349280547154512 
2118	 0.349541320284729 
2119	 0.349823792782165 
2120	 0.350132553983971 
2121	 0.350444004158916 
2122	 0.350782866501711 
2123	 0.351090492762144 
2124	 0.351419182966339 
2125	 0.351699870137624 
2126	 0.351960836777035 
2127	 0.352178204693027 
2128	 0.352347090360511 
2129	 0.352504789188378 
2130	 0.352609570542979 
2131	 0.352718688772269 
2132	 0.352837653193635 
2133	 0.352958863110482 
2134	 0.353069664948683 
2135	 0.353199475810879 
2136	 0.353281105000392 
2137	 0.353340173582925 
2138	 0.353378390175534 
2139	 0.353384188507445 
2140	 0.353380998706659 
2141	 0.353358750143164 
2142	 0.353327424012806 
2143	 0.353285958902642 
2144	 0.353222656000737 
2145	 0.353167108044928 
2146	 0.353056776440474 
2147	 0.352894525590136 
2148	 0.352732905965625 
2149	 0.352528035698781 
2150	 0.352265303919648 
2151	 0.352025348672212 
2152	 0.35177639089511 
2153	 0.351512167484857 
2154	 0.35124613102283 
2155	 0.35095612293001 
2156	 0.350637868083622 
2157	 0.35032173517405 
2158	 0.35000280459683 
2159	 0.349660469898382 
2160	 0.349305768715473 
2161	 0.348938061492762 
2162	 0.348538113628058 
2163	 0.348144624694224 
2164	 0.347750796153502 
2165	 0.347354938444943 
2166	 0.346930188331086 
2167	 0.346498795045596 
2168	 0.34604123479879 
2169	 0.34556335691679 
2170	 0.345052262241316 
2171	 0.344530132631168 
2172	 0.343959338161408 
2173	 0.343341548747068 
2174	 0.342705477513022 
2175	 0.342019091868799 
2176	 0.341342328848716 
2177	 0.340659750179997 
2178	 0.339946704197645 
2179	 0.339230913740444 
2180	 0.338478386147618 
2181	 0.337680871273023 
2182	 0.336872159109077 
2183	 0.33604885064668 
2184	 0.3351885791566 
2185	 0.334320127490268 
2186	 0.333420836129685 
2187	 0.332534075929489 
2188	 0.331610743423596 
2189	 0.330753111846531 
2190	 0.329898950659278 
2191	 0.329106010362765 
2192	 0.328347239151725 
2193	 0.32764868794277 
2194	 0.326980889389238 
2195	 0.326398300476722 
2196	 0.325887487086065 
2197	 0.325435098744621 
2198	 0.325052218011017 
2199	 0.324733031938209 
2200	 0.324484894897195 
2201	 0.32428675403884 
2202	 0.324151867317784 
2203	 0.324085005618614 
2204	 0.324050674117071 
2205	 0.324047272184496 
2206	 0.324142653343075 
2207	 0.324276598652477 
2208	 0.324544467733558 
2209	 0.324933071844692 
2210	 0.32537182547552 
2211	 0.325953568591764 
2212	 0.32649351186483 
2213	 0.327094264769846 
2214	 0.327661238407852 
2215	 0.32823182741978 
2216	 0.328786638534464 
2217	 0.329367645034438 
2218	 0.329879142703912 
2219	 0.330349490119638 
2220	 0.33080217911032 
2221	 0.331210197373048 
2222	 0.331595469307345 
2223	 0.331959137515012 
2224	 0.332277152061162 
2225	 0.332565908505817 
2226	 0.332804613647843 
2227	 0.333020791024458 
2228	 0.333224729291001 
2229	 0.333362774060796 
2230	 0.333434783326822 
2231	 0.333511716929448 
2232	 0.333546650924822 
2233	 0.333580270134778 
2234	 0.333618548771892 
2235	 0.333610303778109 
2236	 0.333547057159408 
2237	 0.333505127579573 
2238	 0.333451807963136 
2239	 0.333387102929137 
2240	 0.333318534877093 
2241	 0.3332558139616 
2242	 0.333203464162639 
2243	 0.333106149212477 
2244	 0.33300837964109 
2245	 0.332875525529792 
2246	 0.332694652793202 
2247	 0.332492478705945 
2248	 0.332305163514787 
2249	 0.332109338192631 
2250	 0.331931758470709 
2251	 0.331745033113291 
2252	 0.331602590877643 
2253	 0.331504293418932 
2254	 0.331371127232492 
2255	 0.331243761577591 
2256	 0.331117470032463 
2257	 0.330971152473864 
2258	 0.330841148234931 
2259	 0.330724519850191 
2260	 0.330621475381988 
2261	 0.330499198770307 
2262	 0.330430280124884 
2263	 0.330391625995207 
2264	 0.330383157488377 
2265	 0.330440780629034 
2266	 0.330470427941847 
2267	 0.330503822145606 
2268	 0.330558489073415 
2269	 0.330631764617666 
2270	 0.330670276761085 
2271	 0.330744805101852 
2272	 0.330842193303758 
2273	 0.330893821712017 
2274	 0.330942235921757 
2275	 0.330979014702854 
2276	 0.330998758562135 
2277	 0.331020355650596 
2278	 0.331030108270766 
2279	 0.331047537506371 
2280	 0.331055492197374 
2281	 0.331096690866134 
2282	 0.331153225881191 
2283	 0.331219160351809 
2284	 0.33133566642612 
2285	 0.331388024947086 
2286	 0.331427709603938 
2287	 0.331436519507464 
2288	 0.331383707385814 
2289	 0.331358268783032 
2290	 0.331330309934992 
2291	 0.331298628315872 
2292	 0.331272269993984 
2293	 0.331242783872997 
2294	 0.331191409219838 
2295	 0.331152352347421 
2296	 0.331117993022315 
2297	 0.331097019290042 
2298	 0.331046438915713 
2299	 0.33105764295871 
2300	 0.331052558916297 
2301	 0.331001929108162 
2302	 0.330988222495143 
2303	 0.330932832234915 
2304	 0.330852341963629 
2305	 0.33078012739062 
2306	 0.330671836201017 
2307	 0.330523187995737 
2308	 0.330404262773433 
2309	 0.330298022820912 
2310	 0.330138297062597 
2311	 0.329976245426457 
2312	 0.32976495733619 
2313	 0.329464616981326 
2314	 0.329217841668379 
2315	 0.328971829891834 
2316	 0.328740545263267 
2317	 0.328532838794982 
2318	 0.328322211605381 
2319	 0.328114069106477 
2320	 0.327901497367543 
2321	 0.327685553197623 
2322	 0.327471628639514 
2323	 0.327270017809491 
2324	 0.327056420396259 
2325	 0.326841362692107 
2326	 0.326615533307456 
2327	 0.326379400612984 
2328	 0.326122774724324 
2329	 0.325884637975706 
2330	 0.3256720930108 
2331	 0.325471727518004 
2332	 0.325293679730303 
2333	 0.325065360148428 
2334	 0.324799225265636 
2335	 0.324572305206183 
2336	 0.324337572892989 
2337	 0.324088855629331 
2338	 0.323878684598268 
2339	 0.323599847808642 
2340	 0.323221582924625 
2341	 0.322867279494676 
2342	 0.322529442078579 
2343	 0.322223855806002 
2344	 0.321954039678729 
2345	 0.321680716323414 
2346	 0.321448802123508 
2347	 0.321182504679555 
2348	 0.320894600532616 
2349	 0.320628245307463 
2350	 0.320348526419775 
2351	 0.3201264677513 
2352	 0.319944791564724 
2353	 0.31972751647643 
2354	 0.319531904677963 
2355	 0.319334799413369 
2356	 0.319097402100497 
2357	 0.3189284722753 
2358	 0.318820587555745 
2359	 0.318690628367351 
2360	 0.318583795565132 
2361	 0.318436076773583 
2362	 0.318315933841839 
2363	 0.318109372952876 
2364	 0.317789762720113 
2365	 0.317561016919258 
2366	 0.317333814920333 
2367	 0.317092523744864 
2368	 0.316931574573906 
2369	 0.316697165776676 
2370	 0.316415532157239 
2371	 0.316072108774347 
2372	 0.315729697494104 
2373	 0.315381431251055 
2374	 0.315043781737229 
2375	 0.314688093119477 
2376	 0.314332822137513 
2377	 0.313983978180799 
2378	 0.313586676310549 
2379	 0.313169137621111 
2380	 0.312786358468259 
2381	 0.312344494646209 
2382	 0.311866979186184 
2383	 0.311485693391093 
2384	 0.311078145650648 
2385	 0.310662405872695 
2386	 0.310309839647738 
2387	 0.309857891300179 
2388	 0.309426060445462 
2389	 0.309073528816517 
2390	 0.308682567532257 
2391	 0.308342067340108 
2392	 0.308036106238573 
2393	 0.30767941876385 
2394	 0.307246663288644 
2395	 0.306854840905382 
2396	 0.306447778302471 
2397	 0.305943301694592 
2398	 0.305500092021735 
2399	 0.30500527218309 
2400	 0.304472951971543 
2401	 0.303952523119141 
2402	 0.303434591188226 
2403	 0.302990018451638 
2404	 0.302502118921212 
2405	 0.301997904208271 
2406	 0.301482913440241 
2407	 0.300983883496336 
2408	 0.300478238838635 
2409	 0.299913825274421 
2410	 0.299390805505586 
2411	 0.298760811124879 
2412	 0.298173315452376 
2413	 0.297630384756763 
2414	 0.296914066239348 
2415	 0.296301622031949 
2416	 0.295714116820191 
2417	 0.295098271382418 
2418	 0.294473827862764 
2419	 0.293940539481392 
2420	 0.293350765595621 
2421	 0.292676073804302 
2422	 0.292091251599521 
2423	 0.291568166703997 
2424	 0.290994008402878 
2425	 0.290423793552926 
2426	 0.289785161305033 
2427	 0.289108180544216 
2428	 0.288453494633133 
2429	 0.287715936289913 
2430	 0.287134963904995 
2431	 0.286678757587297 
2432	 0.286148246810182 
2433	 0.285685274515417 
2434	 0.285118072874222 
2435	 0.284437839204415 
2436	 0.283841385860171 
2437	 0.28320598247974 
2438	 0.282665083271893 
2439	 0.282267169481717 
2440	 0.281727709852019 
2441	 0.281220797351087 
2442	 0.280622062767808 
2443	 0.279802238370195 
2444	 0.279197162170493 
2445	 0.278611773700234 
2446	 0.278110764072523 
2447	 0.277818082963687 
2448	 0.277403945371275 
2449	 0.277020492944223 
2450	 0.276572363394755 
2451	 0.276003523293341 
2452	 0.275511435300557 
2453	 0.27506880999797 
2454	 0.274548369322336 
2455	 0.274009291136796 
2456	 0.273509392227296 
2457	 0.272887076526576 
2458	 0.272404696973518 
2459	 0.272137222128387 
2460	 0.271687565119683 
2461	 0.271178786012906 
2462	 0.270710415569407 
2463	 0.270106596966826 
2464	 0.269607850357029 
2465	 0.269284683937884 
2466	 0.26886544495457 
2467	 0.268410454193868 
2468	 0.26804330403694 
2469	 0.267700488862251 
2470	 0.267429497103522 
2471	 0.266911027032962 
2472	 0.266482943242798 
2473	 0.265981470371776 
2474	 0.265257010398578 
2475	 0.26487099009433 
2476	 0.264527956850027 
2477	 0.264090548095116 
2478	 0.26383619364777 
2479	 0.26339917694746 
2480	 0.262857718618795 
2481	 0.262432739960995 
2482	 0.261940126177502 
2483	 0.261489376050013 
2484	 0.261068161402946 
2485	 0.260627796945147 
2486	 0.260088866570894 
2487	 0.259646509742083 
2488	 0.259228274534715 
2489	 0.258579040265668 
2490	 0.258280992348195 
2491	 0.258098030216728 
2492	 0.25771801425698 
2493	 0.257430879374226 
2494	 0.256978941512054 
2495	 0.2565067446287 
2496	 0.256311707669526 
2497	 0.25621637042828 
2498	 0.256087684752009 
2499	 0.255790078467261 
2500	 0.2552920296792 
