Wavelength	LMW7 profile 200005.asd
350	 6.48640265379325E-02 
351	 6.88608828313541E-02 
352	 0.068677887104143 
353	 0.062820469245877 
354	 5.49527925049656E-02 
355	 5.70295076266866E-02 
356	 6.35925206286379E-02 
357	 6.57985605716251E-02 
358	 6.13809653101927E-02 
359	 6.12262992694474E-02 
360	 6.41916661456125E-02 
361	 6.19319577273236E-02 
362	 5.87946077117309E-02 
363	 5.88586216821416E-02 
364	 6.13472175561831E-02 
365	 5.78827794189617E-02 
366	 5.87027222041179E-02 
367	 6.11526853083004E-02 
368	 6.06560299926258E-02 
369	 5.97514210939405E-02 
370	 5.92513315480111E-02 
371	 6.02885591854544E-02 
372	 6.36742028417637E-02 
373	 6.47035596501263E-02 
374	 6.36277310345496E-02 
375	 6.28547114887161E-02 
376	 6.75398632471625E-02 
377	 6.81881292230461E-02 
378	 6.72122092829953E-02 
379	 6.88914084371217E-02 
380	 6.88778400525289E-02 
381	 6.86820070059889E-02 
382	 6.93626827626925E-02 
383	 7.12008607530642E-02 
384	 7.09422814113173E-02 
385	 7.05236170616321E-02 
386	 7.19313159180774E-02 
387	 7.61907394950935E-02 
388	 7.76525667506037E-02 
389	 7.70320199307361E-02 
390	 7.72154773582223E-02 
391	 7.99947586798798E-02 
392	 0.082630427402994 
393	 8.43678328884531E-02 
394	 8.63057646276313E-02 
395	 0.08766399454568 
396	 8.92587263525789E-02 
397	 9.17340964795037E-02 
398	 9.51026718529218E-02 
399	 9.76884255442544E-02 
400	 0.100201609736992 
401	 0.103624434735994 
402	 0.104971786307369 
403	 0.10652353535082 
404	 0.108829299215421 
405	 0.11043602617518 
406	 0.11324387100268 
407	 0.116588028624035 
408	 0.119332587554911 
409	 0.120301257502282 
410	 0.122137113715625 
411	 0.124551591903111 
412	 0.125988069046728 
413	 0.126620882068228 
414	 0.127573682284774 
415	 0.129064558114604 
416	 0.130093548416906 
417	 0.130507002421681 
418	 0.131173479114969 
419	 0.132492380841972 
420	 0.132478860795739 
421	 0.131756922052268 
422	 0.131432474987092 
423	 0.132519002661685 
424	 0.131902412878044 
425	 0.130617472842403 
426	 0.12971432730247 
427	 0.129328556189007 
428	 0.128272280845566 
429	 0.126927325279068 
430	 0.125972492639931 
431	 0.124715434705496 
432	 0.123582605973983 
433	 0.122880003566916 
434	 0.122718966587544 
435	 0.122476197156345 
436	 0.122458226694219 
437	 0.122899434003288 
438	 0.123271924577853 
439	 0.124460524353572 
440	 0.126153853749594 
441	 0.127530748057295 
442	 0.128919856621717 
443	 0.130797563413432 
444	 0.133121603547557 
445	 0.135060591636194 
446	 0.137082618024072 
447	 0.139267975215913 
448	 0.141552917736971 
449	 0.143718920111022 
450	 0.146089441352453 
451	 0.148507136931875 
452	 0.150439449791463 
453	 0.152429649690243 
454	 0.15459729786307 
455	 0.156885773681776 
456	 0.159044666312513 
457	 0.160944531364684 
458	 0.162725167210088 
459	 0.16459740349568 
460	 0.166262072872489 
461	 0.167721512944614 
462	 0.169138305435503 
463	 0.170857381147335 
464	 0.172385080759765 
465	 0.173781588101205 
466	 0.175187440140247 
467	 0.176377826826618 
468	 0.177624624782075 
469	 0.17886825910762 
470	 0.179812628562171 
471	 0.180965605623452 
472	 0.182133445853938 
473	 0.183145709723079 
474	 0.184156839818449 
475	 0.185204908558969 
476	 0.186205858928613 
477	 0.187061921699551 
478	 0.188026390165305 
479	 0.188985572453109 
480	 0.189941291631557 
481	 0.191104384509274 
482	 0.192090675927709 
483	 0.192969236988673 
484	 0.193889343913733 
485	 0.19476172368269 
486	 0.195631078391514 
487	 0.196497720143715 
488	 0.197322348445213 
489	 0.198025755549528 
490	 0.198869296210825 
491	 0.199939068649461 
492	 0.200753858764953 
493	 0.20156253164307 
494	 0.202408524287777 
495	 0.203248877893876 
496	 0.204114916437001 
497	 0.204977185770964 
498	 0.20583231291834 
499	 0.206731733054046 
500	 0.207458352451548 
501	 0.208184186073725 
502	 0.209077860243575 
503	 0.20971808852847 
504	 0.210651338701853 
505	 0.211686796927328 
506	 0.212011975571906 
507	 0.21288062842414 
508	 0.213965286713528 
509	 0.214807249259686 
510	 0.215447063469629 
511	 0.216100359841278 
512	 0.216830622302888 
513	 0.217612498152081 
514	 0.218458678477464 
515	 0.219272362673943 
516	 0.220017140637896 
517	 0.220774896209278 
518	 0.221481449323418 
519	 0.222184729762743 
520	 0.22294687324318 
521	 0.223717765295794 
522	 0.224431491617025 
523	 0.225106902427483 
524	 0.225847999565433 
525	 0.226462043144744 
526	 0.227098602949785 
527	 0.227888203191725 
528	 0.228667423828214 
529	 0.229412377643861 
530	 0.230147112924943 
531	 0.230911348869236 
532	 0.231469163890001 
533	 0.232168973409534 
534	 0.233113029703096 
535	 0.233710022384594 
536	 0.23438540847004 
537	 0.235146995477763 
538	 0.235864546185832 
539	 0.236639223916254 
540	 0.237322163470555 
541	 0.237914881176227 
542	 0.238637758129293 
543	 0.239346066495322 
544	 0.240062215052518 
545	 0.240816128468037 
546	 0.241488287641293 
547	 0.242186225686321 
548	 0.242935663560448 
549	 0.243687151057277 
550	 0.244398291309842 
551	 0.245119058455567 
552	 0.245889201028787 
553	 0.246681219288924 
554	 0.247441064848426 
555	 0.248191344333775 
556	 0.248986705855231 
557	 0.249757079444298 
558	 0.250554411546964 
559	 0.251422219775663 
560	 0.252385808656379 
561	 0.253164163721227 
562	 0.253875581704105 
563	 0.254746486816873 
564	 0.255745042165459 
565	 0.256634695496043 
566	 0.257389455958688 
567	 0.258230744325091 
568	 0.259193219957838 
569	 0.260217054848954 
570	 0.261227202492883 
571	 0.262216260676414 
572	 0.263140294568549 
573	 0.264024166984042 
574	 0.264938848859885 
575	 0.265878886960183 
576	 0.266909017263763 
577	 0.268022896967838 
578	 0.269049524729906 
579	 0.270012585306593 
580	 0.270918493555638 
581	 0.271788989036519 
582	 0.272736792059657 
583	 0.273689673365806 
584	 0.27463816725274 
585	 0.275687923178151 
586	 0.276872821269604 
587	 0.278105736995914 
588	 0.279277967045344 
589	 0.280381534356412 
590	 0.281480094402325 
591	 0.282624058544464 
592	 0.283842328644951 
593	 0.285005025432562 
594	 0.286033088179392 
595	 0.286916489901399 
596	 0.287790157408782 
597	 0.288568991322706 
598	 0.289308640205572 
599	 0.290124983432884 
600	 0.290893971291529 
601	 0.291773949101411 
602	 0.292779848911077 
603	 0.293617685369297 
604	 0.294458472707282 
605	 0.295332341341443 
606	 0.296228863748031 
607	 0.297176947344878 
608	 0.298091539776119 
609	 0.298963010720294 
610	 0.299873625948721 
611	 0.300640873423549 
612	 0.301339117229884 
613	 0.302056305083316 
614	 0.302709619477087 
615	 0.303311072541888 
616	 0.30390440343548 
617	 0.304537861398079 
618	 0.305053726390149 
619	 0.305530741321137 
620	 0.30603704849807 
621	 0.306536711401385 
622	 0.307048564589493 
623	 0.307507552590712 
624	 0.307863180203132 
625	 0.308394884740399 
626	 0.308877853462152 
627	 0.309236244513448 
628	 0.309642184989086 
629	 0.310084892816311 
630	 0.310481041802422 
631	 0.310783947580711 
632	 0.311185355744503 
633	 0.311535977977556 
634	 0.311860630690495 
635	 0.312311498455969 
636	 0.312588712562033 
637	 0.312900099878126 
638	 0.313363923709403 
639	 0.313657514603174 
640	 0.313964707411176 
641	 0.314309407273521 
642	 0.314645412975331 
643	 0.314958283012732 
644	 0.31530615233104 
645	 0.315699979657753 
646	 0.316075078990463 
647	 0.316371258495003 
648	 0.316656410886016 
649	 0.317019575589682 
650	 0.317459708900609 
651	 0.317879419554699 
652	 0.318243485127391 
653	 0.318580009726957 
654	 0.318982769245568 
655	 0.319352480461084 
656	 0.319635318353739 
657	 0.319963769967689 
658	 0.32044153079314 
659	 0.320938963029929 
660	 0.321255791318747 
661	 0.321639109585863 
662	 0.322110044320176 
663	 0.322603546556193 
664	 0.322961439106166 
665	 0.323385937328745 
666	 0.323880582124283 
667	 0.324360107499193 
668	 0.324607407221039 
669	 0.325016144106221 
670	 0.325598263357341 
671	 0.326044619860383 
672	 0.326478121768025 
673	 0.326995535545764 
674	 0.327583598963465 
675	 0.327964909332042 
676	 0.328394142115376 
677	 0.32886589016842 
678	 0.329287832766009 
679	 0.329800013351288 
680	 0.33032861693558 
681	 0.330834446250042 
682	 0.331348931325345 
683	 0.331852066596719 
684	 0.332333845738859 
685	 0.332798079083588 
686	 0.333284664949976 
687	 0.333771755116585 
688	 0.33429367933144 
689	 0.334901364764319 
690	 0.335336529125726 
691	 0.335767181489806 
692	 0.336313542637552 
693	 0.336890884086457 
694	 0.337324323634341 
695	 0.337724853149927 
696	 0.338267488818449 
697	 0.338812229247749 
698	 0.33930774416013 
699	 0.339799101322217 
700	 0.340415245575476 
701	 0.340868782274672 
702	 0.341257369083175 
703	 0.341712477429575 
704	 0.342228002404082 
705	 0.342651297017303 
706	 0.343005395446797 
707	 0.343404614281171 
708	 0.343847495322987 
709	 0.344306888765859 
710	 0.344741251540809 
711	 0.345093895183105 
712	 0.345480151489632 
713	 0.345883297127803 
714	 0.346248922321498 
715	 0.346520314856476 
716	 0.346877914000409 
717	 0.347292584099243 
718	 0.347588723925535 
719	 0.347846427747751 
720	 0.348061633703998 
721	 0.34823871769654 
722	 0.348405643710074 
723	 0.348720308588417 
724	 0.349027156118925 
725	 0.349134882245523 
726	 0.349268833156101 
727	 0.349435141456471 
728	 0.349576308309495 
729	 0.3495980376112 
730	 0.349692166776949 
731	 0.349778135435028 
732	 0.349787990460033 
733	 0.349809962280056 
734	 0.349787162882983 
735	 0.34970772263014 
736	 0.349589082674018 
737	 0.349504822993179 
738	 0.349384498027209 
739	 0.349220917937475 
740	 0.349084903855103 
741	 0.348916445638375 
742	 0.348723935638221 
743	 0.348510283382299 
744	 0.348215835347362 
745	 0.347944875444829 
746	 0.347684510194721 
747	 0.347370205677117 
748	 0.34700811114434 
749	 0.346683655089099 
750	 0.346368001915328 
751	 0.345892827559536 
752	 0.345437544469858 
753	 0.345019179781357 
754	 0.344609742808184 
755	 0.344168305815386 
756	 0.343726950965433 
757	 0.343283819086589 
758	 0.342811308224238 
759	 0.342238812580181 
760	 0.341572582046984 
761	 0.340911976208674 
762	 0.340450739303524 
763	 0.339908265910522 
764	 0.339285687575264 
765	 0.338654226727299 
766	 0.338079651839124 
767	 0.337457903889375 
768	 0.336758224867698 
769	 0.336012128394073 
770	 0.33536922689429 
771	 0.334817426612815 
772	 0.334259951438163 
773	 0.333530521592144 
774	 0.332882109490787 
775	 0.332261231009281 
776	 0.331582298609061 
777	 0.330863717851987 
778	 0.330180245446955 
779	 0.329528907015197 
780	 0.328863613842141 
781	 0.328135220841408 
782	 0.32744246161214 
783	 0.326790511723898 
784	 0.326081147497163 
785	 0.32541077652179 
786	 0.324769790514514 
787	 0.324115934725304 
788	 0.323366301330026 
789	 0.322679406826551 
790	 0.322044830914867 
791	 0.321387138200384 
792	 0.320666043960033 
793	 0.320031678979347 
794	 0.319429506292513 
795	 0.318648643546088 
796	 0.317937403134934 
797	 0.317286816107069 
798	 0.316645481868079 
799	 0.315960810459754 
800	 0.315315935171265 
801	 0.314726590192947 
802	 0.314146991388955 
803	 0.31337055624442 
804	 0.312759942936511 
805	 0.312282974438305 
806	 0.311676658713872 
807	 0.31109822141724 
808	 0.310447144635738 
809	 0.309729749469037 
810	 0.309114429353007 
811	 0.308574424474149 
812	 0.308069255662173 
813	 0.307550965990864 
814	 0.306979180121679 
815	 0.306317503801863 
816	 0.305690073091002 
817	 0.305225536346398 
818	 0.304691425891596 
819	 0.304149007518922 
820	 0.303636192698936 
821	 0.303150429776435 
822	 0.302622071637659 
823	 0.302085577677454 
824	 0.301571121820583 
825	 0.301073833785893 
826	 0.300623636098472 
827	 0.300201827701776 
828	 0.299771052445416 
829	 0.29928777866782 
830	 0.298736297996793 
831	 0.29819336093506 
832	 0.297758872355149 
833	 0.297384677505691 
834	 0.296956629021348 
835	 0.296480850722779 
836	 0.296078646481358 
837	 0.295761708210286 
838	 0.295452497374945 
839	 0.295086444869427 
840	 0.294652062943036 
841	 0.294180100919534 
842	 0.293734685568473 
843	 0.293363384412636 
844	 0.293041199839862 
845	 0.292732472832416 
846	 0.292452490803284 
847	 0.292210369099184 
848	 0.29183828443578 
849	 0.291429570203049 
850	 0.29106723586079 
851	 0.290787342542574 
852	 0.29039808269043 
853	 0.29006415204153 
854	 0.28984989412917 
855	 0.289603329396323 
856	 0.289423239713477 
857	 0.289191402312064 
858	 0.288852798592026 
859	 0.288633747147281 
860	 0.288399611455577 
861	 0.28816515287049 
862	 0.287973749078319 
863	 0.287764159140897 
864	 0.287539163352974 
865	 0.287336554422445 
866	 0.287194594583217 
867	 0.287007481103231 
868	 0.286847974121401 
869	 0.286700812662799 
870	 0.286454515770081 
871	 0.286126362304344 
872	 0.285923038467307 
873	 0.285924495456153 
874	 0.285963352750104 
875	 0.28585338043466 
876	 0.285660113341579 
877	 0.285490848378172 
878	 0.285349550352538 
879	 0.28534625098725 
880	 0.285318387169631 
881	 0.285124005387539 
882	 0.285130599005199 
883	 0.285085783681384 
884	 0.284926507631627 
885	 0.284739788926086 
886	 0.284732012006937 
887	 0.284807231681526 
888	 0.284844807330645 
889	 0.284752947175217 
890	 0.284677407864408 
891	 0.284630235123001 
892	 0.284636668122372 
893	 0.284747675839064 
894	 0.284782802198554 
895	 0.2847477679427 
896	 0.284724707114719 
897	 0.284853950150949 
898	 0.284875115793626 
899	 0.284859684062167 
900	 0.284917589123446 
901	 0.285009215803608 
902	 0.285152224259689 
903	 0.285290050000394 
904	 0.285369514719696 
905	 0.285443052372889 
906	 0.285542200085421 
907	 0.285612388264907 
908	 0.285612507349797 
909	 0.28577974338064 
910	 0.285980588996902 
911	 0.286158693237533 
912	 0.286327451706437 
913	 0.286513787314639 
914	 0.286632075143015 
915	 0.286724407391035 
916	 0.286925697018874 
917	 0.287035604066616 
918	 0.287304735331982 
919	 0.287717908820944 
920	 0.287919595978839 
921	 0.288070910410928 
922	 0.288241750703979 
923	 0.288446817780797 
924	 0.288641106158497 
925	 0.2889308757787 
926	 0.289305687418326 
927	 0.28966340152781 
928	 0.289796886726379 
929	 0.290087274928248 
930	 0.290474004651766 
931	 0.290814676224498 
932	 0.291070513466792 
933	 0.291279574592387 
934	 0.291525883082705 
935	 0.291856141567917 
936	 0.292173038915286 
937	 0.292559430146016 
938	 0.292924787898843 
939	 0.293207983443003 
940	 0.293646412877845 
941	 0.2940613556731 
942	 0.294489759106167 
943	 0.294988556568993 
944	 0.295333939492624 
945	 0.295731632477515 
946	 0.296186811014194 
947	 0.296621396876071 
948	 0.297074682153575 
949	 0.297438964538571 
950	 0.297782365861998 
951	 0.298239617948777 
952	 0.298772603459477 
953	 0.299348072456033 
954	 0.299844837201501 
955	 0.300197050611237 
956	 0.300868449283954 
957	 0.301341863435879 
958	 0.301704314988982 
959	 0.30233881289138 
960	 0.302857044192085 
961	 0.303290524636991 
962	 0.30377837889268 
963	 0.304438076486352 
964	 0.304964276254197 
965	 0.305433824724433 
966	 0.305961332057892 
967	 0.306625862174516 
968	 0.307274544495313 
969	 0.307857846909906 
970	 0.308398467295867 
971	 0.308960743407088 
972	 0.309561892900071 
973	 0.31020529381346 
974	 0.310913600818588 
975	 0.311671700809037 
976	 0.312176137815485 
977	 0.31273332936062 
978	 0.313436845616497 
979	 0.314175918474511 
980	 0.314766663637741 
981	 0.315347839896505 
982	 0.315990766933625 
983	 0.316689102235763 
984	 0.317357886673833 
985	 0.318153665778892 
986	 0.318894078411917 
987	 0.319335809786832 
988	 0.319935711610799 
989	 0.320641832039009 
990	 0.321331198892786 
991	 0.321939678038307 
992	 0.322795059891706 
993	 0.323522736839815 
994	 0.32419462424363 
995	 0.324991585758121 
996	 0.32560060253288 
997	 0.326157226813775 
998	 0.326784449785982 
999	 0.327574146861696 
1000	 0.328579974513345 
1001	 0.331936615910946 
1002	 0.332611562872078 
1003	 0.333335539240357 
1004	 0.333997813803108 
1005	 0.33460002070827 
1006	 0.335268514601471 
1007	 0.335947590581122 
1008	 0.336596961713261 
1009	 0.337305350420804 
1010	 0.338085555427827 
1011	 0.338734158342118 
1012	 0.339338493644934 
1013	 0.339961127450266 
1014	 0.340450161398054 
1015	 0.340977921542886 
1016	 0.341592841644343 
1017	 0.342217492518935 
1018	 0.342830832304172 
1019	 0.343539773749773 
1020	 0.344280813305946 
1021	 0.344945300404253 
1022	 0.345578934837671 
1023	 0.346179428778813 
1024	 0.346771905103605 
1025	 0.347404361938878 
1026	 0.348014294677412 
1027	 0.348602162901756 
1028	 0.349229720727859 
1029	 0.349831813966038 
1030	 0.350393588957572 
1031	 0.35098557853364 
1032	 0.35162488221448 
1033	 0.352199601856303 
1034	 0.352698996143663 
1035	 0.353251765995622 
1036	 0.353782518553204 
1037	 0.354288081073135 
1038	 0.354865172008333 
1039	 0.355454576702212 
1040	 0.356001730633155 
1041	 0.356562592194706 
1042	 0.357084451022351 
1043	 0.357576211968998 
1044	 0.358094371087507 
1045	 0.358622830599289 
1046	 0.359123464339722 
1047	 0.359654100747383 
1048	 0.360202368076233 
1049	 0.360719474863688 
1050	 0.361274999321638 
1051	 0.361815050084148 
1052	 0.362317354093011 
1053	 0.362865342840178 
1054	 0.36340980088514 
1055	 0.363933446832052 
1056	 0.364523874346069 
1057	 0.365094201374293 
1058	 0.365635613180736 
1059	 0.366203483551995 
1060	 0.366804636941364 
1061	 0.367362742619342 
1062	 0.367946944687896 
1063	 0.368531042091303 
1064	 0.369085303871139 
1065	 0.369706171793781 
1066	 0.370249548097027 
1067	 0.370768556698926 
1068	 0.371356185805929 
1069	 0.371908667812625 
1070	 0.372460367272664 
1071	 0.373038287091153 
1072	 0.373613277965966 
1073	 0.374158994014487 
1074	 0.374691987326898 
1075	 0.375222237646544 
1076	 0.375783745495488 
1077	 0.376284970274209 
1078	 0.376791410735254 
1079	 0.377319182133996 
1080	 0.377819346595764 
1081	 0.378314456153223 
1082	 0.37881052963501 
1083	 0.379294882758639 
1084	 0.379758433354655 
1085	 0.380248053507725 
1086	 0.380749482926128 
1087	 0.381236060193816 
1088	 0.381741866387651 
1089	 0.382204986716586 
1090	 0.382659189404464 
1091	 0.383104823089667 
1092	 0.383537601050979 
1093	 0.383998510848837 
1094	 0.384468500363308 
1095	 0.384901027962848 
1096	 0.385326860557396 
1097	 0.385763930518207 
1098	 0.386194440053154 
1099	 0.386597312308651 
1100	 0.38703852536419 
1101	 0.387518263717915 
1102	 0.387956457032032 
1103	 0.388401875342336 
1104	 0.388813474467234 
1105	 0.389197818971108 
1106	 0.389627356945643 
1107	 0.390023475236259 
1108	 0.390430809113275 
1109	 0.390872618513654 
1110	 0.391278332295882 
1111	 0.391694668728369 
1112	 0.392137436458847 
1113	 0.392550737616094 
1114	 0.392941397101923 
1115	 0.393335750449225 
1116	 0.393708594754845 
1117	 0.394112912632372 
1118	 0.394529773245103 
1119	 0.394943911313136 
1120	 0.395386324525602 
1121	 0.395823053324276 
1122	 0.396205868213818 
1123	 0.396584733599838 
1124	 0.396986597039396 
1125	 0.397375120692597 
1126	 0.397796032258265 
1127	 0.398256671130427 
1128	 0.398683959416887 
1129	 0.399113571579373 
1130	 0.399518523009704 
1131	 0.399905455300323 
1132	 0.400301392688678 
1133	 0.400688261530375 
1134	 0.401073588593792 
1135	 0.401456834743449 
1136	 0.401834847680458 
1137	 0.402231483819263 
1138	 0.402598521248331 
1139	 0.402984165554469 
1140	 0.403388701553682 
1141	 0.403771673999957 
1142	 0.404142986910376 
1143	 0.404523013922424 
1144	 0.404899892761021 
1145	 0.405272300561493 
1146	 0.405646347974698 
1147	 0.40601985851468 
1148	 0.406384896073297 
1149	 0.406756295842921 
1150	 0.407133020701495 
1151	 0.407509598403129 
1152	 0.407890498673407 
1153	 0.408256810427711 
1154	 0.408621790619301 
1155	 0.408975142616367 
1156	 0.409345787237669 
1157	 0.409740414680854 
1158	 0.410088612126188 
1159	 0.410421399054735 
1160	 0.410758933433634 
1161	 0.411046761807063 
1162	 0.41137908701386 
1163	 0.411747214370676 
1164	 0.412107110037778 
1165	 0.412473849529627 
1166	 0.412848736221147 
1167	 0.413221626369648 
1168	 0.413584331594131 
1169	 0.413947907634838 
1170	 0.41431672625619 
1171	 0.414668453756174 
1172	 0.415008147682737 
1173	 0.41535138051757 
1174	 0.415684994606364 
1175	 0.416020881721724 
1176	 0.416364559631714 
1177	 0.416699456250225 
1178	 0.417019040339272 
1179	 0.417354733988549 
1180	 0.417691778973661 
1181	 0.418033659284607 
1182	 0.418399170509784 
1183	 0.418747869437581 
1184	 0.419086490532848 
1185	 0.419408756516899 
1186	 0.419760152648137 
1187	 0.420106143673188 
1188	 0.420470563541314 
1189	 0.420879319821349 
1190	 0.421244118336258 
1191	 0.421599528708636 
1192	 0.421943772223884 
1193	 0.422265102937921 
1194	 0.422589423073474 
1195	 0.422910964009595 
1196	 0.423225267936853 
1197	 0.423536371426448 
1198	 0.42383827646854 
1199	 0.424132886535302 
1200	 0.424410452128537 
1201	 0.424714649436937 
1202	 0.425026751762929 
1203	 0.425328489808037 
1204	 0.425644279025134 
1205	 0.425945420601501 
1206	 0.426221669345342 
1207	 0.426519507021542 
1208	 0.426841034512127 
1209	 0.427135094829945 
1210	 0.427422540729473 
1211	 0.427706244911373 
1212	 0.427970110484404 
1213	 0.4282391747591 
1214	 0.428522659754796 
1215	 0.428787295242674 
1216	 0.429042146376747 
1217	 0.429280710222563 
1218	 0.429536304219047 
1219	 0.429784608039417 
1220	 0.430043131198099 
1221	 0.430315642947245 
1222	 0.43058453094181 
1223	 0.430852213079935 
1224	 0.431122161553025 
1225	 0.431408845810507 
1226	 0.431673413113826 
1227	 0.431928186189024 
1228	 0.432179113385625 
1229	 0.432420016853983 
1230	 0.432654930462099 
1231	 0.43289181560238 
1232	 0.433114229899631 
1233	 0.433326078666625 
1234	 0.433516490305719 
1235	 0.43373207528284 
1236	 0.433937488690699 
1237	 0.434173144221362 
1238	 0.43445311988966 
1239	 0.43468500959253 
1240	 0.434916148725916 
1241	 0.435130118089299 
1242	 0.435303685504114 
1243	 0.435499187226142 
1244	 0.435691283865259 
1245	 0.435897652638781 
1246	 0.43612294212397 
1247	 0.436335471393784 
1248	 0.436543905763948 
1249	 0.436767181726629 
1250	 0.436986795662544 
1251	 0.437182272309869 
1252	 0.437389008616257 
1253	 0.43760065578629 
1254	 0.437808598145913 
1255	 0.438011742774904 
1256	 0.438217617754144 
1257	 0.438438942620889 
1258	 0.438632850988187 
1259	 0.438804871413656 
1260	 0.438988484313485 
1261	 0.439167703849192 
1262	 0.439339918544179 
1263	 0.439517031044084 
1264	 0.439688003802003 
1265	 0.439843861876264 
1266	 0.440001634813979 
1267	 0.440166757350067 
1268	 0.440324339983759 
1269	 0.440466476074197 
1270	 0.440600443951464 
1271	 0.440722044845759 
1272	 0.440815980928168 
1273	 0.440941409897236 
1274	 0.441056649148825 
1275	 0.441208609871002 
1276	 0.44139599719291 
1277	 0.441570873264774 
1278	 0.441759466097542 
1279	 0.441948273161315 
1280	 0.442132252720367 
1281	 0.442327113651996 
1282	 0.442533924117877 
1283	 0.442742148778925 
1284	 0.442953877295801 
1285	 0.443168283102722 
1286	 0.443392060402189 
1287	 0.443625170026945 
1288	 0.443843187776366 
1289	 0.444054260230558 
1290	 0.444284079985076 
1291	 0.444509972703289 
1292	 0.444743296528444 
1293	 0.445003484088633 
1294	 0.445236614926667 
1295	 0.445446396383787 
1296	 0.445680175980351 
1297	 0.445924462304547 
1298	 0.446155831453418 
1299	 0.446399194017364 
1300	 0.446626684186526 
1301	 0.446834091873439 
1302	 0.447041454227035 
1303	 0.447246990049666 
1304	 0.447447964480613 
1305	 0.447631771255786 
1306	 0.447813149107113 
1307	 0.447961794260875 
1308	 0.448088266968175 
1309	 0.448222408888453 
1310	 0.448345578788331 
1311	 0.448455846874706 
1312	 0.448562539149485 
1313	 0.448664866820772 
1314	 0.448748518514565 
1315	 0.44883337030446 
1316	 0.448910364537459 
1317	 0.449008280700623 
1318	 0.449111252638852 
1319	 0.449209231854917 
1320	 0.44933633680508 
1321	 0.449431378200089 
1322	 0.449516080398846 
1323	 0.449567953490859 
1324	 0.449607137807931 
1325	 0.449653780903319 
1326	 0.449704594679677 
1327	 0.449757206242889 
1328	 0.449770671797213 
1329	 0.449769171861559 
1330	 0.449772900490757 
1331	 0.449731722181312 
1332	 0.449743773668453 
1333	 0.449797883009383 
1334	 0.449822098691593 
1335	 0.449849127423823 
1336	 0.449869391938698 
1337	 0.449876978097714 
1338	 0.449893752228685 
1339	 0.449911110395693 
1340	 0.449929081859248 
1341	 0.449965293540749 
1342	 0.449971834445481 
1343	 0.449960662096148 
1344	 0.449952383521374 
1345	 0.449942129101656 
1346	 0.449930116956757 
1347	 0.449924903140112 
1348	 0.449911542471863 
1349	 0.449850066447487 
1350	 0.449762580205245 
1351	 0.449681871013695 
1352	 0.449572639594001 
1353	 0.449494863911256 
1354	 0.449431270137467 
1355	 0.449361102678368 
1356	 0.449295743369063 
1357	 0.449232591714797 
1358	 0.449169156150674 
1359	 0.449111578518331 
1360	 0.449034101424419 
1361	 0.449007108325667 
1362	 0.449008151375547 
1363	 0.449011200973378 
1364	 0.449069937272432 
1365	 0.449095142665177 
1366	 0.449101617934428 
1367	 0.449105159291788 
1368	 0.449123563598062 
1369	 0.449135122059522 
1370	 0.449143622161204 
1371	 0.449142781634205 
1372	 0.449101476282823 
1373	 0.449040117120258 
1374	 0.448958998286409 
1375	 0.448858821750374 
1376	 0.448727418458395 
1377	 0.448570528457197 
1378	 0.448398276823145 
1379	 0.448183022131284 
1380	 0.447993139393727 
1381	 0.447776152287446 
1382	 0.447601322960033 
1383	 0.447468852162321 
1384	 0.447308064523212 
1385	 0.447192376139272 
1386	 0.447012117427483 
1387	 0.446804855751933 
1388	 0.446553336212073 
1389	 0.446265908276003 
1390	 0.445930641394558 
1391	 0.44556434104116 
1392	 0.445169767004002 
1393	 0.444722299794493 
1394	 0.444260713666578 
1395	 0.443780399940217 
1396	 0.44329525239103 
1397	 0.442829681935579 
1398	 0.442376547356402 
1399	 0.441912758498747 
1400	 0.441449495292988 
1401	 0.440995578898332 
1402	 0.440532992716096 
1403	 0.440101792224803 
1404	 0.43968630851756 
1405	 0.439280588876314 
1406	 0.438892149089647 
1407	 0.438509935260562 
1408	 0.438109220997919 
1409	 0.437778731418792 
1410	 0.437439140746168 
1411	 0.437205023782185 
1412	 0.437026721321899 
1413	 0.436938024961307 
1414	 0.436968204737306 
1415	 0.437090801303602 
1416	 0.437315005222295 
1417	 0.437582367111943 
1418	 0.437869174918289 
1419	 0.438151455168258 
1420	 0.438401370513245 
1421	 0.438641012231863 
1422	 0.438818329415421 
1423	 0.438940762607018 
1424	 0.439032922265748 
1425	 0.43907453305787 
1426	 0.439097505960018 
1427	 0.439091588621346 
1428	 0.43906071452592 
1429	 0.438996087550014 
1430	 0.43891623301698 
1431	 0.43880802294119 
1432	 0.438682676012081 
1433	 0.438521246252758 
1434	 0.438381502730588 
1435	 0.438228799247122 
1436	 0.438091221359042 
1437	 0.437974736404249 
1438	 0.437845697776912 
1439	 0.437719776552415 
1440	 0.437580909645025 
1441	 0.437430309731021 
1442	 0.437273372123885 
1443	 0.437080288058539 
1444	 0.436866373272508 
1445	 0.436662562757857 
1446	 0.436456193057113 
1447	 0.436256069464869 
1448	 0.436038629360632 
1449	 0.435772910734002 
1450	 0.435472221940084 
1451	 0.435164249008296 
1452	 0.434828133950973 
1453	 0.434482321138268 
1454	 0.434129769987601 
1455	 0.433746333732892 
1456	 0.433341183908802 
1457	 0.432908914181745 
1458	 0.432435554881299 
1459	 0.431980506004207 
1460	 0.43149246622632 
1461	 0.431036508522161 
1462	 0.430580501284142 
1463	 0.430174307566557 
1464	 0.429786623963054 
1465	 0.429428845533094 
1466	 0.429124105543434 
1467	 0.428824067298673 
1468	 0.428533365180801 
1469	 0.428274446885945 
1470	 0.428031669831403 
1471	 0.427816269756295 
1472	 0.427648670530366 
1473	 0.427560469102827 
1474	 0.427529185143773 
1475	 0.427558965280653 
1476	 0.427668722731674 
1477	 0.427817114315928 
1478	 0.428039608215927 
1479	 0.428299553050434 
1480	 0.428567600544464 
1481	 0.428875646278131 
1482	 0.429174249220488 
1483	 0.429481646308572 
1484	 0.429802620278263 
1485	 0.430139389941983 
1486	 0.430462358743316 
1487	 0.430804577491525 
1488	 0.431113864061523 
1489	 0.431426572332389 
1490	 0.431682042182933 
1491	 0.431908317302157 
1492	 0.432101243353067 
1493	 0.432231638788582 
1494	 0.432371484436424 
1495	 0.432489141422976 
1496	 0.432609823101834 
1497	 0.432717947329383 
1498	 0.432832027708985 
1499	 0.432954417047055 
1500	 0.433056550776027 
1501	 0.433167365408204 
1502	 0.433242326147603 
1503	 0.433270952071342 
1504	 0.433322861137015 
1505	 0.433371457372266 
1506	 0.433409221656966 
1507	 0.433463269369012 
1508	 0.433506505561054 
1509	 0.433536778743609 
1510	 0.433563914760648 
1511	 0.433595169192043 
1512	 0.433632369011267 
1513	 0.433700984166717 
1514	 0.433769919134525 
1515	 0.433842196445386 
1516	 0.433919454788186 
1517	 0.43395929306158 
1518	 0.4339632757744 
1519	 0.433988101348481 
1520	 0.433994686448317 
1521	 0.434023078409778 
1522	 0.434062139373165 
1523	 0.434106591643934 
1524	 0.434167528116575 
1525	 0.434214182352919 
1526	 0.434269267255377 
1527	 0.434303956849416 
1528	 0.434315138079399 
1529	 0.434338007641625 
1530	 0.434343579415496 
1531	 0.43438057233926 
1532	 0.434442642170398 
1533	 0.434494829047128 
1534	 0.434571709036801 
1535	 0.434621874146962 
1536	 0.434642061653072 
1537	 0.434683416124294 
1538	 0.434732027828547 
1539	 0.43476900463406 
1540	 0.434805526268857 
1541	 0.434848227029851 
1542	 0.434885502063302 
1543	 0.434922344529659 
1544	 0.434976429114387 
1545	 0.435013507842034 
1546	 0.435029724144321 
1547	 0.435048604594718 
1548	 0.435087688306113 
1549	 0.435139221506483 
1550	 0.435208187858985 
1551	 0.435275652396542 
1552	 0.435333576171504 
1553	 0.435378888299507 
1554	 0.435442849200709 
1555	 0.435512334414782 
1556	 0.435564307431235 
1557	 0.435630982573181 
1558	 0.435690549984518 
1559	 0.435738403353619 
1560	 0.435793041832553 
1561	 0.435853653870751 
1562	 0.435914522714333 
1563	 0.435974723482358 
1564	 0.436029880657054 
1565	 0.436091483797808 
1566	 0.43614462591111 
1567	 0.436176996943817 
1568	 0.436237384118603 
1569	 0.43631970761798 
1570	 0.436370461233598 
1571	 0.436425234935083 
1572	 0.436465146089064 
1573	 0.436469074728729 
1574	 0.436501963660321 
1575	 0.436539684752731 
1576	 0.436590590241139 
1577	 0.436677143471667 
1578	 0.436713250302531 
1579	 0.436732518480071 
1580	 0.436750349223932 
1581	 0.436732164774323 
1582	 0.436734401541263 
1583	 0.43674609112624 
1584	 0.436765444411827 
1585	 0.436781159006584 
1586	 0.436806068626166 
1587	 0.43685578054111 
1588	 0.436889006050314 
1589	 0.436924042230282 
1590	 0.43694646632058 
1591	 0.436950465846283 
1592	 0.436964832201358 
1593	 0.436967015762784 
1594	 0.43698741637014 
1595	 0.437027853892027 
1596	 0.437060604486214 
1597	 0.437111748590872 
1598	 0.437136670560576 
1599	 0.437157495120602 
1600	 0.437153043496717 
1601	 0.437087034824553 
1602	 0.437073420996507 
1603	 0.437074322942434 
1604	 0.437074658937222 
1605	 0.437110525822206 
1606	 0.437142044827797 
1607	 0.437180847563496 
1608	 0.437188743544931 
1609	 0.437193291322377 
1610	 0.437215904835567 
1611	 0.437195789521398 
1612	 0.437175953700871 
1613	 0.437154227331763 
1614	 0.437102690584836 
1615	 0.437062436604652 
1616	 0.437016894101542 
1617	 0.436999314340695 
1618	 0.437017525981039 
1619	 0.437034101268717 
1620	 0.437054042594379 
1621	 0.437059379626485 
1622	 0.437061575027188 
1623	 0.437051818394987 
1624	 0.437028607908453 
1625	 0.437010076181136 
1626	 0.43698921901456 
1627	 0.436960024855421 
1628	 0.436923311938309 
1629	 0.436898249308267 
1630	 0.436862266875373 
1631	 0.436850124881863 
1632	 0.43685358705666 
1633	 0.43686481119822 
1634	 0.436904060369763 
1635	 0.43690212806792 
1636	 0.436897087476905 
1637	 0.436872498009595 
1638	 0.436807831808031 
1639	 0.436772030366109 
1640	 0.436738049516124 
1641	 0.43671664527724 
1642	 0.436705316577508 
1643	 0.436693577075131 
1644	 0.436690998896111 
1645	 0.436687302494125 
1646	 0.436690932176982 
1647	 0.436676544733684 
1648	 0.436658919448792 
1649	 0.436635964999216 
1650	 0.436597087576713 
1651	 0.436563698551464 
1652	 0.436544336145575 
1653	 0.436490403834022 
1654	 0.436403814896503 
1655	 0.436349767821932 
1656	 0.43628511840618 
1657	 0.436241090698428 
1658	 0.436230535021931 
1659	 0.436202217482782 
1660	 0.43616634268229 
1661	 0.436138828249178 
1662	 0.436117157826768 
1663	 0.43609368902551 
1664	 0.436073346976606 
1665	 0.436049733774185 
1666	 0.436029896042407 
1667	 0.435997545584972 
1668	 0.435961424633064 
1669	 0.435915898660438 
1670	 0.435858679369502 
1671	 0.435799822962756 
1672	 0.435729835899225 
1673	 0.435669309244075 
1674	 0.435603215842248 
1675	 0.435550117661544 
1676	 0.435503665929961 
1677	 0.43546778741581 
1678	 0.435439888436113 
1679	 0.435422009974103 
1680	 0.43543680901191 
1681	 0.435407292683822 
1682	 0.43536620430712 
1683	 0.435317954523747 
1684	 0.435225045586051 
1685	 0.435173510000121 
1686	 0.435141849553043 
1687	 0.435108542683822 
1688	 0.435099879964106 
1689	 0.435062822101372 
1690	 0.435012553914766 
1691	 0.434964022995556 
1692	 0.434899993557314 
1693	 0.434846591678814 
1694	 0.434796884935167 
1695	 0.434752148060816 
1696	 0.434707401242978 
1697	 0.434670324969824 
1698	 0.434638337561858 
1699	 0.434617523860032 
1700	 0.434622991464746 
1701	 0.434589435412118 
1702	 0.434558039258521 
1703	 0.434493731769189 
1704	 0.434382537964212 
1705	 0.434292362735707 
1706	 0.434189196645652 
1707	 0.434104609715988 
1708	 0.434035442650548 
1709	 0.433950166365194 
1710	 0.433850124579799 
1711	 0.433786505414754 
1712	 0.433732017297659 
1713	 0.433681553765219 
1714	 0.433678997103496 
1715	 0.433622617235158 
1716	 0.433524455877993 
1717	 0.433459417475603 
1718	 0.433386662044034 
1719	 0.433329485242432 
1720	 0.433309675274355 
1721	 0.433249069244695 
1722	 0.43317300201409 
1723	 0.433089610876914 
1724	 0.432984509315305 
1725	 0.432884026111473 
1726	 0.432776349560475 
1727	 0.432678494002173 
1728	 0.432587044226821 
1729	 0.432480699314969 
1730	 0.432377220551528 
1731	 0.432262564838967 
1732	 0.432136600523433 
1733	 0.431999857921904 
1734	 0.431843343016357 
1735	 0.431713140811512 
1736	 0.431582114048187 
1737	 0.431456237981051 
1738	 0.431352475409311 
1739	 0.43123129064877 
1740	 0.431097696132084 
1741	 0.430973281668726 
1742	 0.430856263085743 
1743	 0.430732692466415 
1744	 0.430602272142515 
1745	 0.430471523938549 
1746	 0.430335692968057 
1747	 0.430249705607366 
1748	 0.430145998986192 
1749	 0.4300425480688 
1750	 0.42990749608279 
1751	 0.429729888485534 
1752	 0.42957462233147 
1753	 0.429425505777507 
1754	 0.429256052552285 
1755	 0.429121686663869 
1756	 0.428997681336895 
1757	 0.428870782521205 
1758	 0.428748379360276 
1759	 0.42861702530935 
1760	 0.428472467392208 
1761	 0.428304414216331 
1762	 0.428165719916544 
1763	 0.428040599632169 
1764	 0.427903959339298 
1765	 0.427804810936103 
1766	 0.427705166383357 
1767	 0.427569657552692 
1768	 0.427416318670838 
1769	 0.42726708867909 
1770	 0.427132481640366 
1771	 0.427016226436392 
1772	 0.42691145304922 
1773	 0.426763287986818 
1774	 0.426615560300938 
1775	 0.426481167768851 
1776	 0.426309815126089 
1777	 0.426187391217281 
1778	 0.426097227631394 
1779	 0.425997943320518 
1780	 0.425926826922927 
1781	 0.425856488609234 
1782	 0.425765982697235 
1783	 0.425660010594275 
1784	 0.425555219369618 
1785	 0.425444473744474 
1786	 0.425325054573023 
1787	 0.425199226361646 
1788	 0.425077602827736 
1789	 0.424942081080377 
1790	 0.424823221240303 
1791	 0.42470137884674 
1792	 0.424596997831067 
1793	 0.424538456950193 
1794	 0.424442243429681 
1795	 0.424359943091616 
1796	 0.424225778789343 
1797	 0.424028151842863 
1798	 0.423842321567079 
1799	 0.423622374573827 
1800	 0.423453119813161 
1801	 0.422410804745907 
1802	 0.422381063976293 
1803	 0.422396451020311 
1804	 0.422359937623209 
1805	 0.422306315535852 
1806	 0.422288207698758 
1807	 0.422239936812032 
1808	 0.422178454206261 
1809	 0.422147331950407 
1810	 0.422049870987713 
1811	 0.421904546544644 
1812	 0.421740940640564 
1813	 0.421578030493856 
1814	 0.421396108452359 
1815	 0.421236733744013 
1816	 0.421054371807701 
1817	 0.42085199088845 
1818	 0.420612087677633 
1819	 0.420406316218768 
1820	 0.420210627622707 
1821	 0.419999783412523 
1822	 0.419755310674882 
1823	 0.419495445735514 
1824	 0.419198042290846 
1825	 0.418853807772088 
1826	 0.418531753344745 
1827	 0.418169709860227 
1828	 0.417762434840724 
1829	 0.417313823104237 
1830	 0.416841475725026 
1831	 0.416330462502842 
1832	 0.415799788251001 
1833	 0.415221953468763 
1834	 0.41462479000852 
1835	 0.414025760010036 
1836	 0.413404572196103 
1837	 0.412776259136098 
1838	 0.412204586043868 
1839	 0.411661237257156 
1840	 0.411137511699475 
1841	 0.410617448959356 
1842	 0.410193344966539 
1843	 0.40979455786456 
1844	 0.409392145430096 
1845	 0.409064088645444 
1846	 0.408782828780859 
1847	 0.40851724636328 
1848	 0.40829295576411 
1849	 0.40816525841247 
1850	 0.408094129829279 
1851	 0.4080845305753 
1852	 0.408103668923613 
1853	 0.40822286639162 
1854	 0.408376903595995 
1855	 0.408551607610208 
1856	 0.408752364856006 
1857	 0.408949699962 
1858	 0.409157977195008 
1859	 0.409328817367977 
1860	 0.40950435611568 
1861	 0.409684981772218 
1862	 0.409872375053344 
1863	 0.410022846289106 
1864	 0.410187517860292 
1865	 0.410396298402516 
1866	 0.410599034885844 
1867	 0.410800432310986 
1868	 0.41105421402357 
1869	 0.411310379087366 
1870	 0.411580910198797 
1871	 0.41183268108567 
1872	 0.41211105915099 
1873	 0.412342716252882 
1874	 0.41250850370032 
1875	 0.412621988248428 
1876	 0.412684590350989 
1877	 0.412687530353582 
1878	 0.412660297829308 
1879	 0.412571314130278 
1880	 0.412396309369039 
1881	 0.412139820432283 
1882	 0.411843559518877 
1883	 0.411486592675572 
1884	 0.411042634765516 
1885	 0.41057930337558 
1886	 0.41006460304478 
1887	 0.409443677738355 
1888	 0.408778270821244 
1889	 0.408050193463293 
1890	 0.407266820846299 
1891	 0.406451718212955 
1892	 0.405580906226874 
1893	 0.404695857454924 
1894	 0.403786118424519 
1895	 0.402831948693332 
1896	 0.40183917965178 
1897	 0.400796765078958 
1898	 0.39971481520631 
1899	 0.398645723064534 
1900	 0.397585556381992 
1901	 0.396550765131008 
1902	 0.395523604509641 
1903	 0.394523603030449 
1904	 0.393509485013521 
1905	 0.392487817747031 
1906	 0.391494698471121 
1907	 0.390509092163387 
1908	 0.389512328072236 
1909	 0.388566282846842 
1910	 0.387628348138526 
1911	 0.386664824943434 
1912	 0.385718056675117 
1913	 0.384801280937382 
1914	 0.383876501573941 
1915	 0.382992756926052 
1916	 0.382144163094228 
1917	 0.381328410018045 
1918	 0.380535181319029 
1919	 0.379774163658468 
1920	 0.379044702026344 
1921	 0.378339048655852 
1922	 0.3776389400962 
1923	 0.376961939948343 
1924	 0.376335599166548 
1925	 0.375746737713423 
1926	 0.375200298594154 
1927	 0.374704624744941 
1928	 0.374229547257278 
1929	 0.373787709613004 
1930	 0.373354629720302 
1931	 0.372961143079376 
1932	 0.372600733305848 
1933	 0.372285823387289 
1934	 0.37202397014143 
1935	 0.371809881380955 
1936	 0.371649955203843 
1937	 0.371529725582505 
1938	 0.371462311141443 
1939	 0.371422606976294 
1940	 0.371419331127306 
1941	 0.371466199481244 
1942	 0.371521996749089 
1943	 0.371604060771491 
1944	 0.371707609109852 
1945	 0.371798801297934 
1946	 0.371909961134525 
1947	 0.372043051729394 
1948	 0.372172654734821 
1949	 0.372323236422021 
1950	 0.372451560442083 
1951	 0.372578449664469 
1952	 0.372690820194329 
1953	 0.372785990953555 
1954	 0.372883332788572 
1955	 0.372994126629496 
1956	 0.373086535088608 
1957	 0.373178193313748 
1958	 0.373265183619252 
1959	 0.373355299322771 
1960	 0.373433315477143 
1961	 0.373530614418655 
1962	 0.373652628348225 
1963	 0.373755378908958 
1964	 0.373857450992017 
1965	 0.37394619043137 
1966	 0.374046075774275 
1967	 0.374131856710978 
1968	 0.37422806984615 
1969	 0.374330724361832 
1970	 0.374438380612867 
1971	 0.374534048879191 
1972	 0.374665162977085 
1973	 0.374837895466605 
1974	 0.374982912212829 
1975	 0.375134299798736 
1976	 0.375279817831273 
1977	 0.375427518750947 
1978	 0.375538089080979 
1979	 0.375653696365691 
1980	 0.375800022186507 
1981	 0.375932460656888 
1982	 0.37604945709066 
1983	 0.376184235714974 
1984	 0.376333413287969 
1985	 0.376471040848811 
1986	 0.376600195566097 
1987	 0.376747577856941 
1988	 0.376901941854294 
1989	 0.377056247535252 
1990	 0.377229396159708 
1991	 0.377409552078542 
1992	 0.377589293241355 
1993	 0.377789993492289 
1994	 0.377955775231574 
1995	 0.378098125294851 
1996	 0.378257994982306 
1997	 0.378400837576657 
1998	 0.378556511621254 
1999	 0.378741393953063 
2000	 0.378909549957696 
2001	 0.379066590099923 
2002	 0.379214933313235 
2003	 0.379398138185284 
2004	 0.3795738196578 
2005	 0.37975357929386 
2006	 0.379942623335126 
2007	 0.380142811127061 
2008	 0.380337302701933 
2009	 0.38055221937952 
2010	 0.380797677817203 
2011	 0.381029657285766 
2012	 0.38126354202673 
2013	 0.381496308045938 
2014	 0.381732903101318 
2015	 0.381969251884445 
2016	 0.382175336490844 
2017	 0.382388915761972 
2018	 0.382605885277796 
2019	 0.382805215219732 
2020	 0.383024049792962 
2021	 0.383284013152547 
2022	 0.383494977449037 
2023	 0.383689946502081 
2024	 0.383878638694823 
2025	 0.384052200294349 
2026	 0.384204548289512 
2027	 0.384338243062794 
2028	 0.384464713492341 
2029	 0.38459666184759 
2030	 0.384702209968673 
2031	 0.384836556625677 
2032	 0.384986820925426 
2033	 0.385143662397454 
2034	 0.385299782143507 
2035	 0.385473821922377 
2036	 0.385683649177851 
2037	 0.385867525217553 
2038	 0.386063679249965 
2039	 0.386234300554344 
2040	 0.386394371599752 
2041	 0.386520884951422 
2042	 0.386648662092631 
2043	 0.38677772597125 
2044	 0.386894910965508 
2045	 0.387001006796447 
2046	 0.38711645931284 
2047	 0.387241764037445 
2048	 0.387335301249423 
2049	 0.387406712466158 
2050	 0.387494550182234 
2051	 0.387555131432982 
2052	 0.387637717474145 
2053	 0.387765336274025 
2054	 0.387865995124202 
2055	 0.387959132974253 
2056	 0.388045209164611 
2057	 0.388112332842781 
2058	 0.388156206215563 
2059	 0.388208919756692 
2060	 0.388241370450975 
2061	 0.388296974775947 
2062	 0.388351983451076 
2063	 0.38843122055888 
2064	 0.388532525602603 
2065	 0.388634797602186 
2066	 0.388765000300648 
2067	 0.38887807641697 
2068	 0.389015537601514 
2069	 0.38909770617086 
2070	 0.389173921959628 
2071	 0.389235841281021 
2072	 0.389287159190988 
2073	 0.389304088825168 
2074	 0.389343686342731 
2075	 0.389387187064367 
2076	 0.38942205286611 
2077	 0.389445839498798 
2078	 0.389491561634606 
2079	 0.389548237992787 
2080	 0.389595767295704 
2081	 0.389665066812134 
2082	 0.38971195740921 
2083	 0.389738217673491 
2084	 0.389761175759078 
2085	 0.389782852747606 
2086	 0.389801776363131 
2087	 0.389811326779545 
2088	 0.389806384366928 
2089	 0.389819633250888 
2090	 0.389837091290561 
2091	 0.389847383547772 
2092	 0.389871015651192 
2093	 0.389878927485618 
2094	 0.389855244381873 
2095	 0.389859280129078 
2096	 0.389884631090805 
2097	 0.389895214203214 
2098	 0.389890667798855 
2099	 0.389920329639382 
2100	 0.389944584823376 
2101	 0.389959510223691 
2102	 0.389986470938524 
2103	 0.390036827967612 
2104	 0.390070879720397 
2105	 0.39009129247858 
2106	 0.390127551299285 
2107	 0.390154715082352 
2108	 0.390215891368551 
2109	 0.390297635036331 
2110	 0.390387770027476 
2111	 0.390527777636359 
2112	 0.390629793534607 
2113	 0.390728257194916 
2114	 0.390806739350265 
2115	 0.390876440642317 
2116	 0.39091881655896 
2117	 0.390978251510731 
2118	 0.391027456373659 
2119	 0.391099066590307 
2120	 0.391179031220086 
2121	 0.391265734861012 
2122	 0.391376017565284 
2123	 0.391470059769867 
2124	 0.391564986722001 
2125	 0.391652418067225 
2126	 0.391743420513943 
2127	 0.391813589263857 
2128	 0.391898769426815 
2129	 0.391930349038529 
2130	 0.391921145565052 
2131	 0.391899563901586 
2132	 0.391840004457399 
2133	 0.391738251082107 
2134	 0.39161617461038 
2135	 0.391461640263225 
2136	 0.391299755179497 
2137	 0.391099796905449 
2138	 0.390910191789391 
2139	 0.390730023644936 
2140	 0.390516227313556 
2141	 0.390288873806479 
2142	 0.390040044155122 
2143	 0.389746500636164 
2144	 0.389469322953188 
2145	 0.389214142014452 
2146	 0.388910998354239 
2147	 0.3885928982391 
2148	 0.388260621680734 
2149	 0.387879528419658 
2150	 0.387438586236377 
2151	 0.387005917240588 
2152	 0.386545741176074 
2153	 0.386087506261788 
2154	 0.385611494648963 
2155	 0.385144093473191 
2156	 0.384686694635924 
2157	 0.384203892885252 
2158	 0.38371178615989 
2159	 0.38320907668696 
2160	 0.382693754940426 
2161	 0.382160248064207 
2162	 0.381603190218483 
2163	 0.381055327988206 
2164	 0.380502855607099 
2165	 0.379930641193555 
2166	 0.379366793596706 
2167	 0.378816011530407 
2168	 0.378247851329125 
2169	 0.377661448134858 
2170	 0.37708505203666 
2171	 0.376526692173069 
2172	 0.375926612298876 
2173	 0.375324133892107 
2174	 0.374682748960368 
2175	 0.373983071417431 
2176	 0.373306629346815 
2177	 0.372607162870845 
2178	 0.371923951745483 
2179	 0.371265484060838 
2180	 0.370585534340008 
2181	 0.369904878563896 
2182	 0.369210833899578 
2183	 0.368511853615502 
2184	 0.367786084041464 
2185	 0.36704155866365 
2186	 0.366253816534096 
2187	 0.365524084690798 
2188	 0.364780097194487 
2189	 0.364084440133372 
2190	 0.363455946267803 
2191	 0.362792526630884 
2192	 0.362121930693891 
2193	 0.361470889692187 
2194	 0.360795056629527 
2195	 0.360184401517535 
2196	 0.35963374564122 
2197	 0.359066368588626 
2198	 0.358495125047325 
2199	 0.357988908860544 
2200	 0.357478634669478 
2201	 0.357033394880948 
2202	 0.356669947042002 
2203	 0.356352075739158 
2204	 0.35603974381533 
2205	 0.355763957784264 
2206	 0.355493513061156 
2207	 0.355217751714859 
2208	 0.355025769500939 
2209	 0.354862064589024 
2210	 0.35476624074367 
2211	 0.354769042915291 
2212	 0.354755198318749 
2213	 0.354793741209398 
2214	 0.354806065166871 
2215	 0.354828194243532 
2216	 0.354842689255418 
2217	 0.354872318285401 
2218	 0.354857873915149 
2219	 0.354839059987812 
2220	 0.354781394257403 
2221	 0.354656311314334 
2222	 0.354555655974466 
2223	 0.354433535512653 
2224	 0.354275502112972 
2225	 0.354117165659256 
2226	 0.353959676399907 
2227	 0.353743023027362 
2228	 0.353510609363586 
2229	 0.353221346569026 
2230	 0.352867160837192 
2231	 0.352511239213241 
2232	 0.352125405541302 
2233	 0.351711550865408 
2234	 0.351269510082349 
2235	 0.350810719662348 
2236	 0.350310909003302 
2237	 0.349813769308026 
2238	 0.349311559519097 
2239	 0.348788410955327 
2240	 0.348277222695953 
2241	 0.347705229694313 
2242	 0.347119140686723 
2243	 0.346459964597584 
2244	 0.345731972934152 
2245	 0.344958988664996 
2246	 0.344148645116185 
2247	 0.343298706907783 
2248	 0.342445777927629 
2249	 0.341570342206664 
2250	 0.340687658294052 
2251	 0.33976209989091 
2252	 0.33890303745651 
2253	 0.338046551866104 
2254	 0.337222753847793 
2255	 0.336429389303945 
2256	 0.335677434912556 
2257	 0.334909745224772 
2258	 0.334277463123803 
2259	 0.33371391572148 
2260	 0.333233079750388 
2261	 0.332846771159398 
2262	 0.33253798739843 
2263	 0.332314275211472 
2264	 0.332166078806757 
2265	 0.332114504724345 
2266	 0.332123348944582 
2267	 0.332204752805709 
2268	 0.332356713906026 
2269	 0.332583790230396 
2270	 0.332880581096793 
2271	 0.333274057060567 
2272	 0.333695466789764 
2273	 0.334171690430424 
2274	 0.334698176422873 
2275	 0.335269503663519 
2276	 0.33588244963954 
2277	 0.336541463758379 
2278	 0.337264619849613 
2279	 0.338009828352866 
2280	 0.338808873803906 
2281	 0.339595690636387 
2282	 0.340429392395538 
2283	 0.341230327441699 
2284	 0.34204749834833 
2285	 0.3428037036641 
2286	 0.343537174723121 
2287	 0.344234379711453 
2288	 0.344866169433281 
2289	 0.345501004105208 
2290	 0.346126064161472 
2291	 0.346726935539431 
2292	 0.347335659380688 
2293	 0.347876045127386 
2294	 0.348341941960809 
2295	 0.348819171033344 
2296	 0.349256860938936 
2297	 0.349674685347832 
2298	 0.350117002368002 
2299	 0.350602529071833 
2300	 0.351053949590391 
2301	 0.35146429652924 
2302	 0.351869658343786 
2303	 0.352270926729165 
2304	 0.352679952594087 
2305	 0.35311704474911 
2306	 0.353501437312303 
2307	 0.353883561397807 
2308	 0.354211845805413 
2309	 0.354469542125038 
2310	 0.354766349088846 
2311	 0.355054768215209 
2312	 0.35535168375615 
2313	 0.355660623309712 
2314	 0.355948893656394 
2315	 0.356251406736808 
2316	 0.356502691857447 
2317	 0.35671606145079 
2318	 0.356936227735007 
2319	 0.357135690566457 
2320	 0.357296903890184 
2321	 0.357434071064568 
2322	 0.357578619939828 
2323	 0.357674102811401 
2324	 0.357809948813521 
2325	 0.35802934314565 
2326	 0.358150435051402 
2327	 0.358229391310631 
2328	 0.358275172735177 
2329	 0.358313578206368 
2330	 0.358332655724312 
2331	 0.358382928556179 
2332	 0.358443657775662 
2333	 0.358432688161479 
2334	 0.35839700810407 
2335	 0.358374922271205 
2336	 0.358333395527149 
2337	 0.358295216607297 
2338	 0.358209997517635 
2339	 0.358082115592479 
2340	 0.357958809086051 
2341	 0.357800739623958 
2342	 0.357658483696586 
2343	 0.357483559386836 
2344	 0.357268796500456 
2345	 0.3570572309538 
2346	 0.356825793502096 
2347	 0.35655958366297 
2348	 0.35628436393075 
2349	 0.355987357048651 
2350	 0.355650757346104 
2351	 0.355328668154705 
2352	 0.354987718034187 
2353	 0.354635675823512 
2354	 0.3542383903028 
2355	 0.353927417999899 
2356	 0.353679776415211 
2357	 0.353406732527491 
2358	 0.35319181645841 
2359	 0.352917289866825 
2360	 0.352616912251016 
2361	 0.352245003706991 
2362	 0.351851612624572 
2363	 0.351395555500769 
2364	 0.350781028446397 
2365	 0.350298618821747 
2366	 0.349847062767003 
2367	 0.349391152487483 
2368	 0.349001616154165 
2369	 0.348583767184061 
2370	 0.34816126054132 
2371	 0.347715080083353 
2372	 0.347245462632074 
2373	 0.34673723800883 
2374	 0.346131741171041 
2375	 0.345536716155315 
2376	 0.34500148432072 
2377	 0.344424799187394 
2378	 0.343861177719329 
2379	 0.343230643860255 
2380	 0.342444086909914 
2381	 0.34171115866646 
2382	 0.340984652403138 
2383	 0.340281050876973 
2384	 0.339686364179806 
2385	 0.339038940275218 
2386	 0.338372382041204 
2387	 0.337661820150342 
2388	 0.336990164754034 
2389	 0.33633499726953 
2390	 0.335593492642467 
2391	 0.334976277188776 
2392	 0.334328817796785 
2393	 0.333592161612921 
2394	 0.332938904568095 
2395	 0.332310025865107 
2396	 0.331639490470862 
2397	 0.330953755178735 
2398	 0.330252182149755 
2399	 0.329401714191515 
2400	 0.328550036613665 
2401	 0.327834842345606 
2402	 0.327176470710001 
2403	 0.326595616587427 
2404	 0.32599336494474 
2405	 0.325385317997493 
2406	 0.324764254930747 
2407	 0.32414582315353 
2408	 0.323619783013941 
2409	 0.323046663893337 
2410	 0.322484088497454 
2411	 0.321948693226755 
2412	 0.321390216117736 
2413	 0.320846399265369 
2414	 0.320285153234095 
2415	 0.319750529602595 
2416	 0.319171276834314 
2417	 0.318522132040398 
2418	 0.317957648354304 
2419	 0.317405857557646 
2420	 0.316871872326177 
2421	 0.316392343416882 
2422	 0.315936814383559 
2423	 0.315525597491918 
2424	 0.315058733565201 
2425	 0.314623787870783 
2426	 0.314148972268758 
2427	 0.313564645231316 
2428	 0.31305058229805 
2429	 0.312574188185059 
2430	 0.312110352805383 
2431	 0.311660799874727 
2432	 0.311254245389122 
2433	 0.310896655749873 
2434	 0.310477173261893 
2435	 0.310092168006368 
2436	 0.309682443822623 
2437	 0.309252806975704 
2438	 0.308749482839887 
2439	 0.308164546204779 
2440	 0.307619829153063 
2441	 0.306999282585917 
2442	 0.30645975484681 
2443	 0.306036498713487 
2444	 0.305571564431071 
2445	 0.305124910047756 
2446	 0.304642012366882 
2447	 0.304135937272343 
2448	 0.303542518849925 
2449	 0.302849498388711 
2450	 0.302209925575937 
2451	 0.301529165986147 
2452	 0.300997870228597 
2453	 0.300587898272577 
2454	 0.300122933888407 
2455	 0.2997025931504 
2456	 0.299256793658014 
2457	 0.298736316436828 
2458	 0.298268897831395 
2459	 0.297892375427236 
2460	 0.297485512629202 
2461	 0.297029571820636 
2462	 0.296665633290763 
2463	 0.296283769917986 
2464	 0.296020405014145 
2465	 0.295982394337671 
2466	 0.295748104305492 
2467	 0.29550445786553 
2468	 0.295249727648697 
2469	 0.294822741167148 
2470	 0.294581580332356 
2471	 0.294214416876574 
2472	 0.293832178614173 
2473	 0.293580426256917 
2474	 0.293289419745065 
2475	 0.293089970092512 
2476	 0.292894321119587 
2477	 0.292502625740877 
2478	 0.292170336686832 
2479	 0.291882439243439 
2480	 0.29139142958064 
2481	 0.291078908123438 
2482	 0.290843641545125 
2483	 0.290361573770353 
2484	 0.290070356668975 
2485	 0.289732834574004 
2486	 0.288932640293176 
2487	 0.288320882428605 
2488	 0.287859521247477 
2489	 0.287181763052413 
2490	 0.286833402666577 
2491	 0.286607588906476 
2492	 0.286249396065785 
2493	 0.285929564818575 
2494	 0.285373311125309 
2495	 0.284778421425437 
2496	 0.284212796602846 
2497	 0.283529528293275 
2498	 0.283102815631469 
2499	 0.282915130147139 
2500	 0.282451886857539 
