Wavelength	LMW7 profile 200006.asd
350	 5.45264540367934E-02 
351	 6.49681901685531E-02 
352	 6.80339951601866E-02 
353	 6.12609500423946E-02 
354	 7.09778261911019E-02 
355	 6.44259862022159E-02 
356	 5.48807477561924E-02 
357	 0.059487970870629 
358	 6.21805845041467E-02 
359	 0.062679782456654 
360	 6.15477136771597E-02 
361	 5.98889353771857E-02 
362	 6.05237168617325E-02 
363	 6.17368745524852E-02 
364	 6.22206384637896E-02 
365	 6.22646284548971E-02 
366	 6.06612028733154E-02 
367	 5.83912445644153E-02 
368	 5.72499228887935E-02 
369	 5.96301611684701E-02 
370	 6.13131071288339E-02 
371	 6.16868211275839E-02 
372	 6.27617785497945E-02 
373	 6.51782815213766E-02 
374	 6.70567499805123E-02 
375	 6.72356967890678E-02 
376	 6.63449364883554E-02 
377	 6.44087598801382E-02 
378	 6.41987548281237E-02 
379	 6.74546460774554E-02 
380	 6.87343657554287E-02 
381	 6.88587299886755E-02 
382	 6.85524395994521E-02 
383	 0.068402918337661 
384	 0.070018800743435 
385	 7.17356730810162E-02 
386	 7.27967078575215E-02 
387	 7.51454173222346E-02 
388	 7.73502137564497E-02 
389	 7.87963944040941E-02 
390	 7.94590366348753E-02 
391	 0.08054907163863 
392	 8.16201265412914E-02 
393	 8.33838029562505E-02 
394	 8.72610632704058E-02 
395	 8.89758612974626E-02 
396	 9.01189918468394E-02 
397	 9.24665126961131E-02 
398	 9.64390195633698E-02 
399	 9.82836304542593E-02 
400	 9.93540653115375E-02 
401	 0.102238025939822 
402	 0.104575492579542 
403	 0.107374818496758 
404	 0.110418384260256 
405	 0.112151818838942 
406	 0.114440169019304 
407	 0.116537149151243 
408	 0.117860898816547 
409	 0.119539287888761 
410	 0.121340972864862 
411	 0.12363614745651 
412	 0.126658586996888 
413	 0.127801502559331 
414	 0.1284285732017 
415	 0.129399878868285 
416	 0.130460180133197 
417	 0.130953787344654 
418	 0.131293918441534 
419	 0.131981626350687 
420	 0.133054740679469 
421	 0.132666177507535 
422	 0.13166601039435 
423	 0.132309858178624 
424	 0.131957148811156 
425	 0.130846103129796 
426	 0.129652794358444 
427	 0.129194678608331 
428	 0.128053168832956 
429	 0.126633589875791 
430	 0.125703279192135 
431	 0.124675369306134 
432	 0.123498016888629 
433	 0.122491771252124 
434	 0.122259889849677 
435	 0.12226067290904 
436	 0.122338901458788 
437	 0.122545151460777 
438	 0.123220824061565 
439	 0.124381312110817 
440	 0.125895569137205 
441	 0.127542349203779 
442	 0.129100761197277 
443	 0.130749910576875 
444	 0.132695238732529 
445	 0.135126745611454 
446	 0.137438325402482 
447	 0.139468548982472 
448	 0.141323899970342 
449	 0.143561143148415 
450	 0.145847330360413 
451	 0.148121396396597 
452	 0.150546754607222 
453	 0.152676928690855 
454	 0.154618592796955 
455	 0.156593844120297 
456	 0.158907822024788 
457	 0.160788529603234 
458	 0.162519728330491 
459	 0.164688374840704 
460	 0.166220739857783 
461	 0.167704998997331 
462	 0.169408356228021 
463	 0.170942049238779 
464	 0.172418573341959 
465	 0.173875148076388 
466	 0.175294567768353 
467	 0.176485754238522 
468	 0.177715505863531 
469	 0.178957094060195 
470	 0.179956593026306 
471	 0.180875899804499 
472	 0.181879273560028 
473	 0.183032601521436 
474	 0.184211122209945 
475	 0.185111610772449 
476	 0.185976441324243 
477	 0.187184766867368 
478	 0.18813907683906 
479	 0.188990882513621 
480	 0.189909926134148 
481	 0.190998495975206 
482	 0.191984021689008 
483	 0.192998441635339 
484	 0.194136837167367 
485	 0.194871951803688 
486	 0.195561019973779 
487	 0.196374835117131 
488	 0.197296791102142 
489	 0.198190794132514 
490	 0.199018932416086 
491	 0.199816378228919 
492	 0.2007495359083 
493	 0.201603813407728 
494	 0.202434864260453 
495	 0.203393051717116 
496	 0.204313241468824 
497	 0.20517347988573 
498	 0.205994233614137 
499	 0.206838409020601 
500	 0.207614999373224 
501	 0.208358399233126 
502	 0.209116042131184 
503	 0.209800342733502 
504	 0.210609073041902 
505	 0.211509776052465 
506	 0.212267223789808 
507	 0.213077175769514 
508	 0.213836169072659 
509	 0.214501425720319 
510	 0.21535248802637 
511	 0.216172051084425 
512	 0.216935628461662 
513	 0.217711492773856 
514	 0.218378652036066 
515	 0.21911449277914 
516	 0.219990395777756 
517	 0.22086376711724 
518	 0.221566420460339 
519	 0.222177863566213 
520	 0.22286083425727 
521	 0.223688516611243 
522	 0.224533523141216 
523	 0.225288739048672 
524	 0.225888044450741 
525	 0.226601085167781 
526	 0.22735174036682 
527	 0.228042780576488 
528	 0.22878971658043 
529	 0.229475948621732 
530	 0.230122606792371 
531	 0.230835186125531 
532	 0.231548693159908 
533	 0.232299710353123 
534	 0.233097027029058 
535	 0.233874044840616 
536	 0.234566828417054 
537	 0.235208927167443 
538	 0.235873664498692 
539	 0.236580676140278 
540	 0.237302725312289 
541	 0.238005662902026 
542	 0.238649685388002 
543	 0.239339333894118 
544	 0.240085797217117 
545	 0.240855669059074 
546	 0.241558222818743 
547	 0.242300751354783 
548	 0.243079966097858 
549	 0.243799547459082 
550	 0.244497747266312 
551	 0.245203489570262 
552	 0.245944614872701 
553	 0.246759562511196 
554	 0.247540000541079 
555	 0.248287928683994 
556	 0.249062782811044 
557	 0.249862826761644 
558	 0.250658078812168 
559	 0.251463595874013 
560	 0.252395629030028 
561	 0.253168230048893 
562	 0.253902081109905 
563	 0.254812932415296 
564	 0.255798469113793 
565	 0.25668319058751 
566	 0.257461031860714 
567	 0.258318653720118 
568	 0.259262326821635 
569	 0.260257220904461 
570	 0.26126369891455 
571	 0.262302100425578 
572	 0.263241913908362 
573	 0.264079064400364 
574	 0.264914123819928 
575	 0.26594732370193 
576	 0.267050657201317 
577	 0.268100317668726 
578	 0.269107346505658 
579	 0.270062055584529 
580	 0.270968312753399 
581	 0.271847610218962 
582	 0.272772940631395 
583	 0.273721954689344 
584	 0.274692290455383 
585	 0.275723827151866 
586	 0.276927711514205 
587	 0.278159636201149 
588	 0.27926296541632 
589	 0.280393576322938 
590	 0.281546563788963 
591	 0.282720384385693 
592	 0.283917558422722 
593	 0.285024098384655 
594	 0.286021473050533 
595	 0.28693506244574 
596	 0.287856065800762 
597	 0.288657294039834 
598	 0.28937903518919 
599	 0.290146964695868 
600	 0.290898916392887 
601	 0.291804742619169 
602	 0.29286074603575 
603	 0.29371896629305 
604	 0.294502874609532 
605	 0.295341836817959 
606	 0.296328940948769 
607	 0.297309373335135 
608	 0.298177104879075 
609	 0.298985030024425 
610	 0.299956342575837 
611	 0.300733313258975 
612	 0.301409622272695 
613	 0.302127740536809 
614	 0.302813096655268 
615	 0.303428453225126 
616	 0.303982888420528 
617	 0.304519259838684 
618	 0.305081929161701 
619	 0.305607382996864 
620	 0.306084281597154 
621	 0.306661572002971 
622	 0.307138760847293 
623	 0.307541257558699 
624	 0.307982806453243 
625	 0.30848900574206 
626	 0.30897214776147 
627	 0.309386993934896 
628	 0.309756707442565 
629	 0.310149859964172 
630	 0.310539303515668 
631	 0.31089254752322 
632	 0.311276732209405 
633	 0.311613870440529 
634	 0.311946572409068 
635	 0.312398362132794 
636	 0.312679483849909 
637	 0.312986991066236 
638	 0.313445079615768 
639	 0.313795241462553 
640	 0.314095994779946 
641	 0.314398385592145 
642	 0.314742241293473 
643	 0.315041308948197 
644	 0.315391608616102 
645	 0.315804543361846 
646	 0.31614621172498 
647	 0.316452308877397 
648	 0.316784202071548 
649	 0.317184013662699 
650	 0.317572589167777 
651	 0.317953010431612 
652	 0.318317244979149 
653	 0.318652904385818 
654	 0.319078914795313 
655	 0.319455927086139 
656	 0.319723078985147 
657	 0.320130857172855 
658	 0.320574803991466 
659	 0.321005178723649 
660	 0.321396010947249 
661	 0.321730304235415 
662	 0.322160215957754 
663	 0.322691369696732 
664	 0.32309732434496 
665	 0.323504915222852 
666	 0.323964020562378 
667	 0.324453747190013 
668	 0.324728689478754 
669	 0.325132299397858 
670	 0.325692762969938 
671	 0.3261675921357 
672	 0.326621235835904 
673	 0.327116764209065 
674	 0.327652850228202 
675	 0.328063771002992 
676	 0.328503810989326 
677	 0.328966511953963 
678	 0.329395070748922 
679	 0.329901096551687 
680	 0.330403041705884 
681	 0.330882488842949 
682	 0.331425583718482 
683	 0.331940337436777 
684	 0.332422666074604 
685	 0.332895185412328 
686	 0.33338079047587 
687	 0.333894683886506 
688	 0.33443632074635 
689	 0.334985426921336 
690	 0.335427220720522 
691	 0.335899076826312 
692	 0.336469824473866 
693	 0.337010270669248 
694	 0.337433935898984 
695	 0.337873182548296 
696	 0.338472552130041 
697	 0.338928004050733 
698	 0.339416761928896 
699	 0.339985994137127 
700	 0.340516861823962 
701	 0.340969419000661 
702	 0.341389415388946 
703	 0.341832233024995 
704	 0.342327317073612 
705	 0.342752867094852 
706	 0.343132045819593 
707	 0.343558748585271 
708	 0.344005615914102 
709	 0.344466624756631 
710	 0.344902851742686 
711	 0.345225488923795 
712	 0.345580024134666 
713	 0.345968897281281 
714	 0.346347235630809 
715	 0.346654968476352 
716	 0.346992567518095 
717	 0.347358610123628 
718	 0.34767704319559 
719	 0.347972714235274 
720	 0.34820510261955 
721	 0.348373179662424 
722	 0.348555973343983 
723	 0.348845593497144 
724	 0.349134205328832 
725	 0.349285909943288 
726	 0.349415992002742 
727	 0.349573699602278 
728	 0.34971684129116 
729	 0.349734233517964 
730	 0.34982293935889 
731	 0.349901349720518 
732	 0.349903834262414 
733	 0.34993444207653 
734	 0.34989480399872 
735	 0.349794734637616 
736	 0.349690134523149 
737	 0.3496180436568 
738	 0.349509679779443 
739	 0.349356909720609 
740	 0.349223976660072 
741	 0.349037224359117 
742	 0.34883913690968 
743	 0.34864543823298 
744	 0.34831934693701 
745	 0.348051865985183 
746	 0.347810134711261 
747	 0.347472549380932 
748	 0.347118933679507 
749	 0.346802758937932 
750	 0.346486486718689 
751	 0.346031290134719 
752	 0.3455667890772 
753	 0.34512415302159 
754	 0.344700351480658 
755	 0.344263958164815 
756	 0.343837134529017 
757	 0.343397711934472 
758	 0.342902687272451 
759	 0.342339285215879 
760	 0.341688273142592 
761	 0.341029890937704 
762	 0.340557710942489 
763	 0.340035844792331 
764	 0.339412445532105 
765	 0.338731785632771 
766	 0.338180037718526 
767	 0.337571373595091 
768	 0.33686830425742 
769	 0.336131816787056 
770	 0.335508116508393 
771	 0.334962771415177 
772	 0.334394206699261 
773	 0.33365419626579 
774	 0.332990277124876 
775	 0.332348897236107 
776	 0.331655394467095 
777	 0.330970546800062 
778	 0.330305839703258 
779	 0.32964867104253 
780	 0.328970382152496 
781	 0.328226891170977 
782	 0.3275517453754 
783	 0.326928952939162 
784	 0.326184473070169 
785	 0.325507609169432 
786	 0.324877824735811 
787	 0.3242319610762 
788	 0.323497876256188 
789	 0.322782944097415 
790	 0.32211693524566 
791	 0.321481934725923 
792	 0.320789345452026 
793	 0.320142832949792 
794	 0.319509827081197 
795	 0.31875219454663 
796	 0.318039182271317 
797	 0.317385183037031 
798	 0.316762527754569 
799	 0.316115857421457 
800	 0.315473117038621 
801	 0.314864247022506 
802	 0.31427576440955 
803	 0.313506998845482 
804	 0.312900772039758 
805	 0.312414881595977 
806	 0.311786382627304 
807	 0.31118650838407 
808	 0.310541916688556 
809	 0.309856021876089 
810	 0.309255312912941 
811	 0.308702552227161 
812	 0.308188730821921 
813	 0.307680488084982 
814	 0.307071531978945 
815	 0.306431778615877 
816	 0.305825715896297 
817	 0.30529486327759 
818	 0.304768056815046 
819	 0.3042629237463 
820	 0.303775188523345 
821	 0.303276545553025 
822	 0.30272869418389 
823	 0.302188551203293 
824	 0.301686260740252 
825	 0.301183234558685 
826	 0.300746268535985 
827	 0.30034505405563 
828	 0.29992178514486 
829	 0.299427806976132 
830	 0.298872759560038 
831	 0.298317917250986 
832	 0.297841523088427 
833	 0.297461819514598 
834	 0.297069641905104 
835	 0.296630074647759 
836	 0.296195352840508 
837	 0.295858321080957 
838	 0.295563363145356 
839	 0.295227266139815 
840	 0.294769568263833 
841	 0.294306557549558 
842	 0.293855277088332 
843	 0.293438855352832 
844	 0.29320666775314 
845	 0.292904820904735 
846	 0.292561126590513 
847	 0.292298863266149 
848	 0.291942888095528 
849	 0.291562264182821 
850	 0.291210165050754 
851	 0.290899901757487 
852	 0.290510616755889 
853	 0.290186741113973 
854	 0.289968131480281 
855	 0.28969382076014 
856	 0.289558430989948 
857	 0.289356369479773 
858	 0.28897210656321 
859	 0.28875420760896 
860	 0.288516310614056 
861	 0.288272336351187 
862	 0.288080779105312 
863	 0.287892721640488 
864	 0.287666006219322 
865	 0.287452383135306 
866	 0.287329363459267 
867	 0.287122695708674 
868	 0.2869392326481 
869	 0.286792462987749 
870	 0.286578745749912 
871	 0.286263616745676 
872	 0.286039170853926 
873	 0.286009074892456 
874	 0.286075641043545 
875	 0.28595486244521 
876	 0.285764849672943 
877	 0.285642801073411 
878	 0.285460631583134 
879	 0.285438054644113 
880	 0.285418296029279 
881	 0.285227456538078 
882	 0.285207290602749 
883	 0.285160150978167 
884	 0.285028787127017 
885	 0.284874044698707 
886	 0.28488516922769 
887	 0.284954849951272 
888	 0.284960445064775 
889	 0.284824742344347 
890	 0.2847883511985 
891	 0.284778943687173 
892	 0.284772695048301 
893	 0.284849130784778 
894	 0.284849301069403 
895	 0.284835712658715 
896	 0.28487470756908 
897	 0.284957024975566 
898	 0.285007341528723 
899	 0.285022188383979 
900	 0.285040159182306 
901	 0.285154593547245 
902	 0.285208508328692 
903	 0.285304918118597 
904	 0.285529101647981 
905	 0.28555169226814 
906	 0.285614867687562 
907	 0.285707635508837 
908	 0.285740547153122 
909	 0.285903350672698 
910	 0.286137194947135 
911	 0.286343588987559 
912	 0.286443464018259 
913	 0.286604456395095 
914	 0.286729514753695 
915	 0.286836795293842 
916	 0.287039927644813 
917	 0.287136367188056 
918	 0.287410096300675 
919	 0.287843107550167 
920	 0.288034185374583 
921	 0.288171159628063 
922	 0.288315896569524 
923	 0.288504896066357 
924	 0.288757481917077 
925	 0.289037227197343 
926	 0.289389756444939 
927	 0.289765328651216 
928	 0.289920412986605 
929	 0.290199113190388 
930	 0.29054729159284 
931	 0.290864770721053 
932	 0.291207870662399 
933	 0.29137314115364 
934	 0.291560688323583 
935	 0.291953806970479 
936	 0.292335988873822 
937	 0.292693837405299 
938	 0.293024279272521 
939	 0.293353229695452 
940	 0.293761631029797 
941	 0.294151103330997 
942	 0.294558770597695 
943	 0.295028279820546 
944	 0.295399998663573 
945	 0.295816036566558 
946	 0.296285535172736 
947	 0.29674988283662 
948	 0.297177337095308 
949	 0.297582219811565 
950	 0.297965071104029 
951	 0.298344362313661 
952	 0.298841244668664 
953	 0.299456013810971 
954	 0.300022376239623 
955	 0.300391296577662 
956	 0.300987216507268 
957	 0.301485961178872 
958	 0.301930313756402 
959	 0.302538262193229 
960	 0.303015313533256 
961	 0.303461265127921 
962	 0.30396008385038 
963	 0.304536425924979 
964	 0.305065066137058 
965	 0.305526126702476 
966	 0.306044441774498 
967	 0.306764501943923 
968	 0.307400767664233 
969	 0.307998923330807 
970	 0.308549449340912 
971	 0.309027997237179 
972	 0.309619734919969 
973	 0.310345978313229 
974	 0.311071329835827 
975	 0.311632358470271 
976	 0.312269899006211 
977	 0.312941054814474 
978	 0.313634688796643 
979	 0.3143443243932 
980	 0.314921912183112 
981	 0.315444871577225 
982	 0.316014607967752 
983	 0.316711662555594 
984	 0.317503895623131 
985	 0.318330031754785 
986	 0.319031584037951 
987	 0.319488454678146 
988	 0.319960889064542 
989	 0.320592932695674 
990	 0.32136802054843 
991	 0.322166437745417 
992	 0.322880057037448 
993	 0.323523308728154 
994	 0.324249167454929 
995	 0.3251202966405 
996	 0.325615688292593 
997	 0.326273967503101 
998	 0.327020610365632 
999	 0.327671454721134 
1000	 0.328634274452788 
1001	 0.331934065176388 
1002	 0.332588985740993 
1003	 0.333303965669303 
1004	 0.333973611095486 
1005	 0.334706435102867 
1006	 0.335397903829413 
1007	 0.336031873416837 
1008	 0.336617556792672 
1009	 0.337332880711894 
1010	 0.338023840296437 
1011	 0.338681469540793 
1012	 0.339396977993644 
1013	 0.340061212439986 
1014	 0.340690673920232 
1015	 0.341302430519906 
1016	 0.341915866657988 
1017	 0.34254191578773 
1018	 0.343176966231996 
1019	 0.343807429017748 
1020	 0.344456972545068 
1021	 0.345078799919711 
1022	 0.345705735882485 
1023	 0.346335734009269 
1024	 0.346934905251822 
1025	 0.347547452035595 
1026	 0.348109478635038 
1027	 0.348694026102767 
1028	 0.349328253755126 
1029	 0.349925029714581 
1030	 0.350544369856537 
1031	 0.35114407174849 
1032	 0.351731730378323 
1033	 0.352290797639567 
1034	 0.3528592716808 
1035	 0.353391361447993 
1036	 0.353947464138326 
1037	 0.354465909255702 
1038	 0.354951388596414 
1039	 0.355516602041594 
1040	 0.356070141476436 
1041	 0.356578001659464 
1042	 0.357135543818475 
1043	 0.357706288742116 
1044	 0.358254220689497 
1045	 0.358781512774003 
1046	 0.359352686557212 
1047	 0.359942068238545 
1048	 0.360474114944414 
1049	 0.360957645618694 
1050	 0.361464856717912 
1051	 0.361948116696847 
1052	 0.362434973022642 
1053	 0.363043722783271 
1054	 0.363635624254276 
1055	 0.364153300711831 
1056	 0.36470710312488 
1057	 0.365250724394359 
1058	 0.365727127957571 
1059	 0.366276698971222 
1060	 0.366881398484878 
1061	 0.367467518108562 
1062	 0.368061839727769 
1063	 0.368660881420523 
1064	 0.36924203027123 
1065	 0.36983219130372 
1066	 0.370415975874923 
1067	 0.370988149870334 
1068	 0.37155979317326 
1069	 0.372111380140169 
1070	 0.372647727333201 
1071	 0.373141514246916 
1072	 0.373683935587234 
1073	 0.374240542071362 
1074	 0.374774592323811 
1075	 0.37530667943668 
1076	 0.375851647660986 
1077	 0.376401814034215 
1078	 0.376926982634035 
1079	 0.377468435028062 
1080	 0.378003876901785 
1081	 0.378483703425528 
1082	 0.378992610970753 
1083	 0.379488876042514 
1084	 0.379984727776378 
1085	 0.380472143381563 
1086	 0.380929628603254 
1087	 0.381412034423429 
1088	 0.381921895787188 
1089	 0.382390151239944 
1090	 0.382838909734468 
1091	 0.383310559535612 
1092	 0.383730630613408 
1093	 0.384169216719923 
1094	 0.384638907205505 
1095	 0.385114568806016 
1096	 0.385559553864706 
1097	 0.385947263141988 
1098	 0.386385278648409 
1099	 0.386836160898048 
1100	 0.387266899079063 
1101	 0.387731137728101 
1102	 0.388159763752586 
1103	 0.388566506978258 
1104	 0.388927442572102 
1105	 0.389299708513941 
1106	 0.38972794353855 
1107	 0.390140303552493 
1108	 0.390539016659345 
1109	 0.390972034396784 
1110	 0.391399678356088 
1111	 0.391823372932883 
1112	 0.392253873353813 
1113	 0.39267986134757 
1114	 0.393102100326004 
1115	 0.393515814766903 
1116	 0.393945898971909 
1117	 0.394355044507145 
1118	 0.394739630486223 
1119	 0.395115486388227 
1120	 0.395558506914614 
1121	 0.395941940670488 
1122	 0.396318915027044 
1123	 0.396743769071829 
1124	 0.397148950289325 
1125	 0.397526124422669 
1126	 0.397935453420893 
1127	 0.398365239294705 
1128	 0.398789326441786 
1129	 0.399220128433339 
1130	 0.399636976876513 
1131	 0.400068465852807 
1132	 0.400482979627417 
1133	 0.40087095547067 
1134	 0.401266706729132 
1135	 0.401680416582715 
1136	 0.402054738706555 
1137	 0.402391764791096 
1138	 0.402761300524968 
1139	 0.403139195549536 
1140	 0.40350948110494 
1141	 0.40388608723559 
1142	 0.404296055072322 
1143	 0.404677571378948 
1144	 0.40503244066162 
1145	 0.405400616017065 
1146	 0.40577379932383 
1147	 0.406145948311702 
1148	 0.406511634083574 
1149	 0.406887522745622 
1150	 0.407275622493536 
1151	 0.407654315188464 
1152	 0.408029768073624 
1153	 0.408414391774633 
1154	 0.408791941771375 
1155	 0.409173211010185 
1156	 0.409533996505096 
1157	 0.409887062380612 
1158	 0.410234736458006 
1159	 0.410562854855793 
1160	 0.410896571966286 
1161	 0.411218000000934 
1162	 0.411565734669771 
1163	 0.411925901404463 
1164	 0.412284192676664 
1165	 0.412648913107884 
1166	 0.413031449794092 
1167	 0.41341593263794 
1168	 0.413809935397177 
1169	 0.414188748463486 
1170	 0.414592029721934 
1171	 0.414943457758328 
1172	 0.415247836846228 
1173	 0.415583502686739 
1174	 0.415920823915569 
1175	 0.416245993699657 
1176	 0.416570117057611 
1177	 0.416901485180536 
1178	 0.417204255056944 
1179	 0.417540062268181 
1180	 0.417917834453373 
1181	 0.418273920269842 
1182	 0.418627291132465 
1183	 0.418991796211168 
1184	 0.419343175108603 
1185	 0.419676681019948 
1186	 0.420032505544791 
1187	 0.420401118024264 
1188	 0.420756872175035 
1189	 0.421117362811773 
1190	 0.421471988412889 
1191	 0.42182807146979 
1192	 0.422163657859203 
1193	 0.42249008048281 
1194	 0.422813628692553 
1195	 0.423115217567028 
1196	 0.423423661867151 
1197	 0.423751866658737 
1198	 0.424052838233461 
1199	 0.424340676821461 
1200	 0.42460658167909 
1201	 0.424901765344901 
1202	 0.425189147937309 
1203	 0.425490253760592 
1204	 0.425815993019701 
1205	 0.426130245252006 
1206	 0.426448506589074 
1207	 0.426749488401963 
1208	 0.427051158320476 
1209	 0.427342347798028 
1210	 0.427606362984211 
1211	 0.427884586873362 
1212	 0.42817121775636 
1213	 0.42845101742452 
1214	 0.428739399940639 
1215	 0.429011313386957 
1216	 0.429273866698709 
1217	 0.429522049556298 
1218	 0.429782526280345 
1219	 0.430037916131256 
1220	 0.430293836034756 
1221	 0.430545399925307 
1222	 0.430820138210437 
1223	 0.431113495628014 
1224	 0.431383065247451 
1225	 0.431675938576442 
1226	 0.431934562142368 
1227	 0.432146510076629 
1228	 0.432378164379189 
1229	 0.43261298453701 
1230	 0.432841258771606 
1231	 0.433073313752088 
1232	 0.433296482635805 
1233	 0.433512984544406 
1234	 0.433716062477074 
1235	 0.433932853911427 
1236	 0.434146132248814 
1237	 0.434368624227044 
1238	 0.434604362348091 
1239	 0.43483047947031 
1240	 0.435055740898249 
1241	 0.435282940255853 
1242	 0.43551825716027 
1243	 0.435734994084797 
1244	 0.435933789331639 
1245	 0.436150802208664 
1246	 0.436367222636104 
1247	 0.436580575213408 
1248	 0.436813276372308 
1249	 0.43703349673408 
1250	 0.437230767625459 
1251	 0.43742990819639 
1252	 0.437630835020867 
1253	 0.437833672533913 
1254	 0.438026311738741 
1255	 0.438209609139065 
1256	 0.438407404681818 
1257	 0.438606106706337 
1258	 0.438803379121858 
1259	 0.439015926081684 
1260	 0.439213083713011 
1261	 0.439405067550293 
1262	 0.439583757379992 
1263	 0.439748302337323 
1264	 0.439918463854235 
1265	 0.440092407647317 
1266	 0.440245538017921 
1267	 0.44039119138011 
1268	 0.44052670286996 
1269	 0.440667277454643 
1270	 0.440789077199884 
1271	 0.440918181430651 
1272	 0.441059467991574 
1273	 0.441194951517448 
1274	 0.441304956222111 
1275	 0.441454291215432 
1276	 0.441622899324262 
1277	 0.441796530042512 
1278	 0.442000072630511 
1279	 0.442182407762788 
1280	 0.442354385222287 
1281	 0.442542555672127 
1282	 0.442719742945996 
1283	 0.442920844632444 
1284	 0.443147598424008 
1285	 0.443375634124628 
1286	 0.443609481586215 
1287	 0.443850263431656 
1288	 0.444068648756685 
1289	 0.444266247948709 
1290	 0.444498017383015 
1291	 0.444727506984375 
1292	 0.444968366387363 
1293	 0.445249272107313 
1294	 0.445493450359933 
1295	 0.445717013924065 
1296	 0.445952327084815 
1297	 0.446180342422321 
1298	 0.446411708890867 
1299	 0.44665859529304 
1300	 0.44688428242004 
1301	 0.447102235700268 
1302	 0.447310039802549 
1303	 0.447516677102723 
1304	 0.447689234692642 
1305	 0.44784890001695 
1306	 0.44801772205209 
1307	 0.448149464572246 
1308	 0.448262314787452 
1309	 0.448382549993534 
1310	 0.44848945750822 
1311	 0.448608488764863 
1312	 0.448730087811093 
1313	 0.448853256939257 
1314	 0.448992326655677 
1315	 0.449096725111828 
1316	 0.449185266955375 
1317	 0.449280726903837 
1318	 0.449358637026407 
1319	 0.449436749041105 
1320	 0.449524576473537 
1321	 0.449600853781924 
1322	 0.449666883752978 
1323	 0.449724065008892 
1324	 0.449787147301163 
1325	 0.449838558451158 
1326	 0.449867704265265 
1327	 0.449907556525414 
1328	 0.44992523068541 
1329	 0.449940723743352 
1330	 0.449961637208733 
1331	 0.449975277248671 
1332	 0.450001598506543 
1333	 0.450045526330879 
1334	 0.450065328616774 
1335	 0.450074579675378 
1336	 0.450096922445277 
1337	 0.450113164313758 
1338	 0.450134878836752 
1339	 0.45017568808548 
1340	 0.450197964684795 
1341	 0.450210262081343 
1342	 0.45021756642078 
1343	 0.450225317063551 
1344	 0.450220678038376 
1345	 0.450191383243961 
1346	 0.450160281297713 
1347	 0.450120149666748 
1348	 0.450091651687312 
1349	 0.450052184679432 
1350	 0.449989761203012 
1351	 0.449910401468695 
1352	 0.449780231957205 
1353	 0.449709293721675 
1354	 0.449654966220506 
1355	 0.449590447400224 
1356	 0.449550760744865 
1357	 0.449495388712291 
1358	 0.449420405331676 
1359	 0.449360842063434 
1360	 0.449291958212292 
1361	 0.449261038100083 
1362	 0.44924600990454 
1363	 0.449238666071416 
1364	 0.449273647001412 
1365	 0.449293784598556 
1366	 0.449307191629928 
1367	 0.44932331525252 
1368	 0.449362701037671 
1369	 0.449378669555753 
1370	 0.449368333966673 
1371	 0.449354649588893 
1372	 0.449319023087654 
1373	 0.449265904677611 
1374	 0.44919149163637 
1375	 0.449115136187294 
1376	 0.448994255349289 
1377	 0.448841949872355 
1378	 0.448664038151798 
1379	 0.448429943737216 
1380	 0.448238603176647 
1381	 0.448019627201393 
1382	 0.447841079219861 
1383	 0.447718566178063 
1384	 0.447563675465292 
1385	 0.447440047576187 
1386	 0.447256801387013 
1387	 0.447057164659558 
1388	 0.446809886825638 
1389	 0.446521586517535 
1390	 0.446190981065752 
1391	 0.445826928382823 
1392	 0.445423554007456 
1393	 0.44497179066823 
1394	 0.444508966651426 
1395	 0.444031975633958 
1396	 0.443550629106136 
1397	 0.443087042346021 
1398	 0.442632013992453 
1399	 0.44217847013765 
1400	 0.441739688004131 
1401	 0.441288162393418 
1402	 0.440825582435419 
1403	 0.440381403821695 
1404	 0.439922704443929 
1405	 0.439503678075558 
1406	 0.439111730539528 
1407	 0.438734567868011 
1408	 0.438357043225789 
1409	 0.438035903871917 
1410	 0.437706218460898 
1411	 0.437478617640256 
1412	 0.437299566662624 
1413	 0.437212722408539 
1414	 0.43725798823967 
1415	 0.437376341532818 
1416	 0.437590697008794 
1417	 0.437873984530767 
1418	 0.438146625688024 
1419	 0.43841773912458 
1420	 0.438677235975392 
1421	 0.438900933850195 
1422	 0.439082047445332 
1423	 0.439233945364578 
1424	 0.439329178521105 
1425	 0.439369964491907 
1426	 0.439378891256664 
1427	 0.439326191360066 
1428	 0.439285288076673 
1429	 0.439229104175851 
1430	 0.439144813451524 
1431	 0.439045332414599 
1432	 0.438924963850051 
1433	 0.438750251229586 
1434	 0.438607251150609 
1435	 0.438463737380866 
1436	 0.43833225417028 
1437	 0.438222708160836 
1438	 0.438095361071094 
1439	 0.437973119334969 
1440	 0.437836759644765 
1441	 0.437670949638488 
1442	 0.437496177267861 
1443	 0.437304783778791 
1444	 0.437096059408537 
1445	 0.436885449165306 
1446	 0.436676193015638 
1447	 0.436468446519798 
1448	 0.436234589846702 
1449	 0.435978457504568 
1450	 0.435698246869803 
1451	 0.435388834628944 
1452	 0.435045949515783 
1453	 0.434690160789349 
1454	 0.434302664523446 
1455	 0.433918610950544 
1456	 0.433529507429605 
1457	 0.433107068726463 
1458	 0.432662809863659 
1459	 0.432217981171993 
1460	 0.431725315503867 
1461	 0.43127739278067 
1462	 0.430835773794744 
1463	 0.430426087089199 
1464	 0.430036087789448 
1465	 0.429672425617521 
1466	 0.429332043003296 
1467	 0.429020633878257 
1468	 0.428728882147808 
1469	 0.428471702976763 
1470	 0.428239593319765 
1471	 0.42805282209362 
1472	 0.427876337152838 
1473	 0.427772706358058 
1474	 0.427751465201467 
1475	 0.42778280123243 
1476	 0.427907056859633 
1477	 0.428072830414736 
1478	 0.42829142957476 
1479	 0.428549336398861 
1480	 0.428819005169123 
1481	 0.429139706649259 
1482	 0.429436637850672 
1483	 0.429725020851205 
1484	 0.430043087519994 
1485	 0.430381694182614 
1486	 0.430702567610099 
1487	 0.431043560837311 
1488	 0.431353386876381 
1489	 0.431668952546934 
1490	 0.431918771634101 
1491	 0.43213277959147 
1492	 0.432334025048225 
1493	 0.43247592862988 
1494	 0.432624300931382 
1495	 0.432773695076141 
1496	 0.432900928482705 
1497	 0.432989451589914 
1498	 0.433100484819208 
1499	 0.433229506795352 
1500	 0.433325389179194 
1501	 0.433421707973112 
1502	 0.43349029473774 
1503	 0.433513124473719 
1504	 0.433546811884303 
1505	 0.433589347723997 
1506	 0.433635127381669 
1507	 0.43369894383829 
1508	 0.433744995253658 
1509	 0.433774289988005 
1510	 0.433806852816928 
1511	 0.433844588822346 
1512	 0.433874662965297 
1513	 0.433929379218451 
1514	 0.433998545165312 
1515	 0.434049617894219 
1516	 0.434113637212866 
1517	 0.434152557556211 
1518	 0.434166697647085 
1519	 0.434191873523897 
1520	 0.434202237541316 
1521	 0.434242738450529 
1522	 0.43430900489983 
1523	 0.434356377892524 
1524	 0.434412963663071 
1525	 0.434453668859431 
1526	 0.434466876431733 
1527	 0.434501440410814 
1528	 0.434553364013724 
1529	 0.434582592574183 
1530	 0.434589707663072 
1531	 0.434636137545974 
1532	 0.434684765726415 
1533	 0.434748465432873 
1534	 0.434871685361578 
1535	 0.434944764379138 
1536	 0.434994691774165 
1537	 0.435038682753019 
1538	 0.435057138019783 
1539	 0.435079866925089 
1540	 0.435091777019956 
1541	 0.435116628498539 
1542	 0.435149346917901 
1543	 0.435181493519543 
1544	 0.435224722158192 
1545	 0.435257310336001 
1546	 0.43528286293506 
1547	 0.435297127333943 
1548	 0.435333937452798 
1549	 0.435390635155919 
1550	 0.435461583482561 
1551	 0.435538456572558 
1552	 0.435596670260228 
1553	 0.435638809710183 
1554	 0.435686298415086 
1555	 0.435734373037948 
1556	 0.435802304781815 
1557	 0.435879626082789 
1558	 0.435948709142294 
1559	 0.436018967922049 
1560	 0.436071282194171 
1561	 0.436102109795849 
1562	 0.436154081620522 
1563	 0.436202300390707 
1564	 0.436257537102444 
1565	 0.436330813116939 
1566	 0.436388339340881 
1567	 0.436436453817435 
1568	 0.436492792239068 
1569	 0.436551541092548 
1570	 0.43659541607096 
1571	 0.436638710191303 
1572	 0.436681853986925 
1573	 0.43671026863478 
1574	 0.436750994035028 
1575	 0.43679959901855 
1576	 0.436843058778788 
1577	 0.436898695898254 
1578	 0.436927887044359 
1579	 0.436944074394257 
1580	 0.436957432156886 
1581	 0.43694721270421 
1582	 0.436949692579899 
1583	 0.436947713380635 
1584	 0.43696481705289 
1585	 0.436986058523107 
1586	 0.437016940633332 
1587	 0.437076398938142 
1588	 0.437122258578127 
1589	 0.437176876057195 
1590	 0.437212576414948 
1591	 0.437229073309658 
1592	 0.437251614465657 
1593	 0.437263536110322 
1594	 0.437282096583885 
1595	 0.437309376359824 
1596	 0.437334064175088 
1597	 0.437359417825252 
1598	 0.437376155109824 
1599	 0.437394509482201 
1600	 0.437404506657512 
1601	 0.437395024193948 
1602	 0.437400300587248 
1603	 0.437413043961904 
1604	 0.437416507846619 
1605	 0.437408690478681 
1606	 0.437424445603387 
1607	 0.437456731009833 
1608	 0.437477650821231 
1609	 0.437505188989972 
1610	 0.437527199251201 
1611	 0.437477988633663 
1612	 0.437429742265588 
1613	 0.437378546759922 
1614	 0.437313474769816 
1615	 0.437283083254872 
1616	 0.437258870104567 
1617	 0.437260858710516 
1618	 0.437270432457312 
1619	 0.437255653919644 
1620	 0.437256514870525 
1621	 0.4372609832261 
1622	 0.43726238454536 
1623	 0.437261134098324 
1624	 0.437279064562243 
1625	 0.437263017719429 
1626	 0.437213313299946 
1627	 0.43720145776153 
1628	 0.437198157191238 
1629	 0.437187008139568 
1630	 0.437188600480948 
1631	 0.437180604547555 
1632	 0.437150446926095 
1633	 0.437155304622869 
1634	 0.437192535845561 
1635	 0.437188178542283 
1636	 0.437188848586138 
1637	 0.437157761348612 
1638	 0.437084910663352 
1639	 0.437032431599891 
1640	 0.436965410363696 
1641	 0.43692887928391 
1642	 0.436897196925849 
1643	 0.436891088124103 
1644	 0.43692046262365 
1645	 0.436928382151859 
1646	 0.436953555405962 
1647	 0.436946349247078 
1648	 0.436918180185835 
1649	 0.436893365845929 
1650	 0.436853998453619 
1651	 0.436818942446371 
1652	 0.436788129187922 
1653	 0.436745743518284 
1654	 0.436692585362299 
1655	 0.436643871920841 
1656	 0.436591690957099 
1657	 0.436539358379519 
1658	 0.436478799785771 
1659	 0.436439363024919 
1660	 0.436409435933225 
1661	 0.436377058724206 
1662	 0.436362728570833 
1663	 0.43633476172825 
1664	 0.436293747634307 
1665	 0.436261596045828 
1666	 0.436234148711982 
1667	 0.43620325058837 
1668	 0.436175532124133 
1669	 0.436139033447566 
1670	 0.43610470370807 
1671	 0.436052373862295 
1672	 0.435984853195477 
1673	 0.435918875429347 
1674	 0.43582612845247 
1675	 0.435771053442929 
1676	 0.435722860509301 
1677	 0.435701538432119 
1678	 0.435727139998672 
1679	 0.43571928316815 
1680	 0.435732479524789 
1681	 0.435695967772487 
1682	 0.43561487602154 
1683	 0.435549448114347 
1684	 0.435442931285032 
1685	 0.435393435856519 
1686	 0.43538640989399 
1687	 0.435352097012543 
1688	 0.435334121917143 
1689	 0.435304343142047 
1690	 0.435253204852431 
1691	 0.435211235036796 
1692	 0.435179126231472 
1693	 0.435142943102871 
1694	 0.435107294612155 
1695	 0.435054568862543 
1696	 0.434988416892295 
1697	 0.434938263725095 
1698	 0.434869793651454 
1699	 0.434834102652887 
1700	 0.434852280176663 
1701	 0.434811056157112 
1702	 0.434756828641781 
1703	 0.434685910000861 
1704	 0.434568373660538 
1705	 0.434479642238725 
1706	 0.43439178402677 
1707	 0.43431800059116 
1708	 0.434259450553144 
1709	 0.434189633740842 
1710	 0.434121044828043 
1711	 0.434060850293521 
1712	 0.433998717919142 
1713	 0.433939308689074 
1714	 0.433895809608382 
1715	 0.433836902273825 
1716	 0.433760850906252 
1717	 0.433704084850437 
1718	 0.433659910507874 
1719	 0.433598971335796 
1720	 0.433536562400318 
1721	 0.433474993759749 
1722	 0.433413656732094 
1723	 0.43333169670911 
1724	 0.433245823215583 
1725	 0.433153231070937 
1726	 0.433035803341252 
1727	 0.43292026988608 
1728	 0.43280882946883 
1729	 0.432692084160992 
1730	 0.432563513065803 
1731	 0.432439663978026 
1732	 0.432316629250212 
1733	 0.432203136215151 
1734	 0.432095269934691 
1735	 0.431964570887634 
1736	 0.43183370926043 
1737	 0.431698322259679 
1738	 0.431531032398819 
1739	 0.431405687178659 
1740	 0.431309157312368 
1741	 0.431194217427223 
1742	 0.431092515818643 
1743	 0.430969898685749 
1744	 0.430821784410674 
1745	 0.430699461013612 
1746	 0.430581153861781 
1747	 0.430479207685768 
1748	 0.430385843639087 
1749	 0.430270791857747 
1750	 0.430130918273147 
1751	 0.429968041938521 
1752	 0.429820580971324 
1753	 0.429692914691061 
1754	 0.429556526406436 
1755	 0.429453329908855 
1756	 0.429325746816786 
1757	 0.429160620007396 
1758	 0.429017402585561 
1759	 0.428854560390486 
1760	 0.428687994022253 
1761	 0.428546730796119 
1762	 0.428401980668288 
1763	 0.428266851858682 
1764	 0.428175271652753 
1765	 0.428096198817712 
1766	 0.42798357932196 
1767	 0.427844741483007 
1768	 0.427687910046957 
1769	 0.42752978644229 
1770	 0.427401384266819 
1771	 0.427295903521034 
1772	 0.427157549763751 
1773	 0.426991515702788 
1774	 0.426866736214242 
1775	 0.426744527782972 
1776	 0.426623023681303 
1777	 0.426534528485862 
1778	 0.426418522845561 
1779	 0.426310932146723 
1780	 0.42620615766553 
1781	 0.426078702983381 
1782	 0.425976897698617 
1783	 0.425899057732273 
1784	 0.425801712189081 
1785	 0.425734300744827 
1786	 0.425620668527388 
1787	 0.425443116429644 
1788	 0.42531266546926 
1789	 0.42518870661959 
1790	 0.425073225236796 
1791	 0.424969201173483 
1792	 0.424859391873009 
1793	 0.424760288468118 
1794	 0.424663140868902 
1795	 0.424609662516773 
1796	 0.424485899442619 
1797	 0.424314168350781 
1798	 0.424132975179911 
1799	 0.423869257951916 
1800	 0.423692859393809 
1801	 0.422600707883791 
1802	 0.422589308985866 
1803	 0.422596321405819 
1804	 0.422577711062949 
1805	 0.422546542353646 
1806	 0.422534941890878 
1807	 0.422518306804874 
1808	 0.422459466973619 
1809	 0.422399067067848 
1810	 0.422306802704494 
1811	 0.4221729088482 
1812	 0.422011756649436 
1813	 0.421867898228094 
1814	 0.421732438164422 
1815	 0.421574677003582 
1816	 0.421384156796729 
1817	 0.421190298513587 
1818	 0.420976444370943 
1819	 0.42075849640928 
1820	 0.420530463407673 
1821	 0.420306197555066 
1822	 0.420057838659155 
1823	 0.419804727807827 
1824	 0.419532342751389 
1825	 0.419204754391954 
1826	 0.418852533894623 
1827	 0.418485544948917 
1828	 0.418062955897011 
1829	 0.417583128935303 
1830	 0.41710499233374 
1831	 0.416609516523747 
1832	 0.416056237146219 
1833	 0.415479227830907 
1834	 0.414897495860844 
1835	 0.414305542615706 
1836	 0.413687590000368 
1837	 0.413060188675774 
1838	 0.412468450102991 
1839	 0.411911378705833 
1840	 0.411358656827978 
1841	 0.410841875889652 
1842	 0.410397514939723 
1843	 0.409996018705456 
1844	 0.409628332826953 
1845	 0.40930196690314 
1846	 0.409035944326663 
1847	 0.408803775383513 
1848	 0.40858267954922 
1849	 0.408432092513838 
1850	 0.408360529507666 
1851	 0.408356695286764 
1852	 0.408399562282356 
1853	 0.408519972871492 
1854	 0.408660592795631 
1855	 0.408800268272449 
1856	 0.408963878748612 
1857	 0.409141231305358 
1858	 0.409333465724776 
1859	 0.409526282461848 
1860	 0.409716256885591 
1861	 0.409907330055062 
1862	 0.410085037462063 
1863	 0.410273023828333 
1864	 0.410464057426623 
1865	 0.410681956195675 
1866	 0.410932147428 
1867	 0.411154797624687 
1868	 0.411393203221547 
1869	 0.411635743308645 
1870	 0.411853209158861 
1871	 0.412065509093988 
1872	 0.412287327359493 
1873	 0.412498958928216 
1874	 0.41266593465691 
1875	 0.412804344424618 
1876	 0.412897720802201 
1877	 0.41292171453128 
1878	 0.412875264002548 
1879	 0.412766299760889 
1880	 0.412601267816018 
1881	 0.412378628641264 
1882	 0.412086961122143 
1883	 0.411741596916083 
1884	 0.41132109250885 
1885	 0.410833297331747 
1886	 0.410291865214003 
1887	 0.40966032912014 
1888	 0.408985672865878 
1889	 0.408252616209099 
1890	 0.407435260615091 
1891	 0.406612091802195 
1892	 0.405760364468412 
1893	 0.404872624292341 
1894	 0.403944851769154 
1895	 0.403002884223726 
1896	 0.402022245033001 
1897	 0.400995673071091 
1898	 0.399953647360849 
1899	 0.398924431723372 
1900	 0.397867573683098 
1901	 0.396792523986055 
1902	 0.395753189072162 
1903	 0.394722702359673 
1904	 0.393699862339275 
1905	 0.392692888338517 
1906	 0.391725562783229 
1907	 0.390737503729459 
1908	 0.389747211366588 
1909	 0.388798759054796 
1910	 0.387848975381022 
1911	 0.386906190818019 
1912	 0.385994938352187 
1913	 0.3850909084968 
1914	 0.38417690479736 
1915	 0.383306697887122 
1916	 0.382467475618786 
1917	 0.381636554565265 
1918	 0.380841854674956 
1919	 0.380102982182848 
1920	 0.379356491444429 
1921	 0.378640880498428 
1922	 0.377953108484216 
1923	 0.377284283052215 
1924	 0.376661126668328 
1925	 0.376083292499856 
1926	 0.375538177966416 
1927	 0.375029846591569 
1928	 0.374547741786581 
1929	 0.374115417675185 
1930	 0.373661789709152 
1931	 0.373233557943118 
1932	 0.372865164860029 
1933	 0.372515429761152 
1934	 0.372256653536723 
1935	 0.372043506528006 
1936	 0.371890408086779 
1937	 0.371777063732149 
1938	 0.371730705701427 
1939	 0.371699094790416 
1940	 0.3717056378935 
1941	 0.37176012871089 
1942	 0.37180143641904 
1943	 0.371880347697094 
1944	 0.371997740871727 
1945	 0.372113092432969 
1946	 0.37223697478719 
1947	 0.372403321686413 
1948	 0.372534110106849 
1949	 0.372650578418391 
1950	 0.372762539322421 
1951	 0.372863581624878 
1952	 0.372958720396111 
1953	 0.373069520970232 
1954	 0.373190926481888 
1955	 0.373292390787269 
1956	 0.373388675219392 
1957	 0.373480690410627 
1958	 0.373545241451082 
1959	 0.373624136197856 
1960	 0.373707847570168 
1961	 0.373805290136731 
1962	 0.373907811646516 
1963	 0.374011697683353 
1964	 0.374137094993351 
1965	 0.374245031758882 
1966	 0.37434537344622 
1967	 0.374442525461534 
1968	 0.374538031376814 
1969	 0.37462298334699 
1970	 0.374722628831439 
1971	 0.374820105618385 
1972	 0.37493575901331 
1973	 0.375067075494636 
1974	 0.375199468482224 
1975	 0.375344373752796 
1976	 0.375485845018385 
1977	 0.375631552930471 
1978	 0.375778423312154 
1979	 0.375908724335706 
1980	 0.376049390400407 
1981	 0.376184719131518 
1982	 0.376310419016117 
1983	 0.376442340417373 
1984	 0.376577002872028 
1985	 0.376713594064855 
1986	 0.37684028373481 
1987	 0.376987896312945 
1988	 0.377154877617014 
1989	 0.37731399466398 
1990	 0.377478554432721 
1991	 0.377659562991372 
1992	 0.377838131591969 
1993	 0.378026796095227 
1994	 0.378201459905922 
1995	 0.378377407638169 
1996	 0.378543080837008 
1997	 0.37868700593488 
1998	 0.378843888934336 
1999	 0.378999342613191 
2000	 0.379165844170819 
2001	 0.37934337395909 
2002	 0.379522975489344 
2003	 0.379688846354417 
2004	 0.379852759801095 
2005	 0.380038086492138 
2006	 0.38022171243746 
2007	 0.380425669598637 
2008	 0.380658173359699 
2009	 0.380883729821359 
2010	 0.381122263471 
2011	 0.381345785972026 
2012	 0.381564060777785 
2013	 0.381789637907886 
2014	 0.382023485882636 
2015	 0.382233050539895 
2016	 0.382432344033351 
2017	 0.382664567823268 
2018	 0.382879640082415 
2019	 0.383075952531038 
2020	 0.383287543148864 
2021	 0.383517264855908 
2022	 0.383730660660274 
2023	 0.383947741197164 
2024	 0.384150323819881 
2025	 0.384358918238724 
2026	 0.384527227674926 
2027	 0.384661040031301 
2028	 0.38479279762436 
2029	 0.384919742618832 
2030	 0.385014763924293 
2031	 0.385138999300429 
2032	 0.385265552432938 
2033	 0.385414550537666 
2034	 0.385577470130065 
2035	 0.385743738906687 
2036	 0.38594315068478 
2037	 0.386116517296507 
2038	 0.386282824921018 
2039	 0.386442782089367 
2040	 0.386599742917209 
2041	 0.386739411100798 
2042	 0.386883685254372 
2043	 0.38701317407314 
2044	 0.387136464375655 
2045	 0.387247179324267 
2046	 0.387365674375274 
2047	 0.387488826948375 
2048	 0.387591501614627 
2049	 0.387683644477376 
2050	 0.387776629307137 
2051	 0.387853961185115 
2052	 0.387929636152207 
2053	 0.388006635159597 
2054	 0.388086265714939 
2055	 0.388158809141125 
2056	 0.388235201892695 
2057	 0.388299418319808 
2058	 0.388366521700812 
2059	 0.388422806902381 
2060	 0.388448774832732 
2061	 0.388510350771367 
2062	 0.388578100099026 
2063	 0.388661699226458 
2064	 0.388770015750046 
2065	 0.388876036879068 
2066	 0.389010133904916 
2067	 0.389117207519308 
2068	 0.389228759065895 
2069	 0.389308411424374 
2070	 0.389385281869346 
2071	 0.389437602814154 
2072	 0.389501604364015 
2073	 0.389572366128453 
2074	 0.389616519469299 
2075	 0.389638025051172 
2076	 0.389676154957375 
2077	 0.389698982160867 
2078	 0.389735926798979 
2079	 0.389796857264831 
2080	 0.389844263057402 
2081	 0.389883469252106 
2082	 0.389925636517186 
2083	 0.389980610627044 
2084	 0.390012209163506 
2085	 0.390041228026591 
2086	 0.39007025404514 
2087	 0.390079383618572 
2088	 0.39005698388061 
2089	 0.390070608219025 
2090	 0.390095619574145 
2091	 0.390107038654634 
2092	 0.390136814617855 
2093	 0.390145298360236 
2094	 0.390116706437434 
2095	 0.390114828263496 
2096	 0.390115183620838 
2097	 0.390130070634555 
2098	 0.39017455125513 
2099	 0.390198258220483 
2100	 0.390227793190025 
2101	 0.390265617533822 
2102	 0.390292401717004 
2103	 0.390312218174451 
2104	 0.390331910659823 
2105	 0.390330331178627 
2106	 0.390370122919453 
2107	 0.390423314873887 
2108	 0.390485593378573 
2109	 0.390583863279414 
2110	 0.390671691877861 
2111	 0.390761697558274 
2112	 0.390845655863955 
2113	 0.390935751216109 
2114	 0.391018183158028 
2115	 0.391096663077099 
2116	 0.391170255450499 
2117	 0.391231903263792 
2118	 0.391278884319078 
2119	 0.391345791608318 
2120	 0.391397809345562 
2121	 0.391481327151322 
2122	 0.391606262978985 
2123	 0.391700128437405 
2124	 0.391791204721303 
2125	 0.391883292916916 
2126	 0.391984413169703 
2127	 0.392053117368137 
2128	 0.392138051734324 
2129	 0.392168898134044 
2130	 0.392149900099863 
2131	 0.392110296445224 
2132	 0.392042810203672 
2133	 0.391933276639693 
2134	 0.391825872131061 
2135	 0.391706287531402 
2136	 0.391554277059565 
2137	 0.391373213035011 
2138	 0.391193140855522 
2139	 0.390989815174912 
2140	 0.390779286444623 
2141	 0.390588563787773 
2142	 0.390345873751646 
2143	 0.390050844130802 
2144	 0.389765701849172 
2145	 0.389470546182115 
2146	 0.389147166353345 
2147	 0.388818297394734 
2148	 0.388473069287013 
2149	 0.388086949630526 
2150	 0.387651953115664 
2151	 0.387223068122529 
2152	 0.386773821107189 
2153	 0.386313242721574 
2154	 0.385833026899417 
2155	 0.385358829529301 
2156	 0.384880081613768 
2157	 0.384387431452839 
2158	 0.383884481634391 
2159	 0.383382981433646 
2160	 0.382883954577119 
2161	 0.38235747768618 
2162	 0.381814165120168 
2163	 0.381275541012242 
2164	 0.380720996483008 
2165	 0.380154811727508 
2166	 0.379587675830281 
2167	 0.379027888118011 
2168	 0.378464272586001 
2169	 0.37788667138537 
2170	 0.377307406830426 
2171	 0.376747005059596 
2172	 0.376149188348402 
2173	 0.37554080570499 
2174	 0.374897059016265 
2175	 0.374223610061031 
2176	 0.373537864161282 
2177	 0.37278706329373 
2178	 0.372083292252355 
2179	 0.371396600759112 
2180	 0.370703534079299 
2181	 0.370047347080273 
2182	 0.369358716042042 
2183	 0.368649024412041 
2184	 0.367920601380934 
2185	 0.367196083170091 
2186	 0.366449233857363 
2187	 0.365720114191855 
2188	 0.364985897368393 
2189	 0.364280736791564 
2190	 0.3635860816741 
2191	 0.36290744425622 
2192	 0.362236935738292 
2193	 0.361602969359371 
2194	 0.360989009645441 
2195	 0.360396783280219 
2196	 0.359855720375979 
2197	 0.359303543222752 
2198	 0.358731275233195 
2199	 0.358213682899267 
2200	 0.357695513431176 
2201	 0.357243467871661 
2202	 0.356845440951379 
2203	 0.35650282191541 
2204	 0.356192333227322 
2205	 0.355950567311508 
2206	 0.355689464743729 
2207	 0.355434467172937 
2208	 0.355239212655302 
2209	 0.355046744199608 
2210	 0.354940628631429 
2211	 0.35492250899677 
2212	 0.35491125382412 
2213	 0.354977386299336 
2214	 0.355001824134307 
2215	 0.355051006180924 
2216	 0.355071959647059 
2217	 0.355082836121283 
2218	 0.355063588279287 
2219	 0.355029681702151 
2220	 0.354970365368932 
2221	 0.354865527781596 
2222	 0.354765704122469 
2223	 0.354661995778314 
2224	 0.354556305940841 
2225	 0.354405893465718 
2226	 0.354252580377167 
2227	 0.354031268987787 
2228	 0.353752215669947 
2229	 0.353458341776237 
2230	 0.353125033389733 
2231	 0.352774097248525 
2232	 0.352401577615343 
2233	 0.351992686566706 
2234	 0.351533726013098 
2235	 0.351088198880185 
2236	 0.350637134989274 
2237	 0.350145119720525 
2238	 0.349648081884398 
2239	 0.349110570945113 
2240	 0.348540172107186 
2241	 0.347923314162155 
2242	 0.347268190907021 
2243	 0.346583135404493 
2244	 0.345847244457983 
2245	 0.345077425811071 
2246	 0.344302677203102 
2247	 0.343490549865644 
2248	 0.342649143213355 
2249	 0.341766274442893 
2250	 0.340874963685543 
2251	 0.33992998307179 
2252	 0.339051408501163 
2253	 0.338159830245807 
2254	 0.337332491581537 
2255	 0.336543004151636 
2256	 0.335806025259395 
2257	 0.335073311445751 
2258	 0.334464404483823 
2259	 0.333950450867626 
2260	 0.333479146865909 
2261	 0.333076233081826 
2262	 0.332764123009162 
2263	 0.332505439903209 
2264	 0.332342176371249 
2265	 0.332292723792229 
2266	 0.332306119164144 
2267	 0.332411509457976 
2268	 0.332564012668082 
2269	 0.332776220271531 
2270	 0.333074272633533 
2271	 0.333440052969227 
2272	 0.33387419276429 
2273	 0.334357236288725 
2274	 0.334911052492319 
2275	 0.335496569431151 
2276	 0.336113153020032 
2277	 0.336784154548566 
2278	 0.337539041689073 
2279	 0.338273164237527 
2280	 0.339021864326965 
2281	 0.339820075147088 
2282	 0.340674540802219 
2283	 0.341483487648982 
2284	 0.342365743685916 
2285	 0.343136654511453 
2286	 0.343826084719465 
2287	 0.344502622796939 
2288	 0.345124236259281 
2289	 0.345734016584734 
2290	 0.346303648706597 
2291	 0.346884410573993 
2292	 0.347475177526187 
2293	 0.348017860710088 
2294	 0.348553368685243 
2295	 0.349045780494952 
2296	 0.349470829231398 
2297	 0.349886648018346 
2298	 0.350323230491594 
2299	 0.350753125822908 
2300	 0.351211332882322 
2301	 0.351645932763758 
2302	 0.352040533236927 
2303	 0.352440426930919 
2304	 0.352844638524408 
2305	 0.353263084217768 
2306	 0.353652907719579 
2307	 0.354051591129317 
2308	 0.354412425657689 
2309	 0.354742080370308 
2310	 0.355052549963337 
2311	 0.355342178275877 
2312	 0.355630564889891 
2313	 0.355873892563647 
2314	 0.356149990541713 
2315	 0.356458962700126 
2316	 0.356718540401106 
2317	 0.356996417084425 
2318	 0.357201896717296 
2319	 0.357333604133146 
2320	 0.357477692799201 
2321	 0.357553089829372 
2322	 0.357689311208892 
2323	 0.357857804519278 
2324	 0.358018280090878 
2325	 0.358243370160977 
2326	 0.358384579610175 
2327	 0.358485840493002 
2328	 0.358561924796908 
2329	 0.358564890342139 
2330	 0.358559126135069 
2331	 0.358590956149867 
2332	 0.358587984263867 
2333	 0.358622002660102 
2334	 0.358644456173721 
2335	 0.358620160536177 
2336	 0.358629317893916 
2337	 0.358621528614463 
2338	 0.358563695384631 
2339	 0.358487532947256 
2340	 0.358386354887258 
2341	 0.358217118779488 
2342	 0.358026335468657 
2343	 0.357810969661204 
2344	 0.357579105582943 
2345	 0.357335446436234 
2346	 0.357079843151734 
2347	 0.35678310290963 
2348	 0.356436555980786 
2349	 0.356145951756553 
2350	 0.355877233382663 
2351	 0.355572026665471 
2352	 0.355272680125272 
2353	 0.35494922192297 
2354	 0.354550601129174 
2355	 0.35422813219655 
2356	 0.353983485191965 
2357	 0.353679756343292 
2358	 0.353335180428181 
2359	 0.35303023987546 
2360	 0.352754173213314 
2361	 0.352425270972397 
2362	 0.352155682167233 
2363	 0.351781277856148 
2364	 0.351257779259743 
2365	 0.350799105989225 
2366	 0.350317573469048 
2367	 0.349836126605628 
2368	 0.349401667481436 
2369	 0.348936713356519 
2370	 0.34845429508579 
2371	 0.347931871409012 
2372	 0.34741274249643 
2373	 0.346838476620085 
2374	 0.346328930423383 
2375	 0.345819566568778 
2376	 0.345229504184913 
2377	 0.344630676629869 
2378	 0.343898113575599 
2379	 0.343134908170667 
2380	 0.342455078214077 
2381	 0.341743513567376 
2382	 0.341070059572892 
2383	 0.340461406686759 
2384	 0.339785180271847 
2385	 0.339134781913256 
2386	 0.33853793843003 
2387	 0.337836230666799 
2388	 0.337149992134225 
2389	 0.336496862342851 
2390	 0.33570947334784 
2391	 0.334967082207614 
2392	 0.334360847103716 
2393	 0.333707199157398 
2394	 0.333070018257403 
2395	 0.332515739715652 
2396	 0.33187641806554 
2397	 0.331161104332885 
2398	 0.330439610661625 
2399	 0.3296538208588 
2400	 0.328900217993173 
2401	 0.328177866623332 
2402	 0.327496938659185 
2403	 0.326979429953046 
2404	 0.32641056044954 
2405	 0.325776285407228 
2406	 0.325202486610958 
2407	 0.324566354266959 
2408	 0.323933441401209 
2409	 0.323411172356484 
2410	 0.322862781572906 
2411	 0.32221511229693 
2412	 0.321626624281442 
2413	 0.321101964170551 
2414	 0.320615534511145 
2415	 0.320186619313897 
2416	 0.319639498253265 
2417	 0.318992398069507 
2418	 0.318394247553704 
2419	 0.317683527316907 
2420	 0.317112069595627 
2421	 0.316672273728057 
2422	 0.316171296958904 
2423	 0.315746405557208 
2424	 0.315255901497716 
2425	 0.314675153283335 
2426	 0.314146758022641 
2427	 0.313591133372234 
2428	 0.313075398642215 
2429	 0.312574845278061 
2430	 0.312195800895734 
2431	 0.311956912485072 
2432	 0.31158645267288 
2433	 0.311295197762666 
2434	 0.31085058869581 
2435	 0.310164947034247 
2436	 0.30965690184519 
2437	 0.309215821750758 
2438	 0.308669983596593 
2439	 0.30816201215436 
2440	 0.307636791286126 
2441	 0.306963751726566 
2442	 0.306467243262246 
2443	 0.30606021680003 
2444	 0.305642516051926 
2445	 0.305359749567752 
2446	 0.304966171888703 
2447	 0.30457289233839 
2448	 0.30403969170267 
2449	 0.303332011238873 
2450	 0.302775802075549 
2451	 0.302232348877301 
2452	 0.301657016067473 
2453	 0.30109752551563 
2454	 0.300505694141649 
2455	 0.299831974251232 
2456	 0.299281593589979 
2457	 0.298846851645051 
2458	 0.29847540943322 
2459	 0.298139401685831 
2460	 0.297770138705708 
2461	 0.297435407740919 
2462	 0.297129217541642 
2463	 0.296836567265334 
2464	 0.296487385612578 
2465	 0.296225888523499 
2466	 0.295895834406621 
2467	 0.295412895280815 
2468	 0.295067626069552 
2469	 0.294739778592301 
2470	 0.294484706251064 
2471	 0.294334009824551 
2472	 0.294099221728081 
2473	 0.29386894025548 
2474	 0.293574964732366 
2475	 0.293206146288166 
2476	 0.292911987612128 
2477	 0.292549436765346 
2478	 0.292147949218362 
2479	 0.291729459872376 
2480	 0.291431622182006 
2481	 0.291201111523846 
2482	 0.290747249459642 
2483	 0.290353612601793 
2484	 0.289917008843752 
2485	 0.289338166466838 
2486	 0.28881943606033 
2487	 0.288480218569847 
2488	 0.288054472131979 
2489	 0.287459895380915 
2490	 0.287338719127078 
2491	 0.287022626661449 
2492	 0.286473006128901 
2493	 0.286185338776637 
2494	 0.285473844950024 
2495	 0.284848664978625 
2496	 0.28443982661149 
2497	 0.283806598636749 
2498	 0.283294112885175 
2499	 0.282840896624837 
2500	 0.282287319053845 
