Wavelength	LMW7 profile 200015.asd
350	 6.77225123021722E-02 
351	 6.47128170339824E-02 
352	 5.98746141347862E-02 
353	 5.81604820454498E-02 
354	 6.71443426883925E-02 
355	 6.64109891525716E-02 
356	 6.35752848775227E-02 
357	 6.80902560303273E-02 
358	 6.71868548155823E-02 
359	 6.48099563374837E-02 
360	 6.25130957221728E-02 
361	 6.01749001543689E-02 
362	 5.86592629695132E-02 
363	 6.01920065288775E-02 
364	 6.35777851325015E-02 
365	 6.20255465937773E-02 
366	 6.17723942352689E-02 
367	 6.26337488039159E-02 
368	 6.31143670479603E-02 
369	 6.42228065636832E-02 
370	 0.062917287983125 
371	 6.04460773419562E-02 
372	 6.08842843118872E-02 
373	 0.064903245234168 
374	 6.63158607283707E-02 
375	 6.38748111085684E-02 
376	 6.63811763644444E-02 
377	 6.54519504823865E-02 
378	 6.52171458820969E-02 
379	 7.05513232420132E-02 
380	 7.42383077704604E-02 
381	 7.17311189137175E-02 
382	 6.77923203388749E-02 
383	 7.27340602552271E-02 
384	 7.50841660046451E-02 
385	 7.54458639176769E-02 
386	 7.59455864571269E-02 
387	 7.82299024323337E-02 
388	 7.94502628074623E-02 
389	 8.01157893321938E-02 
390	 8.16849582881718E-02 
391	 8.45283127834061E-02 
392	 8.70050575119185E-02 
393	 8.89850173450262E-02 
394	 9.16298074863191E-02 
395	 0.094095897577343 
396	 9.61631959687152E-02 
397	 9.83175690236241E-02 
398	 0.102712774060099 
399	 0.105536643498321 
400	 0.106887574234433 
401	 0.108496277511161 
402	 0.112110321255425 
403	 0.115337677368436 
404	 0.11725641422376 
405	 0.118739520865121 
406	 0.122699910496406 
407	 0.127167561148164 
408	 0.129990466812834 
409	 0.131009795873408 
410	 0.132317580536801 
411	 0.134507766665834 
412	 0.137286970408974 
413	 0.140212356687209 
414	 0.141747212495878 
415	 0.142109721550597 
416	 0.143774864315459 
417	 0.144235531418556 
418	 0.144548217045248 
419	 0.145656147067805 
420	 0.14511624510066 
421	 0.144589819839681 
422	 0.144560009752253 
423	 0.144619881276388 
424	 0.143981159661324 
425	 0.143037227055371 
426	 0.142051694334932 
427	 0.140716566075186 
428	 0.13944298726673 
429	 0.138237234225106 
430	 0.136963826515891 
431	 0.13549432624298 
432	 0.13413603849596 
433	 0.133160302723386 
434	 0.132759527008004 
435	 0.132613137971402 
436	 0.132740253766301 
437	 0.133236637950367 
438	 0.134224592945775 
439	 0.135486112366682 
440	 0.137101044702796 
441	 0.139225095467797 
442	 0.141343607632217 
443	 0.143613977324648 
444	 0.146061333610354 
445	 0.148383688532841 
446	 0.150883341481797 
447	 0.153637676870147 
448	 0.156519900094092 
449	 0.158821730577253 
450	 0.161566195823582 
451	 0.164683718741409 
452	 0.167193921029807 
453	 0.169847270021865 
454	 0.17251717510198 
455	 0.174997700911001 
456	 0.177211852559125 
457	 0.179668230745929 
458	 0.182186868503743 
459	 0.184321665365022 
460	 0.186364908995579 
461	 0.188220058021395 
462	 0.189882591656344 
463	 0.191507611121759 
464	 0.193336260977628 
465	 0.195149882472378 
466	 0.196707506353959 
467	 0.198227432713693 
468	 0.19989210419143 
469	 0.2015369864812 
470	 0.202756244354902 
471	 0.203893407306431 
472	 0.205120024854662 
473	 0.206456316314882 
474	 0.207629073605932 
475	 0.208903075000713 
476	 0.210191188322906 
477	 0.211300482356956 
478	 0.212462806567281 
479	 0.213644040830834 
480	 0.214845762234381 
481	 0.216156838132553 
482	 0.217257874319635 
483	 0.218318853950744 
484	 0.219525256501254 
485	 0.220551954920203 
486	 0.221411983014638 
487	 0.222251064848383 
488	 0.223300049439572 
489	 0.224399891744081 
490	 0.225561660471371 
491	 0.226739483419471 
492	 0.227662570204559 
493	 0.22857608948203 
494	 0.22956479431746 
495	 0.230618616375611 
496	 0.231611603483682 
497	 0.232705756376972 
498	 0.233897080590332 
499	 0.234899968615402 
500	 0.235900411527279 
501	 0.236811902646042 
502	 0.237587569734202 
503	 0.238695893414288 
504	 0.23974772444018 
505	 0.240648332877555 
506	 0.241595934024954 
507	 0.242581169171369 
508	 0.243544315928154 
509	 0.244455541439129 
510	 0.245401995282322 
511	 0.246363647545026 
512	 0.247303135468956 
513	 0.248187945863972 
514	 0.249108206552926 
515	 0.250007983127185 
516	 0.250889705937351 
517	 0.251889886021979 
518	 0.252845505956718 
519	 0.253672564961123 
520	 0.254392298478137 
521	 0.255392597038659 
522	 0.256413355489167 
523	 0.25732957856876 
524	 0.258198777565545 
525	 0.259069525837225 
526	 0.259910598404443 
527	 0.260716591929404 
528	 0.26163966363232 
529	 0.262485718834232 
530	 0.263300497308007 
531	 0.26426582608691 
532	 0.265152731513819 
533	 0.266052079826393 
534	 0.266990539600178 
535	 0.267738360057533 
536	 0.268632738527825 
537	 0.269598538934863 
538	 0.270425255154048 
539	 0.271204680300057 
540	 0.272009454059983 
541	 0.272860623084625 
542	 0.273712125216563 
543	 0.274605488802872 
544	 0.275492149883866 
545	 0.276330475256936 
546	 0.277212209591081 
547	 0.278062269271498 
548	 0.278901681794756 
549	 0.279827325733393 
550	 0.280672048715454 
551	 0.281511492033861 
552	 0.282431944322607 
553	 0.283440869361056 
554	 0.2844115565887 
555	 0.285340132396141 
556	 0.286286322967962 
557	 0.28721941662603 
558	 0.288216537340857 
559	 0.289283576542356 
560	 0.29029362296909 
561	 0.29118840440127 
562	 0.292042487069755 
563	 0.29296930102825 
564	 0.293984138422849 
565	 0.294950009737364 
566	 0.295894784849703 
567	 0.297036797097392 
568	 0.298231521829332 
569	 0.299392435650149 
570	 0.300503368209703 
571	 0.301752513855527 
572	 0.30291659013775 
573	 0.303999841870694 
574	 0.305148262384152 
575	 0.30610223265044 
576	 0.307050872730208 
577	 0.30812001493311 
578	 0.309140590837632 
579	 0.310215061465981 
580	 0.311380309809019 
581	 0.312639874296419 
582	 0.313956538484923 
583	 0.315321597265829 
584	 0.316650327108614 
585	 0.317747504144235 
586	 0.318866776127616 
587	 0.319957671578458 
588	 0.320938636360766 
589	 0.322008330396393 
590	 0.323043003412884 
591	 0.324069225807413 
592	 0.325245302877425 
593	 0.326279386896354 
594	 0.327274310328838 
595	 0.328380824994289 
596	 0.329680734478104 
597	 0.330990324731753 
598	 0.332249025010552 
599	 0.333465777565299 
600	 0.334563852211358 
601	 0.335612217851101 
602	 0.336624796688457 
603	 0.337485882863861 
604	 0.338299334243095 
605	 0.339132761323546 
606	 0.340023728498653 
607	 0.340920273566742 
608	 0.341790254357263 
609	 0.342640405954693 
610	 0.343520635911778 
611	 0.344408355500174 
612	 0.345291344770847 
613	 0.346155655192553 
614	 0.346999730543732 
615	 0.347738314795737 
616	 0.348404037677425 
617	 0.34910160028578 
618	 0.349761128257957 
619	 0.350343693308452 
620	 0.350859880232382 
621	 0.351409224899947 
622	 0.351977371227211 
623	 0.352515777674864 
624	 0.352988434728675 
625	 0.353574516449676 
626	 0.354083143768991 
627	 0.35448033569859 
628	 0.354975140843894 
629	 0.355479604129175 
630	 0.355949822271805 
631	 0.356376026087418 
632	 0.356851237678282 
633	 0.357237856229033 
634	 0.357597347056175 
635	 0.358129900015066 
636	 0.358437869938103 
637	 0.358807229538232 
638	 0.359383844121601 
639	 0.359666874226759 
640	 0.359998325540818 
641	 0.36040363935271 
642	 0.360780246328076 
643	 0.361212562783948 
644	 0.361638368949287 
645	 0.362024687427754 
646	 0.362399198100747 
647	 0.362747673601346 
648	 0.36310143525223 
649	 0.363503883566781 
650	 0.364002888217073 
651	 0.364453555546063 
652	 0.364808917934948 
653	 0.365124436179521 
654	 0.365600416354836 
655	 0.366085610284107 
656	 0.366462951513067 
657	 0.366855498014091 
658	 0.367366091561419 
659	 0.367894456688096 
660	 0.368273824211105 
661	 0.368693896802828 
662	 0.369173491816365 
663	 0.369704905764342 
664	 0.370272239580496 
665	 0.37070485134165 
666	 0.371099952278721 
667	 0.371592099808645 
668	 0.372099428452628 
669	 0.372655369102693 
670	 0.37320689571784 
671	 0.373639451226419 
672	 0.374103828597811 
673	 0.374637249208874 
674	 0.375221002051611 
675	 0.375757972806529 
676	 0.376316201519358 
677	 0.376840742536222 
678	 0.377268221502775 
679	 0.377854168637289 
680	 0.378428336846343 
681	 0.378938730571278 
682	 0.379536281861113 
683	 0.380102038189817 
684	 0.380651856944315 
685	 0.381213963036525 
686	 0.381726579941754 
687	 0.382262806774317 
688	 0.382833976512717 
689	 0.38340190168626 
690	 0.383916608645216 
691	 0.384421204074222 
692	 0.384964291177732 
693	 0.385590436479697 
694	 0.386117847553037 
695	 0.386620021473305 
696	 0.387212435647166 
697	 0.387655676005754 
698	 0.388164809927333 
699	 0.388768255297047 
700	 0.389276006733007 
701	 0.38976013060043 
702	 0.390244672274136 
703	 0.390732673357913 
704	 0.39119373874918 
705	 0.391619402221291 
706	 0.392037757034714 
707	 0.392487384511667 
708	 0.392920080195239 
709	 0.393340081333281 
710	 0.393745556494126 
711	 0.394118381787298 
712	 0.394469115121322 
713	 0.394824402618223 
714	 0.395199136026711 
715	 0.395545285502959 
716	 0.395901814548518 
717	 0.396242068557469 
718	 0.396499590263232 
719	 0.396758123175649 
720	 0.396959758919521 
721	 0.397089552585191 
722	 0.397240786422062 
723	 0.397539900495812 
724	 0.397828283430753 
725	 0.397920906298548 
726	 0.398057515841651 
727	 0.398174801566751 
728	 0.398234202737217 
729	 0.398237371016346 
730	 0.398259533905393 
731	 0.398276182024934 
732	 0.39825092811637 
733	 0.398160012089411 
734	 0.398091353166762 
735	 0.398018297700782 
736	 0.397885273425434 
737	 0.397793623456318 
738	 0.397628492533211 
739	 0.397383449934384 
740	 0.397183219252499 
741	 0.396990205480336 
742	 0.396747167394732 
743	 0.396419060427025 
744	 0.39603379699094 
745	 0.395682046009925 
746	 0.395354867464955 
747	 0.394988230311097 
748	 0.394516860816209 
749	 0.394115089039357 
750	 0.393773050599472 
751	 0.393241030420566 
752	 0.392695107953759 
753	 0.392158796127068 
754	 0.391622584094951 
755	 0.391078561471484 
756	 0.390588614221438 
757	 0.390065890104692 
758	 0.389391556510585 
759	 0.388820038558776 
760	 0.388166477401881 
761	 0.387415597183711 
762	 0.386807440652381 
763	 0.386207208649084 
764	 0.385536027442877 
765	 0.384779320648645 
766	 0.384058496635314 
767	 0.383400128408057 
768	 0.382730704016815 
769	 0.381950139252285 
770	 0.381180257234017 
771	 0.380467412892105 
772	 0.37977011727545 
773	 0.378957788616254 
774	 0.378224987058909 
775	 0.377471698378213 
776	 0.376632038402647 
777	 0.375926706223651 
778	 0.375167433534129 
779	 0.374342242475397 
780	 0.373520427131654 
781	 0.372712181728424 
782	 0.371987868288481 
783	 0.37129072858973 
784	 0.370444210970214 
785	 0.369676798236209 
786	 0.368963266422391 
787	 0.368208033684527 
788	 0.367240057407048 
789	 0.366454188209695 
790	 0.365787268641658 
791	 0.365031000633397 
792	 0.364246351429066 
793	 0.363531580468039 
794	 0.362836907006756 
795	 0.362005497327269 
796	 0.361235657678176 
797	 0.360534942864052 
798	 0.359835234702579 
799	 0.358983879829663 
800	 0.358230396411865 
801	 0.357582140970821 
802	 0.356941903225115 
803	 0.356131098871002 
804	 0.355386982181192 
805	 0.354742371748158 
806	 0.35408976005087 
807	 0.353375708151659 
808	 0.35264262077345 
809	 0.351934665767339 
810	 0.351275360791535 
811	 0.350661982495012 
812	 0.350031567475933 
813	 0.349352827447836 
814	 0.348718522280374 
815	 0.348058712362253 
816	 0.347410850488664 
817	 0.34682672444849 
818	 0.346181389334329 
819	 0.345581959409563 
820	 0.345023539621842 
821	 0.344405447128723 
822	 0.343818465948227 
823	 0.343218156617156 
824	 0.342603923004133 
825	 0.342078236898427 
826	 0.341568777349148 
827	 0.341068805271821 
828	 0.340568452002818 
829	 0.33999532078088 
830	 0.339352231848754 
831	 0.338733225705207 
832	 0.338250161787186 
833	 0.337841868224572 
834	 0.337398596871332 
835	 0.33690846648005 
836	 0.336451692449289 
837	 0.335974630492609 
838	 0.335539846849984 
839	 0.335144386220894 
840	 0.334646837398431 
841	 0.334188668032261 
842	 0.333749536402722 
843	 0.333309955524846 
844	 0.333013066185535 
845	 0.33263092930484 
846	 0.332187592805714 
847	 0.331807847119305 
848	 0.331422665701375 
849	 0.331048559771928 
850	 0.330690699955658 
851	 0.330339043784638 
852	 0.329965459799674 
853	 0.329644413733818 
854	 0.329352898673291 
855	 0.32891595394122 
856	 0.328681509832827 
857	 0.328469386375282 
858	 0.328112307066855 
859	 0.327799540430023 
860	 0.327535705161667 
861	 0.327278668389313 
862	 0.326992448741017 
863	 0.326779891617601 
864	 0.326494400236653 
865	 0.326193258070436 
866	 0.326022233633257 
867	 0.325757011498552 
868	 0.325617066854633 
869	 0.325545293424004 
870	 0.325202470540411 
871	 0.324844486761941 
872	 0.324601396239895 
873	 0.324512330521544 
874	 0.324506478739153 
875	 0.324436908844856 
876	 0.324260113614093 
877	 0.324017485566748 
878	 0.323864743113935 
879	 0.323811068119353 
880	 0.32374191888317 
881	 0.323573880341518 
882	 0.323554417859013 
883	 0.323545732737599 
884	 0.323405703509154 
885	 0.323090214479877 
886	 0.323060964566656 
887	 0.323162538053548 
888	 0.323198986878179 
889	 0.323030082834367 
890	 0.322933408751824 
891	 0.322899685223923 
892	 0.322918998077867 
893	 0.323017271296762 
894	 0.322963664623802 
895	 0.322891252553612 
896	 0.322911824531128 
897	 0.322960570629642 
898	 0.323055165647146 
899	 0.323144540065343 
900	 0.323182211765915 
901	 0.323170779203834 
902	 0.323198240077908 
903	 0.323286724826332 
904	 0.323407168774799 
905	 0.323443820248752 
906	 0.323593006118546 
907	 0.323793416791135 
908	 0.323896514063357 
909	 0.324014773248603 
910	 0.32415057305804 
911	 0.324298598650138 
912	 0.32444859098671 
913	 0.324583341790505 
914	 0.32473938929947 
915	 0.324922496817336 
916	 0.325101811800835 
917	 0.325195697319584 
918	 0.325407304371109 
919	 0.325758905728479 
920	 0.326031994581924 
921	 0.326246334819985 
922	 0.32641259278073 
923	 0.326583374243318 
924	 0.326857755976138 
925	 0.327201464440157 
926	 0.327518669419815 
927	 0.327778110590849 
928	 0.328087123548672 
929	 0.32845214199229 
930	 0.328752740909051 
931	 0.328959900020297 
932	 0.329330683680303 
933	 0.329615486314468 
934	 0.329861699625719 
935	 0.330183134012838 
936	 0.330623926673373 
937	 0.331010225368694 
938	 0.331353619239479 
939	 0.331730169834911 
940	 0.332188122755038 
941	 0.332630484489038 
942	 0.333040895950719 
943	 0.33343772192117 
944	 0.33380701136682 
945	 0.334316503871835 
946	 0.334845144951786 
947	 0.335216870321311 
948	 0.335657499335734 
949	 0.336079274413105 
950	 0.336485406876616 
951	 0.336941707112289 
952	 0.337552663275932 
953	 0.338116860099254 
954	 0.338566620333988 
955	 0.338973823923981 
956	 0.339619865025959 
957	 0.340144803357658 
958	 0.340548972753847 
959	 0.341058996797186 
960	 0.34166416223309 
961	 0.342240488564059 
962	 0.342783788016312 
963	 0.343357253869212 
964	 0.343884733653038 
965	 0.344380711658475 
966	 0.344956678112166 
967	 0.345715763445279 
968	 0.346367635623061 
969	 0.347009867582315 
970	 0.347614962492181 
971	 0.348103560488063 
972	 0.348714262048507 
973	 0.349386152260688 
974	 0.350067389337927 
975	 0.350744389299749 
976	 0.351505840173269 
977	 0.352136414438403 
978	 0.352761198418143 
979	 0.353611805835294 
980	 0.354146341141407 
981	 0.354643912100195 
982	 0.355281020651841 
983	 0.356050738240281 
984	 0.356566111544218 
985	 0.35730289150212 
986	 0.358205976165581 
987	 0.358945460205181 
988	 0.359640074015362 
989	 0.360351792280551 
990	 0.36104602968867 
991	 0.361701303457223 
992	 0.36261633763954 
993	 0.363274560526356 
994	 0.363891956751067 
995	 0.364797521359933 
996	 0.365262346283335 
997	 0.366000388604893 
998	 0.366872870313269 
999	 0.367554066738747 
1000	 0.368397668177914 
1001	 0.373970215762408 
1002	 0.374655135455641 
1003	 0.375401486839611 
1004	 0.376117020440442 
1005	 0.376828076891837 
1006	 0.377554784294544 
1007	 0.378292751913587 
1008	 0.378997687521288 
1009	 0.37969717680433 
1010	 0.380433224285058 
1011	 0.381065696664926 
1012	 0.381648641729646 
1013	 0.382329033485338 
1014	 0.383014541189121 
1015	 0.383702795322444 
1016	 0.384409449128304 
1017	 0.385095634191588 
1018	 0.385749890935478 
1019	 0.386397990325132 
1020	 0.387079070326828 
1021	 0.387789412973793 
1022	 0.388474120663586 
1023	 0.38908758012351 
1024	 0.389690894198515 
1025	 0.39026551894405 
1026	 0.390815688326567 
1027	 0.39140165496369 
1028	 0.39202560984335 
1029	 0.392696553936599 
1030	 0.39338352752382 
1031	 0.394035930361301 
1032	 0.394689474623208 
1033	 0.395323803059327 
1034	 0.395974088930687 
1035	 0.396609704693076 
1036	 0.397266364880197 
1037	 0.397931991980211 
1038	 0.398536108411834 
1039	 0.399162132796109 
1040	 0.399787231964414 
1041	 0.400393303416021 
1042	 0.401045664780993 
1043	 0.401711332278262 
1044	 0.402365280097524 
1045	 0.403032393274309 
1046	 0.403717080254657 
1047	 0.404381846658796 
1048	 0.404987326601917 
1049	 0.405616735885733 
1050	 0.406305625992524 
1051	 0.406989152173106 
1052	 0.407705728738195 
1053	 0.408430266367766 
1054	 0.409087172173955 
1055	 0.409702253893807 
1056	 0.410313126405775 
1057	 0.410900378674019 
1058	 0.411431317453525 
1059	 0.412016268321693 
1060	 0.412628543096747 
1061	 0.413200876639747 
1062	 0.413747977275896 
1063	 0.41428425208725 
1064	 0.414799969648619 
1065	 0.415320698549644 
1066	 0.415809337704682 
1067	 0.416277106394649 
1068	 0.416786692049567 
1069	 0.417228312846219 
1070	 0.417667205726019 
1071	 0.418120256569754 
1072	 0.418607914444953 
1073	 0.419067308808255 
1074	 0.419523666406438 
1075	 0.420015973763736 
1076	 0.420511543089607 
1077	 0.420932719760293 
1078	 0.421320209250025 
1079	 0.421740861574998 
1080	 0.422090449126321 
1081	 0.422444201139231 
1082	 0.422836508822197 
1083	 0.423209594165008 
1084	 0.423584497137317 
1085	 0.423993493048036 
1086	 0.424406550512004 
1087	 0.424798933543132 
1088	 0.425242064758134 
1089	 0.425595645048542 
1090	 0.425869723933162 
1091	 0.426202299892113 
1092	 0.426550465346442 
1093	 0.426906014148984 
1094	 0.42729959716474 
1095	 0.427679716041671 
1096	 0.428046367248167 
1097	 0.428425544998905 
1098	 0.428812634351032 
1099	 0.429211427657951 
1100	 0.429617320985104 
1101	 0.430052633089557 
1102	 0.430452675416768 
1103	 0.430853288920456 
1104	 0.431218207067048 
1105	 0.431586128818172 
1106	 0.431981789990125 
1107	 0.432401949167113 
1108	 0.432855954477154 
1109	 0.433313440066089 
1110	 0.433737317581115 
1111	 0.434166499952162 
1112	 0.434583671233053 
1113	 0.435019297998046 
1114	 0.435450530647187 
1115	 0.435898116171843 
1116	 0.436363123329483 
1117	 0.436827747402408 
1118	 0.437300475349746 
1119	 0.43778117971451 
1120	 0.438245472162936 
1121	 0.438687556197927 
1122	 0.439172527818301 
1123	 0.439651692123715 
1124	 0.440106929043441 
1125	 0.440569068656665 
1126	 0.441029248402134 
1127	 0.441448088225593 
1128	 0.441899748665124 
1129	 0.442385508078734 
1130	 0.442850714591102 
1131	 0.443306443700065 
1132	 0.443771226323577 
1133	 0.444245326613043 
1134	 0.444706332653628 
1135	 0.445174689159051 
1136	 0.445613709210083 
1137	 0.446043489695675 
1138	 0.446467086728623 
1139	 0.44692786114588 
1140	 0.447413427536799 
1141	 0.447878673827608 
1142	 0.448366147343833 
1143	 0.448830911942375 
1144	 0.44927600347272 
1145	 0.449710394894356 
1146	 0.450137188762472 
1147	 0.450565564284658 
1148	 0.450965973319615 
1149	 0.451386430611671 
1150	 0.451824599038265 
1151	 0.452269633268516 
1152	 0.452678480428544 
1153	 0.453089491481831 
1154	 0.453492655785819 
1155	 0.453875190353293 
1156	 0.454265512289131 
1157	 0.454673627869682 
1158	 0.45504529665766 
1159	 0.455387980800397 
1160	 0.455747878067317 
1161	 0.456100075878154 
1162	 0.456451372481665 
1163	 0.456805344503257 
1164	 0.457164674321739 
1165	 0.457521304589377 
1166	 0.457875880533055 
1167	 0.458245914157099 
1168	 0.458619502118444 
1169	 0.458973218480398 
1170	 0.459318303251395 
1171	 0.45965813035413 
1172	 0.459994064196949 
1173	 0.460310152739633 
1174	 0.460613396133345 
1175	 0.460911787293998 
1176	 0.461178812913636 
1177	 0.461476545362846 
1178	 0.461782103626214 
1179	 0.462093829149411 
1180	 0.462434036122956 
1181	 0.462753983778784 
1182	 0.463066558008632 
1183	 0.463378981930237 
1184	 0.463688058978547 
1185	 0.463981304781484 
1186	 0.464299043927745 
1187	 0.464637344412266 
1188	 0.464949368436523 
1189	 0.465258140894835 
1190	 0.46556770855563 
1191	 0.465861349361176 
1192	 0.466162124675957 
1193	 0.466471391851929 
1194	 0.46678086210851 
1195	 0.467081696297269 
1196	 0.467391231036316 
1197	 0.467726169903333 
1198	 0.468037431546265 
1199	 0.468339718988733 
1200	 0.468636442741256 
1201	 0.468926090948274 
1202	 0.469196090573659 
1203	 0.46947973851 
1204	 0.469763676866861 
1205	 0.470052635185979 
1206	 0.470346046507352 
1207	 0.470637475474536 
1208	 0.470934977893855 
1209	 0.471226456278301 
1210	 0.471521424694108 
1211	 0.47180346022723 
1212	 0.472073250470528 
1213	 0.472347330172415 
1214	 0.47260398764246 
1215	 0.472877625905232 
1216	 0.473159800970709 
1217	 0.473457514642083 
1218	 0.473739571855557 
1219	 0.474034388269912 
1220	 0.474301731031669 
1221	 0.474542741801009 
1222	 0.474802942821303 
1223	 0.475053770186406 
1224	 0.475318874050634 
1225	 0.475611679432711 
1226	 0.475877651115013 
1227	 0.476140039532185 
1228	 0.476391848765379 
1229	 0.476614651589424 
1230	 0.47685567801346 
1231	 0.477099915404244 
1232	 0.477346427292758 
1233	 0.477597524296904 
1234	 0.477856651568222 
1235	 0.478116688757478 
1236	 0.478382134825746 
1237	 0.478640858434416 
1238	 0.478907648817313 
1239	 0.47916141336584 
1240	 0.479404866718841 
1241	 0.479648740116722 
1242	 0.479889555303314 
1243	 0.480125883093994 
1244	 0.48035581820729 
1245	 0.480587620420219 
1246	 0.480815457622059 
1247	 0.481046860229312 
1248	 0.481280718926792 
1249	 0.481513719299815 
1250	 0.481757074153473 
1251	 0.481993664325253 
1252	 0.482220144532569 
1253	 0.482447774769882 
1254	 0.482658172515275 
1255	 0.482848456394817 
1256	 0.483047583212701 
1257	 0.483234628319511 
1258	 0.483438259934316 
1259	 0.483642907078597 
1260	 0.483860441283678 
1261	 0.484111356672955 
1262	 0.484327578718779 
1263	 0.484529386680018 
1264	 0.484738962884537 
1265	 0.484933966214626 
1266	 0.485129967170336 
1267	 0.485329068189171 
1268	 0.485534372146704 
1269	 0.485746201020267 
1270	 0.485945882023636 
1271	 0.486175518258307 
1272	 0.486424152840115 
1273	 0.48668684748061 
1274	 0.486972571033618 
1275	 0.487245883399881 
1276	 0.487536251354602 
1277	 0.487812796862501 
1278	 0.488068903647702 
1279	 0.488345285977813 
1280	 0.488629983322022 
1281	 0.488914828412752 
1282	 0.489232147808635 
1283	 0.489508422663124 
1284	 0.489774318897343 
1285	 0.490015709409439 
1286	 0.490238109399965 
1287	 0.490433530661264 
1288	 0.490606808980383 
1289	 0.490761784362398 
1290	 0.490902052690327 
1291	 0.49100130631899 
1292	 0.491122377791667 
1293	 0.491247739381894 
1294	 0.491350117075721 
1295	 0.491459597297086 
1296	 0.49153305463981 
1297	 0.491561041815735 
1298	 0.4916140618312 
1299	 0.491669924490793 
1300	 0.491701820915303 
1301	 0.491736689846363 
1302	 0.491753152973824 
1303	 0.491740410772473 
1304	 0.491723260441966 
1305	 0.4917125383271 
1306	 0.491667714309987 
1307	 0.491608447477739 
1308	 0.49154205891914 
1309	 0.491487451706504 
1310	 0.491428913272797 
1311	 0.491384882116859 
1312	 0.491346634023438 
1313	 0.491314635856913 
1314	 0.491285170325814 
1315	 0.491269689406208 
1316	 0.491250154112603 
1317	 0.491275778834594 
1318	 0.491329366409662 
1319	 0.491388556339232 
1320	 0.491504215979078 
1321	 0.491579568494503 
1322	 0.491647783071288 
1323	 0.4916922186806 
1324	 0.491744345081841 
1325	 0.491804703262622 
1326	 0.491864889816987 
1327	 0.491948370216208 
1328	 0.492003042037726 
1329	 0.492052417211032 
1330	 0.492130459986501 
1331	 0.49220617648285 
1332	 0.492314583619418 
1333	 0.492469779426151 
1334	 0.492591172723996 
1335	 0.492696450433947 
1336	 0.492842516353654 
1337	 0.493005675200617 
1338	 0.49315530875369 
1339	 0.493343554426052 
1340	 0.493495524784058 
1341	 0.493607735576654 
1342	 0.493731237001312 
1343	 0.493854473004988 
1344	 0.493971899071506 
1345	 0.494092443469356 
1346	 0.494227559641057 
1347	 0.494351601073056 
1348	 0.494484076697257 
1349	 0.494583881757813 
1350	 0.494659591120705 
1351	 0.49474955077384 
1352	 0.49482643256391 
1353	 0.494912336242983 
1354	 0.495013137585393 
1355	 0.495098390898371 
1356	 0.495175108364121 
1357	 0.49525089343394 
1358	 0.495313646698279 
1359	 0.49539712392071 
1360	 0.495489772769664 
1361	 0.495577717383777 
1362	 0.495665057200951 
1363	 0.495771406965982 
1364	 0.495881894132584 
1365	 0.495996228749927 
1366	 0.496129206198441 
1367	 0.496262224034889 
1368	 0.496410161955197 
1369	 0.496538982978147 
1370	 0.496636243758985 
1371	 0.496726660016686 
1372	 0.496765881348301 
1373	 0.496782520629656 
1374	 0.496798735404323 
1375	 0.496819765690507 
1376	 0.496797629978892 
1377	 0.496757704663399 
1378	 0.496687920416532 
1379	 0.496563830141209 
1380	 0.496468953097704 
1381	 0.496360823284803 
1382	 0.4962595142448 
1383	 0.496189118679523 
1384	 0.496081368334434 
1385	 0.495985896176398 
1386	 0.495826337782105 
1387	 0.495646477050158 
1388	 0.495399988591484 
1389	 0.495088702762548 
1390	 0.494748061206178 
1391	 0.494368563326035 
1392	 0.493928810778756 
1393	 0.493446432328273 
1394	 0.492942548770797 
1395	 0.492396050878736 
1396	 0.491862877880765 
1397	 0.491349473820372 
1398	 0.490854600197144 
1399	 0.490339471228397 
1400	 0.489832593477838 
1401	 0.489311649158966 
1402	 0.488762351332568 
1403	 0.488242053384093 
1404	 0.487722146352426 
1405	 0.487223294763222 
1406	 0.48675059793991 
1407	 0.486272761372777 
1408	 0.485771895573916 
1409	 0.485336067058203 
1410	 0.484880814028856 
1411	 0.484531936860399 
1412	 0.484222515815978 
1413	 0.484034309804955 
1414	 0.48397468488237 
1415	 0.483986101524368 
1416	 0.484135933465167 
1417	 0.484350121623776 
1418	 0.48455998626197 
1419	 0.48479960828406 
1420	 0.485036701994013 
1421	 0.485237210210668 
1422	 0.485391168981727 
1423	 0.485502586041426 
1424	 0.485544790888011 
1425	 0.48551148125748 
1426	 0.485444086910436 
1427	 0.485314727139078 
1428	 0.485177830714272 
1429	 0.484987189410304 
1430	 0.484807473372343 
1431	 0.484624387667456 
1432	 0.484414016428786 
1433	 0.484174856802815 
1434	 0.483945205168997 
1435	 0.483684880806206 
1436	 0.48345825429285 
1437	 0.483256536570285 
1438	 0.483046218031267 
1439	 0.482845452565971 
1440	 0.482642448969321 
1441	 0.482440557947816 
1442	 0.482234630205564 
1443	 0.482017116848402 
1444	 0.481802065401573 
1445	 0.481585397200482 
1446	 0.481349358867056 
1447	 0.481106443300459 
1448	 0.480829396790144 
1449	 0.480502515767708 
1450	 0.480162715211466 
1451	 0.47981214345079 
1452	 0.479446447232433 
1453	 0.479058748075569 
1454	 0.478656450102423 
1455	 0.478230659108022 
1456	 0.477791853277197 
1457	 0.477310304059885 
1458	 0.476785532219952 
1459	 0.476271349281808 
1460	 0.475706489499327 
1461	 0.475180614492151 
1462	 0.474667478638234 
1463	 0.474174739619706 
1464	 0.473688827859396 
1465	 0.473230492172708 
1466	 0.472777500397135 
1467	 0.472377461169712 
1468	 0.471992322788044 
1469	 0.471675289802797 
1470	 0.471409065242893 
1471	 0.471201644266515 
1472	 0.471044411252434 
1473	 0.470954465442472 
1474	 0.47092547745641 
1475	 0.470967062565595 
1476	 0.471098779573679 
1477	 0.471283172795575 
1478	 0.471572818030333 
1479	 0.471916375566703 
1480	 0.472269456131018 
1481	 0.472683061504173 
1482	 0.473073828514638 
1483	 0.473470102405459 
1484	 0.473863069279578 
1485	 0.47427055616155 
1486	 0.474648237951983 
1487	 0.475026244349445 
1488	 0.47536434925213 
1489	 0.475692441673274 
1490	 0.475962594513712 
1491	 0.476185044756092 
1492	 0.47639308539135 
1493	 0.476546335450491 
1494	 0.476714863094132 
1495	 0.476872033805678 
1496	 0.477023888618728 
1497	 0.477173162744453 
1498	 0.477309654879734 
1499	 0.47743924873124 
1500	 0.477553957319203 
1501	 0.477655611657051 
1502	 0.477746383939797 
1503	 0.477819247611871 
1504	 0.477891093547147 
1505	 0.47796606780544 
1506	 0.478037677353018 
1507	 0.478108645587597 
1508	 0.478163522510106 
1509	 0.478196844426067 
1510	 0.478223952793763 
1511	 0.4782383043367 
1512	 0.478273794289313 
1513	 0.478317304876246 
1514	 0.478340828996261 
1515	 0.478396339322447 
1516	 0.478444063842677 
1517	 0.47847414184857 
1518	 0.478500114081012 
1519	 0.478522855594336 
1520	 0.478519604588271 
1521	 0.478541070883185 
1522	 0.478573974562499 
1523	 0.478606483471895 
1524	 0.478641547972693 
1525	 0.478689721489666 
1526	 0.478736458908825 
1527	 0.478804980053443 
1528	 0.478906629726676 
1529	 0.478976059740941 
1530	 0.479047534009678 
1531	 0.479115041691615 
1532	 0.479156500849976 
1533	 0.479216311209793 
1534	 0.479289514750575 
1535	 0.479359238059725 
1536	 0.479427447847458 
1537	 0.47949980051834 
1538	 0.479584392291812 
1539	 0.47965303883479 
1540	 0.479712771411249 
1541	 0.479777350237214 
1542	 0.479855816916539 
1543	 0.479899947758844 
1544	 0.479920722530925 
1545	 0.47994579673765 
1546	 0.479934680736314 
1547	 0.479939880057131 
1548	 0.47999222601158 
1549	 0.480087783325522 
1550	 0.480197477859453 
1551	 0.480289203768559 
1552	 0.480379004556073 
1553	 0.480459666856588 
1554	 0.480570163750805 
1555	 0.480694342493404 
1556	 0.480786432338935 
1557	 0.4808774742671 
1558	 0.480943937118162 
1559	 0.480984922504562 
1560	 0.481044194102446 
1561	 0.481107048134424 
1562	 0.481174215778496 
1563	 0.481238161589236 
1564	 0.481316975262689 
1565	 0.481412770213481 
1566	 0.481494635526987 
1567	 0.481575545208274 
1568	 0.481664971977403 
1569	 0.481756447433713 
1570	 0.481832190264287 
1571	 0.481916291283335 
1572	 0.481987466924689 
1573	 0.482031496883623 
1574	 0.482093023963452 
1575	 0.482168008995836 
1576	 0.482224217716368 
1577	 0.482279403249728 
1578	 0.482319598032264 
1579	 0.482335610189948 
1580	 0.482366266261728 
1581	 0.48239044133682 
1582	 0.482427906455582 
1583	 0.482476171675523 
1584	 0.482526823593186 
1585	 0.482585935279239 
1586	 0.482638591364914 
1587	 0.482704204223085 
1588	 0.482749620540188 
1589	 0.482793395445987 
1590	 0.482813319395525 
1591	 0.482795931561532 
1592	 0.482796365935484 
1593	 0.482776967106277 
1594	 0.482782889760282 
1595	 0.4828121859843 
1596	 0.482843477467865 
1597	 0.482902963970122 
1598	 0.482933032607852 
1599	 0.482946297347812 
1600	 0.48296733560863 
1601	 0.48297669323648 
1602	 0.482985936486222 
1603	 0.482985524224666 
1604	 0.483011492344795 
1605	 0.483043087032369 
1606	 0.483082830211415 
1607	 0.483148994656547 
1608	 0.48322740768537 
1609	 0.483282550424352 
1610	 0.483325114948931 
1611	 0.483313149112951 
1612	 0.483302039214624 
1613	 0.483292051640905 
1614	 0.483254722066639 
1615	 0.483279515551951 
1616	 0.483322883103641 
1617	 0.483354308658206 
1618	 0.483409538817708 
1619	 0.483420277389728 
1620	 0.483396898620574 
1621	 0.4833820456827 
1622	 0.483345080776219 
1623	 0.483311996969054 
1624	 0.483273733352571 
1625	 0.48325812434536 
1626	 0.483240861791018 
1627	 0.483227191974954 
1628	 0.483240221300991 
1629	 0.483232747153675 
1630	 0.483201041430109 
1631	 0.483201226001067 
1632	 0.483222409445687 
1633	 0.483223165139526 
1634	 0.48323029098835 
1635	 0.483222379203039 
1636	 0.483197709412482 
1637	 0.483177158152152 
1638	 0.483152969999126 
1639	 0.483132902906361 
1640	 0.483112800349376 
1641	 0.483088314069259 
1642	 0.483059685772748 
1643	 0.483041883176096 
1644	 0.483014957763664 
1645	 0.483015702310716 
1646	 0.48305249953791 
1647	 0.483050740704983 
1648	 0.483052459081916 
1649	 0.483029672018227 
1650	 0.482961806280571 
1651	 0.482936831752835 
1652	 0.482931790725323 
1653	 0.482902867030643 
1654	 0.482881720157074 
1655	 0.482848342780511 
1656	 0.482789067596478 
1657	 0.482743215112191 
1658	 0.48270046352943 
1659	 0.482665455033815 
1660	 0.482625126236258 
1661	 0.482602296014174 
1662	 0.482608251236645 
1663	 0.482586989937433 
1664	 0.482562203634024 
1665	 0.482531641042875 
1666	 0.482481225915392 
1667	 0.482445550806041 
1668	 0.482429412084314 
1669	 0.48237917097394 
1670	 0.482302539900505 
1671	 0.482254338813029 
1672	 0.482194632530215 
1673	 0.482151996142251 
1674	 0.482140567648061 
1675	 0.48211677245993 
1676	 0.482074160058243 
1677	 0.482065758487707 
1678	 0.482101415562147 
1679	 0.48208645948794 
1680	 0.482067186069521 
1681	 0.482034392052843 
1682	 0.48195062242899 
1683	 0.481907329060017 
1684	 0.481877002856764 
1685	 0.481859509580697 
1686	 0.481872480845627 
1687	 0.481853060764416 
1688	 0.481831692922349 
1689	 0.481805832840062 
1690	 0.481754365530113 
1691	 0.481717103311517 
1692	 0.481704080671794 
1693	 0.481656647739022 
1694	 0.481577624278438 
1695	 0.481527072397437 
1696	 0.481472831837935 
1697	 0.481423168905685 
1698	 0.481398309374773 
1699	 0.481357325114038 
1700	 0.481296814829533 
1701	 0.481254069753202 
1702	 0.481227626840033 
1703	 0.481180277744521 
1704	 0.481128017155389 
1705	 0.481075988713939 
1706	 0.481003001055039 
1707	 0.480960463289219 
1708	 0.48095242448829 
1709	 0.480900725051057 
1710	 0.480829153690044 
1711	 0.480774792094797 
1712	 0.480700078976029 
1713	 0.480646307181385 
1714	 0.480627949247452 
1715	 0.480584455349609 
1716	 0.480525534200452 
1717	 0.48047328706084 
1718	 0.480432693100523 
1719	 0.480364774529172 
1720	 0.480290950462318 
1721	 0.480192376501452 
1722	 0.480057128724758 
1723	 0.479944880908405 
1724	 0.479815576897301 
1725	 0.479719623621074 
1726	 0.479646477531511 
1727	 0.479571035269554 
1728	 0.47952906026042 
1729	 0.479439532521971 
1730	 0.479334489698926 
1731	 0.479220004099335 
1732	 0.47907383558763 
1733	 0.478939808254292 
1734	 0.478804716485362 
1735	 0.478663918619569 
1736	 0.478514771996655 
1737	 0.4783706985709 
1738	 0.478224295816494 
1739	 0.478087775487231 
1740	 0.477953571644983 
1741	 0.477834109456629 
1742	 0.477740477319276 
1743	 0.477615121836669 
1744	 0.47747879732433 
1745	 0.477344233511279 
1746	 0.477175394802662 
1747	 0.477083569181139 
1748	 0.477005290173619 
1749	 0.476891588084661 
1750	 0.476786088195739 
1751	 0.476641281512754 
1752	 0.47647738399037 
1753	 0.476322434602326 
1754	 0.476168631778899 
1755	 0.476037749294107 
1756	 0.475887599569114 
1757	 0.475732248609539 
1758	 0.475616144019114 
1759	 0.475493671557007 
1760	 0.475367812125651 
1761	 0.475253959650984 
1762	 0.475110198232144 
1763	 0.474923312563591 
1764	 0.474756248802723 
1765	 0.474654033704204 
1766	 0.474547388904016 
1767	 0.474410517523232 
1768	 0.474288281607413 
1769	 0.474153695588804 
1770	 0.474015595898145 
1771	 0.473940206133087 
1772	 0.473844400836264 
1773	 0.473686091725038 
1774	 0.473556691394987 
1775	 0.473413936828546 
1776	 0.473280114626384 
1777	 0.473224515374734 
1778	 0.473147433265972 
1779	 0.473052975734532 
1780	 0.472982215381994 
1781	 0.472901743236148 
1782	 0.472797925842377 
1783	 0.472674436700675 
1784	 0.472567480231375 
1785	 0.472426197104033 
1786	 0.47230523668143 
1787	 0.472224205710654 
1788	 0.472113773261186 
1789	 0.471996590450528 
1790	 0.471885257376039 
1791	 0.471758978667146 
1792	 0.471643875656818 
1793	 0.471547820254867 
1794	 0.471424681199445 
1795	 0.471306221760135 
1796	 0.471145827837324 
1797	 0.470929861746344 
1798	 0.470749883060355 
1799	 0.470559870414322 
1800	 0.470390025032143 
1801	 0.473748685853918 
1802	 0.473716271818903 
1803	 0.473704056024966 
1804	 0.473665405380461 
1805	 0.473629930645573 
1806	 0.473604174917224 
1807	 0.473571397380538 
1808	 0.473513795158619 
1809	 0.473447967278363 
1810	 0.473364364534516 
1811	 0.473275308131238 
1812	 0.473130245505774 
1813	 0.473007441581738 
1814	 0.472841552444947 
1815	 0.472573490252576 
1816	 0.472345453871951 
1817	 0.472116573385514 
1818	 0.471833791083042 
1819	 0.471597586361639 
1820	 0.471414139527462 
1821	 0.471207725246308 
1822	 0.470928191457622 
1823	 0.470637417064948 
1824	 0.47030547783157 
1825	 0.469901282337037 
1826	 0.469495847782626 
1827	 0.469063884298555 
1828	 0.468572824472399 
1829	 0.468022702996265 
1830	 0.467462721230844 
1831	 0.466872982621527 
1832	 0.466239949358149 
1833	 0.465564053749066 
1834	 0.464850140760832 
1835	 0.464108116985356 
1836	 0.463387850357695 
1837	 0.462677698681563 
1838	 0.461965321329977 
1839	 0.461284360024515 
1840	 0.460614602946423 
1841	 0.459953647286903 
1842	 0.459344927538629 
1843	 0.458845241307785 
1844	 0.458439015197662 
1845	 0.45805217020997 
1846	 0.457700739943216 
1847	 0.45739988578255 
1848	 0.457150843671021 
1849	 0.456998936644408 
1850	 0.45692843389845 
1851	 0.456963480573906 
1852	 0.457061100280174 
1853	 0.457206482880888 
1854	 0.457368115125343 
1855	 0.45756856231371 
1856	 0.457780322624926 
1857	 0.457986156070736 
1858	 0.458215699913045 
1859	 0.458434362324347 
1860	 0.458652622778213 
1861	 0.458867223746272 
1862	 0.45909521800523 
1863	 0.45933732989128 
1864	 0.459581391554155 
1865	 0.459872540799171 
1866	 0.460198390241151 
1867	 0.460497667623424 
1868	 0.460837314308609 
1869	 0.461164471158551 
1870	 0.461437009874405 
1871	 0.461694263449047 
1872	 0.46194456594317 
1873	 0.462148828165969 
1874	 0.4623062062405 
1875	 0.462450380332588 
1876	 0.462529248919936 
1877	 0.462522592801981 
1878	 0.462460932938211 
1879	 0.462311024949695 
1880	 0.462082594243047 
1881	 0.461760600232792 
1882	 0.461404474040588 
1883	 0.460991386648133 
1884	 0.460489371734959 
1885	 0.459945829273819 
1886	 0.459371471066801 
1887	 0.458692555708119 
1888	 0.457980043905349 
1889	 0.457216404390124 
1890	 0.456373299918944 
1891	 0.455476729902065 
1892	 0.454485989353541 
1893	 0.453491765141067 
1894	 0.452464096308164 
1895	 0.451391913232089 
1896	 0.450252585163139 
1897	 0.449099675943081 
1898	 0.44788803924095 
1899	 0.446675003548191 
1900	 0.445498054697335 
1901	 0.444319916291352 
1902	 0.443165629113997 
1903	 0.442036063864559 
1904	 0.440908232887262 
1905	 0.439786868971194 
1906	 0.438702056038702 
1907	 0.437617818121922 
1908	 0.436522520418122 
1909	 0.435436602249103 
1910	 0.434334633852212 
1911	 0.433251465811443 
1912	 0.432160929253043 
1913	 0.431086495796142 
1914	 0.430016825350873 
1915	 0.428976286541011 
1916	 0.427940924595653 
1917	 0.426929249403716 
1918	 0.425971494024383 
1919	 0.425047076311844 
1920	 0.424165661222769 
1921	 0.42332778022923 
1922	 0.422519401235778 
1923	 0.421744256625831 
1924	 0.421001594076457 
1925	 0.420286080755162 
1926	 0.419623725981467 
1927	 0.419003273687371 
1928	 0.418405690961071 
1929	 0.417865934666327 
1930	 0.417380214103189 
1931	 0.416932919879492 
1932	 0.41653070760091 
1933	 0.416196329141008 
1934	 0.415921781527749 
1935	 0.415704564211357 
1936	 0.415560888503438 
1937	 0.415459221905078 
1938	 0.415422008550718 
1939	 0.415402584028597 
1940	 0.415432441400307 
1941	 0.415476012660731 
1942	 0.415549540503342 
1943	 0.415675672872887 
1944	 0.415799151779306 
1945	 0.415922863893853 
1946	 0.416060795373311 
1947	 0.416207599505319 
1948	 0.416355617688233 
1949	 0.416536411890498 
1950	 0.41668358678929 
1951	 0.416824982519425 
1952	 0.416935971411198 
1953	 0.417046336645373 
1954	 0.417165214350049 
1955	 0.417273020674468 
1956	 0.417370827001904 
1957	 0.417472222167454 
1958	 0.417551318060111 
1959	 0.417657693299096 
1960	 0.417783859467407 
1961	 0.417908653030603 
1962	 0.418039674519811 
1963	 0.418176844506242 
1964	 0.418325869403311 
1965	 0.418464825655734 
1966	 0.418608181351875 
1967	 0.418733037487963 
1968	 0.418854341652442 
1969	 0.418950254262341 
1970	 0.419072848014962 
1971	 0.419204777948894 
1972	 0.419338978209301 
1973	 0.419481774564645 
1974	 0.419625663449977 
1975	 0.419768788646971 
1976	 0.419913206492034 
1977	 0.420081159542838 
1978	 0.420249640561549 
1979	 0.42041427372768 
1980	 0.420597874556868 
1981	 0.42077371464629 
1982	 0.420953440404498 
1983	 0.421121045272307 
1984	 0.421281656521159 
1985	 0.421446566635264 
1986	 0.421604857739293 
1987	 0.421761978233363 
1988	 0.421917225954957 
1989	 0.422084052312205 
1990	 0.422251785870371 
1991	 0.422418626692864 
1992	 0.422581580537879 
1993	 0.422766714674474 
1994	 0.422911543894739 
1995	 0.423012220670615 
1996	 0.42315337333477 
1997	 0.423281915423933 
1998	 0.423436357323955 
1999	 0.423623928827535 
2000	 0.423813574285188 
2001	 0.424003245629888 
2002	 0.424216617499081 
2003	 0.424465032389626 
2004	 0.424679282834464 
2005	 0.42489817884394 
2006	 0.425121290241791 
2007	 0.425345854638963 
2008	 0.425546434374082 
2009	 0.425783807003478 
2010	 0.426047168233408 
2011	 0.426302230444963 
2012	 0.42658665673454 
2013	 0.42684598609972 
2014	 0.427099411337628 
2015	 0.427330293741616 
2016	 0.427564433360932 
2017	 0.427796900650404 
2018	 0.428055528969652 
2019	 0.428341435847774 
2020	 0.428606331627936 
2021	 0.428895909550764 
2022	 0.429146078334411 
2023	 0.429366016483763 
2024	 0.429593893045993 
2025	 0.429813107078089 
2026	 0.430017020170349 
2027	 0.43022460710703 
2028	 0.430402036645639 
2029	 0.430577502029348 
2030	 0.430728222746753 
2031	 0.430898509420197 
2032	 0.431057925419949 
2033	 0.431249107591995 
2034	 0.431468057345388 
2035	 0.431666706418129 
2036	 0.431882812098071 
2037	 0.432080263567446 
2038	 0.432270943356855 
2039	 0.432437999658937 
2040	 0.432603074036786 
2041	 0.432736790435701 
2042	 0.432846906941977 
2043	 0.432954026804821 
2044	 0.433058707996813 
2045	 0.433156930755787 
2046	 0.433257946048983 
2047	 0.433353812928074 
2048	 0.433451454615821 
2049	 0.433549142239221 
2050	 0.433646161015658 
2051	 0.433743560166596 
2052	 0.433836921717097 
2053	 0.433916323987292 
2054	 0.434019399897353 
2055	 0.434145383914438 
2056	 0.434255909969179 
2057	 0.434351387834795 
2058	 0.434459696638209 
2059	 0.434531199218438 
2060	 0.434550282228279 
2061	 0.434612697961643 
2062	 0.434674848491941 
2063	 0.434751747852183 
2064	 0.434849761288273 
2065	 0.434944011139337 
2066	 0.435059431553799 
2067	 0.43515219012143 
2068	 0.435246213227243 
2069	 0.43531514578306 
2070	 0.435389892886192 
2071	 0.435454595882391 
2072	 0.435506396676117 
2073	 0.435562349637499 
2074	 0.435592335276534 
2075	 0.435570336406925 
2076	 0.435602360685884 
2077	 0.435639506455502 
2078	 0.435693240813767 
2079	 0.435797512969787 
2080	 0.435869675269455 
2081	 0.435947961565913 
2082	 0.435998953262664 
2083	 0.436028199657052 
2084	 0.436044322958519 
2085	 0.436065392194314 
2086	 0.436072691251096 
2087	 0.436078905559635 
2088	 0.436084179695876 
2089	 0.436092873777779 
2090	 0.436091386878876 
2091	 0.436096575139742 
2092	 0.436108941111757 
2093	 0.43612359056911 
2094	 0.436152001943271 
2095	 0.436154938699191 
2096	 0.436152583094125 
2097	 0.436144450607331 
2098	 0.436111251951948 
2099	 0.436076269955106 
2100	 0.436055999249578 
2101	 0.436040094021645 
2102	 0.436036502777372 
2103	 0.436033942717278 
2104	 0.43605609783713 
2105	 0.436093725932062 
2106	 0.4361459678602 
2107	 0.436222308923586 
2108	 0.436299301066476 
2109	 0.436394752050738 
2110	 0.436483694502119 
2111	 0.436583460611571 
2112	 0.436669706346965 
2113	 0.436733811575916 
2114	 0.436831292192645 
2115	 0.43689844799292 
2116	 0.43694094499585 
2117	 0.43702087831678 
2118	 0.437096997558204 
2119	 0.437203587572948 
2120	 0.437347805438186 
2121	 0.437483054554885 
2122	 0.43764903172687 
2123	 0.437772099702165 
2124	 0.437902441806856 
2125	 0.437987860990178 
2126	 0.438029185171013 
2127	 0.438064304133104 
2128	 0.438064728294655 
2129	 0.438065138026422 
2130	 0.438055949391789 
2131	 0.438046616713967 
2132	 0.438000322518484 
2133	 0.437948765614436 
2134	 0.437847598635238 
2135	 0.437708330786504 
2136	 0.437543424008868 
2137	 0.437344053157207 
2138	 0.437125275620872 
2139	 0.436871840917611 
2140	 0.436605673868972 
2141	 0.436317114463328 
2142	 0.436011083288286 
2143	 0.435674651095035 
2144	 0.435342174785406 
2145	 0.434998721750993 
2146	 0.434643326407593 
2147	 0.434285547285868 
2148	 0.433924736598918 
2149	 0.43352122420319 
2150	 0.433086300106625 
2151	 0.432652917051043 
2152	 0.432201969448533 
2153	 0.431725901450985 
2154	 0.431233415103965 
2155	 0.430736129904784 
2156	 0.430206327284178 
2157	 0.429684435722872 
2158	 0.429190221792332 
2159	 0.42864371070073 
2160	 0.42807342719808 
2161	 0.427478380278312 
2162	 0.426820860655142 
2163	 0.426191097777571 
2164	 0.425559920743056 
2165	 0.424911809975291 
2166	 0.424301792049696 
2167	 0.423716959752456 
2168	 0.42312713292363 
2169	 0.422581095864852 
2170	 0.421955910046558 
2171	 0.421306815598584 
2172	 0.420635108959309 
2173	 0.419901904327308 
2174	 0.419187278807252 
2175	 0.418488963561469 
2176	 0.417745707517982 
2177	 0.416962563830324 
2178	 0.41618784906222 
2179	 0.415381029192168 
2180	 0.41458617610327 
2181	 0.413803866030612 
2182	 0.413015268838969 
2183	 0.412220803496292 
2184	 0.411433106596315 
2185	 0.410614282446611 
2186	 0.409770653687077 
2187	 0.408947996524607 
2188	 0.40810099905037 
2189	 0.407288276591116 
2190	 0.406498054352597 
2191	 0.40572073149573 
2192	 0.404937558783974 
2193	 0.404202558084786 
2194	 0.403496312047159 
2195	 0.402815998941725 
2196	 0.402160238267667 
2197	 0.401546741784879 
2198	 0.400966558113255 
2199	 0.400421352852727 
2200	 0.399914546748297 
2201	 0.399446786208829 
2202	 0.399027706599608 
2203	 0.398613674743826 
2204	 0.398256571051327 
2205	 0.397950556458657 
2206	 0.39766167290578 
2207	 0.39738673881489 
2208	 0.397197795107616 
2209	 0.397050003473542 
2210	 0.396972742189442 
2211	 0.397000763955505 
2212	 0.397015279011236 
2213	 0.397078828162397 
2214	 0.397140020214178 
2215	 0.397237261853486 
2216	 0.397305248890739 
2217	 0.397414242851343 
2218	 0.397444353088091 
2219	 0.39742952317402 
2220	 0.39739032432697 
2221	 0.397292078272101 
2222	 0.397187673603867 
2223	 0.397061015071479 
2224	 0.396885925052367 
2225	 0.39670307426832 
2226	 0.396493977350499 
2227	 0.396252184657068 
2228	 0.395999112865132 
2229	 0.395691569053834 
2230	 0.395325592973728 
2231	 0.394953798569322 
2232	 0.394557588693675 
2233	 0.394129989081646 
2234	 0.393685560077384 
2235	 0.393197540092174 
2236	 0.392650576500971 
2237	 0.392105337593354 
2238	 0.391542323501171 
2239	 0.390952974291666 
2240	 0.390377646555469 
2241	 0.389724645666564 
2242	 0.38902898784179 
2243	 0.388273228321903 
2244	 0.387445327509887 
2245	 0.386581322061634 
2246	 0.385688849468176 
2247	 0.384713746238369 
2248	 0.383717943577295 
2249	 0.382673440286887 
2250	 0.381611815387749 
2251	 0.380469467544348 
2252	 0.379431670032513 
2253	 0.378395207160442 
2254	 0.377410026032944 
2255	 0.376481195349984 
2256	 0.375578377469805 
2257	 0.374657863303086 
2258	 0.373864905514013 
2259	 0.373130302370713 
2260	 0.372507015788217 
2261	 0.371952704949042 
2262	 0.371549263834518 
2263	 0.371281643874355 
2264	 0.37109808653763 
2265	 0.371060438101419 
2266	 0.371087176877967 
2267	 0.371187502089792 
2268	 0.371391644283227 
2269	 0.371698418491849 
2270	 0.372106989942748 
2271	 0.372591974550814 
2272	 0.373126596735271 
2273	 0.373730409836104 
2274	 0.374412667525085 
2275	 0.375133962439375 
2276	 0.375939671361252 
2277	 0.376744985857529 
2278	 0.377581693693364 
2279	 0.378458298591275 
2280	 0.379387887516743 
2281	 0.380303177212847 
2282	 0.381264430401151 
2283	 0.38219349992035 
2284	 0.383124279878597 
2285	 0.384029938519988 
2286	 0.384938596665702 
2287	 0.385798314753487 
2288	 0.386624846588027 
2289	 0.387411762105976 
2290	 0.388172472798449 
2291	 0.388894226560848 
2292	 0.389567816900534 
2293	 0.390212612519277 
2294	 0.390809002075205 
2295	 0.391381166093299 
2296	 0.391898234185645 
2297	 0.392447532452325 
2298	 0.392930668918751 
2299	 0.39342197606355 
2300	 0.393928525959468 
2301	 0.394405599674093 
2302	 0.394932327401969 
2303	 0.395463543502924 
2304	 0.395965024264429 
2305	 0.396485617954894 
2306	 0.396958832324095 
2307	 0.397394106300334 
2308	 0.397844225115095 
2309	 0.398291053591289 
2310	 0.398699752246252 
2311	 0.399109728065407 
2312	 0.399466213441799 
2313	 0.399754768869653 
2314	 0.400059308417027 
2315	 0.400340510186292 
2316	 0.400636348015969 
2317	 0.40095536297931 
2318	 0.401212121425771 
2319	 0.40144319032174 
2320	 0.401662863761783 
2321	 0.401810066803656 
2322	 0.402008611790016 
2323	 0.402273271663296 
2324	 0.402452065367592 
2325	 0.402613823689755 
2326	 0.402735301849641 
2327	 0.40281231865209 
2328	 0.402810705553065 
2329	 0.4028014663847 
2330	 0.402812049356221 
2331	 0.402848950116563 
2332	 0.402900336321209 
2333	 0.402958128283505 
2334	 0.40304339662209 
2335	 0.402994798953171 
2336	 0.402932799299872 
2337	 0.402926811784328 
2338	 0.402776484065422 
2339	 0.402607775603988 
2340	 0.402491095063638 
2341	 0.402318286734445 
2342	 0.402128812185036 
2343	 0.401937526117137 
2344	 0.401713527027311 
2345	 0.401443995428914 
2346	 0.401087628746156 
2347	 0.400773434865145 
2348	 0.400445291461722 
2349	 0.400130971764795 
2350	 0.399841257189309 
2351	 0.399519047830903 
2352	 0.399180061056067 
2353	 0.398829199932841 
2354	 0.398444160603922 
2355	 0.398069250537705 
2356	 0.397715186284615 
2357	 0.397366029408747 
2358	 0.39698638891318 
2359	 0.396654127966039 
2360	 0.396385163511326 
2361	 0.396007522460929 
2362	 0.39564572343292 
2363	 0.395209650223096 
2364	 0.394656101121827 
2365	 0.394114593000162 
2366	 0.393550895443734 
2367	 0.392959849519347 
2368	 0.392265886692493 
2369	 0.391696523924528 
2370	 0.391211779038899 
2371	 0.390660889957897 
2372	 0.390090562982874 
2373	 0.389537508307883 
2374	 0.388895888316298 
2375	 0.388213111993433 
2376	 0.387570762135958 
2377	 0.386924039455521 
2378	 0.386263843710087 
2379	 0.385504951791036 
2380	 0.384688502626145 
2381	 0.383888411888385 
2382	 0.383023654486058 
2383	 0.382190747915735 
2384	 0.381461971495064 
2385	 0.380738886028883 
2386	 0.379980098685414 
2387	 0.37921271819912 
2388	 0.37843854603097 
2389	 0.377635099244548 
2390	 0.376828859396936 
2391	 0.37609883674715 
2392	 0.375311766872002 
2393	 0.374521856127369 
2394	 0.373874951473854 
2395	 0.37314725840192 
2396	 0.372366901474091 
2397	 0.371606172123305 
2398	 0.370752739359331 
2399	 0.369895901949438 
2400	 0.369151803587425 
2401	 0.368430723931517 
2402	 0.367703176485982 
2403	 0.367024616962639 
2404	 0.36625121726021 
2405	 0.365486071722121 
2406	 0.364856606768944 
2407	 0.364213877721216 
2408	 0.363636476704864 
2409	 0.363112997755805 
2410	 0.362471052554794 
2411	 0.361788161764807 
2412	 0.361119975597822 
2413	 0.360433924207221 
2414	 0.35977319651021 
2415	 0.359045780790835 
2416	 0.358338139659623 
2417	 0.357604709615366 
2418	 0.356948970802852 
2419	 0.356299161199228 
2420	 0.355748969913343 
2421	 0.355320042876339 
2422	 0.354790132227899 
2423	 0.354265692248805 
2424	 0.353740158233789 
2425	 0.353164548721527 
2426	 0.352607601530703 
2427	 0.352118903433465 
2428	 0.351633292750906 
2429	 0.35111971577893 
2430	 0.35061045022781 
2431	 0.350104925916041 
2432	 0.349541638667073 
2433	 0.348938725976516 
2434	 0.348413675045191 
2435	 0.347898650006604 
2436	 0.347395799793713 
2437	 0.34702131844111 
2438	 0.346453849296296 
2439	 0.345751501506111 
2440	 0.345149178658861 
2441	 0.344437218383772 
2442	 0.343836258583877 
2443	 0.343452891261413 
2444	 0.342895128803337 
2445	 0.34222622134927 
2446	 0.341599309921736 
2447	 0.34090463674117 
2448	 0.340214955623603 
2449	 0.339590003276259 
2450	 0.338980194081027 
2451	 0.338317087224291 
2452	 0.337656199467816 
2453	 0.337011160265021 
2454	 0.336427055836891 
2455	 0.335844756434267 
2456	 0.335369932665141 
2457	 0.335005861372141 
2458	 0.33461507122706 
2459	 0.33431125875354 
2460	 0.333878886745917 
2461	 0.333403419398256 
2462	 0.332934740568666 
2463	 0.332282565771453 
2464	 0.331872475877337 
2465	 0.331697827056953 
2466	 0.33131888654523 
2467	 0.33095216800892 
2468	 0.330605612965094 
2469	 0.330119413700455 
2470	 0.329753360405279 
2471	 0.329303022551863 
2472	 0.328975798733029 
2473	 0.328830271287448 
2474	 0.328637813318649 
2475	 0.328655045930076 
2476	 0.328480715150662 
2477	 0.328081372283654 
2478	 0.327732132212117 
2479	 0.327308567250099 
2480	 0.32694693013333 
2481	 0.326595255846976 
2482	 0.326229027488621 
2483	 0.325858601068046 
2484	 0.325495585898512 
2485	 0.324981962584711 
2486	 0.324237400602328 
2487	 0.323677391812199 
2488	 0.323206821810768 
2489	 0.322624544574211 
2490	 0.322038557312303 
2491	 0.321402370059607 
2492	 0.320825482594757 
2493	 0.320310363286022 
2494	 0.319891186654012 
2495	 0.319413341873685 
2496	 0.318529713802322 
2497	 0.317625482308396 
2498	 0.31711709307036 
2499	 0.316647999314684 
2500	 0.316099765816469 
