Wavelength	LMW7 profile 200012.asd
350	 7.29621956760601E-02 
351	 7.07617122057493E-02 
352	 0.061352380324161 
353	 5.04250525372162E-02 
354	 6.61274473861186E-02 
355	 0.065635292255589 
356	 5.89905899104194E-02 
357	 6.29976476038597E-02 
358	 6.47207596750928E-02 
359	 0.062063107594423 
360	 5.98623643653139E-02 
361	 6.53473824834629E-02 
362	 6.15741836325808E-02 
363	 6.03844333876374E-02 
364	 6.50373010834419E-02 
365	 0.059652748685717 
366	 6.01918003477485E-02 
367	 0.063297213090443 
368	 0.062883511492503 
369	 6.42134107616492E-02 
370	 6.45368418817928E-02 
371	 6.42112885480691E-02 
372	 6.55708653001382E-02 
373	 6.67735900917236E-02 
374	 6.66697425807686E-02 
375	 6.56672536920923E-02 
376	 6.67261216523989E-02 
377	 6.58597747021413E-02 
378	 0.06558276849173 
379	 6.86402784096451E-02 
380	 7.05134268358736E-02 
381	 7.07634046071864E-02 
382	 7.14963649025754E-02 
383	 7.57788979108597E-02 
384	 0.074395311440636 
385	 7.33595064783448E-02 
386	 7.65554558792763E-02 
387	 8.00024305292863E-02 
388	 8.10833437118171E-02 
389	 8.12608253886817E-02 
390	 8.28197977143356E-02 
391	 8.41334879867179E-02 
392	 8.64298747564427E-02 
393	 8.95364108114007E-02 
394	 9.20481268440295E-02 
395	 9.36511615203021E-02 
396	 9.60641955220224E-02 
397	 9.98309739808282E-02 
398	 0.102442468294494 
399	 0.104688663585375 
400	 0.10761091983801 
401	 0.111665383325582 
402	 0.11337475216553 
403	 0.115436505605407 
404	 0.118376605851838 
405	 0.120236878962268 
406	 0.123170160203878 
407	 0.126685587754519 
408	 0.129739783929215 
409	 0.131189012222882 
410	 0.13268802788803 
411	 0.134926571634314 
412	 0.137822763341447 
413	 0.139681127142518 
414	 0.140787652568944 
415	 0.141746923959667 
416	 0.143314452608691 
417	 0.143350065711973 
418	 0.143408701551849 
419	 0.144743613636 
420	 0.144433943762217 
421	 0.144184607269834 
422	 0.144452999591127 
423	 0.144717026747069 
424	 0.143468097840715 
425	 0.142466735558158 
426	 0.14234494576267 
427	 0.140963671450848 
428	 0.139375140281607 
429	 0.138003442003219 
430	 0.136906325409579 
431	 0.135245914787081 
432	 0.13379406927698 
433	 0.132937008619908 
434	 0.132597046752321 
435	 0.132403735030137 
436	 0.132334160925067 
437	 0.13257241458865 
438	 0.13363678754895 
439	 0.135089113103529 
440	 0.136836505830007 
441	 0.13892792494523 
442	 0.141099383246905 
443	 0.143284653020634 
444	 0.145584227216561 
445	 0.148316174489639 
446	 0.150634544448791 
447	 0.153047157014442 
448	 0.156095770590436 
449	 0.158711793560515 
450	 0.161464301979456 
451	 0.164319625927635 
452	 0.166734040658774 
453	 0.169268166042301 
454	 0.171873936184192 
455	 0.174459824963801 
456	 0.177153374162649 
457	 0.179451865045871 
458	 0.18145948003057 
459	 0.18355135452335 
460	 0.185829331579529 
461	 0.187839290216447 
462	 0.189484397623848 
463	 0.191222070852181 
464	 0.193041629581697 
465	 0.194716390812089 
466	 0.196129889152139 
467	 0.197919012272743 
468	 0.199394856608503 
469	 0.200556387271091 
470	 0.201957202147546 
471	 0.203309240892901 
472	 0.204629761629849 
473	 0.20595059553685 
474	 0.207231167997777 
475	 0.208351763450401 
476	 0.209436076840917 
477	 0.210681849863221 
478	 0.211949844999857 
479	 0.213154924914025 
480	 0.214267351120564 
481	 0.21531913200286 
482	 0.216485026789319 
483	 0.217600620099821 
484	 0.218524954781807 
485	 0.219611782577928 
486	 0.220761368695091 
487	 0.221938945271497 
488	 0.223151503863876 
489	 0.223938864510634 
490	 0.224856889716037 
491	 0.226194833245888 
492	 0.227158819191517 
493	 0.228047053828358 
494	 0.229038439165808 
495	 0.230223159872177 
496	 0.231381008877855 
497	 0.232413490702326 
498	 0.233327248414438 
499	 0.234255669488211 
500	 0.235195592405135 
501	 0.236155453937344 
502	 0.237141114807184 
503	 0.238150710992734 
504	 0.239261516962913 
505	 0.24031082425723 
506	 0.240958496829081 
507	 0.241911926765024 
508	 0.24290278978193 
509	 0.243722733895825 
510	 0.244893651019498 
511	 0.245876594115144 
512	 0.246696330324215 
513	 0.247650808383425 
514	 0.248521373018862 
515	 0.249401695180088 
516	 0.250339196991531 
517	 0.251247282489871 
518	 0.252161153461821 
519	 0.253020502375816 
520	 0.253801142827752 
521	 0.254815468543241 
522	 0.2558222052612 
523	 0.256719853084205 
524	 0.257586449222704 
525	 0.258401038233291 
526	 0.2592366318261 
527	 0.260153484852551 
528	 0.261150714478973 
529	 0.261918211178803 
530	 0.262596983733973 
531	 0.263581543053328 
532	 0.264451429894252 
533	 0.26536583764318 
534	 0.266371476108549 
535	 0.267078589954134 
536	 0.267942813015307 
537	 0.26888598791622 
538	 0.269669289665313 
539	 0.270512565314717 
540	 0.271376388423377 
541	 0.272242560599952 
542	 0.27314842993708 
543	 0.274017413581584 
544	 0.274861725873478 
545	 0.275710059881713 
546	 0.276555448351521 
547	 0.277344832702847 
548	 0.278169191702779 
549	 0.279217839409707 
550	 0.280102535450904 
551	 0.280914726611932 
552	 0.281796336139468 
553	 0.282785254826236 
554	 0.283738031997526 
555	 0.284655452277445 
556	 0.285610983508783 
557	 0.286570296606221 
558	 0.28758442938224 
559	 0.288646407234029 
560	 0.289642236799978 
561	 0.290518242419511 
562	 0.291341554545125 
563	 0.292230460773043 
564	 0.293296773997799 
565	 0.294310233380345 
566	 0.295251541567798 
567	 0.296357088375551 
568	 0.297530127131763 
569	 0.298706582749692 
570	 0.299850988573516 
571	 0.301011870851356 
572	 0.302160549931534 
573	 0.303300930833112 
574	 0.304444629242051 
575	 0.305410933210939 
576	 0.306371446743189 
577	 0.307438195192393 
578	 0.30846577193403 
579	 0.309554429667972 
580	 0.310735837920474 
581	 0.312010264538816 
582	 0.313375035038225 
583	 0.314738360596292 
584	 0.316016742935695 
585	 0.317151107471776 
586	 0.318258004814503 
587	 0.319308108965294 
588	 0.320277612250155 
589	 0.321373206923919 
590	 0.322393479026607 
591	 0.323369806311277 
592	 0.324541114290182 
593	 0.32561586046214 
594	 0.326638510472231 
595	 0.327720379589122 
596	 0.328976879764512 
597	 0.330303853227942 
598	 0.33160137760339 
599	 0.332785340157748 
600	 0.333858556570415 
601	 0.334896041226852 
602	 0.335905389809959 
603	 0.336756063200685 
604	 0.337593322393054 
605	 0.338453692916326 
606	 0.339333377132167 
607	 0.34023986866777 
608	 0.341101065665944 
609	 0.341917821577818 
610	 0.342778715055758 
611	 0.343656216917977 
612	 0.344534737768239 
613	 0.345394235923621 
614	 0.346217821849502 
615	 0.346958638517411 
616	 0.347626827094276 
617	 0.348271860617703 
618	 0.348922957300947 
619	 0.349528780197897 
620	 0.350075087274682 
621	 0.350653075501333 
622	 0.35120951809518 
623	 0.351727112404169 
624	 0.352215296220956 
625	 0.352768911018778 
626	 0.35327691174218 
627	 0.353700385231541 
628	 0.354115299372981 
629	 0.354602144141098 
630	 0.355074127136685 
631	 0.355456866977127 
632	 0.355930804192615 
633	 0.356343871616132 
634	 0.356722721966737 
635	 0.357225102340832 
636	 0.357548808933933 
637	 0.357917797091437 
638	 0.358447253875877 
639	 0.358751071582538 
640	 0.359112840695939 
641	 0.359514137059356 
642	 0.359832109121593 
643	 0.360266644601993 
644	 0.360696607256932 
645	 0.361064429893919 
646	 0.361447454566081 
647	 0.361827633358779 
648	 0.36219419126942 
649	 0.362556664183537 
650	 0.363006524120228 
651	 0.363457287220458 
652	 0.363866568405851 
653	 0.364241937825638 
654	 0.364683459638532 
655	 0.365108009823576 
656	 0.365460649544011 
657	 0.365822616941315 
658	 0.366347245152027 
659	 0.366898163449521 
660	 0.367253434503846 
661	 0.367752607183847 
662	 0.368276117759502 
663	 0.368751534569092 
664	 0.369239325662497 
665	 0.369692202514694 
666	 0.37014009283581 
667	 0.370623471936878 
668	 0.371121632861264 
669	 0.371676772740256 
670	 0.372219453163336 
671	 0.372606462934517 
672	 0.373109921166663 
673	 0.37366768126287 
674	 0.374202017013032 
675	 0.374743341655436 
676	 0.375311200193554 
677	 0.375840776382537 
678	 0.376271363141044 
679	 0.376844309133545 
680	 0.377406879032574 
681	 0.377922876926618 
682	 0.37855340604469 
683	 0.379125016334335 
684	 0.379650124641753 
685	 0.380178052435926 
686	 0.380691547846472 
687	 0.381276574216016 
688	 0.381913672903471 
689	 0.382500486960438 
690	 0.382905125394596 
691	 0.383374840289654 
692	 0.384024864766342 
693	 0.384610097965061 
694	 0.385098888150972 
695	 0.385614573939202 
696	 0.386267092756148 
697	 0.386695675134855 
698	 0.387200914171984 
699	 0.387827303869988 
700	 0.388317358131676 
701	 0.388792907332672 
702	 0.389272233867781 
703	 0.389752475670276 
704	 0.390235603669073 
705	 0.39064663207437 
706	 0.391019791136447 
707	 0.391444125018087 
708	 0.391929040457774 
709	 0.392414451871978 
710	 0.392842888756331 
711	 0.393171198802761 
712	 0.393530713263546 
713	 0.393916200256657 
714	 0.394290458795158 
715	 0.3946631176161 
716	 0.395015547270617 
717	 0.395317402918701 
718	 0.39554067533859 
719	 0.395785465667392 
720	 0.395996644793825 
721	 0.396143859890948 
722	 0.396276541550512 
723	 0.396545742823377 
724	 0.396819636434736 
725	 0.396932499914321 
726	 0.397102656255979 
727	 0.397249534614713 
728	 0.397303643300026 
729	 0.397232018558204 
730	 0.397245549823384 
731	 0.397257739685167 
732	 0.397191467131711 
733	 0.397128148934784 
734	 0.397070104586914 
735	 0.396982916834037 
736	 0.396841069905061 
737	 0.396802087825152 
738	 0.396630906197194 
739	 0.396328489005918 
740	 0.39617436585412 
741	 0.39605550701632 
742	 0.395846876342047 
743	 0.395487309247497 
744	 0.395086482555057 
745	 0.394694692004149 
746	 0.394338582872392 
747	 0.39400413076602 
748	 0.393513204626012 
749	 0.393117356208211 
750	 0.392816900039783 
751	 0.392273442154827 
752	 0.391727729517336 
753	 0.391176663030716 
754	 0.390599148094547 
755	 0.390081787438118 
756	 0.389613128331321 
757	 0.389079854132576 
758	 0.388370863576336 
759	 0.387799013248145 
760	 0.387148076460382 
761	 0.386405336403444 
762	 0.385864725400771 
763	 0.385261147110412 
764	 0.384572677211669 
765	 0.38384559697986 
766	 0.383137965225933 
767	 0.382466605796147 
768	 0.381774547808377 
769	 0.380992419528348 
770	 0.380262557039885 
771	 0.379542202489175 
772	 0.378788768114434 
773	 0.377983031191315 
774	 0.377204918751996 
775	 0.376436388232438 
776	 0.37566187209135 
777	 0.374946245662064 
778	 0.374197493187199 
779	 0.373376845182711 
780	 0.372498903281055 
781	 0.371707999751825 
782	 0.371024664314582 
783	 0.370348120880647 
784	 0.369483033700558 
785	 0.368702121250303 
786	 0.367994033137987 
787	 0.367255811789523 
788	 0.366272474329957 
789	 0.36550099342651 
790	 0.364839514743923 
791	 0.364033338638993 
792	 0.363273003056892 
793	 0.362527482072465 
794	 0.361770216032298 
795	 0.360992705562502 
796	 0.360229923163052 
797	 0.35951272959718 
798	 0.358820537329425 
799	 0.358042275083384 
800	 0.357268021290395 
801	 0.356576854961019 
802	 0.355966541267617 
803	 0.355139740034099 
804	 0.354392780055521 
805	 0.353763119206244 
806	 0.353114852780546 
807	 0.352421972332513 
808	 0.351661733796643 
809	 0.350894106110062 
810	 0.350269065186757 
811	 0.34961662637994 
812	 0.348970938504044 
813	 0.34837003346142 
814	 0.347736433362755 
815	 0.347103987062671 
816	 0.346472809225605 
817	 0.345835056117132 
818	 0.345204463697611 
819	 0.344622406833986 
820	 0.344062146600731 
821	 0.343447942438601 
822	 0.34286612171674 
823	 0.342267588179736 
824	 0.34165457726272 
825	 0.341145578468448 
826	 0.340620046990009 
827	 0.340088694726359 
828	 0.339574306239359 
829	 0.339022916264369 
830	 0.338404358797017 
831	 0.337774974653318 
832	 0.337229395562709 
833	 0.336810106835169 
834	 0.336353421335156 
835	 0.335862394298597 
836	 0.335489555118462 
837	 0.334980646159433 
838	 0.334515006497855 
839	 0.334159056976183 
840	 0.333670550339166 
841	 0.333188956499732 
842	 0.332734567930201 
843	 0.332310504614659 
844	 0.331973380270247 
845	 0.331620100658097 
846	 0.331222678644147 
847	 0.330800198586776 
848	 0.330385599330399 
849	 0.330019102737004 
850	 0.32969279522024 
851	 0.329354679278942 
852	 0.328939536661672 
853	 0.328615329044897 
854	 0.32838036696443 
855	 0.327951925798006 
856	 0.327699650907732 
857	 0.327479045486609 
858	 0.327136460801371 
859	 0.326805644534669 
860	 0.326525216127687 
861	 0.326252398350894 
862	 0.325946836633726 
863	 0.325746152130929 
864	 0.325448549878787 
865	 0.325131730918968 
866	 0.324999213575803 
867	 0.324792417794178 
868	 0.324630489054157 
869	 0.324493454268435 
870	 0.324203897872703 
871	 0.323840587604278 
872	 0.323576630813708 
873	 0.323503501785532 
874	 0.323557401639652 
875	 0.323476296224591 
876	 0.323277118818646 
877	 0.32305368996049 
878	 0.32286518493913 
879	 0.322813633672794 
880	 0.322758205530758 
881	 0.322560845472301 
882	 0.32247954783534 
883	 0.32243625171976 
884	 0.322330113597998 
885	 0.32211401243897 
886	 0.322095181014704 
887	 0.322139930634476 
888	 0.322121295390084 
889	 0.321979011400858 
890	 0.321906308472907 
891	 0.321867168941362 
892	 0.321871836618741 
893	 0.322007969520869 
894	 0.321955583848647 
895	 0.321869570921002 
896	 0.321891619073398 
897	 0.321960635031084 
898	 0.322043848880966 
899	 0.322082989847448 
900	 0.322064579174937 
901	 0.322093390227087 
902	 0.322155075823451 
903	 0.322273909263818 
904	 0.32243896730121 
905	 0.322474743200889 
906	 0.32257553642276 
907	 0.322767087672417 
908	 0.322970552567834 
909	 0.323067933254412 
910	 0.323203804747923 
911	 0.32335784409967 
912	 0.323425733371928 
913	 0.323587631906987 
914	 0.323767746935945 
915	 0.323910950726932 
916	 0.324018287543271 
917	 0.32420985284073 
918	 0.324490083833113 
919	 0.324821503003408 
920	 0.325132858737522 
921	 0.325279466610481 
922	 0.325418351365366 
923	 0.32563188110538 
924	 0.325816108723795 
925	 0.326058947237321 
926	 0.326382750344902 
927	 0.326738912131115 
928	 0.326983828517018 
929	 0.327348493226288 
930	 0.327685532969071 
931	 0.327899279670113 
932	 0.328241911944388 
933	 0.328491234560732 
934	 0.328744824164394 
935	 0.329126435333504 
936	 0.329559881522382 
937	 0.330014605128659 
938	 0.330404394871157 
939	 0.330717214124572 
940	 0.331238136637526 
941	 0.33164708004475 
942	 0.332018346445304 
943	 0.332504077913144 
944	 0.332881458279293 
945	 0.333316327414975 
946	 0.333787109772381 
947	 0.334208010822487 
948	 0.334645204237197 
949	 0.335034059826423 
950	 0.335436024595344 
951	 0.335951403155103 
952	 0.336530856722729 
953	 0.337085393049855 
954	 0.337559248864195 
955	 0.337976331023229 
956	 0.3386307131505 
957	 0.339123219118847 
958	 0.339486271404055 
959	 0.340013403566716 
960	 0.340695370339148 
961	 0.341265805783071 
962	 0.341763798877155 
963	 0.342374285984065 
964	 0.342788019564178 
965	 0.343326943865092 
966	 0.344036703131305 
967	 0.344744047374164 
968	 0.345385053289673 
969	 0.345989086473726 
970	 0.346595099767687 
971	 0.347223043042616 
972	 0.347788653571174 
973	 0.348447171632119 
974	 0.349180990318661 
975	 0.349856317554613 
976	 0.350464791754434 
977	 0.351130686973575 
978	 0.351933607110116 
979	 0.352824960699865 
980	 0.353341572035074 
981	 0.353759993953026 
982	 0.354307953545985 
983	 0.355069754884287 
984	 0.355795076142122 
985	 0.356561923020744 
986	 0.357348641772407 
987	 0.358084982146891 
988	 0.358819138709121 
989	 0.359463298554082 
990	 0.360032933579006 
991	 0.360638375760388 
992	 0.361530173659948 
993	 0.362253275522211 
994	 0.362892241305104 
995	 0.363698336419737 
996	 0.364449402975514 
997	 0.365141493002352 
998	 0.365811741313868 
999	 0.366541138772887 
1000	 0.36748805495031 
1001	 0.373218320747766 
1002	 0.373869226047997 
1003	 0.37455042537579 
1004	 0.375261204718982 
1005	 0.376008895250757 
1006	 0.376730446579955 
1007	 0.377457135065251 
1008	 0.378211619189394 
1009	 0.378920859423876 
1010	 0.379558901531604 
1011	 0.380279290170568 
1012	 0.380978120759531 
1013	 0.381665072009668 
1014	 0.382375392018169 
1015	 0.383017010428767 
1016	 0.383653542779986 
1017	 0.384323315033327 
1018	 0.384994905430127 
1019	 0.385707337264804 
1020	 0.386393818607153 
1021	 0.387047517546926 
1022	 0.387738763623189 
1023	 0.388327901499886 
1024	 0.388915608333469 
1025	 0.389567868009514 
1026	 0.390129900663156 
1027	 0.390723938383712 
1028	 0.391368949014502 
1029	 0.392012886780477 
1030	 0.392661352617229 
1031	 0.39330566894457 
1032	 0.393947186078596 
1033	 0.394620471231193 
1034	 0.395277246275774 
1035	 0.395959051801601 
1036	 0.396674768315862 
1037	 0.39728803560989 
1038	 0.39787589970747 
1039	 0.398492026296517 
1040	 0.399080733601108 
1041	 0.399725150956494 
1042	 0.400393735282725 
1043	 0.401035027092782 
1044	 0.401680331218743 
1045	 0.402330282237904 
1046	 0.402947887857988 
1047	 0.403607957183849 
1048	 0.404263938690716 
1049	 0.40487712577191 
1050	 0.405559513382493 
1051	 0.406220741661456 
1052	 0.406881674565704 
1053	 0.407577872377127 
1054	 0.408223891546055 
1055	 0.40881049536436 
1056	 0.409380098623393 
1057	 0.409961357587077 
1058	 0.41050324986837 
1059	 0.41108125347008 
1060	 0.411691351000486 
1061	 0.412304332942004 
1062	 0.412861065965031 
1063	 0.413420342300668 
1064	 0.413947362021758 
1065	 0.414442030177638 
1066	 0.414945126196324 
1067	 0.415446044641817 
1068	 0.415987973862274 
1069	 0.416494262097208 
1070	 0.416987800434098 
1071	 0.417487396761677 
1072	 0.417989160156298 
1073	 0.418458473355735 
1074	 0.41892951463092 
1075	 0.419423994030647 
1076	 0.419856867736701 
1077	 0.420302577851346 
1078	 0.420772230847371 
1079	 0.421184683790578 
1080	 0.421578598426245 
1081	 0.421972529707763 
1082	 0.422364457930451 
1083	 0.422756708201661 
1084	 0.423194974931533 
1085	 0.423582826153317 
1086	 0.42393185019233 
1087	 0.424270767490976 
1088	 0.424587781742953 
1089	 0.424898326519987 
1090	 0.425255318941478 
1091	 0.425638371439453 
1092	 0.426005291856499 
1093	 0.426387751899457 
1094	 0.426755435872253 
1095	 0.427128594990167 
1096	 0.427542513678499 
1097	 0.427939368400398 
1098	 0.428325684770084 
1099	 0.428687919986106 
1100	 0.429068867613834 
1101	 0.429451458984369 
1102	 0.429847905364708 
1103	 0.430269211646229 
1104	 0.43065134096348 
1105	 0.431063412977334 
1106	 0.431485358944295 
1107	 0.431903839041299 
1108	 0.432320074866899 
1109	 0.432682933901488 
1110	 0.433051738710773 
1111	 0.433468306642283 
1112	 0.433906534973055 
1113	 0.434335522851927 
1114	 0.434812630885076 
1115	 0.435253269727072 
1116	 0.435642318830593 
1117	 0.4360775032471 
1118	 0.436538364421653 
1119	 0.436987059038439 
1120	 0.437466098179505 
1121	 0.437954170527811 
1122	 0.438413255050766 
1123	 0.438876496581713 
1124	 0.439335934925581 
1125	 0.439766720248918 
1126	 0.440243843530463 
1127	 0.440759755813343 
1128	 0.441233295076649 
1129	 0.441721867391612 
1130	 0.442176304911194 
1131	 0.442566782255103 
1132	 0.443005115170999 
1133	 0.443470331465688 
1134	 0.443912607863946 
1135	 0.444336991437445 
1136	 0.444816028709814 
1137	 0.445247237285765 
1138	 0.445649330648417 
1139	 0.446101436627341 
1140	 0.446581493198829 
1141	 0.447031630963165 
1142	 0.447509828952574 
1143	 0.447945462781623 
1144	 0.44833235791878 
1145	 0.448752781720802 
1146	 0.449172434985702 
1147	 0.44959288765772 
1148	 0.450024289819277 
1149	 0.450453833605868 
1150	 0.450880636061418 
1151	 0.451310446110688 
1152	 0.451728186456798 
1153	 0.452145847385609 
1154	 0.452566821830401 
1155	 0.452983315194044 
1156	 0.453391067915368 
1157	 0.453828549398464 
1158	 0.454201176904348 
1159	 0.454519469837823 
1160	 0.454868948025208 
1161	 0.455192446357225 
1162	 0.455534740339503 
1163	 0.455897801522887 
1164	 0.456259954071556 
1165	 0.456638862551243 
1166	 0.45698546781021 
1167	 0.457354100831682 
1168	 0.45771284599474 
1169	 0.458044348202789 
1170	 0.458358209264868 
1171	 0.458664845980348 
1172	 0.45894278289229 
1173	 0.459240242176218 
1174	 0.459525895994235 
1175	 0.459832569269106 
1176	 0.460164535493557 
1177	 0.46047748967025 
1178	 0.460794900145898 
1179	 0.461106951671852 
1180	 0.461402534191944 
1181	 0.461706617613508 
1182	 0.462023851359081 
1183	 0.462323484170358 
1184	 0.462633274769331 
1185	 0.462941552073143 
1186	 0.463260583151485 
1187	 0.463589065429771 
1188	 0.463910982690667 
1189	 0.464244358483387 
1190	 0.464559013437162 
1191	 0.464862385378261 
1192	 0.465165159809526 
1193	 0.46545947834629 
1194	 0.465754476929202 
1195	 0.466050462897172 
1196	 0.466339728300909 
1197	 0.466617495007901 
1198	 0.46690362113659 
1199	 0.467191320824551 
1200	 0.467479147055102 
1201	 0.467765131490339 
1202	 0.468053027107545 
1203	 0.468345561051632 
1204	 0.468631323842085 
1205	 0.468931399892879 
1206	 0.469255823059555 
1207	 0.469554965613591 
1208	 0.469847267251125 
1209	 0.470139887569038 
1210	 0.47041911038747 
1211	 0.470703428990301 
1212	 0.471005185341776 
1213	 0.471284443344687 
1214	 0.471539142301539 
1215	 0.471808036054247 
1216	 0.472077169641214 
1217	 0.472336876972531 
1218	 0.472607154507603 
1219	 0.472897990546687 
1220	 0.473163490926492 
1221	 0.473415004890019 
1222	 0.473674388477163 
1223	 0.47392790640791 
1224	 0.47418441452463 
1225	 0.474445512723112 
1226	 0.474704634694094 
1227	 0.474961625470546 
1228	 0.475218780720388 
1229	 0.475478948476083 
1230	 0.475737235587415 
1231	 0.475994090176859 
1232	 0.476249405915931 
1233	 0.476503609170716 
1234	 0.476762393497851 
1235	 0.477002887258731 
1236	 0.477221542642029 
1237	 0.477477254001955 
1238	 0.477754546664174 
1239	 0.477995950076976 
1240	 0.478246514903678 
1241	 0.478484030098175 
1242	 0.478675750117993 
1243	 0.478896907877373 
1244	 0.479140117622541 
1245	 0.479376342935422 
1246	 0.479609435028829 
1247	 0.479846189577554 
1248	 0.480076968463363 
1249	 0.480331888433969 
1250	 0.480583880978101 
1251	 0.480827113486304 
1252	 0.481063908122528 
1253	 0.481296451458892 
1254	 0.481529392373247 
1255	 0.4817550125154 
1256	 0.481980250501975 
1257	 0.482209639722075 
1258	 0.482434476651944 
1259	 0.482652123549483 
1260	 0.482870525035887 
1261	 0.483107067905652 
1262	 0.483307688584148 
1263	 0.483465012436225 
1264	 0.483657909438283 
1265	 0.483845845798246 
1266	 0.484041660856362 
1267	 0.484261137615369 
1268	 0.484491973235288 
1269	 0.484708897738939 
1270	 0.484905526396767 
1271	 0.485135111442464 
1272	 0.485378695177142 
1273	 0.485629443740449 
1274	 0.485902221624917 
1275	 0.486161353733169 
1276	 0.486416264140822 
1277	 0.486679480658926 
1278	 0.486940701700212 
1279	 0.487212395335322 
1280	 0.48749922941496 
1281	 0.487779597629379 
1282	 0.488069556403134 
1283	 0.488344531613005 
1284	 0.488618737912404 
1285	 0.488886728240678 
1286	 0.489107317612459 
1287	 0.48931398151746 
1288	 0.489502848388771 
1289	 0.489656082116773 
1290	 0.489815439404806 
1291	 0.489971594734195 
1292	 0.490109805356541 
1293	 0.490240557286776 
1294	 0.490339039314982 
1295	 0.490417186674857 
1296	 0.490482484695993 
1297	 0.490503127391843 
1298	 0.490549263827504 
1299	 0.490608417284077 
1300	 0.49064450431929 
1301	 0.490674827183695 
1302	 0.490699777136606 
1303	 0.490716848307495 
1304	 0.490715241849972 
1305	 0.49069502143749 
1306	 0.490683321943306 
1307	 0.490649079407952 
1308	 0.490576938613261 
1309	 0.490531572908694 
1310	 0.490485410230065 
1311	 0.490453482250834 
1312	 0.490430946980791 
1313	 0.490411524127627 
1314	 0.490401097558295 
1315	 0.490391139463214 
1316	 0.490357596393349 
1317	 0.490384892407885 
1318	 0.490450150612322 
1319	 0.490507237111607 
1320	 0.490619502034034 
1321	 0.490690285667006 
1322	 0.490729173948704 
1323	 0.490780288166936 
1324	 0.490821911930893 
1325	 0.4908719448246 
1326	 0.490944953303993 
1327	 0.491035585746676 
1328	 0.491113560873564 
1329	 0.491173290917946 
1330	 0.491256933092828 
1331	 0.491328460869128 
1332	 0.491426004832249 
1333	 0.49155829924163 
1334	 0.491675711740439 
1335	 0.49178545328352 
1336	 0.49191270132701 
1337	 0.492059370436209 
1338	 0.492187953389463 
1339	 0.492314506629219 
1340	 0.492444960632639 
1341	 0.49257709790428 
1342	 0.492691274060613 
1343	 0.492799043208093 
1344	 0.492910485750552 
1345	 0.493015534078815 
1346	 0.493122261353031 
1347	 0.493234974144241 
1348	 0.493369248585757 
1349	 0.493486436975936 
1350	 0.493559980907227 
1351	 0.493638248727642 
1352	 0.493697661307298 
1353	 0.493777013953575 
1354	 0.493863912498737 
1355	 0.49393321285012 
1356	 0.49400888095804 
1357	 0.494072591501975 
1358	 0.494098412147893 
1359	 0.494163212994678 
1360	 0.494247153823243 
1361	 0.494326821819159 
1362	 0.494416670966077 
1363	 0.494511351417081 
1364	 0.494595832641199 
1365	 0.49470599295144 
1366	 0.494842512957015 
1367	 0.494973024357626 
1368	 0.495115517135434 
1369	 0.495251278355541 
1370	 0.495348494956481 
1371	 0.49541975409894 
1372	 0.495440131494012 
1373	 0.495439886972768 
1374	 0.495445368268549 
1375	 0.495439732878021 
1376	 0.49541550212702 
1377	 0.495395263951573 
1378	 0.495339660095121 
1379	 0.495244333238867 
1380	 0.495157446433634 
1381	 0.495052801827562 
1382	 0.49495211610927 
1383	 0.494867413153134 
1384	 0.494743654926119 
1385	 0.494629311434946 
1386	 0.494460688123214 
1387	 0.494261120572812 
1388	 0.494010015703622 
1389	 0.493716657796277 
1390	 0.493379915432864 
1391	 0.492994966570245 
1392	 0.4925737212832 
1393	 0.492102978485139 
1394	 0.491614623852873 
1395	 0.491116124951926 
1396	 0.49060491612443 
1397	 0.490091952944443 
1398	 0.489575147977755 
1399	 0.489056559526211 
1400	 0.488525983566069 
1401	 0.4880084304228 
1402	 0.487503770864288 
1403	 0.486983271898121 
1404	 0.486433175537215 
1405	 0.48592951967771 
1406	 0.485446222279172 
1407	 0.484963828157237 
1408	 0.484481949881805 
1409	 0.484054616513117 
1410	 0.483588939745536 
1411	 0.483246026565063 
1412	 0.482964692106074 
1413	 0.482783171076268 
1414	 0.482715134108253 
1415	 0.482727171575924 
1416	 0.482858435927949 
1417	 0.483060969826309 
1418	 0.483276454177066 
1419	 0.483506400800079 
1420	 0.483722001058709 
1421	 0.483886442183527 
1422	 0.484017919397368 
1423	 0.484121454343091 
1424	 0.484151374099815 
1425	 0.484111763330342 
1426	 0.484056064907618 
1427	 0.483936733317701 
1428	 0.483824535943399 
1429	 0.483701937532221 
1430	 0.483550130624473 
1431	 0.483378755537246 
1432	 0.483179096696215 
1433	 0.482939300201834 
1434	 0.482704035384305 
1435	 0.482422478563431 
1436	 0.482194665198825 
1437	 0.481994448926027 
1438	 0.481785339327673 
1439	 0.481610469568139 
1440	 0.481411654563765 
1441	 0.481177589669091 
1442	 0.480946355087729 
1443	 0.480699704032662 
1444	 0.480465000930496 
1445	 0.480243667261782 
1446	 0.480001217066965 
1447	 0.479753214212566 
1448	 0.479473125945267 
1449	 0.479142398928751 
1450	 0.47879940608869 
1451	 0.478441296205978 
1452	 0.478050408762651 
1453	 0.477666188951111 
1454	 0.47728906103883 
1455	 0.47686778886346 
1456	 0.47642687723182 
1457	 0.475963326630029 
1458	 0.475463114178924 
1459	 0.474955489160554 
1460	 0.474411160385007 
1461	 0.473897841941928 
1462	 0.473375141362561 
1463	 0.472877015087986 
1464	 0.472392805561006 
1465	 0.4719288763443 
1466	 0.471454288533617 
1467	 0.471042226071927 
1468	 0.470645443594813 
1469	 0.470329727768376 
1470	 0.470082491037102 
1471	 0.469871986837803 
1472	 0.469720281932535 
1473	 0.469643396428829 
1474	 0.469615617793963 
1475	 0.469651943911471 
1476	 0.469766614719206 
1477	 0.469937308967074 
1478	 0.470192858480093 
1479	 0.47050913473497 
1480	 0.470865867267509 
1481	 0.471277762799838 
1482	 0.471665859312793 
1483	 0.472068600645726 
1484	 0.472463858959282 
1485	 0.472862716706615 
1486	 0.473249306665856 
1487	 0.47365661981811 
1488	 0.474003433750797 
1489	 0.474334436686819 
1490	 0.474608848048665 
1491	 0.474822596193458 
1492	 0.475037707631777 
1493	 0.475211883625354 
1494	 0.475388936385804 
1495	 0.475554354688181 
1496	 0.475711943934086 
1497	 0.475861911263414 
1498	 0.476000109823573 
1499	 0.476137032626462 
1500	 0.476243521782486 
1501	 0.476327198273487 
1502	 0.476400294195324 
1503	 0.476438889368897 
1504	 0.476496999023539 
1505	 0.476542927965546 
1506	 0.47657549470791 
1507	 0.476626979618632 
1508	 0.476670417889326 
1509	 0.47673161109701 
1510	 0.476797550979693 
1511	 0.476842828413518 
1512	 0.476888196362741 
1513	 0.476936586196956 
1514	 0.476963905986938 
1515	 0.476997972454597 
1516	 0.477052424924491 
1517	 0.477091253836156 
1518	 0.477128248651011 
1519	 0.47715146789836 
1520	 0.477162772700728 
1521	 0.477180360849169 
1522	 0.477178236471192 
1523	 0.477212138494478 
1524	 0.477266048054695 
1525	 0.477321295426048 
1526	 0.477396443379672 
1527	 0.477462228801899 
1528	 0.477535696806733 
1529	 0.477588090102183 
1530	 0.477622461419167 
1531	 0.477677726913628 
1532	 0.477726406416529 
1533	 0.477786519805673 
1534	 0.477875270863618 
1535	 0.477946151130432 
1536	 0.478002703726285 
1537	 0.478068306977672 
1538	 0.478137993783673 
1539	 0.478199714751466 
1540	 0.478265943925363 
1541	 0.478324826981364 
1542	 0.478385501654963 
1543	 0.478427501374523 
1544	 0.478445671588312 
1545	 0.478477393276759 
1546	 0.478495584789561 
1547	 0.478516063610198 
1548	 0.478595184105178 
1549	 0.478682365127138 
1550	 0.478775727916187 
1551	 0.478883561759581 
1552	 0.478979687677661 
1553	 0.479067262897715 
1554	 0.479160952425231 
1555	 0.47926407409222 
1556	 0.479355583698836 
1557	 0.479443720397448 
1558	 0.479548049472526 
1559	 0.479629431186634 
1560	 0.479711187804048 
1561	 0.479790196389717 
1562	 0.479865715749702 
1563	 0.479933948169294 
1564	 0.480002339739583 
1565	 0.480066801464385 
1566	 0.480140131533616 
1567	 0.48020767511971 
1568	 0.480289208612327 
1569	 0.480391292023558 
1570	 0.480465358633986 
1571	 0.480545184866543 
1572	 0.480597554678411 
1573	 0.480620784320195 
1574	 0.480651660575687 
1575	 0.480659773591122 
1576	 0.480694214723703 
1577	 0.480745107739847 
1578	 0.480782715530368 
1579	 0.480820611377116 
1580	 0.480866910145249 
1581	 0.480913390202105 
1582	 0.480953816108052 
1583	 0.481005311386752 
1584	 0.481048790215487 
1585	 0.481069659424405 
1586	 0.481111741893103 
1587	 0.481174739979787 
1588	 0.481218854852517 
1589	 0.481271686863142 
1590	 0.48130291400203 
1591	 0.481295476729734 
1592	 0.481317463273723 
1593	 0.481340132950189 
1594	 0.481370692471472 
1595	 0.481424578569241 
1596	 0.481475518462833 
1597	 0.481543735027164 
1598	 0.48158004670293 
1599	 0.481610229225276 
1600	 0.48162433551175 
1601	 0.481577092224057 
1602	 0.481578460357923 
1603	 0.481607240304996 
1604	 0.481624503044555 
1605	 0.481655220460753 
1606	 0.481696783603332 
1607	 0.481738123684921 
1608	 0.481779282436327 
1609	 0.481834780374149 
1610	 0.481875145853868 
1611	 0.48187146831802 
1612	 0.481854946469767 
1613	 0.481826287680903 
1614	 0.481796819478275 
1615	 0.481785182321476 
1616	 0.481775475844834 
1617	 0.481797676667555 
1618	 0.481817835604274 
1619	 0.481831831283433 
1620	 0.481849496968783 
1621	 0.48184795420923 
1622	 0.481837694066184 
1623	 0.481807052843259 
1624	 0.481754191723536 
1625	 0.481718554067812 
1626	 0.481659357996728 
1627	 0.481642707981786 
1628	 0.481660007498064 
1629	 0.481656003506168 
1630	 0.48165764033722 
1631	 0.481661548281195 
1632	 0.481663995798266 
1633	 0.481658248135131 
1634	 0.481666003848136 
1635	 0.481643951520424 
1636	 0.481591184309742 
1637	 0.481561505582599 
1638	 0.481522495281193 
1639	 0.481506937601236 
1640	 0.481505736771122 
1641	 0.481510811875445 
1642	 0.481530351522126 
1643	 0.481547335878438 
1644	 0.481579388195483 
1645	 0.481590190062059 
1646	 0.481597534633634 
1647	 0.481591432338472 
1648	 0.481558911390321 
1649	 0.481556539069275 
1650	 0.481555577094655 
1651	 0.48156605958229 
1652	 0.481616555583484 
1653	 0.481610098477804 
1654	 0.481587465475334 
1655	 0.481548239514662 
1656	 0.48146794059836 
1657	 0.481404115455509 
1658	 0.481320084903094 
1659	 0.481278217628165 
1660	 0.481262074435958 
1661	 0.481227127885086 
1662	 0.481221491327256 
1663	 0.481181639256394 
1664	 0.481101529118128 
1665	 0.481048215358564 
1666	 0.481003776487648 
1667	 0.480950078291294 
1668	 0.480906310471035 
1669	 0.480839820241767 
1670	 0.480739613432524 
1671	 0.480680113934517 
1672	 0.480623165505145 
1673	 0.480582970037485 
1674	 0.480575037455242 
1675	 0.480560758126567 
1676	 0.480549552098428 
1677	 0.480539710066874 
1678	 0.480542805434845 
1679	 0.480534824578862 
1680	 0.480531142988041 
1681	 0.480503662518124 
1682	 0.480452309368433 
1683	 0.480422160462165 
1684	 0.480369191873222 
1685	 0.480355621648523 
1686	 0.480396289346253 
1687	 0.480385753105763 
1688	 0.480378326654438 
1689	 0.480343215830503 
1690	 0.480252876019949 
1691	 0.480205243798865 
1692	 0.480182968843565 
1693	 0.480123118201178 
1694	 0.48005010766745 
1695	 0.479992178926564 
1696	 0.479905600964029 
1697	 0.479848326819048 
1698	 0.479831867721108 
1699	 0.479791906751407 
1700	 0.479753405000793 
1701	 0.479697684283146 
1702	 0.479623000635618 
1703	 0.479564599867537 
1704	 0.479506610966571 
1705	 0.47943749916608 
1706	 0.479368178285061 
1707	 0.479309754192876 
1708	 0.479239903902332 
1709	 0.479175821814402 
1710	 0.479134224518496 
1711	 0.479079572933335 
1712	 0.479011856383423 
1713	 0.478952225471566 
1714	 0.478895831282754 
1715	 0.478841563658411 
1716	 0.478780569105586 
1717	 0.478736826534534 
1718	 0.478726715681779 
1719	 0.478663489941054 
1720	 0.478582806785176 
1721	 0.478500083029997 
1722	 0.47838037753313 
1723	 0.478285422498786 
1724	 0.478195224398626 
1725	 0.478124239952916 
1726	 0.478064084325991 
1727	 0.47799520475343 
1728	 0.477967055640923 
1729	 0.477874536255724 
1730	 0.477736570462457 
1731	 0.477615982569031 
1732	 0.477466016422509 
1733	 0.477332256483577 
1734	 0.4772172383081 
1735	 0.477084189008297 
1736	 0.4769415723349 
1737	 0.476799652637013 
1738	 0.476644894282062 
1739	 0.476512546553439 
1740	 0.476395485059758 
1741	 0.47625696918495 
1742	 0.476119764237109 
1743	 0.475981830968364 
1744	 0.475820749103716 
1745	 0.475687003187378 
1746	 0.475572086785642 
1747	 0.475493868832171 
1748	 0.475396032871861 
1749	 0.475307344968712 
1750	 0.475190194279125 
1751	 0.475006261760367 
1752	 0.47482230960659 
1753	 0.474647478120816 
1754	 0.474458248290457 
1755	 0.47431847892843 
1756	 0.474195064623417 
1757	 0.474062594823071 
1758	 0.473955437787823 
1759	 0.47382126812214 
1760	 0.473665047441253 
1761	 0.473532970682302 
1762	 0.473391146824089 
1763	 0.473204759770229 
1764	 0.473044380445314 
1765	 0.472914713683345 
1766	 0.472778917888274 
1767	 0.47269092471249 
1768	 0.472613332578057 
1769	 0.472517550127602 
1770	 0.472410771621593 
1771	 0.472299615400771 
1772	 0.472177421898727 
1773	 0.472008795184164 
1774	 0.47185779450929 
1775	 0.471716258347765 
1776	 0.471575624068113 
1777	 0.471494694210775 
1778	 0.471398832081173 
1779	 0.471290641603218 
1780	 0.471228217043998 
1781	 0.471142726482167 
1782	 0.471017014868261 
1783	 0.47089490892115 
1784	 0.470765217304002 
1785	 0.470612011776194 
1786	 0.470472424251356 
1787	 0.470337639039604 
1788	 0.47019878815445 
1789	 0.470054290676531 
1790	 0.469934129878857 
1791	 0.469815938928677 
1792	 0.469704995720759 
1793	 0.469639399782436 
1794	 0.469515938340582 
1795	 0.469377297727912 
1796	 0.469217232212882 
1797	 0.468993799988633 
1798	 0.468815250222452 
1799	 0.468645974224049 
1800	 0.468484562885295 
1801	 0.472100760885501 
1802	 0.472086757199719 
1803	 0.472088613467161 
1804	 0.472104154378389 
1805	 0.472100571735001 
1806	 0.472093850228312 
1807	 0.472089240973964 
1808	 0.472056791243506 
1809	 0.472047759410455 
1810	 0.471974818245859 
1811	 0.471876458742742 
1812	 0.471707536884632 
1813	 0.471526030293507 
1814	 0.471317984836938 
1815	 0.471066445651638 
1816	 0.47082994951127 
1817	 0.470589647665016 
1818	 0.470327252309526 
1819	 0.470073523490817 
1820	 0.469838534086995 
1821	 0.469579792038268 
1822	 0.469289634169882 
1823	 0.468976389728889 
1824	 0.4686334074692 
1825	 0.468260399977001 
1826	 0.467867215516128 
1827	 0.467429240886613 
1828	 0.466937334090092 
1829	 0.466396147976689 
1830	 0.465825431709338 
1831	 0.465202896380288 
1832	 0.464547009855752 
1833	 0.463890694325755 
1834	 0.463207135630684 
1835	 0.462493644354256 
1836	 0.461797419318515 
1837	 0.461080401407596 
1838	 0.460350616905785 
1839	 0.459658710165978 
1840	 0.458981597467355 
1841	 0.458307924153152 
1842	 0.45770006305366 
1843	 0.457179253818095 
1844	 0.45670601945606 
1845	 0.456299961594222 
1846	 0.45594278957936 
1847	 0.455642258611728 
1848	 0.455420649363388 
1849	 0.455265843540727 
1850	 0.455200360443731 
1851	 0.455228262932123 
1852	 0.455327385255855 
1853	 0.455479039710687 
1854	 0.455665873251382 
1855	 0.455889209142292 
1856	 0.456114768293021 
1857	 0.456331546533622 
1858	 0.456563623453862 
1859	 0.456796014363455 
1860	 0.457020187268165 
1861	 0.457233587678989 
1862	 0.457432922734102 
1863	 0.457659605886437 
1864	 0.457906437063952 
1865	 0.458171202213683 
1866	 0.458457972456533 
1867	 0.458739872357923 
1868	 0.459045001600387 
1869	 0.459352060976412 
1870	 0.45966317583754 
1871	 0.459940278012513 
1872	 0.460220398712285 
1873	 0.460448930783461 
1874	 0.460641188095839 
1875	 0.460784694845483 
1876	 0.460865891787329 
1877	 0.460854734761656 
1878	 0.46077258632731 
1879	 0.460615477425417 
1880	 0.460384396175752 
1881	 0.460080514869264 
1882	 0.459725444346844 
1883	 0.459301454781292 
1884	 0.458796924060267 
1885	 0.458270128919927 
1886	 0.457710985797931 
1887	 0.457066442288534 
1888	 0.456381956487998 
1889	 0.45560946024154 
1890	 0.454739536575164 
1891	 0.453838550783037 
1892	 0.452862297180506 
1893	 0.451854752099371 
1894	 0.450809240577639 
1895	 0.449718442934248 
1896	 0.448553884373974 
1897	 0.44736011485138 
1898	 0.446136615394441 
1899	 0.44493929080952 
1900	 0.443744846375369 
1901	 0.442547086004828 
1902	 0.441386940820469 
1903	 0.440243589619225 
1904	 0.439113571523007 
1905	 0.438004003447569 
1906	 0.436951273404079 
1907	 0.435869091797393 
1908	 0.434795137763066 
1909	 0.433744138159788 
1910	 0.432656310409316 
1911	 0.431575097105279 
1912	 0.430487191636287 
1913	 0.429423562678075 
1914	 0.42836919182506 
1915	 0.427323358651496 
1916	 0.426276533880926 
1917	 0.425270795944991 
1918	 0.424295390569658 
1919	 0.423320521287048 
1920	 0.422423228014515 
1921	 0.42157570155468 
1922	 0.42073571151236 
1923	 0.419940383660494 
1924	 0.419182731493612 
1925	 0.418435452994926 
1926	 0.417774336988312 
1927	 0.417173314328715 
1928	 0.416619744146035 
1929	 0.416112321595942 
1930	 0.415661012362267 
1931	 0.415226052730927 
1932	 0.414824851573094 
1933	 0.414486182475336 
1934	 0.414211217635946 
1935	 0.413986586667471 
1936	 0.413817958855705 
1937	 0.41370210431014 
1938	 0.413652102151963 
1939	 0.413624578147581 
1940	 0.413645876722744 
1941	 0.413702320094687 
1942	 0.413775595343981 
1943	 0.413885664292522 
1944	 0.414009240800363 
1945	 0.414120917783133 
1946	 0.414255169859682 
1947	 0.414408735601128 
1948	 0.41455936801955 
1949	 0.414750365245523 
1950	 0.414894389663626 
1951	 0.415026408651263 
1952	 0.415121830255891 
1953	 0.415221813777614 
1954	 0.415314217829923 
1955	 0.415399159842165 
1956	 0.415491885717157 
1957	 0.415588624292633 
1958	 0.41567108237951 
1959	 0.415769487722919 
1960	 0.415888119889192 
1961	 0.4160063949075 
1962	 0.416121038283623 
1963	 0.416246556742897 
1964	 0.416388927951536 
1965	 0.416523943015832 
1966	 0.416657115658711 
1967	 0.416782742980047 
1968	 0.416914708234746 
1969	 0.417035987415094 
1970	 0.417175474404056 
1971	 0.417334936174453 
1972	 0.417482839483362 
1973	 0.417634001946658 
1974	 0.417783158853778 
1975	 0.41791727418488 
1976	 0.418069847109145 
1977	 0.418239471487884 
1978	 0.41839309700806 
1979	 0.418566703215383 
1980	 0.41873193542029 
1981	 0.418887134906433 
1982	 0.419029530870417 
1983	 0.419181985273528 
1984	 0.419334351014159 
1985	 0.419478388010253 
1986	 0.419612832368568 
1987	 0.41976348860695 
1988	 0.419903290501321 
1989	 0.420066717946381 
1990	 0.420252210218761 
1991	 0.420435463452071 
1992	 0.420624590722773 
1993	 0.420830552513264 
1994	 0.421013583579785 
1995	 0.421192335715635 
1996	 0.421366201877969 
1997	 0.421511340877392 
1998	 0.421688205714184 
1999	 0.421870656131393 
2000	 0.422071835942882 
2001	 0.422311039501485 
2002	 0.422528769967095 
2003	 0.422737796662263 
2004	 0.422948374522696 
2005	 0.423168062783198 
2006	 0.42338604113519 
2007	 0.423601597676046 
2008	 0.423815860099168 
2009	 0.42405022458333 
2010	 0.424282219502847 
2011	 0.42452680302387 
2012	 0.424822910518019 
2013	 0.425077074704006 
2014	 0.425315341625755 
2015	 0.425531502160766 
2016	 0.425749332352601 
2017	 0.42598374607618 
2018	 0.426237121068001 
2019	 0.42652276159431 
2020	 0.426787332542599 
2021	 0.427072691163791 
2022	 0.427324422738421 
2023	 0.427561115742979 
2024	 0.42778818503564 
2025	 0.427995260175294 
2026	 0.428195212847211 
2027	 0.428390584338248 
2028	 0.428566558009875 
2029	 0.428735089522005 
2030	 0.428889271679623 
2031	 0.429043194633641 
2032	 0.429169671885927 
2033	 0.42933539138379 
2034	 0.429510887261393 
2035	 0.429699124870416 
2036	 0.429929548546643 
2037	 0.430127825423905 
2038	 0.430340350575961 
2039	 0.430509364444335 
2040	 0.430646520110447 
2041	 0.430774813036158 
2042	 0.43086510951722 
2043	 0.430960229295427 
2044	 0.431069763830469 
2045	 0.431180973726509 
2046	 0.431298729886021 
2047	 0.431436580177334 
2048	 0.431555403595773 
2049	 0.431684635271152 
2050	 0.431780514317154 
2051	 0.431838476479092 
2052	 0.43191961456966 
2053	 0.431998605016265 
2054	 0.432068887522467 
2055	 0.432145197213306 
2056	 0.432216748232131 
2057	 0.432298476879421 
2058	 0.432366876287092 
2059	 0.432449418746661 
2060	 0.432559626302934 
2061	 0.432647097203146 
2062	 0.432712655916956 
2063	 0.432797871687935 
2064	 0.432888513070807 
2065	 0.432983413116003 
2066	 0.433099746803325 
2067	 0.433197017035939 
2068	 0.433297837782288 
2069	 0.433375276366529 
2070	 0.433448079246709 
2071	 0.433513426883745 
2072	 0.433560708337227 
2073	 0.433590214760067 
2074	 0.433618447579951 
2075	 0.433608744556073 
2076	 0.433647346904349 
2077	 0.433699672681916 
2078	 0.43376681925394 
2079	 0.433897368544785 
2080	 0.433969116915817 
2081	 0.434013874031109 
2082	 0.43406304145633 
2083	 0.434100465091895 
2084	 0.434108499624703 
2085	 0.434127667078806 
2086	 0.434159907103456 
2087	 0.434168105154824 
2088	 0.434149463290901 
2089	 0.434148992812433 
2090	 0.434152114031263 
2091	 0.434147761571914 
2092	 0.434135683448793 
2093	 0.434139194697734 
2094	 0.434136166184923 
2095	 0.43414954144168 
2096	 0.434203608489774 
2097	 0.434224395224956 
2098	 0.434233625516976 
2099	 0.434242348060984 
2100	 0.434241043501685 
2101	 0.434211610844682 
2102	 0.43421157648369 
2103	 0.434218710696517 
2104	 0.434233186006505 
2105	 0.434242884403373 
2106	 0.434288183966517 
2107	 0.434347824875408 
2108	 0.434429057954105 
2109	 0.43456584763971 
2110	 0.434669754700775 
2111	 0.434786223678737 
2112	 0.434877785939494 
2113	 0.434954482531801 
2114	 0.435008475413824 
2115	 0.435063054040973 
2116	 0.435082843932984 
2117	 0.43516806931938 
2118	 0.435269320751609 
2119	 0.435385385297656 
2120	 0.43556492776728 
2121	 0.435692478566942 
2122	 0.43580886597118 
2123	 0.435911204436565 
2124	 0.436000387495116 
2125	 0.436073311179625 
2126	 0.43613466563132 
2127	 0.436178253266331 
2128	 0.436198230639135 
2129	 0.436212674279686 
2130	 0.436204983422827 
2131	 0.436215696561168 
2132	 0.436175892073848 
2133	 0.436125483790768 
2134	 0.436032667114186 
2135	 0.435899238831296 
2136	 0.435744437418498 
2137	 0.435557321229789 
2138	 0.435357971888285 
2139	 0.435150442949843 
2140	 0.434888435480946 
2141	 0.434574937962053 
2142	 0.434267936477976 
2143	 0.433909685427072 
2144	 0.433568810608603 
2145	 0.433253577341048 
2146	 0.432911973981157 
2147	 0.432584648073513 
2148	 0.432196818369268 
2149	 0.431783988922042 
2150	 0.431344067918965 
2151	 0.430882048377538 
2152	 0.430353357793361 
2153	 0.429874583943575 
2154	 0.429408649475051 
2155	 0.428923208772147 
2156	 0.428459024600102 
2157	 0.427956251658 
2158	 0.42743116030041 
2159	 0.426882327619564 
2160	 0.426307322895026 
2161	 0.425720580054736 
2162	 0.425095783559228 
2163	 0.424480389224198 
2164	 0.423841649086098 
2165	 0.423237222036551 
2166	 0.422616137839152 
2167	 0.421993614171932 
2168	 0.421375725283823 
2169	 0.420764010001945 
2170	 0.420134847640474 
2171	 0.419517870883104 
2172	 0.418862231944258 
2173	 0.418188972087617 
2174	 0.417487780507404 
2175	 0.416745392326539 
2176	 0.416010922284021 
2177	 0.415274809155153 
2178	 0.414502063138453 
2179	 0.41369813518438 
2180	 0.412902981980092 
2181	 0.412066544099535 
2182	 0.411252515099941 
2183	 0.410453550382132 
2184	 0.409670572226153 
2185	 0.408871674709147 
2186	 0.408070813520611 
2187	 0.407257893151389 
2188	 0.406417711072257 
2189	 0.405623408894429 
2190	 0.404833110919354 
2191	 0.404068232460994 
2192	 0.403342108770263 
2193	 0.402615447022265 
2194	 0.401873505207815 
2195	 0.401182897812763 
2196	 0.400528004763458 
2197	 0.399886563032661 
2198	 0.399250918224902 
2199	 0.398681195578999 
2200	 0.398140533774193 
2201	 0.397645759864487 
2202	 0.397206061802482 
2203	 0.396830673703264 
2204	 0.396472315859964 
2205	 0.396144706915882 
2206	 0.395859075342443 
2207	 0.395593562707301 
2208	 0.395422094203729 
2209	 0.395304828042103 
2210	 0.39525189462106 
2211	 0.395318078278038 
2212	 0.395350566588582 
2213	 0.395442228096758 
2214	 0.39548850239237 
2215	 0.395525929228014 
2216	 0.395562216642495 
2217	 0.395602918761288 
2218	 0.39560271999578 
2219	 0.395606619130074 
2220	 0.395558666939447 
2221	 0.39543409899662 
2222	 0.395336851231506 
2223	 0.3951937280012 
2224	 0.39504141588313 
2225	 0.394868860887941 
2226	 0.394679383517964 
2227	 0.394465683284276 
2228	 0.394241156767176 
2229	 0.39397097273676 
2230	 0.393680769263176 
2231	 0.393343539734041 
2232	 0.392968930070479 
2233	 0.392542346837033 
2234	 0.392055850250207 
2235	 0.391558592939911 
2236	 0.391015479915492 
2237	 0.39045247544363 
2238	 0.389883091494027 
2239	 0.389266738917389 
2240	 0.388606214556753 
2241	 0.387922424849495 
2242	 0.387222374955989 
2243	 0.386464338364318 
2244	 0.38567940392633 
2245	 0.384826223635762 
2246	 0.383916228424611 
2247	 0.382919857330358 
2248	 0.38192708803228 
2249	 0.380869796632834 
2250	 0.379843656648092 
2251	 0.378806772262739 
2252	 0.377784064191194 
2253	 0.376741068627051 
2254	 0.375745030342121 
2255	 0.374746610121091 
2256	 0.373822563602716 
2257	 0.37290043873453 
2258	 0.372115553830246 
2259	 0.371396272905491 
2260	 0.370799431553683 
2261	 0.3703017988889 
2262	 0.369939217430691 
2263	 0.369722662449673 
2264	 0.369566267797325 
2265	 0.369547755067015 
2266	 0.369582261886913 
2267	 0.369657059966137 
2268	 0.369851735755874 
2269	 0.370160869230239 
2270	 0.370542428587405 
2271	 0.371020826229354 
2272	 0.371549684172703 
2273	 0.372120294023939 
2274	 0.372755319322514 
2275	 0.373448382482452 
2276	 0.374215916498288 
2277	 0.37501544630114 
2278	 0.375885799629747 
2279	 0.37675565313435 
2280	 0.377664328953975 
2281	 0.378575626928258 
2282	 0.37952577508039 
2283	 0.380443241592228 
2284	 0.38139839056655 
2285	 0.382280998310454 
2286	 0.383118738660718 
2287	 0.383936960016118 
2288	 0.384684878085627 
2289	 0.385456094079039 
2290	 0.38628070295574 
2291	 0.386993979662648 
2292	 0.387655087775603 
2293	 0.388295356999682 
2294	 0.388831262755473 
2295	 0.389381870103193 
2296	 0.389917922787178 
2297	 0.390471114425931 
2298	 0.391000429864766 
2299	 0.391523280188661 
2300	 0.392099943746489 
2301	 0.392632678860897 
2302	 0.393126346859769 
2303	 0.393633380620676 
2304	 0.394095104039269 
2305	 0.394567797699764 
2306	 0.395053630913502 
2307	 0.395564804276576 
2308	 0.396041690467299 
2309	 0.396543238368089 
2310	 0.396960763968514 
2311	 0.397326597378658 
2312	 0.397685428518998 
2313	 0.397974779561856 
2314	 0.398283421429849 
2315	 0.398611743199611 
2316	 0.398886815564495 
2317	 0.399133536280972 
2318	 0.399372819197642 
2319	 0.399567309542702 
2320	 0.399772644349826 
2321	 0.399979623932784 
2322	 0.40015617150044 
2323	 0.400333118236676 
2324	 0.400490298905922 
2325	 0.400591989569638 
2326	 0.400729289767267 
2327	 0.400900813348641 
2328	 0.400995721780234 
2329	 0.401119430316161 
2330	 0.401251269974845 
2331	 0.401316907755629 
2332	 0.401329154033774 
2333	 0.401310689744433 
2334	 0.401296985993914 
2335	 0.401300310967124 
2336	 0.401280747753523 
2337	 0.401205814476011 
2338	 0.401089261640097 
2339	 0.400923700168391 
2340	 0.400759695826478 
2341	 0.40062347639872 
2342	 0.400430478924265 
2343	 0.400186496511658 
2344	 0.399907262259986 
2345	 0.399631651747072 
2346	 0.399317565407627 
2347	 0.399037995641563 
2348	 0.398793533663239 
2349	 0.398483297832917 
2350	 0.39815078238485 
2351	 0.397827012975315 
2352	 0.397471167283291 
2353	 0.397082498070841 
2354	 0.396647347033195 
2355	 0.396282895300998 
2356	 0.395938160052511 
2357	 0.395575711730821 
2358	 0.395266106717834 
2359	 0.394944938118824 
2360	 0.394578510806297 
2361	 0.394218724000721 
2362	 0.39394794199371 
2363	 0.393545800240554 
2364	 0.393038953970477 
2365	 0.392525677766194 
2366	 0.391984207099666 
2367	 0.391378861646294 
2368	 0.390641017432556 
2369	 0.390042757128501 
2370	 0.38948897618127 
2371	 0.388879001100223 
2372	 0.388359795479891 
2373	 0.387832686068858 
2374	 0.38717072849482 
2375	 0.386516281415274 
2376	 0.385848449495992 
2377	 0.385174596646417 
2378	 0.384424049922657 
2379	 0.383578496244815 
2380	 0.382779965211167 
2381	 0.381899720409874 
2382	 0.381002770783627 
2383	 0.380263928104487 
2384	 0.37953592467401 
2385	 0.378801140188345 
2386	 0.378193371370334 
2387	 0.377522378351383 
2388	 0.376786385490936 
2389	 0.376084514118379 
2390	 0.375312698004606 
2391	 0.374542410157205 
2392	 0.373779403182874 
2393	 0.372986532055281 
2394	 0.372199166637081 
2395	 0.371430167235321 
2396	 0.370625848355312 
2397	 0.369791972251674 
2398	 0.368904827471984 
2399	 0.367909865730464 
2400	 0.367050454494208 
2401	 0.366324757537303 
2402	 0.365631950579737 
2403	 0.36507368377781 
2404	 0.364456171945064 
2405	 0.36382074421004 
2406	 0.36320848435112 
2407	 0.36250690791411 
2408	 0.361874267086767 
2409	 0.361183493908354 
2410	 0.360366543717338 
2411	 0.359651429958037 
2412	 0.359018627197567 
2413	 0.358332098232757 
2414	 0.357735725382601 
2415	 0.357147784536744 
2416	 0.356504449969322 
2417	 0.355769200304225 
2418	 0.355118782629496 
2419	 0.354475316698474 
2420	 0.353892303063774 
2421	 0.353324257094547 
2422	 0.352822443017117 
2423	 0.3524138102028 
2424	 0.351936629348468 
2425	 0.351516946853216 
2426	 0.350978740669968 
2427	 0.350330116022824 
2428	 0.349786386421515 
2429	 0.349224019804598 
2430	 0.348735322234641 
2431	 0.348335456859692 
2432	 0.347909699468972 
2433	 0.347516732450223 
2434	 0.347023456111657 
2435	 0.34653967213628 
2436	 0.345991886025607 
2437	 0.345288405609175 
2438	 0.344720173156933 
2439	 0.344231704317968 
2440	 0.343590968463798 
2441	 0.342914592805563 
2442	 0.342314333399006 
2443	 0.34163982134788 
2444	 0.341039373356163 
2445	 0.340574920210122 
2446	 0.339982881548887 
2447	 0.339302955165282 
2448	 0.338686748293921 
2449	 0.338023345649554 
2450	 0.337468392630593 
2451	 0.337050552661184 
2452	 0.336481096528156 
2453	 0.335907533397595 
2454	 0.33532110058511 
2455	 0.334611529258537 
2456	 0.334003804466076 
2457	 0.333441866031908 
2458	 0.332931792020433 
2459	 0.332466783274534 
2460	 0.331981247972433 
2461	 0.331507572840673 
2462	 0.331126040168334 
2463	 0.330782595745143 
2464	 0.330467010571416 
2465	 0.330330601268842 
2466	 0.329973989605781 
2467	 0.329456203958662 
2468	 0.329136199190721 
2469	 0.328812531406588 
2470	 0.328519821468793 
2471	 0.328229240581202 
2472	 0.327983116131665 
2473	 0.327662836379425 
2474	 0.327506841382087 
2475	 0.327394165078772 
2476	 0.326960705256307 
2477	 0.326653801371721 
2478	 0.326346429670302 
2479	 0.325885222625585 
2480	 0.325549517058164 
2481	 0.325132521673769 
2482	 0.324627857792576 
2483	 0.32420263881143 
2484	 0.323747504798051 
2485	 0.323271755528648 
2486	 0.322704126856064 
2487	 0.322050846899728 
2488	 0.3215557258836 
2489	 0.321103552510628 
2490	 0.320578104280819 
2491	 0.319998181079036 
2492	 0.319507429084383 
2493	 0.318779208556955 
2494	 0.317924155987937 
2495	 0.317541504576589 
2496	 0.317011420240814 
2497	 0.316422172146237 
2498	 0.315974006109822 
2499	 0.315264915432952 
2500	 0.314503767837647 
