Wavelength	LMW700004.asd
350	 7.08029976376102E-02 
351	 6.93913019883823E-02 
352	 6.38496676437248E-02 
353	 5.80702011330497E-02 
354	 6.24432812048074E-02 
355	 6.42934664270166E-02 
356	 6.35813379526546E-02 
357	 6.32094337943877E-02 
358	 6.36799163531127E-02 
359	 6.46982985159488E-02 
360	 6.48229418283557E-02 
361	 6.22167515731529E-02 
362	 5.78704082742614E-02 
363	 5.80656639470764E-02 
364	 0.062209629621396 
365	 5.79998445765128E-02 
366	 5.87126650629045E-02 
367	 6.17881925136015E-02 
368	 6.20096155807731E-02 
369	 6.16971088083458E-02 
370	 0.062687948374053 
371	 6.37053398136916E-02 
372	 6.20502901019242E-02 
373	 6.48585092925717E-02 
374	 6.63262323903005E-02 
375	 6.40927402998046E-02 
376	 6.47083406030557E-02 
377	 6.21792768257421E-02 
378	 0.060662302582949 
379	 6.45254618488799E-02 
380	 6.63882097277751E-02 
381	 6.55431224337388E-02 
382	 6.51423238934445E-02 
383	 7.00462943207862E-02 
384	 0.070342303427982 
385	 6.95237273199235E-02 
386	 7.07347151076484E-02 
387	 7.27726934117243E-02 
388	 7.43586284895506E-02 
389	 7.50937361301258E-02 
390	 0.075100362717561 
391	 7.46297153009518E-02 
392	 0.07619934008501 
393	 7.94862109116558E-02 
394	 8.17275421892143E-02 
395	 8.18896844860733E-02 
396	 8.20076459296311E-02 
397	 8.33825268502608E-02 
398	 8.45761580506154E-02 
399	 8.65800134054911E-02 
400	 0.089384586972497 
401	 9.22065474354918E-02 
402	 9.20512932896986E-02 
403	 9.33603973331204E-02 
404	 9.62341021466506E-02 
405	 9.61980046845127E-02 
406	 9.74114459737071E-02 
407	 9.96531617862694E-02 
408	 0.101728598842841 
409	 0.102210698915194 
410	 0.102818364544888 
411	 0.104056759981646 
412	 0.105722169907985 
413	 0.107265403898027 
414	 0.108307785888949 
415	 0.108649939394643 
416	 0.10822167201068 
417	 0.108635367297985 
418	 0.109833277600571 
419	 0.111040469300057 
420	 0.110759205493359 
421	 0.11003108272117 
422	 0.109695483875051 
423	 0.110225746213795 
424	 0.110092318289662 
425	 0.109868297872156 
426	 0.109791406176613 
427	 0.108898987419763 
428	 0.108563034650712 
429	 0.108295615017652 
430	 0.107345361036667 
431	 0.106839400245818 
432	 0.106317639788629 
433	 0.105777042306276 
434	 0.105696251978438 
435	 0.105593693976359 
436	 0.105638375058123 
437	 0.105930448549144 
438	 0.105998510784335 
439	 0.106542023602529 
440	 0.107636181357969 
441	 0.108965435663914 
442	 0.109913251778771 
443	 0.110901905240886 
444	 0.11210245581847 
445	 0.113129176308065 
446	 0.114366911511767 
447	 0.1157410468376 
448	 0.117075279249186 
449	 0.118379993488993 
450	 0.119646984677026 
451	 0.120886022661889 
452	 0.122120080687214 
453	 0.123392066058069 
454	 0.12455608725015 
455	 0.125589006813264 
456	 0.126868330179492 
457	 0.127969059871632 
458	 0.128886848311948 
459	 0.129814031785652 
460	 0.130890730705233 
461	 0.131686584039529 
462	 0.132199063614485 
463	 0.133084934514639 
464	 0.133853117018497 
465	 0.134471348894226 
466	 0.135075975150878 
467	 0.135977281838759 
468	 0.136644962562906 
469	 0.137081826210075 
470	 0.137710417185441 
471	 0.138172621680247 
472	 0.138582130967787 
473	 0.139083063007522 
474	 0.139731507254089 
475	 0.140252125848153 
476	 0.140624395691831 
477	 0.140977963048307 
478	 0.141568092518331 
479	 0.142156876444352 
480	 0.142591314186339 
481	 0.142890569719087 
482	 0.143327350137531 
483	 0.143899745114997 
484	 0.144489157005692 
485	 0.144915252883666 
486	 0.145129872849568 
487	 0.145284734478749 
488	 0.145672039251381 
489	 0.146131061976128 
490	 0.146523474363076 
491	 0.146841443189342 
492	 0.147413585597025 
493	 0.147768892035191 
494	 0.148020526950505 
495	 0.148507157231847 
496	 0.149001524112086 
497	 0.149377893647426 
498	 0.14969009205821 
499	 0.150249597004759 
500	 0.150585759896464 
501	 0.150872129077593 
502	 0.151357784047641 
503	 0.151753347861784 
504	 0.151997871569379 
505	 0.152219477773269 
506	 0.152686251024505 
507	 0.153052111374196 
508	 0.153319643179538 
509	 0.153601008841189 
510	 0.154138049646896 
511	 0.154512724911685 
512	 0.154748772868295 
513	 0.15509563982749 
514	 0.155470205324835 
515	 0.155922590598397 
516	 0.156416573607078 
517	 0.156749176365709 
518	 0.157048070599943 
519	 0.157294885643045 
520	 0.157487251521451 
521	 0.15793582556729 
522	 0.158395809918628 
523	 0.158755399365388 
524	 0.159076164086232 
525	 0.159358427185771 
526	 0.159660255697523 
527	 0.160021048043657 
528	 0.160403570572464 
529	 0.160700609574269 
530	 0.160990967719743 
531	 0.161448463225575 
532	 0.161803712471902 
533	 0.162164063213967 
534	 0.162581019034392 
535	 0.162864565035412 
536	 0.163196206114882 
537	 0.163559982105948 
538	 0.16388328916086 
539	 0.164274959897372 
540	 0.164658062514199 
541	 0.165014706243487 
542	 0.165425954967546 
543	 0.165721065260909 
544	 0.16601512402284 
545	 0.166441816797155 
546	 0.166887516861651 
547	 0.167279266983871 
548	 0.167665051611703 
549	 0.168180710294667 
550	 0.168603270170477 
551	 0.168996301811791 
552	 0.1694483994645 
553	 0.169973100097639 
554	 0.170518418288034 
555	 0.171053178636259 
556	 0.171563131127615 
557	 0.172074057373364 
558	 0.172612860327777 
559	 0.173195257619194 
560	 0.173825978920947 
561	 0.174416243909051 
562	 0.17497064146151 
563	 0.175535173855875 
564	 0.176167648356047 
565	 0.176820957461763 
566	 0.177466521327555 
567	 0.178107152112967 
568	 0.178900487670965 
569	 0.179737266574313 
570	 0.1805110169525 
571	 0.181357315181685 
572	 0.182261206402285 
573	 0.183155856354973 
574	 0.183945175614879 
575	 0.184672566165696 
576	 0.18549437505798 
577	 0.186455985137672 
578	 0.187322275336906 
579	 0.188258641480312 
580	 0.189235594340533 
581	 0.190175120849102 
582	 0.191257958891195 
583	 0.192363637284329 
584	 0.193430271871472 
585	 0.194523501529839 
586	 0.195558413445742 
587	 0.196565806875144 
588	 0.197599049726459 
589	 0.198650919837865 
590	 0.199720385723522 
591	 0.200804265720273 
592	 0.201898839947399 
593	 0.202973652323278 
594	 0.204026451153387 
595	 0.205085925242722 
596	 0.206255799539927 
597	 0.207437143389291 
598	 0.208597262159312 
599	 0.209734641759162 
600	 0.210733133157514 
601	 0.211759559296179 
602	 0.212846669310796 
603	 0.213729082645811 
604	 0.214598580336309 
605	 0.215497974997769 
606	 0.21641765139594 
607	 0.217357388177185 
608	 0.218223135464232 
609	 0.219035909030919 
610	 0.219950276338326 
611	 0.220805902464117 
612	 0.221604942960885 
613	 0.222374304573351 
614	 0.223096753953651 
615	 0.223767898253387 
616	 0.22441576499075 
617	 0.225077159370074 
618	 0.225633343652643 
619	 0.226141900330175 
620	 0.226662416500122 
621	 0.227199638609675 
622	 0.227730534780723 
623	 0.228212863532849 
624	 0.22862570544556 
625	 0.229136463423881 
626	 0.229619596849936 
627	 0.230022466212203 
628	 0.230418751188882 
629	 0.230856557707348 
630	 0.231300302197876 
631	 0.231690983366638 
632	 0.231979646280073 
633	 0.232280704984986 
634	 0.232647280480498 
635	 0.233067843342551 
636	 0.233387657390841 
637	 0.233713649729256 
638	 0.23410597256847 
639	 0.234382884521567 
640	 0.234715575357164 
641	 0.235082641234676 
642	 0.235392274834328 
643	 0.235748300803522 
644	 0.236131292150711 
645	 0.236508063483599 
646	 0.236843238397736 
647	 0.237133359757713 
648	 0.237436306896112 
649	 0.237805237942665 
650	 0.238189507431612 
651	 0.238600951691744 
652	 0.239010147212213 
653	 0.239358427526558 
654	 0.239732033503305 
655	 0.240111582789615 
656	 0.240482359576541 
657	 0.240890418586185 
658	 0.241314025429452 
659	 0.241728089959096 
660	 0.242114204681934 
661	 0.24252979530238 
662	 0.242960931116025 
663	 0.243402866968427 
664	 0.243874814694684 
665	 0.244343789198564 
666	 0.244822118635298 
667	 0.245310468783413 
668	 0.24568387478298 
669	 0.246175022808438 
670	 0.246762242279605 
671	 0.247217259620985 
672	 0.247706759451827 
673	 0.248258029280001 
674	 0.248839365834426 
675	 0.249329630111112 
676	 0.249881065055956 
677	 0.250437631353895 
678	 0.250895209154308 
679	 0.25149312585835 
680	 0.252097241319377 
681	 0.252668139389508 
682	 0.253333427932553 
683	 0.253915970161639 
684	 0.254475949481693 
685	 0.255103086152355 
686	 0.255761329544561 
687	 0.256380405499054 
688	 0.256978359996681 
689	 0.257632562650014 
690	 0.25831853179426 
691	 0.25893736478355 
692	 0.259495671066428 
693	 0.260239086086297 
694	 0.260949447777961 
695	 0.261610556968756 
696	 0.262268188250296 
697	 0.262862439556266 
698	 0.263560626759759 
699	 0.264353323441613 
700	 0.265038757718995 
701	 0.26570629472254 
702	 0.266364715384917 
703	 0.267008406989474 
704	 0.267621889036374 
705	 0.268315874465354 
706	 0.269028028704711 
707	 0.269634028023146 
708	 0.270335449108073 
709	 0.270995178563827 
710	 0.271580216157504 
711	 0.272258481973916 
712	 0.272904573094988 
713	 0.273511444590641 
714	 0.274108873761231 
715	 0.27473598639484 
716	 0.275336143666904 
717	 0.275907787448056 
718	 0.276486517061784 
719	 0.277029210220002 
720	 0.277568246071722 
721	 0.27809924960213 
722	 0.278519042504379 
723	 0.278976933500059 
724	 0.279486899775849 
725	 0.279990970515786 
726	 0.28033479008124 
727	 0.280704127157553 
728	 0.281111716542393 
729	 0.281404688427901 
730	 0.281755921328097 
731	 0.282065950863921 
732	 0.282272646251967 
733	 0.282514787201229 
734	 0.282792789320142 
735	 0.283030416834072 
736	 0.283146036652078 
737	 0.28325890448748 
738	 0.283366772200433 
739	 0.283459025085766 
740	 0.283525560064933 
741	 0.283558403481182 
742	 0.283555919286967 
743	 0.28351514266032 
744	 0.28342436838814 
745	 0.283278038836699 
746	 0.283131017755326 
747	 0.283035967404625 
748	 0.282809949649313 
749	 0.282616749668129 
750	 0.282473942377628 
751	 0.28219088088489 
752	 0.281878809315542 
753	 0.281542627835304 
754	 0.281182656574038 
755	 0.280849182687057 
756	 0.28056000692367 
757	 0.280232810822484 
758	 0.279766649597832 
759	 0.27933567829778 
760	 0.278846775049483 
761	 0.278306269361663 
762	 0.277869979567399 
763	 0.277432224439578 
764	 0.276958172280608 
765	 0.276441044916432 
766	 0.275902550510314 
767	 0.275347947153892 
768	 0.274772354189329 
769	 0.274177836056772 
770	 0.273661747943482 
771	 0.273131413420976 
772	 0.272539588479005 
773	 0.271916090350705 
774	 0.271323807812291 
775	 0.270737831743237 
776	 0.270125575085603 
777	 0.269488320425926 
778	 0.268908980751582 
779	 0.268319769661303 
780	 0.267625273437993 
781	 0.267038403800987 
782	 0.266450816600317 
783	 0.265809559995588 
784	 0.265152799924665 
785	 0.264587004972836 
786	 0.264015917577132 
787	 0.26337053325932 
788	 0.26274158169524 
789	 0.262108654519356 
790	 0.261510688753386 
791	 0.260977398708237 
792	 0.260394455763616 
793	 0.259801042805291 
794	 0.259195533481004 
795	 0.258544162479628 
796	 0.25792621324487 
797	 0.257391295487982 
798	 0.256902320652715 
799	 0.256275524591559 
800	 0.255714020820861 
801	 0.255199769570556 
802	 0.25465355555393 
803	 0.254030804298707 
804	 0.253502081877598 
805	 0.253049989890642 
806	 0.252545411702761 
807	 0.252041928509 
808	 0.251489603694215 
809	 0.250910946918923 
810	 0.250426220589725 
811	 0.249960376056056 
812	 0.249495398814134 
813	 0.249028914280272 
814	 0.248572315947202 
815	 0.248078202944297 
816	 0.247581124245248 
817	 0.247136958846234 
818	 0.246704995702682 
819	 0.246324551148467 
820	 0.245965265174617 
821	 0.245543793790106 
822	 0.245118930325955 
823	 0.244725217413766 
824	 0.244344534327562 
825	 0.243879791659062 
826	 0.243487192631367 
827	 0.243157218275991 
828	 0.242837484955454 
829	 0.242505880747787 
830	 0.242129323041489 
831	 0.241735081268944 
832	 0.241376764147778 
833	 0.241060419335134 
834	 0.240746863214142 
835	 0.240458802787633 
836	 0.240261051164047 
837	 0.239925455267074 
838	 0.239596313636142 
839	 0.239348037763925 
840	 0.239029135121557 
841	 0.238786908332039 
842	 0.238542261338481 
843	 0.238228120372076 
844	 0.238006529505455 
845	 0.237883509673918 
846	 0.237743911076145 
847	 0.237467947715624 
848	 0.237259170276736 
849	 0.237058493563272 
850	 0.236855527387048 
851	 0.23668585638222 
852	 0.236472262699993 
853	 0.236277594314662 
854	 0.236135214719975 
855	 0.236006941606814 
856	 0.235921013082083 
857	 0.235815216694903 
858	 0.235647489340427 
859	 0.235467246883339 
860	 0.235363853230774 
861	 0.235290822025319 
862	 0.23518196831644 
863	 0.235140537272281 
864	 0.235049690444478 
865	 0.234950907087284 
866	 0.234949319105015 
867	 0.23482741081516 
868	 0.23477974042778 
869	 0.234814796367563 
870	 0.234729639462058 
871	 0.234609816559098 
872	 0.234542347435368 
873	 0.234564681139025 
874	 0.234632736973045 
875	 0.234657858049483 
876	 0.234667497476529 
877	 0.234702130717926 
878	 0.234745732210528 
879	 0.234821156443875 
880	 0.234859179140265 
881	 0.234815415139571 
882	 0.234874568853059 
883	 0.234941595791633 
884	 0.234991788731959 
885	 0.235051138492592 
886	 0.235163189961775 
887	 0.235347894293542 
888	 0.235517682162521 
889	 0.235532410767245 
890	 0.235607773604722 
891	 0.235747632669021 
892	 0.235933451171671 
893	 0.236149244042272 
894	 0.236255476429474 
895	 0.23635371883048 
896	 0.236543099936513 
897	 0.236824483916435 
898	 0.237101070295597 
899	 0.237292723603725 
900	 0.237389699024411 
901	 0.237525082851066 
902	 0.237758187394966 
903	 0.238028106425198 
904	 0.238264456275336 
905	 0.238556411108008 
906	 0.238831272231145 
907	 0.239122903337269 
908	 0.23947048006289 
909	 0.239665542595136 
910	 0.239868345678624 
911	 0.240162287769972 
912	 0.240527912375108 
913	 0.24074904006355 
914	 0.240975728558662 
915	 0.241315080402433 
916	 0.241769753205581 
917	 0.242059323940871 
918	 0.242409144654021 
919	 0.242895504488917 
920	 0.243346352572644 
921	 0.243747860047518 
922	 0.244060311282528 
923	 0.244340971232576 
924	 0.244771904686066 
925	 0.245262933050555 
926	 0.24573769682031 
927	 0.246157479781893 
928	 0.246547736862186 
929	 0.247074181795172 
930	 0.247612827061666 
931	 0.248044303508412 
932	 0.24844594565645 
933	 0.248882792587517 
934	 0.249431410044218 
935	 0.250083984277265 
936	 0.250611534332951 
937	 0.251151257051808 
938	 0.251681031802234 
939	 0.252169812606855 
940	 0.252738475823472 
941	 0.253267808003049 
942	 0.253853941260369 
943	 0.254581971574245 
944	 0.255147823198287 
945	 0.255768209155442 
946	 0.256426712274038 
947	 0.257021758084738 
948	 0.257609240591677 
949	 0.258232811123848 
950	 0.258870126044362 
951	 0.259497576499598 
952	 0.260268477670725 
953	 0.260998550406442 
954	 0.261621216868044 
955	 0.26219512027274 
956	 0.262960511310551 
957	 0.263716256997102 
958	 0.26442131114335 
959	 0.265147080389109 
960	 0.265875497374915 
961	 0.266671388313581 
962	 0.26748429432379 
963	 0.268213969523161 
964	 0.268957640148069 
965	 0.269680976072776 
966	 0.270450435381075 
967	 0.271350381905613 
968	 0.272131326792622 
969	 0.272929571778225 
970	 0.273725137846439 
971	 0.274440079768911 
972	 0.275438956247364 
973	 0.276416928270452 
974	 0.277273694960041 
975	 0.278092825849782 
976	 0.278901994317897 
977	 0.279776406640289 
978	 0.280698332347411 
979	 0.28159137753248 
980	 0.282452182864029 
981	 0.283235530758195 
982	 0.283965107925346 
983	 0.284723182934331 
984	 0.285620956586452 
985	 0.286661187205127 
986	 0.287696985851061 
987	 0.288549170552529 
988	 0.289274910748427 
989	 0.290169879167713 
990	 0.29117412085595 
991	 0.2920847094761 
992	 0.293047609118435 
993	 0.29383891574134 
994	 0.294724015914756 
995	 0.295935642756325 
996	 0.29665340974037 
997	 0.297524074856259 
998	 0.298510763183626 
999	 0.299404614781498 
1000	 0.300497510540199 
1001	 0.304448777721904 
1002	 0.305317054851374 
1003	 0.306219159217464 
1004	 0.307122922046046 
1005	 0.308022865304242 
1006	 0.308934042643518 
1007	 0.309886132207955 
1008	 0.3107790211795 
1009	 0.311631657409459 
1010	 0.312425872105147 
1011	 0.31316032611139 
1012	 0.313958894578274 
1013	 0.314790114974823 
1014	 0.315570652617069 
1015	 0.316390953537726 
1016	 0.317197200470653 
1017	 0.31798475877209 
1018	 0.318734310023471 
1019	 0.319538399500708 
1020	 0.32034339422287 
1021	 0.321125740341803 
1022	 0.321929333535939 
1023	 0.322726217495542 
1024	 0.32348382573932 
1025	 0.324252110118069 
1026	 0.324977527438082 
1027	 0.325669261163192 
1028	 0.326415625471517 
1029	 0.327138960463228 
1030	 0.327863144347595 
1031	 0.328573867006084 
1032	 0.329286759587987 
1033	 0.329962696231296 
1034	 0.330668648174928 
1035	 0.331385642675158 
1036	 0.332155139300328 
1037	 0.332916663526817 
1038	 0.333629702572925 
1039	 0.334362838240712 
1040	 0.335077799588594 
1041	 0.335794907514286 
1042	 0.336558896606673 
1043	 0.337290838909697 
1044	 0.337986978472057 
1045	 0.338647123141457 
1046	 0.33933250953262 
1047	 0.340037738156731 
1048	 0.340735950514831 
1049	 0.341449373663833 
1050	 0.342165666108767 
1051	 0.34283198628341 
1052	 0.343471395755454 
1053	 0.34415885669882 
1054	 0.344867861245135 
1055	 0.345551136277563 
1056	 0.346205320110346 
1057	 0.346858193139914 
1058	 0.347500111790626 
1059	 0.348143935545397 
1060	 0.34877256133267 
1061	 0.349414941779213 
1062	 0.350049282446842 
1063	 0.350631214922924 
1064	 0.351245775012809 
1065	 0.35182565645515 
1066	 0.352445396885673 
1067	 0.35305331528813 
1068	 0.353554835283678 
1069	 0.35413997868378 
1070	 0.354689499801693 
1071	 0.355170170443126 
1072	 0.355722068838502 
1073	 0.356318204054983 
1074	 0.356862881295943 
1075	 0.357398472426052 
1076	 0.357968074016655 
1077	 0.358528699483783 
1078	 0.359102353996988 
1079	 0.359581100340449 
1080	 0.360026398141566 
1081	 0.360479075370068 
1082	 0.360898763377602 
1083	 0.361351738619602 
1084	 0.361890562559161 
1085	 0.36236113699375 
1086	 0.36274272040544 
1087	 0.363207490665823 
1088	 0.363701644930968 
1089	 0.364195619482551 
1090	 0.364709502885513 
1091	 0.365252775159255 
1092	 0.365759256524857 
1093	 0.36627588860348 
1094	 0.366790823520991 
1095	 0.367271383127309 
1096	 0.367764484347396 
1097	 0.368246682399125 
1098	 0.368750168945372 
1099	 0.369278008998822 
1100	 0.369799156687578 
1101	 0.370315959977919 
1102	 0.370847344047041 
1103	 0.371399966379355 
1104	 0.371916918458671 
1105	 0.372428200544146 
1106	 0.37299258769386 
1107	 0.373531436543233 
1108	 0.374039304632104 
1109	 0.374612392291497 
1110	 0.375193963470932 
1111	 0.37574972900049 
1112	 0.376311225973994 
1113	 0.376869560211632 
1114	 0.37739299381618 
1115	 0.37794646489205 
1116	 0.378516129728001 
1117	 0.37908893137918 
1118	 0.379675632285286 
1119	 0.380255910922146 
1120	 0.380853908689232 
1121	 0.381440230497996 
1122	 0.382000616795848 
1123	 0.382603313214894 
1124	 0.383204370176729 
1125	 0.383815844452898 
1126	 0.384408706686934 
1127	 0.384997423104631 
1128	 0.385587175408801 
1129	 0.386166808834215 
1130	 0.386744821300281 
1131	 0.38733670627275 
1132	 0.387924856551016 
1133	 0.388498905731833 
1134	 0.389071609343729 
1135	 0.389665460962539 
1136	 0.39022073622459 
1137	 0.39075965280992 
1138	 0.391291853963807 
1139	 0.391836150148386 
1140	 0.392364643619497 
1141	 0.39292661330793 
1142	 0.393526688574615 
1143	 0.394088410903084 
1144	 0.394655841687801 
1145	 0.395201663906963 
1146	 0.395712687292578 
1147	 0.396235446179239 
1148	 0.39675528237358 
1149	 0.397273070547706 
1150	 0.397795674163658 
1151	 0.398314256245135 
1152	 0.398796147218837 
1153	 0.39930140128395 
1154	 0.399795718584783 
1155	 0.400283647335488 
1156	 0.400757544617401 
1157	 0.401241994299813 
1158	 0.401691140780742 
1159	 0.402100544175723 
1160	 0.402529798748221 
1161	 0.402954631954496 
1162	 0.403377135048859 
1163	 0.403798225010255 
1164	 0.404224140154937 
1165	 0.404650030456488 
1166	 0.405076313559613 
1167	 0.40549058940614 
1168	 0.405919332801481 
1169	 0.406344988428227 
1170	 0.406775029599212 
1171	 0.40717970988381 
1172	 0.407585064880286 
1173	 0.407975022310763 
1174	 0.408339431064357 
1175	 0.408705159428518 
1176	 0.409067597902554 
1177	 0.409429143726989 
1178	 0.409768571944623 
1179	 0.410129568517954 
1180	 0.410509809965072 
1181	 0.410880443356692 
1182	 0.41125652870275 
1183	 0.411638445777224 
1184	 0.411991609055573 
1185	 0.412322986043925 
1186	 0.412670567944025 
1187	 0.413008836244007 
1188	 0.413352990483393 
1189	 0.413728258232147 
1190	 0.414052120051788 
1191	 0.414343140866819 
1192	 0.414645541076948 
1193	 0.41491344443181 
1194	 0.415210630062106 
1195	 0.415537368831966 
1196	 0.41584590283538 
1197	 0.416153805589941 
1198	 0.416459372352787 
1199	 0.416760912052667 
1200	 0.417050520072665 
1201	 0.417354481090225 
1202	 0.417676893851664 
1203	 0.41796254598743 
1204	 0.418230830479247 
1205	 0.418510940397981 
1206	 0.418766840949898 
1207	 0.419045776422546 
1208	 0.419360792705249 
1209	 0.419643207068771 
1210	 0.419915533942736 
1211	 0.420182084989748 
1212	 0.420422832697638 
1213	 0.42067991409104 
1214	 0.420951924731877 
1215	 0.421208600129458 
1216	 0.421461200003234 
1217	 0.421720894046482 
1218	 0.421958473649491 
1219	 0.422169231527398 
1220	 0.422403747849426 
1221	 0.422631836641023 
1222	 0.422879766037328 
1223	 0.423159853572272 
1224	 0.423407012785788 
1225	 0.423650131857301 
1226	 0.423888741054143 
1227	 0.424116565062907 
1228	 0.424332738831509 
1229	 0.424542874058634 
1230	 0.424750862017217 
1231	 0.424933457149354 
1232	 0.425130109948522 
1233	 0.425332623889631 
1234	 0.425540919008494 
1235	 0.425757770651703 
1236	 0.425983893874823 
1237	 0.426207644146946 
1238	 0.426451631335841 
1239	 0.426665666742746 
1240	 0.426872575146177 
1241	 0.42706476349036 
1242	 0.427220975168608 
1243	 0.427406858023141 
1244	 0.427602304765557 
1245	 0.427788271294933 
1246	 0.427986952616062 
1247	 0.428177067555039 
1248	 0.428347289512703 
1249	 0.428531281870711 
1250	 0.428720809605606 
1251	 0.428892484770437 
1252	 0.429054304373508 
1253	 0.429199516282049 
1254	 0.429353052165647 
1255	 0.429485756798352 
1256	 0.429654695731228 
1257	 0.429859728016267 
1258	 0.430028093941309 
1259	 0.43019486020334 
1260	 0.430360367466969 
1261	 0.430506432874006 
1262	 0.43065187675987 
1263	 0.430799093382391 
1264	 0.430954397216936 
1265	 0.431101859826711 
1266	 0.431252100628865 
1267	 0.431419332178475 
1268	 0.431575377325741 
1269	 0.431741587560547 
1270	 0.431901184787183 
1271	 0.432073322589527 
1272	 0.43226730474126 
1273	 0.432439857847264 
1274	 0.432591210168968 
1275	 0.432773250859351 
1276	 0.432957865424893 
1277	 0.433155783728107 
1278	 0.433389951290209 
1279	 0.433600924110458 
1280	 0.43380856336252 
1281	 0.434009505921373 
1282	 0.434210214689516 
1283	 0.434395551045477 
1284	 0.434579616377363 
1285	 0.434740227206007 
1286	 0.434888577903488 
1287	 0.435003765869467 
1288	 0.43511277161485 
1289	 0.435204050306903 
1290	 0.435285265167815 
1291	 0.435355738719054 
1292	 0.435411323247197 
1293	 0.435451525811613 
1294	 0.435474442322962 
1295	 0.435478557923999 
1296	 0.435472228125312 
1297	 0.435436248730978 
1298	 0.435417825986797 
1299	 0.435411919198222 
1300	 0.435381972803628 
1301	 0.435347957497314 
1302	 0.435304524944278 
1303	 0.435241657871475 
1304	 0.435168282699074 
1305	 0.435103228456783 
1306	 0.435023289779906 
1307	 0.434939100808112 
1308	 0.434849564817327 
1309	 0.434765909672359 
1310	 0.434677486007426 
1311	 0.434607963545451 
1312	 0.434548706189698 
1313	 0.434486493182066 
1314	 0.434444972275101 
1315	 0.434378554017312 
1316	 0.434269228330382 
1317	 0.434223254387378 
1318	 0.434194801926324 
1319	 0.434180390950267 
1320	 0.434229625855349 
1321	 0.434240025628098 
1322	 0.434234285630306 
1323	 0.434220294774755 
1324	 0.434224723024568 
1325	 0.434253499606275 
1326	 0.434314145780209 
1327	 0.434370039334806 
1328	 0.434404580995853 
1329	 0.434456190410878 
1330	 0.434516419647373 
1331	 0.434568074498337 
1332	 0.434652065709724 
1333	 0.434772343274351 
1334	 0.434869022903515 
1335	 0.434952829140145 
1336	 0.435077546851776 
1337	 0.435219267501916 
1338	 0.435352412766628 
1339	 0.435519875656378 
1340	 0.435661960482057 
1341	 0.435786576741957 
1342	 0.435908588020154 
1343	 0.436022906324477 
1344	 0.436141828638516 
1345	 0.436263873633472 
1346	 0.436381328489646 
1347	 0.436496275940388 
1348	 0.436629781140289 
1349	 0.436734274792619 
1350	 0.436812009179655 
1351	 0.436913679308174 
1352	 0.437011762211552 
1353	 0.43712212385271 
1354	 0.437256413150981 
1355	 0.43737023635651 
1356	 0.437478919212994 
1357	 0.437585163600114 
1358	 0.437685483797874 
1359	 0.437783721813218 
1360	 0.437876400431689 
1361	 0.437978038024107 
1362	 0.438077106680782 
1363	 0.438175907448928 
1364	 0.4382725281972 
1365	 0.438385704860495 
1366	 0.438501365608255 
1367	 0.438629708165347 
1368	 0.438784307118953 
1369	 0.438914571958923 
1370	 0.43902430307753 
1371	 0.439121200015721 
1372	 0.439171131816352 
1373	 0.43919260897146 
1374	 0.439204272920133 
1375	 0.43919378164051 
1376	 0.439162581067276 
1377	 0.439123381122511 
1378	 0.439047911928529 
1379	 0.438931362064178 
1380	 0.43881762138848 
1381	 0.438668098448616 
1382	 0.438548326865639 
1383	 0.43845178150195 
1384	 0.438320422652253 
1385	 0.438219593075388 
1386	 0.438044113282182 
1387	 0.437818040763685 
1388	 0.437568585583085 
1389	 0.437282556920853 
1390	 0.436954950680052 
1391	 0.436615905527165 
1392	 0.436251630412653 
1393	 0.435839574022429 
1394	 0.435415184117894 
1395	 0.434947583351173 
1396	 0.434462096699427 
1397	 0.433965090470028 
1398	 0.433432286625291 
1399	 0.432923691580456 
1400	 0.432416665850732 
1401	 0.431900830165257 
1402	 0.431396780718389 
1403	 0.430876878250343 
1404	 0.430326754390091 
1405	 0.429804250729506 
1406	 0.429289253834429 
1407	 0.428775063617065 
1408	 0.428259811859379 
1409	 0.427772626561079 
1410	 0.427284166018926 
1411	 0.426827745709778 
1412	 0.426393168726845 
1413	 0.42598742043086 
1414	 0.425632317347516 
1415	 0.425302842785163 
1416	 0.425005385474757 
1417	 0.424733020181689 
1418	 0.424448425350867 
1419	 0.424177692495398 
1420	 0.423931908918128 
1421	 0.423703619869938 
1422	 0.423492705436785 
1423	 0.423267471560587 
1424	 0.423022862287427 
1425	 0.422758752092406 
1426	 0.422505524805138 
1427	 0.422225661509821 
1428	 0.421990323844179 
1429	 0.421784997864239 
1430	 0.421573716477668 
1431	 0.421375118445151 
1432	 0.421175962002858 
1433	 0.420974398401795 
1434	 0.420785656259101 
1435	 0.42060094206326 
1436	 0.420435049232312 
1437	 0.420275836749806 
1438	 0.420131685116465 
1439	 0.420009731754419 
1440	 0.41989763518229 
1441	 0.419767525263022 
1442	 0.419647182598844 
1443	 0.419492445678331 
1444	 0.419336668292741 
1445	 0.419206663768288 
1446	 0.419064570324822 
1447	 0.418951339193926 
1448	 0.418839034834791 
1449	 0.418713892680547 
1450	 0.418583751536679 
1451	 0.418424390181241 
1452	 0.418233077015194 
1453	 0.418065631346455 
1454	 0.417887145491349 
1455	 0.417711995385375 
1456	 0.417561920463154 
1457	 0.417374956928312 
1458	 0.417148363611659 
1459	 0.416954089591053 
1460	 0.416743642117478 
1461	 0.416573322571775 
1462	 0.416439136858755 
1463	 0.416305946073969 
1464	 0.416184146027252 
1465	 0.416078282168553 
1466	 0.41597447513935 
1467	 0.415899124980753 
1468	 0.415833655140475 
1469	 0.415810931860588 
1470	 0.415822061689184 
1471	 0.415855211575138 
1472	 0.415910656604516 
1473	 0.416026993500881 
1474	 0.416157436573339 
1475	 0.416315500002342 
1476	 0.416519919384252 
1477	 0.416719252923259 
1478	 0.416968155596374 
1479	 0.417227088628277 
1480	 0.417492176570493 
1481	 0.417794114603447 
1482	 0.418060293169432 
1483	 0.418306054414631 
1484	 0.418574509029249 
1485	 0.418840290286757 
1486	 0.419112614393597 
1487	 0.419406791237167 
1488	 0.41967801461117 
1489	 0.419945476775021 
1490	 0.420192410671261 
1491	 0.420436538303373 
1492	 0.420655983404009 
1493	 0.420835940607886 
1494	 0.421034538676483 
1495	 0.421235452159948 
1496	 0.4214168390246 
1497	 0.421595000928471 
1498	 0.421769329907327 
1499	 0.421920583442701 
1500	 0.422076085080058 
1501	 0.422239569747983 
1502	 0.422393853501737 
1503	 0.422537409544173 
1504	 0.422682915493862 
1505	 0.422821686821688 
1506	 0.42297892258905 
1507	 0.423132618407061 
1508	 0.423274241232592 
1509	 0.423430571321427 
1510	 0.423575106068157 
1511	 0.42371567993763 
1512	 0.423861873401969 
1513	 0.424015824090498 
1514	 0.424174926072328 
1515	 0.424349544325549 
1516	 0.424523319954299 
1517	 0.424661231047249 
1518	 0.42477317788853 
1519	 0.424890014841121 
1520	 0.42497855101149 
1521	 0.425091530844171 
1522	 0.425215561225864 
1523	 0.425339505343823 
1524	 0.425467981319895 
1525	 0.425600536237316 
1526	 0.425736751978307 
1527	 0.425873784298382 
1528	 0.426016071813139 
1529	 0.426145748755226 
1530	 0.426274576717452 
1531	 0.426401648062999 
1532	 0.426521205629463 
1533	 0.426646580986266 
1534	 0.42678476625872 
1535	 0.426895546739204 
1536	 0.426983725055674 
1537	 0.427086762462417 
1538	 0.427181198279811 
1539	 0.42727861868336 
1540	 0.427388730740779 
1541	 0.427494331572866 
1542	 0.427595614120979 
1543	 0.427692659777202 
1544	 0.427794715405743 
1545	 0.427884935257624 
1546	 0.427956083764907 
1547	 0.428033306744424 
1548	 0.428124120656016 
1549	 0.428238846808762 
1550	 0.428370430926404 
1551	 0.428487019127734 
1552	 0.428579726400006 
1553	 0.428663889522426 
1554	 0.428743772027941 
1555	 0.42882968114014 
1556	 0.428934217252835 
1557	 0.429039646918644 
1558	 0.429128274984037 
1559	 0.429224206553792 
1560	 0.429318218120377 
1561	 0.429403022739603 
1562	 0.429490983395972 
1563	 0.429585910374 
1564	 0.42967780893894 
1565	 0.429761217508689 
1566	 0.429867150690774 
1567	 0.429983572569642 
1568	 0.430092657144698 
1569	 0.430221876273345 
1570	 0.430315573128851 
1571	 0.430392621182919 
1572	 0.430471844033637 
1573	 0.430525523129168 
1574	 0.430600019659631 
1575	 0.430686009209005 
1576	 0.430761814382263 
1577	 0.430847793488309 
1578	 0.430914601473464 
1579	 0.430963147187281 
1580	 0.431019996084141 
1581	 0.431075922626043 
1582	 0.431122884873417 
1583	 0.431155986815558 
1584	 0.431210944185076 
1585	 0.431263286381316 
1586	 0.431326786929196 
1587	 0.431425178688528 
1588	 0.431499252468806 
1589	 0.431577253932609 
1590	 0.431625266138175 
1591	 0.431636681541285 
1592	 0.431669664310669 
1593	 0.431684857897293 
1594	 0.431721059149012 
1595	 0.431773190571471 
1596	 0.431837663235949 
1597	 0.431925146087819 
1598	 0.4319956557051 
1599	 0.432098627032729 
1600	 0.432152696219761 
1601	 0.432153021701415 
1602	 0.432176319542212 
1603	 0.432183868516652 
1604	 0.432193431137174 
1605	 0.432205264756432 
1606	 0.43222984978122 
1607	 0.432249020116738 
1608	 0.432283951048206 
1609	 0.43234182748215 
1610	 0.432399499827712 
1611	 0.432410014679969 
1612	 0.432422864384158 
1613	 0.432439330138577 
1614	 0.432433967479728 
1615	 0.432459496408607 
1616	 0.432504632137615 
1617	 0.432546288596508 
1618	 0.432603807955859 
1619	 0.432658093355575 
1620	 0.432695922692521 
1621	 0.432741244687568 
1622	 0.432786351968775 
1623	 0.432814648875694 
1624	 0.432837473337542 
1625	 0.432865388802957 
1626	 0.432876776978281 
1627	 0.432900721866368 
1628	 0.432941529868439 
1629	 0.432967708069155 
1630	 0.432982172175034 
1631	 0.433009808006365 
1632	 0.433043094769642 
1633	 0.433068823328857 
1634	 0.433091990638227 
1635	 0.433126639087957 
1636	 0.433168329606624 
1637	 0.43319422315608 
1638	 0.433217516265314 
1639	 0.433252381942982 
1640	 0.433284315990639 
1641	 0.433304025809904 
1642	 0.433335010784626 
1643	 0.433353456331149 
1644	 0.433337618240431 
1645	 0.433357796339798 
1646	 0.433413880397481 
1647	 0.433424625956739 
1648	 0.433427216750059 
1649	 0.433419060244033 
1650	 0.433374777802013 
1651	 0.433357349390166 
1652	 0.43335755720387 
1653	 0.433333550419206 
1654	 0.433295579727713 
1655	 0.433275689679211 
1656	 0.43324264864839 
1657	 0.433234633065732 
1658	 0.433256193660919 
1659	 0.433264757464065 
1660	 0.433271877263321 
1661	 0.433288524848764 
1662	 0.433320476452363 
1663	 0.43332878690768 
1664	 0.433334920314191 
1665	 0.433333097944966 
1666	 0.433314124032956 
1667	 0.433292991825458 
1668	 0.433268215407508 
1669	 0.433244173935201 
1670	 0.433214692164944 
1671	 0.43317722182874 
1672	 0.433129281295057 
1673	 0.433101777798872 
1674	 0.433066586748763 
1675	 0.433050965967424 
1676	 0.433054727069597 
1677	 0.433073608495562 
1678	 0.433115521871475 
1679	 0.433136905632681 
1680	 0.433181453304942 
1681	 0.433189887488038 
1682	 0.433156296717103 
1683	 0.433147482785663 
1684	 0.433135156283025 
1685	 0.433131394975093 
1686	 0.43314165219929 
1687	 0.43314005969326 
1688	 0.433137402579327 
1689	 0.433129175719767 
1690	 0.433104825672116 
1691	 0.433104660927415 
1692	 0.43312014450422 
1693	 0.433119298410491 
1694	 0.433128726472765 
1695	 0.433124118750459 
1696	 0.433102669834902 
1697	 0.433080812506267 
1698	 0.433058998262441 
1699	 0.4330282603045 
1700	 0.432987423495616 
1701	 0.432941814766372 
1702	 0.43289477901987 
1703	 0.432834783795648 
1704	 0.432752376364815 
1705	 0.432693967180996 
1706	 0.432624946804541 
1707	 0.432590990990981 
1708	 0.432596164050591 
1709	 0.432574260229949 
1710	 0.432554957623294 
1711	 0.432543363842634 
1712	 0.432532117077442 
1713	 0.43250733437924 
1714	 0.432490174451949 
1715	 0.432457359949268 
1716	 0.432397553199524 
1717	 0.432355048512653 
1718	 0.432315077816288 
1719	 0.432287099785024 
1720	 0.432268751476128 
1721	 0.432234311628681 
1722	 0.432201525670835 
1723	 0.43217245655581 
1724	 0.432130516099061 
1725	 0.432103639797796 
1726	 0.43210002771466 
1727	 0.432072956114187 
1728	 0.432044687006916 
1729	 0.43199400373749 
1730	 0.431934694556055 
1731	 0.431844840820275 
1732	 0.431720755723269 
1733	 0.431614738278739 
1734	 0.431487355346569 
1735	 0.431377245305714 
1736	 0.431292847973158 
1737	 0.431173872536921 
1738	 0.43103502474498 
1739	 0.430920112019529 
1740	 0.430797246979289 
1741	 0.430677583532917 
1742	 0.430581011044068 
1743	 0.430466750100668 
1744	 0.430326613729357 
1745	 0.430223708926946 
1746	 0.430138759846094 
1747	 0.43002675087528 
1748	 0.429953340294276 
1749	 0.429846590646613 
1750	 0.429725105933208 
1751	 0.429621671815273 
1752	 0.429512960125322 
1753	 0.429404781786839 
1754	 0.429297081496926 
1755	 0.429206081208623 
1756	 0.429101277516564 
1757	 0.428986311386621 
1758	 0.428876687303431 
1759	 0.428736167097904 
1760	 0.428599282784565 
1761	 0.428485920676951 
1762	 0.428387895852505 
1763	 0.428328569440629 
1764	 0.428264553300697 
1765	 0.42822471395547 
1766	 0.428223693711212 
1767	 0.428177963190158 
1768	 0.428149098495276 
1769	 0.428098621221101 
1770	 0.427953521334614 
1771	 0.427816088435737 
1772	 0.427684987111337 
1773	 0.427537604847376 
1774	 0.42745141255765 
1775	 0.427410110405764 
1776	 0.427361683150014 
1777	 0.427323357990641 
1778	 0.427288195037216 
1779	 0.427227239165103 
1780	 0.427154499436683 
1781	 0.427100176792745 
1782	 0.427057788000487 
1783	 0.427019877837193 
1784	 0.426968912943954 
1785	 0.426915163586784 
1786	 0.426838746106179 
1787	 0.426736337722003 
1788	 0.426659970932979 
1789	 0.426588758466571 
1790	 0.426513956816261 
1791	 0.426444515123673 
1792	 0.426363941710039 
1793	 0.426260914252416 
1794	 0.426180306523112 
1795	 0.426135179335599 
1796	 0.426049594389943 
1797	 0.425934480245206 
1798	 0.42585093125603 
1799	 0.425750805398191 
1800	 0.425684424422175 
1801	 0.427608316302711 
1802	 0.427641972389151 
1803	 0.427663823061982 
1804	 0.427700214959141 
1805	 0.427754727659105 
1806	 0.427791246378023 
1807	 0.427816298207903 
1808	 0.427808917082391 
1809	 0.427779182215917 
1810	 0.427740058377125 
1811	 0.427686816023511 
1812	 0.427588978489713 
1813	 0.42751563885351 
1814	 0.427408747096216 
1815	 0.4272757296972 
1816	 0.427192037627629 
1817	 0.427093337716936 
1818	 0.426987296783357 
1819	 0.426884403947863 
1820	 0.426793021867173 
1821	 0.426684672662585 
1822	 0.426584345867249 
1823	 0.426440628334097 
1824	 0.426255156625018 
1825	 0.42606140046722 
1826	 0.425817336710324 
1827	 0.42558391525325 
1828	 0.425357357561634 
1829	 0.425155526780632 
1830	 0.424896021328295 
1831	 0.424621158876484 
1832	 0.424341379727703 
1833	 0.423987855469189 
1834	 0.423614337703434 
1835	 0.423257652595809 
1836	 0.422847914950654 
1837	 0.422430293767168 
1838	 0.422057505976197 
1839	 0.421699875729843 
1840	 0.421347176537096 
1841	 0.42101584389498 
1842	 0.420723146130476 
1843	 0.420477980764456 
1844	 0.420229248045089 
1845	 0.419968615050747 
1846	 0.41976423358897 
1847	 0.419568795803931 
1848	 0.419381196168392 
1849	 0.419263637423938 
1850	 0.419184512702223 
1851	 0.419162369405722 
1852	 0.419120375189864 
1853	 0.419109574341432 
1854	 0.419115869583278 
1855	 0.419103746147113 
1856	 0.419107648359479 
1857	 0.419102428415894 
1858	 0.419069585106002 
1859	 0.41898736246544 
1860	 0.418878884568194 
1861	 0.418726207067131 
1862	 0.418548410613908 
1863	 0.418373645879487 
1864	 0.418208610106526 
1865	 0.41803731263115 
1866	 0.417854408462883 
1867	 0.417633398027155 
1868	 0.417411704757246 
1869	 0.417181642813024 
1870	 0.416901034304425 
1871	 0.416574599312415 
1872	 0.416225320965139 
1873	 0.415821373705693 
1874	 0.415356240546711 
1875	 0.414857607463141 
1876	 0.414309862366847 
1877	 0.413685191996908 
1878	 0.412979738496773 
1879	 0.412201088972083 
1880	 0.411320392878734 
1881	 0.410345536507103 
1882	 0.409293227398637 
1883	 0.408155889945119 
1884	 0.406906325362579 
1885	 0.405596785689059 
1886	 0.404224550915162 
1887	 0.402748435663918 
1888	 0.401206560067802 
1889	 0.399595887773285 
1890	 0.39793333886243 
1891	 0.396234162796189 
1892	 0.394460902604211 
1893	 0.392685914722567 
1894	 0.390891848147619 
1895	 0.389045125809063 
1896	 0.387157356373631 
1897	 0.385264485662808 
1898	 0.383317513341401 
1899	 0.381397324934871 
1900	 0.379519786884859 
1901	 0.377680185497845 
1902	 0.375935801815553 
1903	 0.374290289801847 
1904	 0.372667952133905 
1905	 0.371099432538388 
1906	 0.369616765399036 
1907	 0.368150994256053 
1908	 0.366731268854325 
1909	 0.365405680519757 
1910	 0.36410379072253 
1911	 0.362856385985605 
1912	 0.361661256683536 
1913	 0.36050244938741 
1914	 0.35936439999635 
1915	 0.358306602491577 
1916	 0.357300566137414 
1917	 0.356353441523608 
1918	 0.355486641376398 
1919	 0.354653023175727 
1920	 0.353862089438323 
1921	 0.35314413824478 
1922	 0.35248014928489 
1923	 0.351875077567615 
1924	 0.35131769061424 
1925	 0.3508225282756 
1926	 0.350370787874114 
1927	 0.349956223067729 
1928	 0.349599056225951 
1929	 0.349314713866502 
1930	 0.34909993700313 
1931	 0.348927935757239 
1932	 0.348799927775477 
1933	 0.348720570137654 
1934	 0.34868208521485 
1935	 0.348696066944992 
1936	 0.348764853179562 
1937	 0.348877465185137 
1938	 0.349057494846532 
1939	 0.349242699914815 
1940	 0.349455453810004 
1941	 0.349701900386296 
1942	 0.349986508367795 
1943	 0.350294812345816 
1944	 0.350641983791411 
1945	 0.351027540784983 
1946	 0.351402632937316 
1947	 0.351792337210183 
1948	 0.35217504902417 
1949	 0.35256863179721 
1950	 0.352947586348958 
1951	 0.353315812130136 
1952	 0.353688182992383 
1953	 0.354060218062873 
1954	 0.354430323779527 
1955	 0.354814628346676 
1956	 0.355202657064049 
1957	 0.355585748863245 
1958	 0.35596134238744 
1959	 0.356352916533865 
1960	 0.356743241672435 
1961	 0.357151622346825 
1962	 0.357601292790185 
1963	 0.358020495064753 
1964	 0.358438296542174 
1965	 0.358836301378498 
1966	 0.359230985218079 
1967	 0.359614926552925 
1968	 0.360028396173828 
1969	 0.36046133471971 
1970	 0.360891863350902 
1971	 0.36134187631631 
1972	 0.361782444141172 
1973	 0.362215403420246 
1974	 0.362658982586411 
1975	 0.363111811535252 
1976	 0.363556574179907 
1977	 0.3640107613549 
1978	 0.364458207956561 
1979	 0.364889041579627 
1980	 0.365325306233419 
1981	 0.365760220769111 
1982	 0.366194057863055 
1983	 0.366624144093492 
1984	 0.36704660109883 
1985	 0.367476496865512 
1986	 0.367902948045813 
1987	 0.368335107351382 
1988	 0.368751337625008 
1989	 0.369221418483621 
1990	 0.369706724398562 
1991	 0.370172417300106 
1992	 0.37064511856524 
1993	 0.371157209793389 
1994	 0.371612434150882 
1995	 0.372038579964432 
1996	 0.372457080071585 
1997	 0.372836012091082 
1998	 0.373236419846567 
1999	 0.373628934694571 
2000	 0.374034455782608 
2001	 0.374448162443448 
2002	 0.374870891045311 
2003	 0.375304604936868 
2004	 0.375752336001497 
2005	 0.376187189109202 
2006	 0.376634496557639 
2007	 0.377068017477816 
2008	 0.377477706163335 
2009	 0.377906522230061 
2010	 0.378345213462588 
2011	 0.378779436547027 
2012	 0.379221186790964 
2013	 0.379658841894369 
2014	 0.380099456102325 
2015	 0.380524018097031 
2016	 0.38095297637561 
2017	 0.381382384898448 
2018	 0.381814867499004 
2019	 0.382256565740693 
2020	 0.382678942095847 
2021	 0.383108334936674 
2022	 0.383508481938148 
2023	 0.383875713747523 
2024	 0.384253490358238 
2025	 0.384616825217052 
2026	 0.384984641643637 
2027	 0.385348610553151 
2028	 0.385726555606306 
2029	 0.386096630863007 
2030	 0.386473068438198 
2031	 0.386825761576571 
2032	 0.387183888005379 
2033	 0.387507322615347 
2034	 0.387766861362983 
2035	 0.388090418508487 
2036	 0.38842867548685 
2037	 0.388758993365916 
2038	 0.389149226117451 
2039	 0.389486749900326 
2040	 0.389790518499506 
2041	 0.390076417584418 
2042	 0.390357215277573 
2043	 0.3906298130177 
2044	 0.390901586554831 
2045	 0.391170127663382 
2046	 0.391434057758692 
2047	 0.391696183499622 
2048	 0.391945888033969 
2049	 0.392180012076341 
2050	 0.392426137326625 
2051	 0.392672937496783 
2052	 0.392910419729528 
2053	 0.393150467695811 
2054	 0.393388971355927 
2055	 0.393615670433985 
2056	 0.393839480826549 
2057	 0.394075423077575 
2058	 0.394320264959143 
2059	 0.394560724660697 
2060	 0.394811725266843 
2061	 0.395046798678605 
2062	 0.395278817955176 
2063	 0.395501828407073 
2064	 0.3956933862385 
2065	 0.395917427685342 
2066	 0.396170827319677 
2067	 0.3963964787776 
2068	 0.396627204755767 
2069	 0.396850326863036 
2070	 0.397061131991197 
2071	 0.397247879101266 
2072	 0.397435511716369 
2073	 0.39762445977441 
2074	 0.397802333953371 
2075	 0.397956218498505 
2076	 0.398122938959687 
2077	 0.398295498256645 
2078	 0.398462919876298 
2079	 0.398636043339667 
2080	 0.398793183141917 
2081	 0.398943850721513 
2082	 0.399085407805432 
2083	 0.399213579369611 
2084	 0.399327959661784 
2085	 0.399465326350486 
2086	 0.399606722712464 
2087	 0.399750268074405 
2088	 0.399904434907363 
2089	 0.400061830820486 
2090	 0.400221052130357 
2091	 0.400377678730482 
2092	 0.400554002705158 
2093	 0.400704923185021 
2094	 0.40085081304584 
2095	 0.400974382590348 
2096	 0.401065297163568 
2097	 0.401168162858318 
2098	 0.40124834462572 
2099	 0.401342854627112 
2100	 0.401458877047305 
2101	 0.401591748784888 
2102	 0.401730349978326 
2103	 0.401897287333154 
2104	 0.402039274220348 
2105	 0.402157313627384 
2106	 0.402321644282379 
2107	 0.402506682276834 
2108	 0.402680447840884 
2109	 0.402891451376901 
2110	 0.403079695052851 
2111	 0.403236210809115 
2112	 0.403405285242927 
2113	 0.403595621025425 
2114	 0.403762296934812 
2115	 0.403921145111863 
2116	 0.404058993556619 
2117	 0.404230926778998 
2118	 0.404391591532053 
2119	 0.404593831045828 
2120	 0.404845254138517 
2121	 0.405072269118673 
2122	 0.40532273738113 
2123	 0.4055383576005 
2124	 0.405750328095743 
2125	 0.405931171440909 
2126	 0.406077698664229 
2127	 0.406224027913091 
2128	 0.406348810173352 
2129	 0.406466835879766 
2130	 0.406574015277272 
2131	 0.406690757024639 
2132	 0.406770385115835 
2133	 0.406837284112175 
2134	 0.406873467496016 
2135	 0.406882129322817 
2136	 0.406872885147098 
2137	 0.406836280163035 
2138	 0.406788315382963 
2139	 0.40672997122119 
2140	 0.4066385980228 
2141	 0.406519854974726 
2142	 0.406387233375378 
2143	 0.406203063018275 
2144	 0.40604497501771 
2145	 0.405901256875108 
2146	 0.405736177760112 
2147	 0.405569265823984 
2148	 0.405407161586806 
2149	 0.405198676032062 
2150	 0.404955065527482 
2151	 0.404706383640923 
2152	 0.404428216946177 
2153	 0.404154038778058 
2154	 0.40386762413767 
2155	 0.403585069172167 
2156	 0.403309655526973 
2157	 0.403009177080948 
2158	 0.402724874027626 
2159	 0.402378899420796 
2160	 0.401975103197144 
2161	 0.401579826213212 
2162	 0.401134222930527 
2163	 0.400713687491312 
2164	 0.400314059257327 
2165	 0.399906095809515 
2166	 0.399481416192081 
2167	 0.399039652522366 
2168	 0.398627854586649 
2169	 0.398210593607082 
2170	 0.397806776337542 
2171	 0.397452378637303 
2172	 0.397038963764942 
2173	 0.39658936030688 
2174	 0.396156919656529 
2175	 0.395702889248557 
2176	 0.395262995983106 
2177	 0.394832429327107 
2178	 0.394406785715918 
2179	 0.393991414774255 
2180	 0.393563909277073 
2181	 0.393123327977545 
2182	 0.392706115180798 
2183	 0.392301832227243 
2184	 0.391883010346729 
2185	 0.391471329258107 
2186	 0.391080653527963 
2187	 0.390673936373542 
2188	 0.390244830295452 
2189	 0.389841920745216 
2190	 0.389461680520238 
2191	 0.389061276686592 
2192	 0.388662199737521 
2193	 0.388250463094047 
2194	 0.38778929560916 
2195	 0.387398102646713 
2196	 0.38704238425426 
2197	 0.386682663548521 
2198	 0.386342320335185 
2199	 0.386036442488567 
2200	 0.385746085351252 
2201	 0.385461079598445 
2202	 0.385214598026993 
2203	 0.384984720702933 
2204	 0.384740873457951 
2205	 0.384480809051136 
2206	 0.384241120006046 
2207	 0.384018144152918 
2208	 0.383785115322359 
2209	 0.383536422157381 
2210	 0.383328190640285 
2211	 0.383129479183282 
2212	 0.382956855756311 
2213	 0.382829515963319 
2214	 0.382682874304395 
2215	 0.382536323736858 
2216	 0.382406628844977 
2217	 0.382306578050483 
2218	 0.382171789983253 
2219	 0.382065484348811 
2220	 0.381895848269588 
2221	 0.381662899460453 
2222	 0.381423706315506 
2223	 0.381179333838204 
2224	 0.380935210816592 
2225	 0.380671293445877 
2226	 0.380419450275286 
2227	 0.38011769423932 
2228	 0.379767826907606 
2229	 0.379440153760681 
2230	 0.379108792778223 
2231	 0.378756964058343 
2232	 0.378394093270727 
2233	 0.378025750770882 
2234	 0.377652243816017 
2235	 0.377246421225372 
2236	 0.376827577836595 
2237	 0.376392663778349 
2238	 0.375922721473337 
2239	 0.375443228922689 
2240	 0.37496586983982 
2241	 0.3744606299712 
2242	 0.373931898517209 
2243	 0.373378333627847 
2244	 0.372782582809249 
2245	 0.372199127307929 
2246	 0.371620739855848 
2247	 0.370997365868443 
2248	 0.370389805551753 
2249	 0.369788010162332 
2250	 0.369179016700174 
2251	 0.36854213359352 
2252	 0.367959462127043 
2253	 0.367395653963095 
2254	 0.366849481267582 
2255	 0.36631274954793 
2256	 0.365827531444339 
2257	 0.365346683495711 
2258	 0.364953105492129 
2259	 0.364602776256973 
2260	 0.364348310439854 
2261	 0.364192403413724 
2262	 0.364065232846062 
2263	 0.364024578404616 
2264	 0.364008791732804 
2265	 0.364028514331382 
2266	 0.364084100736251 
2267	 0.364180796931708 
2268	 0.364323031502404 
2269	 0.364488752197987 
2270	 0.364731877018386 
2271	 0.365021876132485 
2272	 0.365347687060666 
2273	 0.365686785662904 
2274	 0.36604756880328 
2275	 0.36642605354849 
2276	 0.366820665263577 
2277	 0.367237823384468 
2278	 0.3676949887277 
2279	 0.368121885641755 
2280	 0.36854969068574 
2281	 0.368990150441977 
2282	 0.369436336370204 
2283	 0.369868348837692 
2284	 0.370318636336745 
2285	 0.370737794839533 
2286	 0.371114205534363 
2287	 0.371513080525819 
2288	 0.371900877259607 
2289	 0.372313803006545 
2290	 0.372756832607066 
2291	 0.373181159273638 
2292	 0.373654608842389 
2293	 0.374047646691579 
2294	 0.374367388758656 
2295	 0.374707641257217 
2296	 0.375011139724133 
2297	 0.375310798747449 
2298	 0.375648798504635 
2299	 0.375957135169366 
2300	 0.376287726006247 
2301	 0.376602706208745 
2302	 0.376892825188809 
2303	 0.377243632007601 
2304	 0.377540275460188 
2305	 0.377806928475431 
2306	 0.378081112491247 
2307	 0.378339034393758 
2308	 0.378600945528838 
2309	 0.378902914549399 
2310	 0.379104532161377 
2311	 0.379261102314298 
2312	 0.37940977805725 
2313	 0.379469602614583 
2314	 0.379559274473576 
2315	 0.379664197417791 
2316	 0.379773727653651 
2317	 0.379879838628737 
2318	 0.379979264471299 
2319	 0.380076566918638 
2320	 0.380169568754618 
2321	 0.380221274764112 
2322	 0.380332065786408 
2323	 0.380543069739598 
2324	 0.380651059831957 
2325	 0.380735304353316 
2326	 0.380787313914742 
2327	 0.380759014692971 
2328	 0.380730556764892 
2329	 0.380701879422351 
2330	 0.380708168517349 
2331	 0.380736570939921 
2332	 0.380722544055985 
2333	 0.380723598032783 
2334	 0.380745977862766 
2335	 0.380723236582487 
2336	 0.380691591635771 
2337	 0.380673193695507 
2338	 0.380591139150447 
2339	 0.380487584287364 
2340	 0.380370838366334 
2341	 0.380204652768357 
2342	 0.380033247212282 
2343	 0.379794962502241 
2344	 0.37956855520942 
2345	 0.37935602641144 
2346	 0.379128402422975 
2347	 0.378903929036807 
2348	 0.378717133779849 
2349	 0.378466967734628 
2350	 0.378212814458258 
2351	 0.377896828896028 
2352	 0.377509219114297 
2353	 0.377148256318885 
2354	 0.376727470598255 
2355	 0.376359100346225 
2356	 0.376043997187653 
2357	 0.375696831237454 
2358	 0.375334009056726 
2359	 0.374981467441431 
2360	 0.374655915344427 
2361	 0.374266127063974 
2362	 0.37387853871922 
2363	 0.373438094953981 
2364	 0.372896747859341 
2365	 0.372398994245887 
2366	 0.371880174814505 
2367	 0.371394987733916 
2368	 0.370913915401653 
2369	 0.370463297865438 
2370	 0.370061765033509 
2371	 0.369652894199091 
2372	 0.369172367672191 
2373	 0.368724131461581 
2374	 0.368244985096171 
2375	 0.36766346611713 
2376	 0.367139255747931 
2377	 0.366584438223867 
2378	 0.365948216373533 
2379	 0.365336925452916 
2380	 0.364745532398553 
2381	 0.364160123856789 
2382	 0.363544801102046 
2383	 0.363007506147364 
2384	 0.362472271398976 
2385	 0.361897069057349 
2386	 0.361389722971431 
2387	 0.360821684062181 
2388	 0.360205812950369 
2389	 0.359646026216796 
2390	 0.359105504316887 
2391	 0.358559693526016 
2392	 0.357998836874482 
2393	 0.357422775184177 
2394	 0.356841277459099 
2395	 0.356222211525608 
2396	 0.355585484018518 
2397	 0.354970948399944 
2398	 0.354366427803156 
2399	 0.353769529927093 
2400	 0.353190125763651 
2401	 0.352615940714157 
2402	 0.352050096886714 
2403	 0.351489878025195 
2404	 0.35090373958819 
2405	 0.350366765101211 
2406	 0.349867012415219 
2407	 0.349304859193851 
2408	 0.348755999552143 
2409	 0.348228299344934 
2410	 0.347626734977553 
2411	 0.34707237368549 
2412	 0.346610895881017 
2413	 0.346077349610117 
2414	 0.345500513213678 
2415	 0.344962911709165 
2416	 0.344453818966167 
2417	 0.343969811398693 
2418	 0.343461849232121 
2419	 0.342983708920893 
2420	 0.34245251821531 
2421	 0.341830263934064 
2422	 0.341304971125033 
2423	 0.340826754704145 
2424	 0.340394477610074 
2425	 0.340073457769808 
2426	 0.33962823263118 
2427	 0.339144034002943 
2428	 0.33865562087597 
2429	 0.338016260052878 
2430	 0.337550280072404 
2431	 0.337286128232716 
2432	 0.336861524256257 
2433	 0.336429420277298 
2434	 0.335935950161499 
2435	 0.335283910564357 
2436	 0.334692161519058 
2437	 0.33414713866124 
2438	 0.333585004933169 
2439	 0.333020002555536 
2440	 0.332479613251821 
2441	 0.331949344348547 
2442	 0.331362860601453 
2443	 0.330728159538499 
2444	 0.330149636290797 
2445	 0.32951391368561 
2446	 0.329030451776575 
2447	 0.3287559269231 
2448	 0.32825184363763 
2449	 0.327691402070799 
2450	 0.327176392055187 
2451	 0.326551641308818 
2452	 0.325987616001736 
2453	 0.325550955735311 
2454	 0.324973907641005 
2455	 0.324259431148475 
2456	 0.32365474073549 
2457	 0.323068988301445 
2458	 0.322495354929331 
2459	 0.321956055372495 
2460	 0.32146332813115 
2461	 0.320967381058738 
2462	 0.320509386396906 
2463	 0.320146150155562 
2464	 0.319726398773534 
2465	 0.319321002543118 
2466	 0.318885393341162 
2467	 0.318377574684614 
2468	 0.317919666235607 
2469	 0.317516562048819 
2470	 0.317156947362811 
2471	 0.316661833105888 
2472	 0.316315273632512 
2473	 0.315991861966701 
2474	 0.315505042525216 
2475	 0.315088472195877 
2476	 0.314693732130962 
2477	 0.31406928981471 
2478	 0.313457906513378 
2479	 0.31307424080767 
2480	 0.312604623938111 
2481	 0.31215708587287 
2482	 0.311837683855818 
2483	 0.311351368294039 
2484	 0.310912197012139 
2485	 0.310336526019251 
2486	 0.309607441711517 
2487	 0.309284228654518 
2488	 0.308839150321657 
2489	 0.308298769033015 
2490	 0.308004267084357 
2491	 0.307496264552429 
2492	 0.306967423457626 
2493	 0.306550046923807 
2494	 0.306035582484228 
2495	 0.305447472168273 
2496	 0.304855607820875 
2497	 0.304244034082363 
2498	 0.303723419594953 
2499	 0.30333773135707 
2500	 0.302916112176683 
