Wavelength	LMW800003.asd
350	 0.056100414293653 
351	 6.44621106466809E-02 
352	 6.39954345514428E-02 
353	 5.33513392719406E-02 
354	 5.62416880515024E-02 
355	 5.97781190907444E-02 
356	 6.02540688688331E-02 
357	 5.81111567107244E-02 
358	 6.10008968701904E-02 
359	 5.93248725269698E-02 
360	 5.55281717201642E-02 
361	 5.88026744967862E-02 
362	 5.97920398865424E-02 
363	 5.87693354319691E-02 
364	 5.69086977790088E-02 
365	 5.46253785836841E-02 
366	 5.47737205661205E-02 
367	 5.41817766794638E-02 
368	 5.09973348023068E-02 
369	 5.56014902563619E-02 
370	 5.71432379622706E-02 
371	 0.056148802136824 
372	 6.02733737402334E-02 
373	 6.01907630451103E-02 
374	 5.95210619519036E-02 
375	 0.06079624933057 
376	 6.20032605421462E-02 
377	 5.94669053181155E-02 
378	 5.79990586953553E-02 
379	 6.18677489637953E-02 
380	 6.16955113129011E-02 
381	 6.01052324577268E-02 
382	 5.95977546243446E-02 
383	 6.17575140220325E-02 
384	 6.18739292460353E-02 
385	 6.06969020212803E-02 
386	 5.98361078556334E-02 
387	 6.09437837918603E-02 
388	 6.22034900067135E-02 
389	 6.22226536047618E-02 
390	 6.07452282824563E-02 
391	 6.17196825047964E-02 
392	 6.29072399235977E-02 
393	 6.31458301881409E-02 
394	 6.25932695329008E-02 
395	 0.063011415047741 
396	 6.41456806674051E-02 
397	 6.52234383803204E-02 
398	 6.52041547610436E-02 
399	 6.46497596645145E-02 
400	 6.48887953148268E-02 
401	 6.66911493612807E-02 
402	 6.63981432135244E-02 
403	 0.064911603277132 
404	 6.38830811984005E-02 
405	 6.52140558598376E-02 
406	 6.59239047056436E-02 
407	 0.066556774345919 
408	 6.75638885494823E-02 
409	 6.72941086881659E-02 
410	 6.64551344494547E-02 
411	 6.59511776569925E-02 
412	 6.65324298454059E-02 
413	 6.74261830987215E-02 
414	 6.72047580609056E-02 
415	 6.60050898997294E-02 
416	 0.065916341635914 
417	 6.63310355233523E-02 
418	 0.06670343760091 
419	 6.66987260944634E-02 
420	 6.66907401128363E-02 
421	 6.67860582901899E-02 
422	 6.69086637053796E-02 
423	 6.68844280291277E-02 
424	 0.066848746457252 
425	 6.65883164252096E-02 
426	 6.62612607820779E-02 
427	 6.68820634273951E-02 
428	 6.65733879856829E-02 
429	 6.58963288790483E-02 
430	 6.59232159959121E-02 
431	 6.60018261174932E-02 
432	 0.065980115490245 
433	 0.065953694481364 
434	 6.62059799517061E-02 
435	 6.62352352052366E-02 
436	 6.62396520637538E-02 
437	 6.63418783260695E-02 
438	 6.60566585406316E-02 
439	 6.59223681958624E-02 
440	 0.066089555068649 
441	 6.64182237027003E-02 
442	 6.61321863524919E-02 
443	 6.61692684320709E-02 
444	 6.67682606605382E-02 
445	 6.69064523174059E-02 
446	 6.66006944660125E-02 
447	 6.63896317795409E-02 
448	 6.67049767786329E-02 
449	 6.67552222655684E-02 
450	 6.69440632015396E-02 
451	 6.72265873045815E-02 
452	 6.71831810200278E-02 
453	 6.72442634806372E-02 
454	 6.72286325438801E-02 
455	 6.70965510679317E-02 
456	 6.74631976396199E-02 
457	 6.75528611492957E-02 
458	 6.74287326911948E-02 
459	 6.75041480763143E-02 
460	 0.067669008771635 
461	 6.77933280515888E-02 
462	 6.78191621803411E-02 
463	 6.77925375550729E-02 
464	 6.77113071345672E-02 
465	 6.77192522899668E-02 
466	 6.78952063329518E-02 
467	 6.79208077689936E-02 
468	 0.067948628982576 
469	 6.80238194586076E-02 
470	 0.068086352870677 
471	 6.79599462909699E-02 
472	 6.78696021237612E-02 
473	 6.79573196859611E-02 
474	 6.80252764632584E-02 
475	 0.068034197190365 
476	 6.79844371519718E-02 
477	 6.79267310686915E-02 
478	 6.80525351314916E-02 
479	 6.82265844811053E-02 
480	 6.83105273221772E-02 
481	 0.068199566123728 
482	 6.81836143880761E-02 
483	 6.83235351655984E-02 
484	 6.85170333567537E-02 
485	 6.83052661488516E-02 
486	 6.82021711632479E-02 
487	 6.82930284649953E-02 
488	 6.82972421631163E-02 
489	 6.83724266435813E-02 
490	 6.84931306519983E-02 
491	 6.85838180945404E-02 
492	 6.85184207719826E-02 
493	 6.83787907918969E-02 
494	 6.82411202231907E-02 
495	 6.81990479712034E-02 
496	 6.85149076097115E-02 
497	 6.86015681815626E-02 
498	 6.83062396085922E-02 
499	 6.82170050315212E-02 
500	 6.82158921244709E-02 
501	 0.068278431182727 
502	 6.83729019400105E-02 
503	 6.83976372443176E-02 
504	 6.84025545491621E-02 
505	 6.83827917488294E-02 
506	 6.82876206405999E-02 
507	 6.83078717209489E-02 
508	 6.83874317251151E-02 
509	 6.84317915473273E-02 
510	 6.83788012078128E-02 
511	 6.83336702617995E-02 
512	 6.83066624494677E-02 
513	 0.068264142113705 
514	 6.82807764408982E-02 
515	 6.82811417375309E-02 
516	 6.82541560247786E-02 
517	 6.83327977468572E-02 
518	 6.83575912098862E-02 
519	 6.82910291138149E-02 
520	 6.81846635366293E-02 
521	 6.83154314548854E-02 
522	 6.83845767090743E-02 
523	 6.83322004412097E-02 
524	 6.83766907651211E-02 
525	 6.83356572355483E-02 
526	 6.83152160483975E-02 
527	 6.83958554016984E-02 
528	 6.83783241169941E-02 
529	 6.83543073341206E-02 
530	 6.83607391801666E-02 
531	 6.83953030059491E-02 
532	 6.84537439326837E-02 
533	 6.84990137987709E-02 
534	 6.85082943375041E-02 
535	 6.84907051468488E-02 
536	 6.84719457117417E-02 
537	 6.84900586285313E-02 
538	 6.85673643019704E-02 
539	 6.86076275495474E-02 
540	 6.86079923630463E-02 
541	 6.86166202852161E-02 
542	 6.87385638477014E-02 
543	 6.88275447061847E-02 
544	 6.88409191257821E-02 
545	 6.87968712699261E-02 
546	 6.88144127389793E-02 
547	 6.88730131586133E-02 
548	 0.068941838853613 
549	 6.89865665507013E-02 
550	 6.90035168062153E-02 
551	 6.90444819022688E-02 
552	 6.91322792292914E-02 
553	 6.91913636943484E-02 
554	 6.92357552046058E-02 
555	 0.069289208395075 
556	 6.93753156264414E-02 
557	 6.94500939414554E-02 
558	 6.95182474910802E-02 
559	 6.96116298388588E-02 
560	 6.98149740730159E-02 
561	 6.98559700525255E-02 
562	 6.98688124227503E-02 
563	 7.00610781900118E-02 
564	 7.01871548569201E-02 
565	 7.03098866056338E-02 
566	 7.04534965842119E-02 
567	 7.05808116872833E-02 
568	 7.07487158337254E-02 
569	 7.09429547164133E-02 
570	 7.11433400825196E-02 
571	 7.13741839514414E-02 
572	 7.16100062509323E-02 
573	 7.18507602667335E-02 
574	 7.21097100650466E-02 
575	 7.23194955845617E-02 
576	 7.25702585424032E-02 
577	 7.28963797851825E-02 
578	 7.31545631737345E-02 
579	 7.34328890161802E-02 
580	 7.37574357549292E-02 
581	 7.41239996073439E-02 
582	 7.44996679827387E-02 
583	 7.48701233529756E-02 
584	 7.52423067828598E-02 
585	 7.56515817039184E-02 
586	 7.60633956738058E-02 
587	 0.076501833788667 
588	 7.69859696922751E-02 
589	 7.74441593528651E-02 
590	 7.78975581198936E-02 
591	 7.83672788712837E-02 
592	 7.88690278680443E-02 
593	 7.93341170112745E-02 
594	 0.079819629142312 
595	 8.03593145635063E-02 
596	 8.08584200348657E-02 
597	 8.13857443686714E-02 
598	 8.19244427336137E-02 
599	 8.24226441925987E-02 
600	 8.29371617061847E-02 
601	 8.34740981463841E-02 
602	 8.40036480736893E-02 
603	 8.44409448141197E-02 
604	 8.48778126706437E-02 
605	 8.53517114240971E-02 
606	 0.085871127068549 
607	 8.64081668760214E-02 
608	 8.68986942566207E-02 
609	 8.73374130386189E-02 
610	 8.77880225710131E-02 
611	 8.82729591305388E-02 
612	 8.87265633926403E-02 
613	 8.91011948991511E-02 
614	 8.94988345759141E-02 
615	 0.089842807517967 
616	 9.01620179339967E-02 
617	 9.05453690864742E-02 
618	 9.08734737785195E-02 
619	 9.11349659106481E-02 
620	 9.13750000824497E-02 
621	 9.17329249365779E-02 
622	 9.20330723480258E-02 
623	 9.22746410829973E-02 
624	 9.25227659184547E-02 
625	 9.27646931870886E-02 
626	 9.30028199346935E-02 
627	 9.32321147516418E-02 
628	 9.34365806181668E-02 
629	 9.36928924224288E-02 
630	 9.39334693116047E-02 
631	 9.40946701278518E-02 
632	 9.42919225442533E-02 
633	 9.44672963943628E-02 
634	 9.46303799200071E-02 
635	 9.48424439480165E-02 
636	 9.50253369709467E-02 
637	 9.52017700582238E-02 
638	 9.53962485385414E-02 
639	 0.095596914625522 
640	 9.57747306714837E-02 
641	 9.59373975719264E-02 
642	 9.61123102511578E-02 
643	 9.63205416475808E-02 
644	 9.65408945224112E-02 
645	 9.67497888549734E-02 
646	 9.69260541257203E-02 
647	 9.71053525216828E-02 
648	 9.73063698845861E-02 
649	 9.75287687560509E-02 
650	 9.77173201186742E-02 
651	 9.79235091138253E-02 
652	 9.81524437801149E-02 
653	 0.098367907233722 
654	 9.85882636368922E-02 
655	 9.87961355937342E-02 
656	 9.89885819030164E-02 
657	 9.92067907404123E-02 
658	 9.94815395199977E-02 
659	 9.97665708051275E-02 
660	 9.99901330914172E-02 
661	 0.100214844075846 
662	 0.100463654995411 
663	 0.100741431796791 
664	 0.101033173448206 
665	 0.101329782468935 
666	 0.101621193133697 
667	 0.101898372384538 
668	 0.102141455789401 
669	 0.102438653319418 
670	 0.102788782059542 
671	 0.103113374197139 
672	 0.10340674387487 
673	 0.103714145935142 
674	 0.10406503953138 
675	 0.104431766798813 
676	 0.104800211021985 
677	 0.105151190957874 
678	 0.105478568363435 
679	 0.105865465970744 
680	 0.106255905568845 
681	 0.106632624556735 
682	 0.107045404237681 
683	 0.107479417257053 
684	 0.107872828746596 
685	 0.108209725399907 
686	 0.10868354511026 
687	 0.109141590564671 
688	 0.109571123984212 
689	 0.110051294168383 
690	 0.110445835887665 
691	 0.110860038442981 
692	 0.111361419766775 
693	 0.111884767734723 
694	 0.112324177063202 
695	 0.112763573049602 
696	 0.113314008338271 
697	 0.113789170988015 
698	 0.11428947162801 
699	 0.114840003244309 
700	 0.115370099221774 
701	 0.115894664944272 
702	 0.116395560853772 
703	 0.116875611462738 
704	 0.117414032722371 
705	 0.117928501786865 
706	 0.11844378110838 
707	 0.119021520191031 
708	 0.119536259437443 
709	 0.120044661048369 
710	 0.120584624340142 
711	 0.121139907779785 
712	 0.12169160087272 
713	 0.122218165515416 
714	 0.122715885967085 
715	 0.123239432422693 
716	 0.123773378592332 
717	 0.124290742785027 
718	 0.124763581340904 
719	 0.125254589115441 
720	 0.12573360756266 
721	 0.126185983859243 
722	 0.126654343403855 
723	 0.127106820699978 
724	 0.12755561200407 
725	 0.12801363161136 
726	 0.128421357704709 
727	 0.128808880696356 
728	 0.129178266325617 
729	 0.129505044880402 
730	 0.12986930403189 
731	 0.130212824174174 
732	 0.130496601022133 
733	 0.130790268225984 
734	 0.131065021556638 
735	 0.131304148671347 
736	 0.131506876728527 
737	 0.131746120311942 
738	 0.131928850234464 
739	 0.132056179383066 
740	 0.132239999024006 
741	 0.132382218288399 
742	 0.132480721071914 
743	 0.132548889243832 
744	 0.1325846020799 
745	 0.132580052799289 
746	 0.132565962976734 
747	 0.132576205995698 
748	 0.13252791432534 
749	 0.132482325836419 
750	 0.132437041735119 
751	 0.132300835280906 
752	 0.13217900220423 
753	 0.132061632130983 
754	 0.131919448974029 
755	 0.131747424703837 
756	 0.131577127750395 
757	 0.131398704582292 
758	 0.131184038515231 
759	 0.130944669847291 
760	 0.130685905033386 
761	 0.130418456708565 
762	 0.13015891750967 
763	 0.129899225017719 
764	 0.129621288036348 
765	 0.129315266751098 
766	 0.128997594207052 
767	 0.128691019152921 
768	 0.128375514929125 
769	 0.128022330253393 
770	 0.127717530804713 
771	 0.127391538887649 
772	 0.127015295889906 
773	 0.126625847827746 
774	 0.126283999139683 
775	 0.125953254292567 
776	 0.125593034226889 
777	 0.125216500927784 
778	 0.12485953119766 
779	 0.124492135658795 
780	 0.124073235726517 
781	 0.123698659395997 
782	 0.123358379637065 
783	 0.12301805237096 
784	 0.122632860748989 
785	 0.122277767096572 
786	 0.121951442328446 
787	 0.121622982209694 
788	 0.121223225922249 
789	 0.120843266608142 
790	 0.120499715847769 
791	 0.120171477841444 
792	 0.119811108101866 
793	 0.1194449146141 
794	 0.11910057863488 
795	 0.118797705779754 
796	 0.118479137849365 
797	 0.118152007453936 
798	 0.117821026709189 
799	 0.117462886506959 
800	 0.11716240104213 
801	 0.116875451278827 
802	 0.116543703788934 
803	 0.116216032151785 
804	 0.115939070322438 
805	 0.115685243849392 
806	 0.115389097088089 
807	 0.11509585140527 
808	 0.114796099984912 
809	 0.114509888995352 
810	 0.114296558274917 
811	 0.114019282726552 
812	 0.113752270064297 
813	 0.113549946426952 
814	 0.113279626449456 
815	 0.113002882060998 
816	 0.112746527462036 
817	 0.112523963985308 
818	 0.112352542266135 
819	 0.112160802460542 
820	 0.111938071318892 
821	 0.111730271216656 
822	 0.11154752683874 
823	 0.111350341632453 
824	 0.11113057939984 
825	 0.110944011976931 
826	 0.110758698539334 
827	 0.110608339746617 
828	 0.11050601177357 
829	 0.110354041640976 
830	 0.110135205766359 
831	 0.109921086694699 
832	 0.10980334924903 
833	 0.109703118061147 
834	 0.109582910027917 
835	 0.109449874910343 
836	 0.10934558212481 
837	 0.109205647887133 
838	 0.109090152961494 
839	 0.109016171883857 
840	 0.108894944991487 
841	 0.108790166883044 
842	 0.10869132710989 
843	 0.108584405764066 
844	 0.108505071209432 
845	 0.108471106976919 
846	 0.108431267759182 
847	 0.108328617594224 
848	 0.108268338182781 
849	 0.108228284061442 
850	 0.108186450081494 
851	 0.108130631169252 
852	 0.108075851119565 
853	 0.108053283668907 
854	 0.108050403032715 
855	 0.107992578202912 
856	 0.107975654486158 
857	 0.107970033939073 
858	 0.107942805354055 
859	 0.107927992677565 
860	 0.107944019009416 
861	 0.107968942897786 
862	 0.107976584958194 
863	 0.107998824364798 
864	 0.108006100864973 
865	 0.108025047163784 
866	 0.108095554531175 
867	 0.108083760034014 
868	 0.108120167953678 
869	 0.108214790281898 
870	 0.108241150420908 
871	 0.10827609658018 
872	 0.10833974022933 
873	 0.108434943980856 
874	 0.10855132757398 
875	 0.108615160846993 
876	 0.108683532160148 
877	 0.108795360288018 
878	 0.108839952708788 
879	 0.108996656927462 
880	 0.109145651494852 
881	 0.109150314488038 
882	 0.109257054517254 
883	 0.109446004368979 
884	 0.109608762499848 
885	 0.10964440853838 
886	 0.109796127986588 
887	 0.109966347795404 
888	 0.110097644886032 
889	 0.110200018389563 
890	 0.110362225216105 
891	 0.110524713666756 
892	 0.110690096748772 
893	 0.110949139230485 
894	 0.111063842323659 
895	 0.111187532697291 
896	 0.11141787951503 
897	 0.111611656993001 
898	 0.111845428726161 
899	 0.112049468067583 
900	 0.11219226508376 
901	 0.112436224919804 
902	 0.112690762181915 
903	 0.112933135326593 
904	 0.113165949962041 
905	 0.113398358258976 
906	 0.113645350836824 
907	 0.11391331801228 
908	 0.114198092218803 
909	 0.114476517670261 
910	 0.114730906486348 
911	 0.114996711742552 
912	 0.115322428210643 
913	 0.115603274624807 
914	 0.11589008884623 
915	 0.116214301154685 
916	 0.11656557722533 
917	 0.116825142928128 
918	 0.117116483425998 
919	 0.117498617513412 
920	 0.117910010381607 
921	 0.118253652425891 
922	 0.118570239650592 
923	 0.11889874288204 
924	 0.119236335565343 
925	 0.119637388954547 
926	 0.120107482120022 
927	 0.12058017997272 
928	 0.120889047723675 
929	 0.121350779779239 
930	 0.121807802179999 
931	 0.122144232658819 
932	 0.122630461566719 
933	 0.12309692994802 
934	 0.123531776848387 
935	 0.123957957909189 
936	 0.124353352068017 
937	 0.124817130023569 
938	 0.125302088179924 
939	 0.125750355198593 
940	 0.126252857251622 
941	 0.126791908177027 
942	 0.127362724189155 
943	 0.127948891832492 
944	 0.128476956184725 
945	 0.128997516096722 
946	 0.129563234874998 
947	 0.13018560178797 
948	 0.130725310581999 
949	 0.131232831237893 
950	 0.131749526642036 
951	 0.132323671673162 
952	 0.133081775793905 
953	 0.133748348073994 
954	 0.134299567268068 
955	 0.134874273156603 
956	 0.135550648180681 
957	 0.136178028189077 
958	 0.136769953240386 
959	 0.137437702634875 
960	 0.138162483113475 
961	 0.138902904320378 
962	 0.139626924009668 
963	 0.140306017105088 
964	 0.140859695748345 
965	 0.141550760807972 
966	 0.142405807698297 
967	 0.143253553126533 
968	 0.143903065247815 
969	 0.144614187541836 
970	 0.145394544703883 
971	 0.1460848735508 
972	 0.146793247079155 
973	 0.147613220822398 
974	 0.148484450597821 
975	 0.149273001794269 
976	 0.150066108662146 
977	 0.150833953578079 
978	 0.151643431965673 
979	 0.152553528701831 
980	 0.153215454892105 
981	 0.153892387830173 
982	 0.154722574566804 
983	 0.155682141911816 
984	 0.156533182732182 
985	 0.157443446768167 
986	 0.158344657721745 
987	 0.159103802124896 
988	 0.16003189020908 
989	 0.160950841600398 
990	 0.161759016126077 
991	 0.162479968930571 
992	 0.163409087013285 
993	 0.164285685772942 
994	 0.165148177157246 
995	 0.166111153449064 
996	 0.166969492964329 
997	 0.167843213266863 
998	 0.168719853754232 
999	 0.169587459653396 
1000	 0.170633127689498 
1001	 0.17301448984315 
1002	 0.173854021462253 
1003	 0.174664310279287 
1004	 0.175520696192892 
1005	 0.176423606603247 
1006	 0.177294632268551 
1007	 0.178159407359956 
1008	 0.179058836488888 
1009	 0.179888433456445 
1010	 0.180701038639513 
1011	 0.181633595868321 
1012	 0.182519526601822 
1013	 0.183359581687454 
1014	 0.184202491261537 
1015	 0.18498527438534 
1016	 0.185791317467533 
1017	 0.186606664212798 
1018	 0.187457348231587 
1019	 0.188291736341944 
1020	 0.189087082952124 
1021	 0.189875760209475 
1022	 0.190682860071978 
1023	 0.191488273875291 
1024	 0.192293377669646 
1025	 0.193076708230301 
1026	 0.193828391221138 
1027	 0.194596328277188 
1028	 0.19538916440122 
1029	 0.196153763642929 
1030	 0.196917668258904 
1031	 0.197671726054515 
1032	 0.198424255526155 
1033	 0.199146457076634 
1034	 0.199863031473949 
1035	 0.200589618953319 
1036	 0.201338743172831 
1037	 0.202056056601185 
1038	 0.20277809784648 
1039	 0.203498224287028 
1040	 0.204143077859346 
1041	 0.204827749688335 
1042	 0.205566790558354 
1043	 0.206262648341062 
1044	 0.206976417149708 
1045	 0.207717259982187 
1046	 0.208471266690337 
1047	 0.209171241452007 
1048	 0.209872398348983 
1049	 0.210538020395186 
1050	 0.211175429152707 
1051	 0.211866986849426 
1052	 0.212574097770207 
1053	 0.213311564153314 
1054	 0.214068634805538 
1055	 0.214799371886605 
1056	 0.215533747884391 
1057	 0.216251198756164 
1058	 0.216972791048594 
1059	 0.217682632712752 
1060	 0.218375000100941 
1061	 0.219030513752031 
1062	 0.21973419462735 
1063	 0.220457787931322 
1064	 0.221220249475152 
1065	 0.222013006011578 
1066	 0.222755543870557 
1067	 0.223462344058428 
1068	 0.224158023376526 
1069	 0.224868479924254 
1070	 0.225587783192505 
1071	 0.22633362283699 
1072	 0.227068517572737 
1073	 0.227807507518291 
1074	 0.228520299954245 
1075	 0.229212349617439 
1076	 0.229918732762883 
1077	 0.230638908196032 
1078	 0.231321323802312 
1079	 0.231983116820958 
1080	 0.232706926427212 
1081	 0.233413275847396 
1082	 0.234065424261567 
1083	 0.234748146823143 
1084	 0.235437978273992 
1085	 0.236147293753055 
1086	 0.236876332043313 
1087	 0.237588448301319 
1088	 0.238312644604535 
1089	 0.239024221434827 
1090	 0.239719523450649 
1091	 0.240398337307255 
1092	 0.241131220252964 
1093	 0.24185575562004 
1094	 0.24253876937483 
1095	 0.243225003047455 
1096	 0.243918411544281 
1097	 0.244624827246677 
1098	 0.245323512020036 
1099	 0.246048118276226 
1100	 0.246753256709941 
1101	 0.247412139755816 
1102	 0.248116563480534 
1103	 0.248856179916105 
1104	 0.249574567831654 
1105	 0.250277656431587 
1106	 0.251012139422967 
1107	 0.251727056727609 
1108	 0.25245091282956 
1109	 0.253209278727278 
1110	 0.253962310892381 
1111	 0.254699416046797 
1112	 0.25542011468222 
1113	 0.256154623588056 
1114	 0.25689204417185 
1115	 0.257626038379552 
1116	 0.258367451201856 
1117	 0.259101931295611 
1118	 0.259835347686047 
1119	 0.260536097446521 
1120	 0.261296377763893 
1121	 0.262047854142449 
1122	 0.262775373841455 
1123	 0.263565065931766 
1124	 0.264328654268979 
1125	 0.265071979000514 
1126	 0.265840115943689 
1127	 0.266626292534606 
1128	 0.267399922623584 
1129	 0.268179747304952 
1130	 0.268950471464572 
1131	 0.269720200835271 
1132	 0.27048203600436 
1133	 0.271235217889994 
1134	 0.271987275487502 
1135	 0.27274772184417 
1136	 0.273477590515359 
1137	 0.274192687378026 
1138	 0.274900714839391 
1139	 0.275640947032203 
1140	 0.276386648554138 
1141	 0.277132144287734 
1142	 0.277916157593387 
1143	 0.278664117219517 
1144	 0.27938995828977 
1145	 0.280111884539314 
1146	 0.280822440915 
1147	 0.281529891759292 
1148	 0.282211127606456 
1149	 0.282918270632709 
1150	 0.283628976681226 
1151	 0.284371124957173 
1152	 0.285099736412607 
1153	 0.285798925916432 
1154	 0.286504751906289 
1155	 0.2871991121636 
1156	 0.287883056033947 
1157	 0.288571493357827 
1158	 0.289244708223993 
1159	 0.289890409475935 
1160	 0.290553903465783 
1161	 0.291220715714652 
1162	 0.291884598983573 
1163	 0.292557196441676 
1164	 0.293218660850727 
1165	 0.29386891748157 
1166	 0.294531088509028 
1167	 0.295188657902141 
1168	 0.295833500164739 
1169	 0.296459103016426 
1170	 0.297073362960725 
1171	 0.297680075444303 
1172	 0.298263115196223 
1173	 0.298857789792655 
1174	 0.299457337852893 
1175	 0.300046879263186 
1176	 0.300632406733242 
1177	 0.301215415940517 
1178	 0.301787775559081 
1179	 0.302367970401169 
1180	 0.302964342498321 
1181	 0.303538397379236 
1182	 0.304102331353833 
1183	 0.304669403158525 
1184	 0.305220582354468 
1185	 0.305751625546558 
1186	 0.306291402125569 
1187	 0.30683844135444 
1188	 0.307361080327207 
1189	 0.307869488474199 
1190	 0.308380743801104 
1191	 0.308885743807641 
1192	 0.309378945993313 
1193	 0.309870113590343 
1194	 0.310353507549116 
1195	 0.310813723549542 
1196	 0.31128326431713 
1197	 0.311771387103938 
1198	 0.312234895746871 
1199	 0.312687299280718 
1200	 0.313133021547772 
1201	 0.313568210480616 
1202	 0.313985459477414 
1203	 0.314402016628156 
1204	 0.31480972549081 
1205	 0.315223308505033 
1206	 0.315639980103884 
1207	 0.316039517891165 
1208	 0.316442621477477 
1209	 0.316827716824655 
1210	 0.317187790870673 
1211	 0.317551179028361 
1212	 0.317921415339244 
1213	 0.31826863832092 
1214	 0.318597196707655 
1215	 0.318925105487786 
1216	 0.319244551631252 
1217	 0.31953514929884 
1218	 0.319867417549887 
1219	 0.320224098242734 
1220	 0.320553703229834 
1221	 0.320901455084866 
1222	 0.321216152717641 
1223	 0.321500573918401 
1224	 0.321788170433351 
1225	 0.32207327187563 
1226	 0.322342763644728 
1227	 0.322592131103494 
1228	 0.322847691953968 
1229	 0.323085518433153 
1230	 0.323339454153194 
1231	 0.323622333329714 
1232	 0.323877966000068 
1233	 0.324124553131987 
1234	 0.324367892738542 
1235	 0.324605098472087 
1236	 0.324817369699683 
1237	 0.325050943032796 
1238	 0.325311194726669 
1239	 0.325530824593052 
1240	 0.32572606885177 
1241	 0.325936918483468 
1242	 0.326137261524451 
1243	 0.326335526371401 
1244	 0.326544571734476 
1245	 0.326748061143826 
1246	 0.326939538114248 
1247	 0.327127929798779 
1248	 0.327310445488817 
1249	 0.327512100055438 
1250	 0.327686728284862 
1251	 0.327853458834039 
1252	 0.328022319946993 
1253	 0.328193348046212 
1254	 0.328347706585981 
1255	 0.328487650821088 
1256	 0.328638801720302 
1257	 0.328781923793546 
1258	 0.328932633484869 
1259	 0.329105331122939 
1260	 0.329252894736144 
1261	 0.329397458912638 
1262	 0.329522330493242 
1263	 0.329617896004249 
1264	 0.329723952566015 
1265	 0.329821135846683 
1266	 0.329918093356944 
1267	 0.330009677606534 
1268	 0.330118863307659 
1269	 0.330219917160719 
1270	 0.330315910363602 
1271	 0.330417960627488 
1272	 0.330521374085108 
1273	 0.330630537908909 
1274	 0.330735584797506 
1275	 0.330859419339613 
1276	 0.33099852796345 
1277	 0.331138440796578 
1278	 0.331289113948053 
1279	 0.331439198137118 
1280	 0.331589935249392 
1281	 0.331745772056772 
1282	 0.331909430823741 
1283	 0.332073816569981 
1284	 0.33224346718541 
1285	 0.332413693658219 
1286	 0.332573484152956 
1287	 0.332718329267257 
1288	 0.332881589683251 
1289	 0.333048994988185 
1290	 0.333201331872087 
1291	 0.333364349382568 
1292	 0.333508274875794 
1293	 0.333621978471231 
1294	 0.333755314787892 
1295	 0.333894517058645 
1296	 0.334030349655579 
1297	 0.334179319827265 
1298	 0.334300993019739 
1299	 0.33441703876752 
1300	 0.334516141415582 
1301	 0.334574493900228 
1302	 0.334656228453893 
1303	 0.334747788969816 
1304	 0.33483220846788 
1305	 0.334891385798095 
1306	 0.334944351218094 
1307	 0.334972529938187 
1308	 0.334972173338277 
1309	 0.335009555356654 
1310	 0.335073714704933 
1311	 0.335111164676381 
1312	 0.335153547379542 
1313	 0.335181633919391 
1314	 0.335190206499879 
1315	 0.335199507733243 
1316	 0.335193794790215 
1317	 0.335212098815005 
1318	 0.335239281450033 
1319	 0.335258489243849 
1320	 0.335304913899929 
1321	 0.335324880946062 
1322	 0.335319889394135 
1323	 0.335314930510814 
1324	 0.335322486444425 
1325	 0.335313029381962 
1326	 0.335324577668652 
1327	 0.335339136470902 
1328	 0.335330372087478 
1329	 0.335325893595619 
1330	 0.335324947704924 
1331	 0.33531176944538 
1332	 0.335316241502627 
1333	 0.335340465416213 
1334	 0.335351360164614 
1335	 0.335361504116004 
1336	 0.335370851595022 
1337	 0.335370513214465 
1338	 0.335382988634699 
1339	 0.335406759300966 
1340	 0.335421775388812 
1341	 0.335444483456961 
1342	 0.335456327160279 
1343	 0.335458491636263 
1344	 0.33545555384059 
1345	 0.335456855497391 
1346	 0.335459945814068 
1347	 0.33546239138878 
1348	 0.335465708316699 
1349	 0.335451505334525 
1350	 0.335429246176005 
1351	 0.335409177043036 
1352	 0.33537648244203 
1353	 0.335356487819182 
1354	 0.335339501908768 
1355	 0.335326882028148 
1356	 0.335325716410247 
1357	 0.335314794004661 
1358	 0.335307219543173 
1359	 0.335295258911838 
1360	 0.33524937559181 
1361	 0.335249340780999 
1362	 0.335270285884234 
1363	 0.335295273592908 
1364	 0.335368806920179 
1365	 0.335415437654528 
1366	 0.335448335528102 
1367	 0.335480133620103 
1368	 0.335518659292586 
1369	 0.335524637659921 
1370	 0.335541281003238 
1371	 0.335563996573932 
1372	 0.335559475321625 
1373	 0.335550712203499 
1374	 0.335526451490034 
1375	 0.335489456956938 
1376	 0.335428486162766 
1377	 0.335358522211133 
1378	 0.335261904046964 
1379	 0.335123245355508 
1380	 0.335009529626366 
1381	 0.334872442209933 
1382	 0.334763646517874 
1383	 0.334690933391186 
1384	 0.334591342676938 
1385	 0.334500355565442 
1386	 0.334394693222221 
1387	 0.334277197709757 
1388	 0.334137466518119 
1389	 0.333991138296324 
1390	 0.333827839638236 
1391	 0.33362367714433 
1392	 0.33339267262253 
1393	 0.333123155395474 
1394	 0.332827037033967 
1395	 0.332499933832828 
1396	 0.332175327465026 
1397	 0.33186503163539 
1398	 0.331557290144912 
1399	 0.331242327693284 
1400	 0.330952167837496 
1401	 0.330610388831766 
1402	 0.330235545229766 
1403	 0.329870167367047 
1404	 0.329468191914396 
1405	 0.329104229340583 
1406	 0.328761468732768 
1407	 0.328409723280042 
1408	 0.328063690865607 
1409	 0.327725235233296 
1410	 0.327384330203269 
1411	 0.327055515259584 
1412	 0.326732314169685 
1413	 0.326423627850324 
1414	 0.3261465536821 
1415	 0.325868446902247 
1416	 0.325598863019425 
1417	 0.325367293552013 
1418	 0.325139198701402 
1419	 0.324897083701936 
1420	 0.324675899269337 
1421	 0.324465206861996 
1422	 0.324242743222317 
1423	 0.324056922854484 
1424	 0.323886432771932 
1425	 0.323740469055622 
1426	 0.323594808299488 
1427	 0.323461484779036 
1428	 0.323339077456582 
1429	 0.323230446203718 
1430	 0.323129552708803 
1431	 0.323041247085243 
1432	 0.322954712871806 
1433	 0.322869504634223 
1434	 0.32279714663071 
1435	 0.322730972259939 
1436	 0.322683708966856 
1437	 0.322656333655606 
1438	 0.322624766808983 
1439	 0.322609279092931 
1440	 0.32258719913502 
1441	 0.322541087005116 
1442	 0.322498044689409 
1443	 0.322439898792614 
1444	 0.322375346337519 
1445	 0.322344791262625 
1446	 0.322325436356981 
1447	 0.322329536157675 
1448	 0.322345994803674 
1449	 0.322349711811939 
1450	 0.322363149253145 
1451	 0.322372241338461 
1452	 0.322363696049005 
1453	 0.322395975913822 
1454	 0.322443312550326 
1455	 0.322499040274304 
1456	 0.322596158673483 
1457	 0.322663494701083 
1458	 0.322721703043859 
1459	 0.322779886759761 
1460	 0.322820695951929 
1461	 0.322877745340808 
1462	 0.32294638340662 
1463	 0.323012580769595 
1464	 0.323085974142705 
1465	 0.323153833676717 
1466	 0.323215507367053 
1467	 0.323281970084901 
1468	 0.323356256999805 
1469	 0.323423925168256 
1470	 0.323489886573576 
1471	 0.323547566052129 
1472	 0.323618059727996 
1473	 0.323691474657979 
1474	 0.323772507490114 
1475	 0.323875028309328 
1476	 0.323983266695076 
1477	 0.324093605926952 
1478	 0.324225731291135 
1479	 0.324345417901236 
1480	 0.324452138764965 
1481	 0.324562810264358 
1482	 0.324655282436209 
1483	 0.324718122344929 
1484	 0.324821494101408 
1485	 0.324935561376822 
1486	 0.325046725810738 
1487	 0.325175295323789 
1488	 0.325300551081996 
1489	 0.325421568755837 
1490	 0.325537615930928 
1491	 0.325665246055425 
1492	 0.325787664762576 
1493	 0.32589362544301 
1494	 0.326004895356507 
1495	 0.326133361902134 
1496	 0.326235681796732 
1497	 0.326319429296619 
1498	 0.326409130987758 
1499	 0.326481344396781 
1500	 0.326567165445803 
1501	 0.326668235629566 
1502	 0.326760312996863 
1503	 0.326853698191439 
1504	 0.326938938179148 
1505	 0.327029824108606 
1506	 0.327120178589792 
1507	 0.327210052118935 
1508	 0.327307684801998 
1509	 0.327387559275849 
1510	 0.327447150878756 
1511	 0.327516396963642 
1512	 0.327596304803982 
1513	 0.327703456310612 
1514	 0.327806839192693 
1515	 0.3279039684578 
1516	 0.328002951558706 
1517	 0.328076578188069 
1518	 0.328123199006327 
1519	 0.328187528150112 
1520	 0.32824534869794 
1521	 0.328301574090995 
1522	 0.328362968347454 
1523	 0.328418937771405 
1524	 0.32846241310066 
1525	 0.328523780103463 
1526	 0.328585787733814 
1527	 0.328660312634497 
1528	 0.328757746089122 
1529	 0.328833519750095 
1530	 0.328915585375547 
1531	 0.328985321153819 
1532	 0.329027427210523 
1533	 0.329088946594396 
1534	 0.329152552447901 
1535	 0.329219828233667 
1536	 0.329309706267182 
1537	 0.329377140769559 
1538	 0.329434726557515 
1539	 0.329489840849444 
1540	 0.329524986310556 
1541	 0.329570116378674 
1542	 0.329614617975769 
1543	 0.329669888242808 
1544	 0.329744470151143 
1545	 0.329803172032247 
1546	 0.329859703536501 
1547	 0.329910990651191 
1548	 0.32996961586106 
1549	 0.330010651802574 
1550	 0.330062746085965 
1551	 0.330120392037597 
1552	 0.330160360042381 
1553	 0.330197138926412 
1554	 0.330240277294676 
1555	 0.330291916623619 
1556	 0.330329524391139 
1557	 0.330371625362546 
1558	 0.33041922864607 
1559	 0.330439812480292 
1560	 0.330467886379329 
1561	 0.330487966378679 
1562	 0.330533459236372 
1563	 0.330586446688127 
1564	 0.330638274667621 
1565	 0.330713426931647 
1566	 0.330772007340438 
1567	 0.330814937977406 
1568	 0.330866183516857 
1569	 0.330926477408824 
1570	 0.330968053276243 
1571	 0.33100432026333 
1572	 0.331033454777512 
1573	 0.331046874775027 
1574	 0.3310693959291 
1575	 0.331084588415086 
1576	 0.331110156790314 
1577	 0.331153917527859 
1578	 0.331175304087283 
1579	 0.331190193442498 
1580	 0.33120546960021 
1581	 0.331200064857865 
1582	 0.331211410453192 
1583	 0.331230729441282 
1584	 0.331256698264186 
1585	 0.331284183166383 
1586	 0.331325882820125 
1587	 0.3313971209969 
1588	 0.33143568061329 
1589	 0.33147028996089 
1590	 0.33149828709366 
1591	 0.331504493935531 
1592	 0.331513160432352 
1593	 0.331517249798435 
1594	 0.331527062914936 
1595	 0.331535055518212 
1596	 0.331540203884322 
1597	 0.331543086561792 
1598	 0.331556727363627 
1599	 0.331575387758406 
1600	 0.331589468333042 
1601	 0.331611195193471 
1602	 0.331634109800964 
1603	 0.331644707925829 
1604	 0.331665419506345 
1605	 0.331700796606366 
1606	 0.331732609411454 
1607	 0.331773585913899 
1608	 0.331803660734076 
1609	 0.331810858649132 
1610	 0.331817580968296 
1611	 0.33180997570638 
1612	 0.331802937773429 
1613	 0.331797510040465 
1614	 0.331789178516838 
1615	 0.331807116013102 
1616	 0.331794884477389 
1617	 0.331781990375661 
1618	 0.331799212635767 
1619	 0.331777702265063 
1620	 0.331772763361291 
1621	 0.331766273400406 
1622	 0.331766483398792 
1623	 0.331758897478279 
1624	 0.331743618752499 
1625	 0.331746640491685 
1626	 0.331763482000529 
1627	 0.331754537684162 
1628	 0.331740940199454 
1629	 0.331741131791336 
1630	 0.331728096899777 
1631	 0.331725677388802 
1632	 0.331744985577546 
1633	 0.331753572538102 
1634	 0.331750085487982 
1635	 0.331755966469816 
1636	 0.331778253022765 
1637	 0.331779636210619 
1638	 0.331768502030069 
1639	 0.331759062000857 
1640	 0.331748505501282 
1641	 0.331728249251892 
1642	 0.331699819470782 
1643	 0.331675352813869 
1644	 0.331634312377798 
1645	 0.331620918583332 
1646	 0.331621566250009 
1647	 0.331623959647137 
1648	 0.331645199911425 
1649	 0.331653790260738 
1650	 0.331661786872175 
1651	 0.331665102069769 
1652	 0.331669083207991 
1653	 0.331659186155291 
1654	 0.331637067395306 
1655	 0.331620596513588 
1656	 0.331599913981143 
1657	 0.331573917179353 
1658	 0.331545477932192 
1659	 0.331520908738595 
1660	 0.33148623211705 
1661	 0.331464108164058 
1662	 0.331455849579398 
1663	 0.331440308297433 
1664	 0.331421702366002 
1665	 0.331409567591615 
1666	 0.331403539963262 
1667	 0.331390029686138 
1668	 0.331388394392175 
1669	 0.331358148018657 
1670	 0.331294082186271 
1671	 0.331265272482802 
1672	 0.331233808572944 
1673	 0.331214681019405 
1674	 0.331224618179559 
1675	 0.331222762249415 
1676	 0.331210179291111 
1677	 0.33121437458591 
1678	 0.331239884612989 
1679	 0.331244707259313 
1680	 0.331255843271821 
1681	 0.331241892350669 
1682	 0.331202967846572 
1683	 0.331170284135371 
1684	 0.331115391240229 
1685	 0.331088635432822 
1686	 0.331074208947804 
1687	 0.331060885953044 
1688	 0.331063737722118 
1689	 0.331060346516145 
1690	 0.331056123916457 
1691	 0.331051343285065 
1692	 0.33105852829579 
1693	 0.331041322904212 
1694	 0.331010473098156 
1695	 0.330978249028081 
1696	 0.330920335831466 
1697	 0.330886988144815 
1698	 0.330856590828418 
1699	 0.330844290371467 
1700	 0.330854432361363 
1701	 0.330858194739109 
1702	 0.330889877344403 
1703	 0.330874801078231 
1704	 0.330840298107834 
1705	 0.330795211072188 
1706	 0.330705139102951 
1707	 0.330652621162844 
1708	 0.330604069542803 
1709	 0.330571798494151 
1710	 0.33057097382467 
1711	 0.330543490951995 
1712	 0.330508549395349 
1713	 0.330478969935441 
1714	 0.330430711565012 
1715	 0.330413470466638 
1716	 0.330420362001389 
1717	 0.330423557471359 
1718	 0.33044367084014 
1719	 0.330444733996503 
1720	 0.330453186580086 
1721	 0.330425727933756 
1722	 0.330371801181138 
1723	 0.330324252624958 
1724	 0.330244335762607 
1725	 0.330198457713743 
1726	 0.33017589262707 
1727	 0.330135791548385 
1728	 0.330106278036789 
1729	 0.330053503265333 
1730	 0.329983390950873 
1731	 0.32991649384072 
1732	 0.329838762295384 
1733	 0.329765770252001 
1734	 0.329698262247002 
1735	 0.329613204872377 
1736	 0.32951885683785 
1737	 0.329428135695935 
1738	 0.329318514193507 
1739	 0.329236411215535 
1740	 0.329164358691008 
1741	 0.329103473367087 
1742	 0.329060771058276 
1743	 0.329020730294794 
1744	 0.329005162104733 
1745	 0.328940054922676 
1746	 0.328849369528389 
1747	 0.328779869968493 
1748	 0.328715571467327 
1749	 0.328688736661117 
1750	 0.328652177966942 
1751	 0.328579711346847 
1752	 0.328492766126662 
1753	 0.328395323086584 
1754	 0.328301814835311 
1755	 0.32824171121592 
1756	 0.328173852200412 
1757	 0.328093469571358 
1758	 0.328047983359377 
1759	 0.327985115896932 
1760	 0.327924815819116 
1761	 0.327914894776952 
1762	 0.327884166585714 
1763	 0.327833123660626 
1764	 0.327794894912988 
1765	 0.327752095050277 
1766	 0.32771966961759 
1767	 0.327714863583804 
1768	 0.327700758633583 
1769	 0.327666852958388 
1770	 0.327632274309244 
1771	 0.327582184195463 
1772	 0.327508540129988 
1773	 0.327416025012827 
1774	 0.327322083746285 
1775	 0.327224148020584 
1776	 0.327152293688616 
1777	 0.327125671350145 
1778	 0.327085978266251 
1779	 0.32704577279931 
1780	 0.327024922404572 
1781	 0.326995333904796 
1782	 0.326972582013993 
1783	 0.326935268403547 
1784	 0.326899799113057 
1785	 0.326846331879054 
1786	 0.326808512252308 
1787	 0.32679589262007 
1788	 0.326771229681988 
1789	 0.326729363826672 
1790	 0.326717450483342 
1791	 0.32672378310676 
1792	 0.326714584841001 
1793	 0.326726104470976 
1794	 0.326725233515992 
1795	 0.326710866443951 
1796	 0.326683160145836 
1797	 0.326650411880863 
1798	 0.326597647650362 
1799	 0.326504172774283 
1800	 0.326450672345995 
1801	 0.324427014841298 
1802	 0.324489297380157 
1803	 0.324576722583985 
1804	 0.324673050162761 
1805	 0.324742877254374 
1806	 0.324837874707203 
1807	 0.324935305012442 
1808	 0.325027962692834 
1809	 0.325148369622369 
1810	 0.325235386548637 
1811	 0.325309793997251 
1812	 0.3253691422077 
1813	 0.325404913814522 
1814	 0.325400701604473 
1815	 0.325384866357173 
1816	 0.325370701703916 
1817	 0.325363135920815 
1818	 0.325351881229156 
1819	 0.325362529979245 
1820	 0.325393735464166 
1821	 0.325404997043382 
1822	 0.325408282751199 
1823	 0.325401259922115 
1824	 0.325391673257124 
1825	 0.325365958868699 
1826	 0.325372998482631 
1827	 0.32539815712816 
1828	 0.325402389972324 
1829	 0.325416608932468 
1830	 0.325399376193563 
1831	 0.325357906385942 
1832	 0.325313488226439 
1833	 0.325258507440919 
1834	 0.325216597525473 
1835	 0.325194406822363 
1836	 0.325155978282642 
1837	 0.325121066905873 
1838	 0.325085517872165 
1839	 0.325072649642214 
1840	 0.325070157425205 
1841	 0.325088643840536 
1842	 0.325125443353584 
1843	 0.325153831168402 
1844	 0.325169104623567 
1845	 0.325161910329298 
1846	 0.325114352504727 
1847	 0.32506507445326 
1848	 0.324977364443933 
1849	 0.32490601834807 
1850	 0.324865972600846 
1851	 0.32484245524182 
1852	 0.324826753379723 
1853	 0.324870451827214 
1854	 0.324883946831822 
1855	 0.32487798453376 
1856	 0.324883373126774 
1857	 0.324834395367946 
1858	 0.324744797137743 
1859	 0.324625924696682 
1860	 0.324501725961712 
1861	 0.324347032559632 
1862	 0.324178467385218 
1863	 0.324001909270073 
1864	 0.323821423558345 
1865	 0.323604164283385 
1866	 0.323341177922827 
1867	 0.32307940500531 
1868	 0.322819134794968 
1869	 0.32253405663442 
1870	 0.322261858035965 
1871	 0.3219748233221 
1872	 0.32168532526969 
1873	 0.321373521463597 
1874	 0.32107064523219 
1875	 0.320753712160129 
1876	 0.320401748289169 
1877	 0.320023017562568 
1878	 0.319577905972646 
1879	 0.319066281964599 
1880	 0.318515568678032 
1881	 0.317919622453428 
1882	 0.317270802814123 
1883	 0.316582345157989 
1884	 0.315818119512119 
1885	 0.315001578823339 
1886	 0.3141442692039 
1887	 0.313216470368694 
1888	 0.312245817676561 
1889	 0.311199304028262 
1890	 0.310087118789555 
1891	 0.308982598202795 
1892	 0.307841972428335 
1893	 0.306682362312829 
1894	 0.305523631292117 
1895	 0.304332029610941 
1896	 0.303054436571054 
1897	 0.301738655304422 
1898	 0.300406795317162 
1899	 0.299081571446327 
1900	 0.297783361386489 
1901	 0.29647969937879 
1902	 0.295224216862817 
1903	 0.293996658908737 
1904	 0.292802692310779 
1905	 0.291636990715039 
1906	 0.290538342621794 
1907	 0.289429039081757 
1908	 0.28834193848885 
1909	 0.287302107421222 
1910	 0.286283446986633 
1911	 0.28532483887154 
1912	 0.284407406266068 
1913	 0.283534546274421 
1914	 0.282700433668566 
1915	 0.281909386935528 
1916	 0.281153658357453 
1917	 0.280458089306725 
1918	 0.279831315833076 
1919	 0.279237051569342 
1920	 0.278686408626927 
1921	 0.27820209645314 
1922	 0.27773685360101 
1923	 0.277325066499302 
1924	 0.276975447629731 
1925	 0.276705776921534 
1926	 0.276451831641183 
1927	 0.276239265682013 
1928	 0.276069386593222 
1929	 0.27593667240855 
1930	 0.275832484555171 
1931	 0.275772670308163 
1932	 0.275731102988649 
1933	 0.275688529081996 
1934	 0.27567113867578 
1935	 0.27568761836036 
1936	 0.275730757034714 
1937	 0.275789622515594 
1938	 0.275879816122402 
1939	 0.275991145548783 
1940	 0.276115168774248 
1941	 0.276262101222249 
1942	 0.276443554964135 
1943	 0.276652256825536 
1944	 0.276870268347911 
1945	 0.277080953562465 
1946	 0.27730427669928 
1947	 0.277532703211745 
1948	 0.277771850066816 
1949	 0.278017961919959 
1950	 0.278282972688871 
1951	 0.278568504607423 
1952	 0.278859904025553 
1953	 0.279138187481131 
1954	 0.279399839877891 
1955	 0.279667253875646 
1956	 0.279924480442629 
1957	 0.28020472762672 
1958	 0.280507994775053 
1959	 0.280805053397842 
1960	 0.281099414958468 
1961	 0.281416819310578 
1962	 0.281746249194865 
1963	 0.2820820832579 
1964	 0.282444453239475 
1965	 0.282797626735809 
1966	 0.283140290345136 
1967	 0.283465133814269 
1968	 0.283793389552402 
1969	 0.284099295306518 
1970	 0.284433999300927 
1971	 0.284778772099612 
1972	 0.285135851397651 
1973	 0.285526854528853 
1974	 0.285888237832475 
1975	 0.286244319441371 
1976	 0.286591039927388 
1977	 0.286949481812484 
1978	 0.287286763355215 
1979	 0.28763400428511 
1980	 0.288001752405602 
1981	 0.288352341508167 
1982	 0.288683820118863 
1983	 0.289035377469771 
1984	 0.2894008780165 
1985	 0.289750761059339 
1986	 0.29009036806779 
1987	 0.290445981648986 
1988	 0.290803416370769 
1989	 0.291161782693124 
1990	 0.291532628947209 
1991	 0.291900177642401 
1992	 0.2922666997168 
1993	 0.292637470630959 
1994	 0.292990051427749 
1995	 0.293333364284622 
1996	 0.29367994495277 
1997	 0.294014298878652 
1998	 0.294345627216224 
1999	 0.294672315014839 
2000	 0.295013337276327 
2001	 0.295371930359806 
2002	 0.295691924667751 
2003	 0.296023472093063 
2004	 0.296374399411401 
2005	 0.296712854474058 
2006	 0.297039035206378 
2007	 0.297374612458938 
2008	 0.297712925547445 
2009	 0.298050674734742 
2010	 0.298385569387116 
2011	 0.298725867977826 
2012	 0.299082300324363 
2013	 0.299423853519639 
2014	 0.299768977256215 
2015	 0.300090079579542 
2016	 0.300389467179226 
2017	 0.300721433678352 
2018	 0.301054874958884 
2019	 0.301397216183909 
2020	 0.301730733829189 
2021	 0.30208075931762 
2022	 0.302410187545124 
2023	 0.302729224191471 
2024	 0.303043139196929 
2025	 0.30334382062071 
2026	 0.303645941259717 
2027	 0.303955009300474 
2028	 0.30423539225228 
2029	 0.304517455764469 
2030	 0.304796453723733 
2031	 0.305071810373615 
2032	 0.305320275304845 
2033	 0.305610879257215 
2034	 0.305922925842253 
2035	 0.306228722320444 
2036	 0.306565247676208 
2037	 0.306873981339025 
2038	 0.307174676644762 
2039	 0.307459588980865 
2040	 0.307738639797938 
2041	 0.307988910319269 
2042	 0.308237671516655 
2043	 0.308500405407909 
2044	 0.30874711057206 
2045	 0.308989701238816 
2046	 0.309237322200595 
2047	 0.309478355878342 
2048	 0.309716266809599 
2049	 0.309966376337651 
2050	 0.31019666086254 
2051	 0.310398569817392 
2052	 0.310619834276783 
2053	 0.310837496216865 
2054	 0.31106708062299 
2055	 0.311325450159676 
2056	 0.311565370563603 
2057	 0.311788201073693 
2058	 0.312003157320574 
2059	 0.312214772103588 
2060	 0.312396261184134 
2061	 0.312605962015441 
2062	 0.31282794174338 
2063	 0.313051013530321 
2064	 0.313287577701104 
2065	 0.31351392157987 
2066	 0.313743294752836 
2067	 0.313966049802525 
2068	 0.314186091826225 
2069	 0.314391221379486 
2070	 0.314604368257578 
2071	 0.314821780063196 
2072	 0.315024338928885 
2073	 0.315216180562514 
2074	 0.315419553182047 
2075	 0.315609955176123 
2076	 0.315821237737365 
2077	 0.316060993843097 
2078	 0.316276815586413 
2079	 0.316496966954833 
2080	 0.316701742773037 
2081	 0.31688459455504 
2082	 0.317072517383489 
2083	 0.31726069120727 
2084	 0.317435001867371 
2085	 0.317619491143145 
2086	 0.317811323068259 
2087	 0.317985272249134 
2088	 0.31814556078504 
2089	 0.318326604650667 
2090	 0.318493602347527 
2091	 0.318689303582224 
2092	 0.318921733777662 
2093	 0.319135511285718 
2094	 0.319365606792798 
2095	 0.319572109361011 
2096	 0.319761666547906 
2097	 0.319950522813792 
2098	 0.320120877112262 
2099	 0.320301713462841 
2100	 0.320473498096289 
2101	 0.320635746172325 
2102	 0.320817934157845 
2103	 0.320995594334208 
2104	 0.321195410522597 
2105	 0.321415769380133 
2106	 0.321640207334958 
2107	 0.321877119865319 
2108	 0.322116706643045 
2109	 0.322386738449274 
2110	 0.322623919205145 
2111	 0.32285185146525 
2112	 0.323069507347286 
2113	 0.323265098405242 
2114	 0.323453310472223 
2115	 0.323647533185616 
2116	 0.323838593176283 
2117	 0.32403584368924 
2118	 0.324229325941766 
2119	 0.324437377056394 
2120	 0.324663274786831 
2121	 0.324872440703089 
2122	 0.325083272480421 
2123	 0.325288509388685 
2124	 0.325485257895527 
2125	 0.325679127330946 
2126	 0.325890716531077 
2127	 0.326068396127079 
2128	 0.326233832483273 
2129	 0.326371899161526 
2130	 0.326482810629085 
2131	 0.326571862806624 
2132	 0.326647682955889 
2133	 0.326693830013621 
2134	 0.326753847786415 
2135	 0.326804732266048 
2136	 0.326853387853156 
2137	 0.326919313521682 
2138	 0.326942400696806 
2139	 0.326930696444189 
2140	 0.326931253786201 
2141	 0.326920613207467 
2142	 0.326897713615258 
2143	 0.326870658065769 
2144	 0.326843625485414 
2145	 0.326792557336468 
2146	 0.326750414344369 
2147	 0.326738610917381 
2148	 0.326698969146648 
2149	 0.326633876626511 
2150	 0.326557545007663 
2151	 0.326454368175085 
2152	 0.326313207626241 
2153	 0.326176350966694 
2154	 0.326016808331845 
2155	 0.325870383629814 
2156	 0.325720009838681 
2157	 0.325570682745325 
2158	 0.325449311339845 
2159	 0.325281793677407 
2160	 0.325081633673498 
2161	 0.324889045252863 
2162	 0.32465210846244 
2163	 0.324447566674892 
2164	 0.324273790691914 
2165	 0.324088486060016 
2166	 0.323907538144279 
2167	 0.323738199793158 
2168	 0.323562357285029 
2169	 0.323380178729192 
2170	 0.323204611248671 
2171	 0.323048755030593 
2172	 0.322856000133942 
2173	 0.322647211129292 
2174	 0.322434258264092 
2175	 0.322188635406856 
2176	 0.321963430094923 
2177	 0.321745864510064 
2178	 0.321528404611429 
2179	 0.321324042663196 
2180	 0.321102518183104 
2181	 0.320847085897714 
2182	 0.320633023942041 
2183	 0.320440913396039 
2184	 0.320238072168643 
2185	 0.320045468731124 
2186	 0.319886427031022 
2187	 0.319701751253742 
2188	 0.319482038428205 
2189	 0.319314815275954 
2190	 0.319182322363057 
2191	 0.319028956431609 
2192	 0.318895731868212 
2193	 0.318743205648996 
2194	 0.3185599114544 
2195	 0.318403732320479 
2196	 0.31826209310431 
2197	 0.318114907920447 
2198	 0.3179597971049 
2199	 0.317829692603708 
2200	 0.317696466127186 
2201	 0.31759195203523 
2202	 0.31751211328657 
2203	 0.317476284263707 
2204	 0.317402057021203 
2205	 0.317340074538789 
2206	 0.317246401217488 
2207	 0.317120926398477 
2208	 0.317011229893923 
2209	 0.316884828362639 
2210	 0.316789426457391 
2211	 0.316697931859275 
2212	 0.316634340142286 
2213	 0.316597198325766 
2214	 0.316563565327217 
2215	 0.316564702242136 
2216	 0.31654282882454 
2217	 0.316516816507333 
2218	 0.316492662798412 
2219	 0.316465202659979 
2220	 0.316429436581309 
2221	 0.31638120129387 
2222	 0.31635604294032 
2223	 0.31631897921442 
2224	 0.316257902423362 
2225	 0.316215948313514 
2226	 0.316187649787528 
2227	 0.316134880358423 
2228	 0.316080065879687 
2229	 0.316012577982796 
2230	 0.315926593539621 
2231	 0.315841803938803 
2232	 0.315750057203374 
2233	 0.315657928487097 
2234	 0.315550443713229 
2235	 0.315459781476596 
2236	 0.315357414150547 
2237	 0.315293045699091 
2238	 0.315245236419658 
2239	 0.315226200674137 
2240	 0.315272577956155 
2241	 0.315276077192578 
2242	 0.315288239503561 
2243	 0.315275996710906 
2244	 0.315224369224156 
2245	 0.315187245171413 
2246	 0.315132659247932 
2247	 0.315068362078432 
2248	 0.314993821580306 
2249	 0.314893586239448 
2250	 0.31482341370402 
2251	 0.314748006478231 
2252	 0.314705207296875 
2253	 0.314688304569609 
2254	 0.31467427213463 
2255	 0.314671103442702 
2256	 0.314683072231942 
2257	 0.314716026846693 
2258	 0.314738861547887 
2259	 0.314793426640081 
2260	 0.314809524037524 
2261	 0.314790557008994 
2262	 0.314793181109139 
2263	 0.314782498816544 
2264	 0.314778382560913 
2265	 0.314799621437384 
2266	 0.314804650751787 
2267	 0.314794360115778 
2268	 0.314789522287183 
2269	 0.314794295180937 
2270	 0.314776815219394 
2271	 0.314738068771667 
2272	 0.314729960575079 
2273	 0.314715081452997 
2274	 0.314707932881516 
2275	 0.314702928041542 
2276	 0.314726673149836 
2277	 0.314701644551903 
2278	 0.314654108069452 
2279	 0.314603049457826 
2280	 0.314503328989819 
2281	 0.314475706361045 
2282	 0.314491536322084 
2283	 0.314471920270307 
2284	 0.314490575981622 
2285	 0.314463032569635 
2286	 0.314367118484795 
2287	 0.314319804316526 
2288	 0.314278493497241 
2289	 0.314242506967747 
2290	 0.314225631161881 
2291	 0.314214598595045 
2292	 0.314222693154704 
2293	 0.314215964629354 
2294	 0.314201838810769 
2295	 0.314194017430979 
2296	 0.314173486790909 
2297	 0.314163092703913 
2298	 0.314176129299467 
2299	 0.314207109128096 
2300	 0.314218787978913 
2301	 0.314190372825005 
2302	 0.314146116738126 
2303	 0.314116992337955 
2304	 0.314065367959773 
2305	 0.314032177886955 
2306	 0.313994581562168 
2307	 0.313942005622142 
2308	 0.313906261385744 
2309	 0.313908483666986 
2310	 0.313850767117682 
2311	 0.313773777366963 
2312	 0.31369651155604 
2313	 0.313573296466493 
2314	 0.313474740429952 
2315	 0.313401487157093 
2316	 0.313301982343999 
2317	 0.313180584194315 
2318	 0.313069802395832 
2319	 0.31293729072068 
2320	 0.31284567060606 
2321	 0.312774685079402 
2322	 0.31271851202672 
2323	 0.312704598286297 
2324	 0.312667876632225 
2325	 0.312639545576107 
2326	 0.312590574779317 
2327	 0.312521128614405 
2328	 0.312458561511129 
2329	 0.312388905269315 
2330	 0.312330217742563 
2331	 0.3122791216843 
2332	 0.312239120257323 
2333	 0.312156589555062 
2334	 0.312047617325496 
2335	 0.311935585697193 
2336	 0.311808081115221 
2337	 0.311742491221855 
2338	 0.31169670680164 
2339	 0.311637275276606 
2340	 0.311545450128483 
2341	 0.311420603881797 
2342	 0.311311014679773 
2343	 0.311181154307176 
2344	 0.311040662462805 
2345	 0.310856493225493 
2346	 0.310601514689222 
2347	 0.310402307179577 
2348	 0.310209538575636 
2349	 0.309995066540942 
2350	 0.309816275975936 
2351	 0.309602242061799 
2352	 0.309324479560229 
2353	 0.309071686244766 
2354	 0.308818262279317 
2355	 0.308567197521875 
2356	 0.308330899919129 
2357	 0.308082757095849 
2358	 0.307830964795548 
2359	 0.307595493660476 
2360	 0.307340914437837 
2361	 0.307098349788261 
2362	 0.306905388544002 
2363	 0.306663250252863 
2364	 0.306387806056944 
2365	 0.306132376462548 
2366	 0.305883948139489 
2367	 0.305590639337638 
2368	 0.30524044397598 
2369	 0.30496665315344 
2370	 0.304714639607791 
2371	 0.304435015125223 
2372	 0.304223137875874 
2373	 0.304010668649298 
2374	 0.303717587663723 
2375	 0.303457804528318 
2376	 0.303186169945248 
2377	 0.302888647971396 
2378	 0.30262150294692 
2379	 0.302296202182702 
2380	 0.301985130166555 
2381	 0.301671137806179 
2382	 0.301295777703302 
2383	 0.300995639552781 
2384	 0.300672553789055 
2385	 0.300338869664326 
2386	 0.300123039630699 
2387	 0.299837823007068 
2388	 0.299575186898577 
2389	 0.299389103069813 
2390	 0.299090653963477 
2391	 0.298812581117584 
2392	 0.298533781048351 
2393	 0.298255907469077 
2394	 0.297983848613495 
2395	 0.297640878226719 
2396	 0.297304648140397 
2397	 0.296876578560789 
2398	 0.29648785037153 
2399	 0.29617236632854 
2400	 0.295882597123524 
2401	 0.295642247809174 
2402	 0.295312797050381 
2403	 0.295109683746087 
2404	 0.294948968569359 
2405	 0.29469211254425 
2406	 0.294492158665173 
2407	 0.29418094386499 
2408	 0.293772947943424 
2409	 0.293407534468266 
2410	 0.293024136321639 
2411	 0.292680274711032 
2412	 0.2924448414152 
2413	 0.292210641055338 
2414	 0.291968319028473 
2415	 0.291730930963001 
2416	 0.291418776873818 
2417	 0.290961359083207 
2418	 0.290626499243396 
2419	 0.290329319493981 
2420	 0.290023935804824 
2421	 0.289769757103055 
2422	 0.289478549668764 
2423	 0.289106182707638 
2424	 0.28880603917531 
2425	 0.288553923460158 
2426	 0.288294592252421 
2427	 0.288101356201214 
2428	 0.287899153034418 
2429	 0.287682298209491 
2430	 0.287453351080234 
2431	 0.287258827002045 
2432	 0.286989387501052 
2433	 0.286622571564023 
2434	 0.286308484968791 
2435	 0.286005716315632 
2436	 0.285668383370359 
2437	 0.285372247173476 
2438	 0.28503670539301 
2439	 0.284576024213398 
2440	 0.284236104027356 
2441	 0.283951322080338 
2442	 0.283666905450921 
2443	 0.283496041662066 
2444	 0.283213133411755 
2445	 0.282817087734717 
2446	 0.282544486593695 
2447	 0.282325118877763 
2448	 0.282017757852548 
2449	 0.281739366804755 
2450	 0.281421055462539 
2451	 0.280975905601888 
2452	 0.280726622041115 
2453	 0.280664836456788 
2454	 0.280377193471212 
2455	 0.280023768521511 
2456	 0.279579528889386 
2457	 0.278876318659044 
2458	 0.278496773022953 
2459	 0.278323284706765 
2460	 0.278020546050309 
2461	 0.277793954655881 
2462	 0.277556351597964 
2463	 0.27726738485741 
2464	 0.276973001246555 
2465	 0.27674013173752 
2466	 0.276447417891269 
2467	 0.275958360800084 
2468	 0.27559992417385 
2469	 0.275392102735075 
2470	 0.275039017344545 
2471	 0.274751385636224 
2472	 0.274500323275572 
2473	 0.27418999195754 
2474	 0.273872933292571 
2475	 0.273674411437958 
2476	 0.273496146621764 
2477	 0.273154617904766 
2478	 0.272688940489234 
2479	 0.272276759823341 
2480	 0.27196163820796 
2481	 0.271570617297833 
2482	 0.271262853710024 
2483	 0.270988262580945 
2484	 0.270625825652391 
2485	 0.270353883962491 
2486	 0.27011058575976 
2487	 0.270014123704237 
2488	 0.269790228191748 
2489	 0.269416578540878 
2490	 0.269164485637629 
2491	 0.268816758031621 
2492	 0.268479048942929 
2493	 0.268212425910756 
2494	 0.268001063397041 
2495	 0.267703548349228 
2496	 0.267469742585809 
2497	 0.267301422528035 
2498	 0.266914049359549 
2499	 0.26672463037544 
2500	 0.26654726974101 
