Wavelength	LMW800013.asd
350	 5.50472878289472E-02 
351	 5.13995762013294E-02 
352	 0.043665015990648 
353	 3.66944464207863E-02 
354	 5.10143242641904E-02 
355	 0.055154471492989 
356	 5.20427994026616E-02 
357	 5.14662736879585E-02 
358	 5.27829915999586E-02 
359	 5.15986169626927E-02 
360	 4.96801403574407E-02 
361	 5.19523951490921E-02 
362	 0.050969216800246 
363	 5.06825403883344E-02 
364	 5.26041295471052E-02 
365	 5.22783722034093E-02 
366	 5.28730459522562E-02 
367	 5.15105516887154E-02 
368	 4.68343492255577E-02 
369	 4.97792895864436E-02 
370	 5.00421013631128E-02 
371	 4.83286657096166E-02 
372	 5.21881283577227E-02 
373	 5.20399033480382E-02 
374	 5.12928666592336E-02 
375	 5.23052669180749E-02 
376	 5.27153428729052E-02 
377	 0.05245434891383 
378	 5.28033880798493E-02 
379	 5.45904199697129E-02 
380	 5.51043195229315E-02 
381	 5.39757920425911E-02 
382	 5.28531881631562E-02 
383	 5.43584458026687E-02 
384	 5.42659918816822E-02 
385	 5.29020235686976E-02 
386	 0.051768299333171 
387	 5.32458346518675E-02 
388	 5.58037559366711E-02 
389	 5.67050475763357E-02 
390	 5.45357327731008E-02 
391	 0.055466879938112 
392	 5.64231649137451E-02 
393	 5.68244251140575E-02 
394	 0.058369959639271 
395	 0.058235028973039 
396	 5.72252469753395E-02 
397	 5.64683171366076E-02 
398	 5.63786281341522E-02 
399	 5.68054914606863E-02 
400	 5.80518548762348E-02 
401	 6.00012401615218E-02 
402	 5.94893364402977E-02 
403	 5.92137946984847E-02 
404	 5.97276054410047E-02 
405	 5.91496191974948E-02 
406	 0.059863490464763 
407	 6.06691493483399E-02 
408	 6.05320487289836E-02 
409	 6.06790430760318E-02 
410	 6.03898849012222E-02 
411	 5.98170835549063E-02 
412	 0.059528943137423 
413	 5.99687465040703E-02 
414	 6.03555761633905E-02 
415	 6.04141030121521E-02 
416	 6.06617551473637E-02 
417	 0.06005634480528 
418	 5.97239861793718E-02 
419	 6.05073416697024E-02 
420	 6.06195658189808E-02 
421	 6.00322376670825E-02 
422	 5.97084009242217E-02 
423	 6.08638910771933E-02 
424	 6.02502444385728E-02 
425	 5.97303753111633E-02 
426	 6.02170060515339E-02 
427	 5.96848169352645E-02 
428	 5.94952978872897E-02 
429	 0.059513059982323 
430	 5.92710911973035E-02 
431	 5.90875061470403E-02 
432	 5.89737593919019E-02 
433	 5.90452942818081E-02 
434	 5.95005032306541E-02 
435	 5.96368535945755E-02 
436	 5.93889612364341E-02 
437	 5.89871756277942E-02 
438	 5.90366490705056E-02 
439	 0.059162175455644 
440	 0.059379211341692 
441	 5.98156232061072E-02 
442	 5.98865005266699E-02 
443	 5.98388333488121E-02 
444	 5.98692673249428E-02 
445	 5.99645264110235E-02 
446	 6.01395563173393E-02 
447	 6.02477961353295E-02 
448	 6.02093457361225E-02 
449	 6.04029724884537E-02 
450	 6.07179424353389E-02 
451	 6.09703994723988E-02 
452	 6.09572811615072E-02 
453	 6.10220534122454E-02 
454	 6.10399497052568E-02 
455	 6.10029444499652E-02 
456	 6.14461337280355E-02 
457	 6.16464225578534E-02 
458	 6.15526705932606E-02 
459	 6.14451775928187E-02 
460	 6.15225369032206E-02 
461	 0.061547916312871 
462	 6.14737727549614E-02 
463	 6.15722104489525E-02 
464	 6.17542488468915E-02 
465	 6.19212316383272E-02 
466	 6.19922181047632E-02 
467	 0.061981868449621 
468	 6.19506633301926E-02 
469	 6.19596302012147E-02 
470	 6.20625363858023E-02 
471	 6.22736948318148E-02 
472	 6.23047326879219E-02 
473	 6.21132134846562E-02 
474	 6.23720587424874E-02 
475	 6.24062720084592E-02 
476	 6.23501367616283E-02 
477	 6.25714651579472E-02 
478	 6.23365949054267E-02 
479	 6.23474146705284E-02 
480	 6.27406481854437E-02 
481	 6.27159963459713E-02 
482	 6.27069791914303E-02 
483	 6.27932782010046E-02 
484	 6.29441791055491E-02 
485	 6.30992563027479E-02 
486	 6.30270075049711E-02 
487	 0.062788123219065 
488	 6.26804178501058E-02 
489	 6.26732735507645E-02 
490	 6.27983049341643E-02 
491	 6.29797999818425E-02 
492	 6.28635588348456E-02 
493	 6.27145977574878E-02 
494	 6.27150200336773E-02 
495	 6.29510814403264E-02 
496	 0.063123939936363 
497	 0.063059736773888 
498	 6.28648438721415E-02 
499	 0.06303899570037 
500	 6.29412664778012E-02 
501	 6.27950746062882E-02 
502	 6.29338045241786E-02 
503	 6.30152544568122E-02 
504	 6.29617937491389E-02 
505	 6.28255367656895E-02 
506	 6.27649481780433E-02 
507	 6.28339595015123E-02 
508	 6.29190943971821E-02 
509	 0.062911848333272 
510	 6.27996124485925E-02 
511	 6.27203189748125E-02 
512	 6.27293337849243E-02 
513	 6.28117366377046E-02 
514	 6.27955572944882E-02 
515	 6.27606577233519E-02 
516	 6.27593007053131E-02 
517	 6.27456187453597E-02 
518	 6.27267711538569E-02 
519	 6.26927844122111E-02 
520	 6.26605018479516E-02 
521	 6.28241304735007E-02 
522	 6.28660461984932E-02 
523	 0.062740423080242 
524	 6.27089464788196E-02 
525	 6.26928250753148E-02 
526	 6.27330142907043E-02 
527	 6.28403860408065E-02 
528	 6.28669901976243E-02 
529	 6.28945412416103E-02 
530	 6.29538878401279E-02 
531	 6.30290651738836E-02 
532	 6.29533465829746E-02 
533	 6.29730941327018E-02 
534	 6.31690972982758E-02 
535	 6.31576300068493E-02 
536	 6.31455410573289E-02 
537	 6.31441795359148E-02 
538	 6.31131740886104E-02 
539	 6.31635617215341E-02 
540	 6.31860827725468E-02 
541	 6.31650971096273E-02 
542	 6.32312726134131E-02 
543	 6.32631223322819E-02 
544	 6.32970295442867E-02 
545	 6.33853693376221E-02 
546	 6.34796503228636E-02 
547	 6.34900194972492E-02 
548	 0.063461598114667 
549	 6.35436154757116E-02 
550	 6.35901945755162E-02 
551	 6.36430941470444E-02 
552	 6.37451657112405E-02 
553	 6.38640175786092E-02 
554	 6.39119246611634E-02 
555	 6.39324791706907E-02 
556	 6.40261645539843E-02 
557	 6.40914202576264E-02 
558	 6.41979461379033E-02 
559	 6.43615344008284E-02 
560	 6.44757596261757E-02 
561	 6.45247164412319E-02 
562	 6.46216681058494E-02 
563	 6.48654984977617E-02 
564	 6.50140001689786E-02 
565	 6.50712278408764E-02 
566	 6.51439949073344E-02 
567	 6.54288739283735E-02 
568	 6.56808657821277E-02 
569	 6.59199715345547E-02 
570	 0.066191653854462 
571	 6.63964917019495E-02 
572	 6.66317684864427E-02 
573	 6.69420841336815E-02 
574	 6.73173090486122E-02 
575	 6.75857095231557E-02 
576	 6.78627755684727E-02 
577	 6.82137465740788E-02 
578	 6.84801822579921E-02 
579	 6.88189127809581E-02 
580	 6.92265286551291E-02 
581	 6.96397517550029E-02 
582	 7.00987058715306E-02 
583	 0.07055014563419 
584	 7.09933549494535E-02 
585	 7.15152063458861E-02 
586	 7.20351840114093E-02 
587	 7.25379967675963E-02 
588	 7.30376650087906E-02 
589	 7.35844021873727E-02 
590	 0.074169348726468 
591	 7.47521902602485E-02 
592	 7.52740174725083E-02 
593	 0.075828223067469 
594	 7.64037931226654E-02 
595	 7.69813695537804E-02 
596	 7.75815977512099E-02 
597	 0.078196759715546 
598	 7.88227452172964E-02 
599	 0.079453557857345 
600	 8.00319257053079E-02 
601	 8.05885368880698E-02 
602	 8.11385267387182E-02 
603	 8.16487409727539E-02 
604	 8.21726294474445E-02 
605	 8.27144298498579E-02 
606	 8.32527490824618E-02 
607	 8.37366499827962E-02 
608	 8.42031522519568E-02 
609	 8.46787912508342E-02 
610	 8.51717139201928E-02 
611	 0.085652063291554 
612	 8.61019838947378E-02 
613	 8.65109442854742E-02 
614	 8.68846117406928E-02 
615	 0.08723014578222 
616	 8.75683538723245E-02 
617	 8.79222411145107E-02 
618	 8.82452433658207E-02 
619	 0.088515101210357 
620	 8.87460519620323E-02 
621	 8.90195439388306E-02 
622	 0.089289997888936 
623	 8.95397641506421E-02 
624	 8.97676579067629E-02 
625	 9.00175712024625E-02 
626	 9.02326936071113E-02 
627	 9.04064683732804E-02 
628	 9.06081342589618E-02 
629	 9.08147438404085E-02 
630	 9.09993514040756E-02 
631	 9.11520360700811E-02 
632	 9.13360517523752E-02 
633	 0.091510613703778 
634	 9.16834256280607E-02 
635	 9.18973394721715E-02 
636	 0.092064884720413 
637	 9.22171217155786E-02 
638	 9.23914753351916E-02 
639	 9.25939964522376E-02 
640	 9.27540847495168E-02 
641	 9.29067959688813E-02 
642	 9.31229651962324E-02 
643	 0.093331950538905 
644	 9.34974284759208E-02 
645	 9.36449470231059E-02 
646	 9.38860426854397E-02 
647	 9.40408259490974E-02 
648	 9.41996500283626E-02 
649	 9.44728908917108E-02 
650	 9.47074259052556E-02 
651	 9.49119388966234E-02 
652	 9.51060034830615E-02 
653	 9.53146847667107E-02 
654	 9.55372602284862E-02 
655	 0.095772626651014 
656	 9.60138174560207E-02 
657	 9.62369769465813E-02 
658	 9.64842263671687E-02 
659	 9.67636357389887E-02 
660	 9.70581227191652E-02 
661	 9.73037401327323E-02 
662	 9.75887465332371E-02 
663	 9.79263724045147E-02 
664	 9.82007779715571E-02 
665	 9.84652710834214E-02 
666	 9.87536874998712E-02 
667	 9.90832503745991E-02 
668	 9.94210538413044E-02 
669	 9.97556270134747E-02 
670	 0.100089800154204 
671	 0.100436281195084 
672	 0.100798473719428 
673	 0.101161729311909 
674	 0.101528195301354 
675	 0.10195772168709 
676	 0.102331590797659 
677	 0.102661680539168 
678	 0.103023681027218 
679	 0.103482769810988 
680	 0.103934449560892 
681	 0.104354066136307 
682	 0.104841587103998 
683	 0.105292273298098 
684	 0.105749258378703 
685	 0.106261316765552 
686	 0.106756947660627 
687	 0.107242388713395 
688	 0.107726501928412 
689	 0.10821890942195 
690	 0.108713034053958 
691	 0.109196447276701 
692	 0.109691390143939 
693	 0.110302493255755 
694	 0.110852761030204 
695	 0.111365383221778 
696	 0.111924704431306 
697	 0.112497675762109 
698	 0.113085876576898 
699	 0.113692931402446 
700	 0.114321110709796 
701	 0.11493711816523 
702	 0.11551946239257 
703	 0.116080421713269 
704	 0.116717339605181 
705	 0.117343670308819 
706	 0.117951664327156 
707	 0.118570071761676 
708	 0.119159584209819 
709	 0.119777781341319 
710	 0.120441832608014 
711	 0.121100534437526 
712	 0.121685153554808 
713	 0.122263184742676 
714	 0.122903777511447 
715	 0.12351772714794 
716	 0.124124130110349 
717	 0.124722239062553 
718	 0.125297634678387 
719	 0.125874025696093 
720	 0.126436200947101 
721	 0.126976230684946 
722	 0.127511195647443 
723	 0.128029913836403 
724	 0.128548839244296 
725	 0.1290782841142 
726	 0.12955090843025 
727	 0.130003632917259 
728	 0.130455247989411 
729	 0.130899870783303 
730	 0.131311536440128 
731	 0.131674508041367 
732	 0.132003693594003 
733	 0.132385981237742 
734	 0.132721981331176 
735	 0.132991780265762 
736	 0.133220861855799 
737	 0.133489547260621 
738	 0.133697771454274 
739	 0.133838108071714 
740	 0.134014842815559 
741	 0.134152008664139 
742	 0.134262402521068 
743	 0.134358040450061 
744	 0.134398721334499 
745	 0.134399104064714 
746	 0.134382115469761 
747	 0.134366931495931 
748	 0.134313025215703 
749	 0.134245993501198 
750	 0.134159686138428 
751	 0.134004935827775 
752	 0.133867645279117 
753	 0.133721102941003 
754	 0.133528896511871 
755	 0.133308710616645 
756	 0.133051223332393 
757	 0.132773357195608 
758	 0.132503874666719 
759	 0.132249393935362 
760	 0.131972044135138 
761	 0.131657026401238 
762	 0.131323499679762 
763	 0.130985699435331 
764	 0.130627911591692 
765	 0.130242737804025 
766	 0.129867941638819 
767	 0.129487336405223 
768	 0.129090611097328 
769	 0.128676774057939 
770	 0.128293314312584 
771	 0.127893043405387 
772	 0.127457701642635 
773	 0.127014105465001 
774	 0.12658220472852 
775	 0.126166357070735 
776	 0.12575333755582 
777	 0.125295016000044 
778	 0.12483917372838 
779	 0.124396997135862 
780	 0.123962097451243 
781	 0.123539810930614 
782	 0.123094681202826 
783	 0.12262934628669 
784	 0.122190048609943 
785	 0.121785244353917 
786	 0.121377850804641 
787	 0.12093874591937 
788	 0.120470165191791 
789	 0.120061296383897 
790	 0.119677287734702 
791	 0.119253592986971 
792	 0.118856393312387 
793	 0.11845388882222 
794	 0.11803911605968 
795	 0.117631704514888 
796	 0.117234951331719 
797	 0.116867560986129 
798	 0.116511538295771 
799	 0.116077121203481 
800	 0.115682785597186 
801	 0.115339634462331 
802	 0.115010997466817 
803	 0.114616367023996 
804	 0.114267784293796 
805	 0.113956157023178 
806	 0.113605179653301 
807	 0.113288462542403 
808	 0.112955900582624 
809	 0.112604617090828 
810	 0.112305545965455 
811	 0.112026386583237 
812	 0.111739516503742 
813	 0.111440058885069 
814	 0.111187613491256 
815	 0.110898502160288 
816	 0.110590312867927 
817	 0.110318958491558 
818	 0.110092914796447 
819	 0.109865018996066 
820	 0.109626781358616 
821	 0.109400549623365 
822	 0.109109189838202 
823	 0.108873877973008 
824	 0.108725177563934 
825	 0.108500368801627 
826	 0.108286029515942 
827	 0.108106841488796 
828	 0.10795035028392 
829	 0.107737906685294 
830	 0.107522863307489 
831	 0.10733471106986 
832	 0.107185492589024 
833	 0.107071089086336 
834	 0.106923387454915 
835	 0.106748513317911 
836	 0.106620427524415 
837	 0.106481600658314 
838	 0.106370812901192 
839	 0.106285543660286 
840	 0.106129623021684 
841	 0.105992617164818 
842	 0.105865825396729 
843	 0.105739967834084 
844	 0.105697032283965 
845	 0.10563172700118 
846	 0.105536925734698 
847	 0.105453599441633 
848	 0.105391790601638 
849	 0.105355615417242 
850	 0.105323173820234 
851	 0.105258225402081 
852	 0.105206199451462 
853	 0.105156251935943 
854	 0.105110397660775 
855	 0.1050993622666 
856	 0.105106390825634 
857	 0.105106554731952 
858	 0.105085442373544 
859	 0.105052833149292 
860	 0.105081328602858 
861	 0.105127793826889 
862	 0.105133632516746 
863	 0.105181364738438 
864	 0.105203399592409 
865	 0.105209177350954 
866	 0.105246898870853 
867	 0.105250636153747 
868	 0.105306995062422 
869	 0.105398972537771 
870	 0.105407424064401 
871	 0.105482332459182 
872	 0.10559729141335 
873	 0.105705798597841 
874	 0.105779520430996 
875	 0.105901587972992 
876	 0.106023387752187 
877	 0.106103947963881 
878	 0.106208703840791 
879	 0.10634749872794 
880	 0.106479800572595 
881	 0.106573327842694 
882	 0.106708778915431 
883	 0.106893414276454 
884	 0.107071267390054 
885	 0.107179658816487 
886	 0.107330431521771 
887	 0.107553768403526 
888	 0.107777747166433 
889	 0.107879530965088 
890	 0.108051543961843 
891	 0.108261389705658 
892	 0.108480006298188 
893	 0.108716265590688 
894	 0.108873885617125 
895	 0.109035694026273 
896	 0.109270609939489 
897	 0.109555239551537 
898	 0.109838484851016 
899	 0.110079015125272 
900	 0.11028131683956 
901	 0.11055124322299 
902	 0.110815107170033 
903	 0.111085507500502 
904	 0.111383257673974 
905	 0.111644218198846 
906	 0.111956560593715 
907	 0.112316664388369 
908	 0.112670437594267 
909	 0.112972770388946 
910	 0.11327063706245 
911	 0.113598835321478 
912	 0.113973603499265 
913	 0.114398943004604 
914	 0.114731920449176 
915	 0.115012152450264 
916	 0.115424004608563 
917	 0.115804901756108 
918	 0.116197557098818 
919	 0.116649101491642 
920	 0.117161709324108 
921	 0.117482133842721 
922	 0.117841177265695 
923	 0.11834910246572 
924	 0.118819906973735 
925	 0.119296009437603 
926	 0.119770356389696 
927	 0.120239903745699 
928	 0.120718902382485 
929	 0.121266188259459 
930	 0.121817076539813 
931	 0.122339019526767 
932	 0.122957600887691 
933	 0.123491242301452 
934	 0.123973496372346 
935	 0.124488465062696 
936	 0.125067073212034 
937	 0.12558572116186 
938	 0.126127274660637 
939	 0.126787215432708 
940	 0.127457880361691 
941	 0.128083609180312 
942	 0.12873890930428 
943	 0.129482444993484 
944	 0.130087978025381 
945	 0.130698020940914 
946	 0.131362518086921 
947	 0.132077100906189 
948	 0.132834379171712 
949	 0.133604184306539 
950	 0.134320156794832 
951	 0.1349675516327 
952	 0.135840793411429 
953	 0.13664064131711 
954	 0.137332337839841 
955	 0.138049162656967 
956	 0.138822866538202 
957	 0.139703291261022 
958	 0.140592966145191 
959	 0.141360175142618 
960	 0.14219500263451 
961	 0.143036161883416 
962	 0.143877747074326 
963	 0.144748188179023 
964	 0.145598730361849 
965	 0.146549761797066 
966	 0.147516718734495 
967	 0.148341067105962 
968	 0.149303704866154 
969	 0.150306152078652 
970	 0.151229860941588 
971	 0.152029753647594 
972	 0.153026049636014 
973	 0.154161590465256 
974	 0.15528782892605 
975	 0.156261446131284 
976	 0.157198144770486 
977	 0.158179498499377 
978	 0.159191103708192 
979	 0.160186589147151 
980	 0.161350325081882 
981	 0.162309140766062 
982	 0.163244531746683 
983	 0.164525000609584 
984	 0.165454917183269 
985	 0.166589511574498 
986	 0.167853087052401 
987	 0.168866936406917 
988	 0.169888841487076 
989	 0.170987569330019 
990	 0.172081747184327 
991	 0.173095995165501 
992	 0.174359031743653 
993	 0.175471694933955 
994	 0.176569934434001 
995	 0.177892204197019 
996	 0.178993607748108 
997	 0.180135035686088 
998	 0.181269355410773 
999	 0.182329927916312 
1000	 0.183656306755678 
1001	 0.186199143408024 
1002	 0.187323072991694 
1003	 0.18846503255635 
1004	 0.18959839408416 
1005	 0.190760519857322 
1006	 0.191874088706058 
1007	 0.192947971886477 
1008	 0.19406683984014 
1009	 0.195147809949517 
1010	 0.19620899515954 
1011	 0.197295342145274 
1012	 0.198356861430979 
1013	 0.199444361301713 
1014	 0.200536700020094 
1015	 0.201535771197104 
1016	 0.202496971926232 
1017	 0.203537256883473 
1018	 0.204564113244273 
1019	 0.205650538446835 
1020	 0.206771573065257 
1021	 0.207851882909056 
1022	 0.208871188748932 
1023	 0.209828470192513 
1024	 0.210787744592633 
1025	 0.211810437645577 
1026	 0.212784731527092 
1027	 0.213676450532629 
1028	 0.214591532692239 
1029	 0.215516335298281 
1030	 0.216440149084986 
1031	 0.217391449055585 
1032	 0.218387586409955 
1033	 0.219388822923617 
1034	 0.220381993413863 
1035	 0.221316064107072 
1036	 0.222196375252483 
1037	 0.223093601133009 
1038	 0.223941669934429 
1039	 0.224805095877742 
1040	 0.225730743226597 
1041	 0.22661825479287 
1042	 0.227534219162655 
1043	 0.228497728196445 
1044	 0.229422712542998 
1045	 0.2303520374797 
1046	 0.23126698095244 
1047	 0.232150738595211 
1048	 0.233011324304584 
1049	 0.233853823482939 
1050	 0.234741743053629 
1051	 0.235668017276131 
1052	 0.236552794414331 
1053	 0.237484843219883 
1054	 0.238403234651581 
1055	 0.239257300450856 
1056	 0.240141659625103 
1057	 0.240996371588075 
1058	 0.241807815860342 
1059	 0.242645069238932 
1060	 0.243484161702155 
1061	 0.244309233211692 
1062	 0.245158484785997 
1063	 0.246029765424802 
1064	 0.246897383433936 
1065	 0.247743674749085 
1066	 0.248559344345213 
1067	 0.249373014707153 
1068	 0.250160713109841 
1069	 0.250892214672023 
1070	 0.25165695901205 
1071	 0.252399866354199 
1072	 0.253194523844136 
1073	 0.254048015690999 
1074	 0.25486797119693 
1075	 0.255722310450245 
1076	 0.256478471812988 
1077	 0.257224248511706 
1078	 0.257938913378594 
1079	 0.258647126654368 
1080	 0.259423111143001 
1081	 0.260191816994974 
1082	 0.260956265931539 
1083	 0.261712254916651 
1084	 0.262446921906284 
1085	 0.263206551914898 
1086	 0.263975863979967 
1087	 0.264724565214939 
1088	 0.265462197910989 
1089	 0.266232865794071 
1090	 0.266984217239629 
1091	 0.267750669969039 
1092	 0.268514892763393 
1093	 0.269254409692233 
1094	 0.270047428168945 
1095	 0.27085338884455 
1096	 0.27166322493026 
1097	 0.272531683340003 
1098	 0.273375629927489 
1099	 0.274188831120781 
1100	 0.275030759017365 
1101	 0.275902945127815 
1102	 0.2767625060764 
1103	 0.277625027806003 
1104	 0.278474167310159 
1105	 0.279364204122531 
1106	 0.280269120497546 
1107	 0.281148595344567 
1108	 0.282091603528891 
1109	 0.283015939868134 
1110	 0.283895857619062 
1111	 0.284824047305202 
1112	 0.285783287976828 
1113	 0.286720297282194 
1114	 0.287649421284337 
1115	 0.288622404686452 
1116	 0.289615766302422 
1117	 0.290605551943192 
1118	 0.291635851585468 
1119	 0.292632588440712 
1120	 0.293611807519843 
1121	 0.294584784853141 
1122	 0.295563244654641 
1123	 0.296579708934814 
1124	 0.297596023642586 
1125	 0.2986266926198 
1126	 0.299649649789886 
1127	 0.300675595323484 
1128	 0.301706519939094 
1129	 0.302737048530535 
1130	 0.303772153207336 
1131	 0.304821320373959 
1132	 0.305859689300419 
1133	 0.306907226034713 
1134	 0.30793110337081 
1135	 0.308946307965917 
1136	 0.309937864721272 
1137	 0.310920996562579 
1138	 0.311895101188063 
1139	 0.312891777585733 
1140	 0.313907360688125 
1141	 0.314901740015155 
1142	 0.315902114273071 
1143	 0.316889138218476 
1144	 0.317861374015544 
1145	 0.318825896701161 
1146	 0.319785543084726 
1147	 0.320738940810194 
1148	 0.321682273365033 
1149	 0.322618306465235 
1150	 0.323544537530616 
1151	 0.324482189650553 
1152	 0.325390394684231 
1153	 0.326298825598814 
1154	 0.327199074737076 
1155	 0.328092622990279 
1156	 0.328972905438489 
1157	 0.329855508348712 
1158	 0.330711119016091 
1159	 0.33154627434226 
1160	 0.332381395743473 
1161	 0.333190103613856 
1162	 0.33401306586724 
1163	 0.33484560308613 
1164	 0.335669451604746 
1165	 0.336484647948856 
1166	 0.337320013122438 
1167	 0.338156374058001 
1168	 0.338966445589393 
1169	 0.339753949881071 
1170	 0.340533249325006 
1171	 0.341291495411402 
1172	 0.342020345711299 
1173	 0.342743702270253 
1174	 0.343454865275981 
1175	 0.344162753422598 
1176	 0.344855022812165 
1177	 0.345546377031753 
1178	 0.346231603854589 
1179	 0.346922273741412 
1180	 0.347628411956241 
1181	 0.348303038879543 
1182	 0.348959856040909 
1183	 0.349630082480294 
1184	 0.350270205994804 
1185	 0.350878208136489 
1186	 0.351495187080698 
1187	 0.352107015272117 
1188	 0.352716869176714 
1189	 0.353327652935595 
1190	 0.353918668900076 
1191	 0.354507741758111 
1192	 0.355080465507354 
1193	 0.355622732572665 
1194	 0.356177549669765 
1195	 0.356738108685526 
1196	 0.35728471015934 
1197	 0.357843468239274 
1198	 0.358370895236867 
1199	 0.358878982982909 
1200	 0.359365060080192 
1201	 0.359848961623799 
1202	 0.360305718515228 
1203	 0.360782573179426 
1204	 0.36126237629163 
1205	 0.361740009354859 
1206	 0.362230544937816 
1207	 0.362697624966355 
1208	 0.363161380967641 
1209	 0.363607337380984 
1210	 0.364036273014627 
1211	 0.36445650257825 
1212	 0.364855616132551 
1213	 0.365260488270255 
1214	 0.365680637597037 
1215	 0.366065700814219 
1216	 0.366434032612599 
1217	 0.366789503661151 
1218	 0.367143765073085 
1219	 0.367466956692478 
1220	 0.367809595882979 
1221	 0.368167800270679 
1222	 0.368512324302137 
1223	 0.36884839279406 
1224	 0.369184933750098 
1225	 0.369529683818647 
1226	 0.369855007647402 
1227	 0.37017134169572 
1228	 0.370479854331035 
1229	 0.370770168647981 
1230	 0.371064434634752 
1231	 0.371367923979879 
1232	 0.37164959970314 
1233	 0.371920101839119 
1234	 0.372173829403705 
1235	 0.372447697501862 
1236	 0.372717084275798 
1237	 0.372985501624927 
1238	 0.373282070363736 
1239	 0.373536972901118 
1240	 0.373754012510143 
1241	 0.373992964207677 
1242	 0.374241804493383 
1243	 0.37446229700992 
1244	 0.374664773844361 
1245	 0.374881721463151 
1246	 0.375083439763757 
1247	 0.375288150398293 
1248	 0.375506896769429 
1249	 0.375731290880858 
1250	 0.375935323289187 
1251	 0.376127814830695 
1252	 0.376318214526534 
1253	 0.376505877874891 
1254	 0.376688543235402 
1255	 0.376860825531895 
1256	 0.377036819189588 
1257	 0.377210238965038 
1258	 0.377390038126778 
1259	 0.377587090410168 
1260	 0.377750164872984 
1261	 0.377905572654243 
1262	 0.378050002787846 
1263	 0.378147931247547 
1264	 0.378276385815521 
1265	 0.378423568464102 
1266	 0.378561568433154 
1267	 0.3787026573474 
1268	 0.378845271914784 
1269	 0.378991956779868 
1270	 0.379133134851916 
1271	 0.379285573093398 
1272	 0.379439141415466 
1273	 0.379617578288861 
1274	 0.379818584873856 
1275	 0.38000019238673 
1276	 0.380199804683711 
1277	 0.380383823758381 
1278	 0.380525731699115 
1279	 0.380711245539347 
1280	 0.380933383039881 
1281	 0.381130105021936 
1282	 0.381352327509502 
1283	 0.38153947116457 
1284	 0.381703728056435 
1285	 0.381848249962235 
1286	 0.381967112601022 
1287	 0.382068673045423 
1288	 0.382166460426846 
1289	 0.382242113745666 
1290	 0.382320951181223 
1291	 0.382411076178623 
1292	 0.382461316166361 
1293	 0.382493219366389 
1294	 0.382503417961368 
1295	 0.382481260854169 
1296	 0.382454958612682 
1297	 0.382424307218222 
1298	 0.382362850642138 
1299	 0.382272364676227 
1300	 0.382179031667795 
1301	 0.382050202217804 
1302	 0.381937012639227 
1303	 0.381833431884012 
1304	 0.381724747407206 
1305	 0.381590479354112 
1306	 0.381456699713501 
1307	 0.381312470598575 
1308	 0.381143720371618 
1309	 0.380987591102402 
1310	 0.380828426782371 
1311	 0.380690320250419 
1312	 0.380550741083457 
1313	 0.38043269957223 
1314	 0.380340632616898 
1315	 0.380240320509178 
1316	 0.380123607178159 
1317	 0.380061002017807 
1318	 0.380037856535728 
1319	 0.380000780486297 
1320	 0.379996847595718 
1321	 0.379979245133829 
1322	 0.37993099989711 
1323	 0.379905675427169 
1324	 0.379936764749156 
1325	 0.379977057894219 
1326	 0.380037207579289 
1327	 0.380115713690004 
1328	 0.380173880653052 
1329	 0.380244954912343 
1330	 0.380333579783192 
1331	 0.380427933642505 
1332	 0.380551792540459 
1333	 0.380698688621671 
1334	 0.380852482760158 
1335	 0.381038588682608 
1336	 0.381205850465898 
1337	 0.381365111908373 
1338	 0.381538711012631 
1339	 0.381720176422686 
1340	 0.381895813093991 
1341	 0.382073977673659 
1342	 0.382262671950236 
1343	 0.38246116150957 
1344	 0.382632212564712 
1345	 0.38283640306143 
1346	 0.383061979819281 
1347	 0.383269845402995 
1348	 0.383492841748124 
1349	 0.383679758319666 
1350	 0.383830364380846 
1351	 0.384005127381459 
1352	 0.38415852836672 
1353	 0.384344563049991 
1354	 0.384563212077606 
1355	 0.384759719587665 
1356	 0.384964958233187 
1357	 0.385146742175077 
1358	 0.385303935898449 
1359	 0.385486747299197 
1360	 0.385656443700429 
1361	 0.385846736757652 
1362	 0.386075508481642 
1363	 0.386271829730661 
1364	 0.386467871359578 
1365	 0.386658724775718 
1366	 0.386832593519482 
1367	 0.387001584790992 
1368	 0.387188664246968 
1369	 0.38734029049084 
1370	 0.38749840759466 
1371	 0.387659811959532 
1372	 0.387794214137255 
1373	 0.387918725153846 
1374	 0.388021235609517 
1375	 0.388104693502687 
1376	 0.388165705431683 
1377	 0.388213228614102 
1378	 0.388232856480635 
1379	 0.388221125724266 
1380	 0.388202868473968 
1381	 0.388155261349248 
1382	 0.388114609497487 
1383	 0.388073489877218 
1384	 0.388014953760079 
1385	 0.387978228133325 
1386	 0.387881913267115 
1387	 0.387748218458735 
1388	 0.387593589753655 
1389	 0.387413146123596 
1390	 0.387187476944092 
1391	 0.38693865476612 
1392	 0.386646740575691 
1393	 0.386298887412956 
1394	 0.385925803882496 
1395	 0.385515121376016 
1396	 0.385090900602796 
1397	 0.384644649846009 
1398	 0.384164541398497 
1399	 0.383681906493663 
1400	 0.383189655878536 
1401	 0.382675305269973 
1402	 0.382150560389556 
1403	 0.381599717188987 
1404	 0.381014362065992 
1405	 0.380437113276905 
1406	 0.379837282232071 
1407	 0.379254142778031 
1408	 0.378672643979686 
1409	 0.378100597798349 
1410	 0.377533541567547 
1411	 0.376973307854328 
1412	 0.376410116389205 
1413	 0.375866590460062 
1414	 0.375374212350413 
1415	 0.374891461958698 
1416	 0.374424451863035 
1417	 0.374002838114571 
1418	 0.373578523845388 
1419	 0.373171714507185 
1420	 0.372828823733844 
1421	 0.372511510426504 
1422	 0.372206012253866 
1423	 0.371924394442555 
1424	 0.371644968700326 
1425	 0.37137075643259 
1426	 0.371107457568939 
1427	 0.370853605410939 
1428	 0.370619690836257 
1429	 0.370395220125733 
1430	 0.370193685608149 
1431	 0.370020032286892 
1432	 0.369840937266 
1433	 0.369666796311336 
1434	 0.369511424036678 
1435	 0.369350268433139 
1436	 0.369229176425291 
1437	 0.36915253037648 
1438	 0.369064302860287 
1439	 0.369002477482558 
1440	 0.368927516018866 
1441	 0.368823534632142 
1442	 0.368734943072454 
1443	 0.368638651622483 
1444	 0.368544116554804 
1445	 0.368480773842698 
1446	 0.368432652070419 
1447	 0.368403801976577 
1448	 0.368384268222834 
1449	 0.368366469418205 
1450	 0.368352397117793 
1451	 0.368355224090932 
1452	 0.368361714503864 
1453	 0.368401234793006 
1454	 0.36846063118007 
1455	 0.368533805335674 
1456	 0.368641312804765 
1457	 0.368731653960582 
1458	 0.368830975068839 
1459	 0.368927700700488 
1460	 0.369018444271902 
1461	 0.369114529944811 
1462	 0.369211047673405 
1463	 0.369313931746869 
1464	 0.36942940292383 
1465	 0.369527934264024 
1466	 0.369632933749164 
1467	 0.369726734847978 
1468	 0.36978959398863 
1469	 0.36987028105709 
1470	 0.369954368636881 
1471	 0.370040907911792 
1472	 0.370136632133669 
1473	 0.370248267728066 
1474	 0.370362802139269 
1475	 0.370474424558031 
1476	 0.370584351023728 
1477	 0.370696554900886 
1478	 0.37081862990426 
1479	 0.370946133259068 
1480	 0.371075515510185 
1481	 0.371207856773863 
1482	 0.371325341486266 
1483	 0.371423942956878 
1484	 0.371548861540493 
1485	 0.371670412352745 
1486	 0.371813204133299 
1487	 0.371980465479832 
1488	 0.372137819314244 
1489	 0.372312880149214 
1490	 0.372461322692729 
1491	 0.372598553665287 
1492	 0.372742784350751 
1493	 0.372864034780518 
1494	 0.373000263462553 
1495	 0.373163579207205 
1496	 0.373304620971768 
1497	 0.373430804709472 
1498	 0.373569800920853 
1499	 0.37371022175665 
1500	 0.37383175476107 
1501	 0.373952034466906 
1502	 0.374072123954813 
1503	 0.374171303877141 
1504	 0.374286224542725 
1505	 0.374418672505436 
1506	 0.374548542371349 
1507	 0.374653910329113 
1508	 0.374751749180918 
1509	 0.374838278039165 
1510	 0.374918710510393 
1511	 0.375017560761091 
1512	 0.375125822346452 
1513	 0.375243260195461 
1514	 0.375348965598484 
1515	 0.37545275798524 
1516	 0.375550200393134 
1517	 0.375632177703742 
1518	 0.375695933915486 
1519	 0.375773244996719 
1520	 0.375843762343916 
1521	 0.375918804535791 
1522	 0.375998222121108 
1523	 0.376081026096132 
1524	 0.376161705873849 
1525	 0.376247878327255 
1526	 0.376341917494336 
1527	 0.376438116740296 
1528	 0.376538696215827 
1529	 0.376636617868671 
1530	 0.376746362394612 
1531	 0.376836318083815 
1532	 0.376911478155672 
1533	 0.376984783825219 
1534	 0.377048769031245 
1535	 0.377117224527305 
1536	 0.37718028981707 
1537	 0.377251296725984 
1538	 0.377327529867572 
1539	 0.377399790067327 
1540	 0.377470938877807 
1541	 0.377547675142913 
1542	 0.377636553360359 
1543	 0.377705534072079 
1544	 0.377765187697441 
1545	 0.377828929051348 
1546	 0.377874552994123 
1547	 0.377928562620553 
1548	 0.378018504712279 
1549	 0.378108834917692 
1550	 0.378183619692965 
1551	 0.378246481904854 
1552	 0.378283698474473 
1553	 0.378313875027197 
1554	 0.37836221556497 
1555	 0.378421865115745 
1556	 0.37849708887657 
1557	 0.378583867451462 
1558	 0.378662612866152 
1559	 0.378727843497899 
1560	 0.378783070497098 
1561	 0.378813403858128 
1562	 0.378863508147392 
1563	 0.378907245845632 
1564	 0.378977919938196 
1565	 0.379065577087773 
1566	 0.37915284138713 
1567	 0.37926668639454 
1568	 0.379349121594765 
1569	 0.379424794789975 
1570	 0.379481735782317 
1571	 0.379521324243763 
1572	 0.379553234763094 
1573	 0.379562042623008 
1574	 0.379587723648554 
1575	 0.379602799637546 
1576	 0.379639972126789 
1577	 0.379710963263696 
1578	 0.379744154905014 
1579	 0.379767975704635 
1580	 0.379790195596131 
1581	 0.379781146889945 
1582	 0.3797968922369 
1583	 0.379825309873372 
1584	 0.379858788091539 
1585	 0.379893466706925 
1586	 0.379943926511109 
1587	 0.380018074470476 
1588	 0.380078307860695 
1589	 0.380150348915158 
1590	 0.380205761145849 
1591	 0.380248518966459 
1592	 0.380286574771804 
1593	 0.380305702473811 
1594	 0.380338792537096 
1595	 0.380369831357103 
1596	 0.380407904668188 
1597	 0.380463145796968 
1598	 0.380511980597974 
1599	 0.380565158248076 
1600	 0.380606145317178 
1601	 0.380640974905347 
1602	 0.380669507454238 
1603	 0.380687153313773 
1604	 0.38070352139952 
1605	 0.380708595511472 
1606	 0.380725483381261 
1607	 0.38074886321705 
1608	 0.380767300672076 
1609	 0.380788455950825 
1610	 0.380810126939914 
1611	 0.380804017366094 
1612	 0.380800622344465 
1613	 0.3808027768745 
1614	 0.380783427255303 
1615	 0.380788152454935 
1616	 0.380786214548658 
1617	 0.38077505583523 
1618	 0.380799347372996 
1619	 0.380825122523109 
1620	 0.380852347083029 
1621	 0.380865670506825 
1622	 0.380884190882401 
1623	 0.380884633592864 
1624	 0.380857586367317 
1625	 0.380860303664446 
1626	 0.380865784691853 
1627	 0.380888294131511 
1628	 0.380937277996373 
1629	 0.380954653234817 
1630	 0.380970451890764 
1631	 0.380976732121531 
1632	 0.380960388117112 
1633	 0.380960943481974 
1634	 0.380971979254179 
1635	 0.380969549170079 
1636	 0.380966821828857 
1637	 0.380948002497672 
1638	 0.380906109334066 
1639	 0.380894075781867 
1640	 0.380888288870624 
1641	 0.380878354019986 
1642	 0.380882680166506 
1643	 0.380882435764043 
1644	 0.380861025261773 
1645	 0.38087415157434 
1646	 0.380920720647821 
1647	 0.380937666039401 
1648	 0.380962882118105 
1649	 0.380965187873959 
1650	 0.38093732301159 
1651	 0.380930369195749 
1652	 0.380926272170899 
1653	 0.38091634985624 
1654	 0.380908400706863 
1655	 0.380900559774314 
1656	 0.380891273825223 
1657	 0.380873215065816 
1658	 0.38086049038027 
1659	 0.38083012963074 
1660	 0.380779311530596 
1661	 0.380735871980937 
1662	 0.380683205590367 
1663	 0.380642577531321 
1664	 0.380602541720251 
1665	 0.380572916465172 
1666	 0.380551193132054 
1667	 0.380536898998854 
1668	 0.38054196553929 
1669	 0.380525505737855 
1670	 0.380497186495909 
1671	 0.380488371842863 
1672	 0.380474936621465 
1673	 0.38047122252894 
1674	 0.380493988043353 
1675	 0.380498742354386 
1676	 0.380483491101178 
1677	 0.380494366664593 
1678	 0.380535488338451 
1679	 0.380533277413581 
1680	 0.380531564866388 
1681	 0.380503661095478 
1682	 0.380415739100319 
1683	 0.38037711451169 
1684	 0.380356783927552 
1685	 0.380327578900189 
1686	 0.380314713874005 
1687	 0.380289398844807 
1688	 0.380239216509423 
1689	 0.380222744107462 
1690	 0.380219733278906 
1691	 0.380223985119845 
1692	 0.380264011261753 
1693	 0.38026457590045 
1694	 0.380253952097802 
1695	 0.380237879820454 
1696	 0.38018899454803 
1697	 0.380170197254506 
1698	 0.380167344869667 
1699	 0.380155520922008 
1700	 0.380146326463861 
1701	 0.38014430872838 
1702	 0.380149941526446 
1703	 0.380136172941592 
1704	 0.380133037043176 
1705	 0.380099577239531 
1706	 0.380029936222587 
1707	 0.379977832063015 
1708	 0.379915305734687 
1709	 0.379865958756723 
1710	 0.379809418241156 
1711	 0.379787840498596 
1712	 0.379790075392341 
1713	 0.379791908445578 
1714	 0.379833535577248 
1715	 0.379834071120307 
1716	 0.379813967541012 
1717	 0.379793432677602 
1718	 0.379758044808932 
1719	 0.379725670403806 
1720	 0.379698191197642 
1721	 0.379657621624493 
1722	 0.379590141942704 
1723	 0.379561889187695 
1724	 0.379552227645915 
1725	 0.379521845038899 
1726	 0.379513494111185 
1727	 0.379480790007846 
1728	 0.379421523807919 
1729	 0.379362225385283 
1730	 0.379304646644891 
1731	 0.37922918813689 
1732	 0.379134996651238 
1733	 0.37903625871114 
1734	 0.378929275324686 
1735	 0.378827225441749 
1736	 0.378709645630246 
1737	 0.378601034504298 
1738	 0.37848845687454 
1739	 0.378410781794895 
1740	 0.378346423449372 
1741	 0.378295782626745 
1742	 0.378289443383091 
1743	 0.37824539805828 
1744	 0.378191679184904 
1745	 0.378127587167735 
1746	 0.378036894529363 
1747	 0.377983773072971 
1748	 0.377947040403802 
1749	 0.377921257381802 
1750	 0.377895814027435 
1751	 0.377848417463167 
1752	 0.377791468983967 
1753	 0.377714529792092 
1754	 0.377613180585564 
1755	 0.377523586133834 
1756	 0.377452637332238 
1757	 0.377416261742842 
1758	 0.377420522186783 
1759	 0.377404474607798 
1760	 0.377327028530774 
1761	 0.377247365243312 
1762	 0.377185518606833 
1763	 0.377084816705935 
1764	 0.377000883969461 
1765	 0.37693332995251 
1766	 0.376859706690262 
1767	 0.376838704043114 
1768	 0.376826795912213 
1769	 0.376806659813087 
1770	 0.376763039721891 
1771	 0.376698399288366 
1772	 0.376648863489882 
1773	 0.376578763262124 
1774	 0.376511007690057 
1775	 0.376438564699298 
1776	 0.376371991513026 
1777	 0.376350651939164 
1778	 0.376321600155031 
1779	 0.376299797207788 
1780	 0.376285390652386 
1781	 0.376255415309417 
1782	 0.376225602579445 
1783	 0.376182920432935 
1784	 0.37614970599905 
1785	 0.376131096674796 
1786	 0.376074390125659 
1787	 0.375972302518893 
1788	 0.375927987505619 
1789	 0.375879530141719 
1790	 0.375863148737547 
1791	 0.375928299306455 
1792	 0.375940471718311 
1793	 0.375927365719022 
1794	 0.375920254743395 
1795	 0.375906307447188 
1796	 0.375889008556522 
1797	 0.375866858865411 
1798	 0.375859070465927 
1799	 0.375841952107705 
1800	 0.375844697343037 
1801	 0.368673389277568 
1802	 0.368811388062445 
1803	 0.368957856718366 
1804	 0.369107335650836 
1805	 0.369269066898097 
1806	 0.369448417530792 
1807	 0.369616607294352 
1808	 0.369742796731 
1809	 0.369862414905419 
1810	 0.369950988054543 
1811	 0.36999797760619 
1812	 0.370023114372341 
1813	 0.370071407925974 
1814	 0.370079902026988 
1815	 0.370090430714449 
1816	 0.370116163455992 
1817	 0.37013144098751 
1818	 0.37012098784354 
1819	 0.37015446782272 
1820	 0.370217324905023 
1821	 0.370250749198934 
1822	 0.370280666037959 
1823	 0.370330447227169 
1824	 0.370343414436679 
1825	 0.37038049428049 
1826	 0.370446731212837 
1827	 0.370478388904086 
1828	 0.370478737218595 
1829	 0.370431417633581 
1830	 0.370402785464715 
1831	 0.370346733545237 
1832	 0.370323967684953 
1833	 0.370300930794516 
1834	 0.370290427309708 
1835	 0.370296375270228 
1836	 0.370274676955582 
1837	 0.370258243390336 
1838	 0.370259177556182 
1839	 0.370282517366211 
1840	 0.370322130942965 
1841	 0.370367264830206 
1842	 0.370416459062062 
1843	 0.37044628929596 
1844	 0.370430022514143 
1845	 0.37040325305658 
1846	 0.370367757208075 
1847	 0.370342314140714 
1848	 0.370304655144408 
1849	 0.370249925601719 
1850	 0.370217396823854 
1851	 0.370190405627736 
1852	 0.370173985362086 
1853	 0.370173166067731 
1854	 0.370166081554541 
1855	 0.370124074718534 
1856	 0.370056143998578 
1857	 0.369972082390955 
1858	 0.369856454195175 
1859	 0.369743477678766 
1860	 0.369588903208092 
1861	 0.369411012190117 
1862	 0.369163651001054 
1863	 0.368919762684764 
1864	 0.368639136500983 
1865	 0.368350546037134 
1866	 0.368071463320621 
1867	 0.367760235773296 
1868	 0.367447021558457 
1869	 0.367133435542228 
1870	 0.366838880304572 
1871	 0.366518012234825 
1872	 0.366204545392787 
1873	 0.365870820980159 
1874	 0.365488613971328 
1875	 0.365052837042061 
1876	 0.36458770996252 
1877	 0.3640595701518 
1878	 0.363494313977253 
1879	 0.362891756161161 
1880	 0.362212721679475 
1881	 0.361467937495362 
1882	 0.360680183107214 
1883	 0.359850295480477 
1884	 0.358913427251991 
1885	 0.357918960390703 
1886	 0.356890843571239 
1887	 0.355754654154907 
1888	 0.354573830381915 
1889	 0.353348758101846 
1890	 0.352051278751491 
1891	 0.350704232697606 
1892	 0.349280180826255 
1893	 0.347824041893622 
1894	 0.346327100399252 
1895	 0.344778770567449 
1896	 0.343145486941779 
1897	 0.341501973640074 
1898	 0.339807496020235 
1899	 0.338103651444986 
1900	 0.336433160792772 
1901	 0.334744221942085 
1902	 0.333094686622772 
1903	 0.33145706480132 
1904	 0.3298602844132 
1905	 0.32827330952925 
1906	 0.326776556104506 
1907	 0.325301827839948 
1908	 0.323874424887232 
1909	 0.322519194155088 
1910	 0.321166943431208 
1911	 0.319900831737384 
1912	 0.318718523590117 
1913	 0.31758330674595 
1914	 0.316512751417504 
1915	 0.315503493040096 
1916	 0.314553710050423 
1917	 0.313637528189028 
1918	 0.312819772957996 
1919	 0.312075300934414 
1920	 0.31140062986734 
1921	 0.310804589666219 
1922	 0.310264932561705 
1923	 0.309766130599471 
1924	 0.309311353015851 
1925	 0.308904377935489 
1926	 0.308558842351969 
1927	 0.30825652363395 
1928	 0.308008295756335 
1929	 0.307842322363004 
1930	 0.307684146812828 
1931	 0.307559182812654 
1932	 0.307478572653009 
1933	 0.307389015347947 
1934	 0.307330295145695 
1935	 0.307308742580407 
1936	 0.307300794031083 
1937	 0.307337273350203 
1938	 0.307440547739517 
1939	 0.307539276756565 
1940	 0.307654979957982 
1941	 0.307792325433379 
1942	 0.307952723861781 
1943	 0.308128804628443 
1944	 0.308333493223184 
1945	 0.308564708878637 
1946	 0.308811019109297 
1947	 0.309072899112858 
1948	 0.309354528109876 
1949	 0.309671821365711 
1950	 0.309983587697064 
1951	 0.310309676655275 
1952	 0.310636825217624 
1953	 0.310960806864072 
1954	 0.311283505708588 
1955	 0.311623345257557 
1956	 0.311978190535111 
1957	 0.312336184368265 
1958	 0.31271120669484 
1959	 0.313077336165575 
1960	 0.313437918052373 
1961	 0.313816480114936 
1962	 0.31421439183244 
1963	 0.314600228367723 
1964	 0.315001518543383 
1965	 0.315375052565657 
1966	 0.315750573852821 
1967	 0.31611414653455 
1968	 0.316485784963779 
1969	 0.316855130965149 
1970	 0.317242159209948 
1971	 0.317631665779797 
1972	 0.318034713758967 
1973	 0.318465962308998 
1974	 0.318875242096371 
1975	 0.319268522951135 
1976	 0.319689112446279 
1977	 0.320108525144458 
1978	 0.320524802505353 
1979	 0.320951109851334 
1980	 0.321377901778648 
1981	 0.321800149051 
1982	 0.322198762223685 
1983	 0.32263315362474 
1984	 0.323090815318035 
1985	 0.323535791280713 
1986	 0.32400592455512 
1987	 0.324452692315065 
1988	 0.324882000498372 
1989	 0.325308391971533 
1990	 0.325749372628219 
1991	 0.326163802906202 
1992	 0.326590118238817 
1993	 0.32702863389387 
1994	 0.32745358031276 
1995	 0.327865989381995 
1996	 0.328284146861491 
1997	 0.328700688583026 
1998	 0.329117492359417 
1999	 0.329536029768488 
2000	 0.329953763008901 
2001	 0.330375405374264 
2002	 0.330780741277642 
2003	 0.331204411098355 
2004	 0.33163894475598 
2005	 0.332062401203586 
2006	 0.332498060315624 
2007	 0.332917872431844 
2008	 0.333310762021762 
2009	 0.333727120787363 
2010	 0.334168487568782 
2011	 0.334576198733977 
2012	 0.334974135371461 
2013	 0.33537196598486 
2014	 0.335742513506867 
2015	 0.336115686057838 
2016	 0.336514950720866 
2017	 0.336947655379207 
2018	 0.337368988594911 
2019	 0.337811026379958 
2020	 0.338232665579558 
2021	 0.338658522266461 
2022	 0.339058332950408 
2023	 0.339436539796821 
2024	 0.339820169842928 
2025	 0.340208956404884 
2026	 0.340564356032029 
2027	 0.340908236902529 
2028	 0.341226459043543 
2029	 0.341561646249817 
2030	 0.341854293683365 
2031	 0.342209182298625 
2032	 0.342620012268303 
2033	 0.342989656425176 
2034	 0.343352497507461 
2035	 0.343730546641381 
2036	 0.344112469929504 
2037	 0.344480564265426 
2038	 0.344884906931842 
2039	 0.345238819552994 
2040	 0.345557699915949 
2041	 0.345850739449473 
2042	 0.346145437620743 
2043	 0.346419003417287 
2044	 0.346704823266078 
2045	 0.346990090652754 
2046	 0.347280856978333 
2047	 0.347579690001042 
2048	 0.347864792002262 
2049	 0.348145220050307 
2050	 0.348424173269279 
2051	 0.348684872076212 
2052	 0.3489606164319 
2053	 0.349248808890599 
2054	 0.349536326250589 
2055	 0.349828391038546 
2056	 0.350125707987145 
2057	 0.350404818685717 
2058	 0.350674478152745 
2059	 0.350942802481157 
2060	 0.351210403200929 
2061	 0.351457535591855 
2062	 0.351684996202824 
2063	 0.351930358151122 
2064	 0.35215729704165 
2065	 0.352402204382981 
2066	 0.352684698705985 
2067	 0.352940452617217 
2068	 0.353195463568578 
2069	 0.353425385342051 
2070	 0.353664050088831 
2071	 0.353889277313344 
2072	 0.354127197173433 
2073	 0.354379128489546 
2074	 0.354610005542426 
2075	 0.354827205685356 
2076	 0.355054466049211 
2077	 0.355274762643805 
2078	 0.355498903668197 
2079	 0.355736165295381 
2080	 0.355965921304845 
2081	 0.356181345704895 
2082	 0.356406653686252 
2083	 0.356627984236922 
2084	 0.356863209062686 
2085	 0.357112359774754 
2086	 0.357380490072984 
2087	 0.357631518139565 
2088	 0.357889802655922 
2089	 0.358145112812602 
2090	 0.358392942287897 
2091	 0.358641102628215 
2092	 0.358896470747207 
2093	 0.359144503162499 
2094	 0.359394787363738 
2095	 0.359621613057285 
2096	 0.359834504055813 
2097	 0.360047814673668 
2098	 0.360231577384714 
2099	 0.360430005503438 
2100	 0.360637641400011 
2101	 0.360860856024742 
2102	 0.361069288975511 
2103	 0.361270499858246 
2104	 0.361491271801218 
2105	 0.361701425044594 
2106	 0.36194524743281 
2107	 0.362232504169569 
2108	 0.362493639236375 
2109	 0.362754857277354 
2110	 0.363025620447759 
2111	 0.363292673262547 
2112	 0.363560291664418 
2113	 0.363840999398891 
2114	 0.364123084603946 
2115	 0.364389522168094 
2116	 0.364649172684855 
2117	 0.364893813904156 
2118	 0.365124952901287 
2119	 0.365359645277327 
2120	 0.365581011327637 
2121	 0.365807357270311 
2122	 0.366039186748923 
2123	 0.366263527386664 
2124	 0.366484846212806 
2125	 0.366698160081045 
2126	 0.366912836239669 
2127	 0.367113671302746 
2128	 0.367304877999524 
2129	 0.367484478141868 
2130	 0.367653218743754 
2131	 0.367815142408614 
2132	 0.36795607474841 
2133	 0.368086327339599 
2134	 0.368191705966056 
2135	 0.368276357642032 
2136	 0.36834423755461 
2137	 0.368391010195078 
2138	 0.368423717353755 
2139	 0.368429336051626 
2140	 0.368438034171647 
2141	 0.368432571660886 
2142	 0.368425328028362 
2143	 0.368419865953452 
2144	 0.368403107263963 
2145	 0.368384254035326 
2146	 0.368345076227605 
2147	 0.368281788918899 
2148	 0.368222917295781 
2149	 0.368157108861392 
2150	 0.368079947447234 
2151	 0.367997977841777 
2152	 0.367925443906929 
2153	 0.367816110202532 
2154	 0.36768004215922 
2155	 0.367542636793425 
2156	 0.367388756510589 
2157	 0.367228923063873 
2158	 0.367067283207547 
2159	 0.366885679897532 
2160	 0.36668204028443 
2161	 0.366475935494785 
2162	 0.36624274328901 
2163	 0.366030210780551 
2164	 0.365824572294399 
2165	 0.36561973110602 
2166	 0.365413667099171 
2167	 0.365220802481537 
2168	 0.365006180045729 
2169	 0.364779892187546 
2170	 0.364552258330386 
2171	 0.364309914924481 
2172	 0.364085898008679 
2173	 0.363860912016662 
2174	 0.363645201524684 
2175	 0.36344824195753 
2176	 0.363239995040422 
2177	 0.363023188314512 
2178	 0.362819119008098 
2179	 0.362615137684602 
2180	 0.362419877111816 
2181	 0.36223808826543 
2182	 0.362057681194664 
2183	 0.361888302931433 
2184	 0.361706910232779 
2185	 0.361534279095493 
2186	 0.361371941553807 
2187	 0.361192891533973 
2188	 0.360998923407115 
2189	 0.360828057181756 
2190	 0.360653574314302 
2191	 0.360492913054245 
2192	 0.36036496071842 
2193	 0.360210139518837 
2194	 0.360022550021197 
2195	 0.359882765622873 
2196	 0.359777191443497 
2197	 0.359642938438718 
2198	 0.359509718160524 
2199	 0.359397240703739 
2200	 0.359262798281099 
2201	 0.359148494306531 
2202	 0.359078305313299 
2203	 0.359015029290687 
2204	 0.3589134455755 
2205	 0.358784045120547 
2206	 0.358679547815626 
2207	 0.358542528580297 
2208	 0.35848076566493 
2209	 0.358472419535327 
2210	 0.358443735058065 
2211	 0.358465535141264 
2212	 0.358433629618905 
2213	 0.358360751525193 
2214	 0.358314312134755 
2215	 0.3582559520996 
2216	 0.358213445061167 
2217	 0.358195326912702 
2218	 0.358162802105073 
2219	 0.358132301284286 
2220	 0.358095252806863 
2221	 0.358052649365902 
2222	 0.357998343372777 
2223	 0.3579618505988 
2224	 0.357941315683978 
2225	 0.357910059931789 
2226	 0.357894976011429 
2227	 0.357854182229338 
2228	 0.357791582362281 
2229	 0.357742155040892 
2230	 0.357680972406691 
2231	 0.35764498937494 
2232	 0.357624049779532 
2233	 0.35760033713828 
2234	 0.357591559024013 
2235	 0.357578879096534 
2236	 0.357563925251723 
2237	 0.357549227178976 
2238	 0.357541461133965 
2239	 0.357525462915072 
2240	 0.357503506196598 
2241	 0.357482716700217 
2242	 0.357459875368289 
2243	 0.357432903951105 
2244	 0.357396776404356 
2245	 0.35737574091768 
2246	 0.357330106494712 
2247	 0.357306034032585 
2248	 0.357277104494602 
2249	 0.357247529252988 
2250	 0.357213254739489 
2251	 0.357177480302718 
2252	 0.357153019312687 
2253	 0.357124994189219 
2254	 0.357112240263801 
2255	 0.357117533654762 
2256	 0.357117396914148 
2257	 0.357120316110814 
2258	 0.357129123730775 
2259	 0.357147713798178 
2260	 0.357157870488267 
2261	 0.357159101626285 
2262	 0.357172796774375 
2263	 0.357186448632831 
2264	 0.35720520825923 
2265	 0.357247244746806 
2266	 0.357272396884302 
2267	 0.357290778871566 
2268	 0.357312147427475 
2269	 0.357333770204756 
2270	 0.357341138080885 
2271	 0.357378514653558 
2272	 0.357355453925853 
2273	 0.357294872158941 
2274	 0.357265181376767 
2275	 0.357223435022342 
2276	 0.357159727088593 
2277	 0.357112166999128 
2278	 0.357076376996611 
2279	 0.357042714912991 
2280	 0.35699881747783 
2281	 0.356981905687938 
2282	 0.356991843695049 
2283	 0.35697919297694 
2284	 0.356975942954646 
2285	 0.356962811644249 
2286	 0.356948866787343 
2287	 0.356916669023548 
2288	 0.356854517853703 
2289	 0.356813674835638 
2290	 0.356762595800118 
2291	 0.356726468361663 
2292	 0.356727810422147 
2293	 0.356703905506362 
2294	 0.356647646732653 
2295	 0.356622583914113 
2296	 0.356583393507481 
2297	 0.356599918250713 
2298	 0.356652018804189 
2299	 0.356679903550881 
2300	 0.356676996845236 
2301	 0.356649138410207 
2302	 0.356582953439111 
2303	 0.356519476745482 
2304	 0.356479967192951 
2305	 0.356410526535441 
2306	 0.356364106038203 
2307	 0.356327829809281 
2308	 0.356289262421415 
2309	 0.356295757580402 
2310	 0.356223081131444 
2311	 0.356100947172632 
2312	 0.355988533743144 
2313	 0.355802927304018 
2314	 0.355676938114393 
2315	 0.355602590666509 
2316	 0.355513913650445 
2317	 0.355432093839888 
2318	 0.355348277316623 
2319	 0.355246230501415 
2320	 0.355175562864944 
2321	 0.355124097458891 
2322	 0.355066578297712 
2323	 0.355040723519742 
2324	 0.355004050510837 
2325	 0.354978124101907 
2326	 0.354925140499209 
2327	 0.354883226647927 
2328	 0.354759095378769 
2329	 0.354672930796384 
2330	 0.354566488922551 
2331	 0.354456456672671 
2332	 0.35438227311833 
2333	 0.354301239087526 
2334	 0.354241316098581 
2335	 0.354215692549221 
2336	 0.354212074947892 
2337	 0.354183736809531 
2338	 0.354100078269311 
2339	 0.353968507280526 
2340	 0.353782613541213 
2341	 0.353579418444531 
2342	 0.353354426768146 
2343	 0.353131722709101 
2344	 0.35298262734628 
2345	 0.352814514532207 
2346	 0.352655615698515 
2347	 0.35246392782878 
2348	 0.352258549416547 
2349	 0.35208001097957 
2350	 0.351897782024032 
2351	 0.351727849607173 
2352	 0.351636561291469 
2353	 0.351389672104509 
2354	 0.35102348533141 
2355	 0.35074424299567 
2356	 0.350416480807349 
2357	 0.350134930253217 
2358	 0.349911403989645 
2359	 0.349686606872962 
2360	 0.349481536161886 
2361	 0.349238006807129 
2362	 0.349036813545172 
2363	 0.348783821545577 
2364	 0.348418008269375 
2365	 0.348129871095447 
2366	 0.347883312464418 
2367	 0.347599065676897 
2368	 0.347330933314074 
2369	 0.347065335131726 
2370	 0.346777500566805 
2371	 0.346488724001063 
2372	 0.346261848545424 
2373	 0.345952077256806 
2374	 0.345637604024374 
2375	 0.345324713760334 
2376	 0.344961561111111 
2377	 0.34461892635698 
2378	 0.344275924685865 
2379	 0.343905142364181 
2380	 0.343542923456652 
2381	 0.343181432133337 
2382	 0.342826552879308 
2383	 0.34253895253671 
2384	 0.34229296113021 
2385	 0.342063583214447 
2386	 0.341845169822992 
2387	 0.341593927347708 
2388	 0.341311847260099 
2389	 0.341023697639544 
2390	 0.340645662486014 
2391	 0.340212855104914 
2392	 0.339862449217442 
2393	 0.339535264303196 
2394	 0.339246428271609 
2395	 0.33907383461679 
2396	 0.338812445451488 
2397	 0.338424717082199 
2398	 0.338083170567805 
2399	 0.33772113876054 
2400	 0.337369525210683 
2401	 0.337017198011313 
2402	 0.336621985351563 
2403	 0.336281310519933 
2404	 0.335907806225559 
2405	 0.3355541878008 
2406	 0.335276866228763 
2407	 0.334987022922947 
2408	 0.334741213194451 
2409	 0.334482651704213 
2410	 0.334083374102932 
2411	 0.333684091184271 
2412	 0.333364879022488 
2413	 0.332996805485784 
2414	 0.332720612827097 
2415	 0.332477344370626 
2416	 0.332136765230642 
2417	 0.331678325414543 
2418	 0.331322407474663 
2419	 0.330949107388697 
2420	 0.330591529326975 
2421	 0.330293107321666 
2422	 0.329977575621937 
2423	 0.329660218552287 
2424	 0.329376995809506 
2425	 0.329126143785655 
2426	 0.328740528035593 
2427	 0.328315238646826 
2428	 0.327914322733148 
2429	 0.327410315376106 
2430	 0.327032016461072 
2431	 0.326711961982701 
2432	 0.326383210300327 
2433	 0.326148656255219 
2434	 0.325885596654312 
2435	 0.325661789562665 
2436	 0.325332269671106 
2437	 0.324872085131736 
2438	 0.324440450032603 
2439	 0.323986711502219 
2440	 0.323548365478609 
2441	 0.323095728605086 
2442	 0.322741632904635 
2443	 0.322452232748469 
2444	 0.322171257057842 
2445	 0.3219802015629 
2446	 0.321721592506112 
2447	 0.321429030840508 
2448	 0.321014965098267 
2449	 0.320588644254475 
2450	 0.320118251474109 
2451	 0.319463145611826 
2452	 0.318982349749169 
2453	 0.318540599163413 
2454	 0.318138185819935 
2455	 0.317839416504368 
2456	 0.317476939338091 
2457	 0.317087339165296 
2458	 0.316761717920614 
2459	 0.316532660810396 
2460	 0.316243135333754 
2461	 0.315948002483285 
2462	 0.315634023314944 
2463	 0.315198157109751 
2464	 0.314853656207825 
2465	 0.314635566391433 
2466	 0.314289469795772 
2467	 0.313866185172059 
2468	 0.3134846423191 
2469	 0.313094232550939 
2470	 0.312691216257426 
2471	 0.312376804721486 
2472	 0.312224124908091 
2473	 0.311933489301402 
2474	 0.311651237354674 
2475	 0.311496442999669 
2476	 0.311288835615889 
2477	 0.311093308628082 
2478	 0.310939347164487 
2479	 0.310660650793422 
2480	 0.310306468564075 
2481	 0.309857915335266 
2482	 0.309393363704377 
2483	 0.30908786449735 
2484	 0.308884758395386 
2485	 0.308670863439482 
2486	 0.308429249826941 
2487	 0.308396768809444 
2488	 0.308099112276432 
2489	 0.307317531644514 
2490	 0.306763620465428 
2491	 0.306209385532559 
2492	 0.305884209878376 
2493	 0.305998494935415 
2494	 0.305754910614068 
2495	 0.305294883561938 
2496	 0.304995579799542 
2497	 0.304634487179911 
2498	 0.304358353766693 
2499	 0.304323712289669 
2500	 0.304132476811656 
