Wavelength	LMW800006.asd
350	 6.31770786245519E-02 
351	 0.062918464491345 
352	 5.80386913346347E-02 
353	 5.35434842420475E-02 
354	 5.81952078990664E-02 
355	 6.04814574498849E-02 
356	 6.16852279116937E-02 
357	 6.41307986570448E-02 
358	 6.10970431641256E-02 
359	 5.93620635495341E-02 
360	 5.71236829629236E-02 
361	 4.87658744009855E-02 
362	 5.14817621412329E-02 
363	 5.70198091765742E-02 
364	 5.82762250924104E-02 
365	 5.44237521159442E-02 
366	 5.19036024532011E-02 
367	 5.20469655352788E-02 
368	 5.41719093764087E-02 
369	 0.056883797829186 
370	 0.057140350882791 
371	 5.55725221938058E-02 
372	 0.055265522580662 
373	 5.61681824843093E-02 
374	 5.85845472158803E-02 
375	 6.10956412476303E-02 
376	 5.93593276687336E-02 
377	 5.69008613901606E-02 
378	 5.64680968371509E-02 
379	 5.90011190355288E-02 
380	 5.93846390098275E-02 
381	 5.89442184034402E-02 
382	 5.89095707577309E-02 
383	 6.01593446312185E-02 
384	 6.27744013985871E-02 
385	 0.062744869666506 
386	 5.96415987249616E-02 
387	 6.08116777868083E-02 
388	 6.10954272034455E-02 
389	 6.07383083125821E-02 
390	 0.061220883025674 
391	 6.15743281090659E-02 
392	 6.11346843111339E-02 
393	 6.08399680154334E-02 
394	 6.26806558034731E-02 
395	 6.36469755390278E-02 
396	 6.39980930187692E-02 
397	 6.44500544617469E-02 
398	 0.065631762143361 
399	 6.56718026655873E-02 
400	 6.53434237889034E-02 
401	 6.59449186516586E-02 
402	 6.57242055119181E-02 
403	 6.54320518725932E-02 
404	 6.55306454126604E-02 
405	 6.60152630779746E-02 
406	 6.68418962868066E-02 
407	 6.71967217513816E-02 
408	 6.67392593481371E-02 
409	 6.65736378640036E-02 
410	 0.066648776669465 
411	 6.67803550400299E-02 
412	 6.68795870849779E-02 
413	 6.83837598912651E-02 
414	 0.06877891589236 
415	 6.76537868565196E-02 
416	 6.76102197864631E-02 
417	 0.068034596824244 
418	 6.83833248535034E-02 
419	 6.82789526356976E-02 
420	 6.79174206981296E-02 
421	 6.77108282860101E-02 
422	 6.76649924002153E-02 
423	 6.75449358614938E-02 
424	 6.76623822132165E-02 
425	 6.75404654192552E-02 
426	 6.70915455668732E-02 
427	 6.70776834755553E-02 
428	 6.71846564836214E-02 
429	 6.72579695750165E-02 
430	 6.72354281703041E-02 
431	 6.73406464929537E-02 
432	 6.71964331133952E-02 
433	 6.68882705510252E-02 
434	 6.69377707745864E-02 
435	 6.69605291861317E-02 
436	 6.70286321340677E-02 
437	 6.71370942235199E-02 
438	 6.67949649541647E-02 
439	 6.67286290847253E-02 
440	 6.69966664857288E-02 
441	 6.72881635188259E-02 
442	 6.73154207935512E-02 
443	 0.067409408509479 
444	 6.76595726694799E-02 
445	 0.06770464378125 
446	 6.76189762520073E-02 
447	 6.75803086692024E-02 
448	 6.77173421526663E-02 
449	 6.77839463744268E-02 
450	 6.79897229981522E-02 
451	 6.82497492031603E-02 
452	 6.82443560228876E-02 
453	 0.06822519277727 
454	 6.83478627972678E-02 
455	 6.85861391840016E-02 
456	 6.85088737755644E-02 
457	 6.84965552736751E-02 
458	 0.068551256973001 
459	 6.85501013810271E-02 
460	 6.88478493363214E-02 
461	 6.88328146808993E-02 
462	 6.84678891389984E-02 
463	 6.86207183020937E-02 
464	 6.87789894999455E-02 
465	 6.88464176443004E-02 
466	 6.88626836733976E-02 
467	 6.89616806932379E-02 
468	 6.90444555090036E-02 
469	 6.90458242328223E-02 
470	 6.89507407729479E-02 
471	 6.89895644598588E-02 
472	 6.91181750619483E-02 
473	 6.92413602414087E-02 
474	 6.92669010254108E-02 
475	 6.92533030939272E-02 
476	 6.92630702832111E-02 
477	 6.93260656944162E-02 
478	 6.92121599663729E-02 
479	 6.91184124909699E-02 
480	 6.91381847813513E-02 
481	 6.91665175844291E-02 
482	 6.94431674857609E-02 
483	 6.96626882579324E-02 
484	 6.95604467419202E-02 
485	 6.96714036980172E-02 
486	 6.97049953090213E-02 
487	 6.95920293611182E-02 
488	 6.94677296836569E-02 
489	 6.94044114822151E-02 
490	 6.94722294134673E-02 
491	 0.069639309865161 
492	 6.96635988091607E-02 
493	 6.95121276751251E-02 
494	 6.93605845904963E-02 
495	 6.94411924939888E-02 
496	 6.95495011946281E-02 
497	 6.95026188717431E-02 
498	 0.069355414805386 
499	 6.95133754167498E-02 
500	 6.94437355525521E-02 
501	 6.93459867119128E-02 
502	 6.95157691279543E-02 
503	 6.97122156582883E-02 
504	 6.96325411861151E-02 
505	 6.93861609453779E-02 
506	 6.94311098530546E-02 
507	 6.94451507947011E-02 
508	 6.94363933010206E-02 
509	 6.94340719390581E-02 
510	 6.93415880680666E-02 
511	 6.93326291405151E-02 
512	 6.93810400459033E-02 
513	 6.93664954225125E-02 
514	 0.06938015757094 
515	 6.94076796162329E-02 
516	 6.94308619531824E-02 
517	 6.94477977318803E-02 
518	 6.94216740248167E-02 
519	 6.93556750533079E-02 
520	 6.93003937369056E-02 
521	 0.069474719987238 
522	 6.95768716202081E-02 
523	 6.95244279274514E-02 
524	 6.94920501099573E-02 
525	 6.94356069532045E-02 
526	 6.94050122587894E-02 
527	 6.94410364009933E-02 
528	 6.95176355316789E-02 
529	 6.95228310098595E-02 
530	 6.94935409878777E-02 
531	 6.95499707147222E-02 
532	 6.95221885100757E-02 
533	 6.95687487786519E-02 
534	 6.97303134183936E-02 
535	 6.96974418386805E-02 
536	 6.97367107267726E-02 
537	 6.97860669509531E-02 
538	 6.97041228760534E-02 
539	 6.97233816635065E-02 
540	 6.97588529328798E-02 
541	 6.97674618722324E-02 
542	 6.97953141882197E-02 
543	 6.98338286860843E-02 
544	 6.98747346953889E-02 
545	 6.99172461822815E-02 
546	 6.99959872337002E-02 
547	 7.00760016807266E-02 
548	 7.01175536462001E-02 
549	 0.070086326642417 
550	 0.070087890924894 
551	 7.01348638730225E-02 
552	 7.02092998948589E-02 
553	 7.02681140212122E-02 
554	 7.03318891037081E-02 
555	 7.04025965456103E-02 
556	 0.070473555007919 
557	 7.05411329133139E-02 
558	 7.06562351260889E-02 
559	 0.070816192861141 
560	 7.09184454692794E-02 
561	 7.09711457779966E-02 
562	 7.10340754208929E-02 
563	 7.11662048470387E-02 
564	 7.12975280667798E-02 
565	 7.14322515924893E-02 
566	 7.15673317960972E-02 
567	 7.16884500042064E-02 
568	 7.19052258158599E-02 
569	 0.072140739173621 
570	 7.23158131933697E-02 
571	 7.25006834153391E-02 
572	 7.27137372692035E-02 
573	 0.07297240290996 
574	 7.32760790032977E-02 
575	 0.073413874550808 
576	 7.35815177516537E-02 
577	 7.39066118070541E-02 
578	 7.42401023673084E-02 
579	 7.45177481139938E-02 
580	 7.48032464228442E-02 
581	 7.51963764443759E-02 
582	 7.55721874196246E-02 
583	 7.59338176359726E-02 
584	 0.076313486024927 
585	 7.67719578746725E-02 
586	 7.71859577231756E-02 
587	 7.75619414180869E-02 
588	 7.79537076286668E-02 
589	 7.84346636131138E-02 
590	 7.89171038025312E-02 
591	 7.93720862669218E-02 
592	 7.98320172593534E-02 
593	 8.03240115608157E-02 
594	 8.08298167403949E-02 
595	 8.13363420869703E-02 
596	 8.18775353878972E-02 
597	 8.24182107275202E-02 
598	 8.29488651148847E-02 
599	 8.34778347355944E-02 
600	 8.40265288624221E-02 
601	 8.45212997767633E-02 
602	 8.49494913914687E-02 
603	 8.54245492476034E-02 
604	 0.085930744609052 
605	 8.64368445659704E-02 
606	 0.086915874360368 
607	 8.74186274171115E-02 
608	 8.79342569037048E-02 
609	 0.088437102467374 
610	 8.88910490952217E-02 
611	 0.089314186463608 
612	 8.97345147398364E-02 
613	 9.01660084433489E-02 
614	 9.05762936551449E-02 
615	 9.09520013781745E-02 
616	 9.12983348737863E-02 
617	 9.16359720816717E-02 
618	 9.20217692826367E-02 
619	 9.23599417494645E-02 
620	 9.26060696391875E-02 
621	 9.28676124626155E-02 
622	 9.31424198907237E-02 
623	 9.34091942292487E-02 
624	 9.36453752514554E-02 
625	 0.093906676087053 
626	 9.41632453287136E-02 
627	 0.094404449254785 
628	 9.46543666335689E-02 
629	 9.48944922116765E-02 
630	 9.51019995314073E-02 
631	 9.52732206611961E-02 
632	 9.54811205980159E-02 
633	 9.56581396263651E-02 
634	 9.58337807112751E-02 
635	 9.61055935469617E-02 
636	 9.62938665989553E-02 
637	 9.64632438240626E-02 
638	 9.66730141099756E-02 
639	 9.68622106274683E-02 
640	 9.70354275857751E-02 
641	 9.72211234885629E-02 
642	 9.74449496612735E-02 
643	 9.76081122375275E-02 
644	 9.77824116116023E-02 
645	 9.80022038678668E-02 
646	 9.82252297462979E-02 
647	 9.84165391331396E-02 
648	 9.85993578300782E-02 
649	 9.88063427380531E-02 
650	 9.90211353354874E-02 
651	 9.92539031043086E-02 
652	 0.099473937030487 
653	 9.96256619073013E-02 
654	 9.98670296524644E-02 
655	 0.100110551945599 
656	 0.100293095014135 
657	 0.100524560008887 
658	 0.100789752593044 
659	 0.101052596677052 
660	 0.10127442747397 
661	 0.101501441717491 
662	 0.10179566441291 
663	 0.102143134709703 
664	 0.10242100945303 
665	 0.102671104845801 
666	 0.102942406629841 
667	 0.1032593050548 
668	 0.103521124892448 
669	 0.103822763769565 
670	 0.104159598746009 
671	 0.104446780198945 
672	 0.104789757378391 
673	 0.105160610878368 
674	 0.105518116926877 
675	 0.105841593161059 
676	 0.106191084249142 
677	 0.106547548772635 
678	 0.106871035578715 
679	 0.107238943632598 
680	 0.107628613423736 
681	 0.108019276389328 
682	 0.108405548382487 
683	 0.108805294165463 
684	 0.109208707155375 
685	 0.109612578391873 
686	 0.110065323966579 
687	 0.110527337319686 
688	 0.11098468365266 
689	 0.111441569923372 
690	 0.111873112516718 
691	 0.112293949491484 
692	 0.112733700359028 
693	 0.113246302879043 
694	 0.113735846668409 
695	 0.114224345926734 
696	 0.114754743856664 
697	 0.115220572755886 
698	 0.115713693486746 
699	 0.116254637047323 
700	 0.116777510120703 
701	 0.11729693067924 
702	 0.117804031731297 
703	 0.118302695404897 
704	 0.118845414603141 
705	 0.119368752158633 
706	 0.119893306081016 
707	 0.120465446005137 
708	 0.120956282861868 
709	 0.121455662576521 
710	 0.122007776745809 
711	 0.122558741642374 
712	 0.123119552444676 
713	 0.123659005091868 
714	 0.12415656549663 
715	 0.124666573663552 
716	 0.125169969589959 
717	 0.125677360620343 
718	 0.126213747324337 
719	 0.126711234790863 
720	 0.127161768962475 
721	 0.127587016020805 
722	 0.128044476716219 
723	 0.128515162111656 
724	 0.128988713538776 
725	 0.129448665463484 
726	 0.129842713781233 
727	 0.130226722874598 
728	 0.1306043229005 
729	 0.1309295462531 
730	 0.131278609041966 
731	 0.131624114972179 
732	 0.131938160576691 
733	 0.132243903657661 
734	 0.132495591303009 
735	 0.132711249112847 
736	 0.132932948288247 
737	 0.133167325732809 
738	 0.133373553607638 
739	 0.133535451464839 
740	 0.133668547632223 
741	 0.133792796401217 
742	 0.133890278978867 
743	 0.133945185048449 
744	 0.133968034941773 
745	 0.133985859283084 
746	 0.134002702626917 
747	 0.134006774589543 
748	 0.133971734448537 
749	 0.133923821819275 
750	 0.133863326929436 
751	 0.133754697625364 
752	 0.133652675472839 
753	 0.133523422948746 
754	 0.133344781328715 
755	 0.133189163155895 
756	 0.133031721023212 
757	 0.13283829495745 
758	 0.132585257428923 
759	 0.132362315916476 
760	 0.13212072047805 
761	 0.131849882195359 
762	 0.131601955808872 
763	 0.131359033684666 
764	 0.131076545735574 
765	 0.130740618338155 
766	 0.130441474940617 
767	 0.130148614188986 
768	 0.129833600131589 
769	 0.129482070165755 
770	 0.129180428649886 
771	 0.128858082506306 
772	 0.128484781122321 
773	 0.128096445349423 
774	 0.127743451770095 
775	 0.127402125347289 
776	 0.127046045197094 
777	 0.126696288815331 
778	 0.126331527756894 
779	 0.125949640913165 
780	 0.125560435861913 
781	 0.125181515945061 
782	 0.124826411611586 
783	 0.124478453162436 
784	 0.124095212216139 
785	 0.123744856111356 
786	 0.123416429737958 
787	 0.12307670611023 
788	 0.122669404594767 
789	 0.122306184754498 
790	 0.12198266171898 
791	 0.121648177861695 
792	 0.12127343479642 
793	 0.120918183430587 
794	 0.120588909844251 
795	 0.12024473723427 
796	 0.119905786182349 
797	 0.119584351948561 
798	 0.119270027571397 
799	 0.118909799926901 
800	 0.118618707708952 
801	 0.118348087942794 
802	 0.118024980365175 
803	 0.117688182444452 
804	 0.117404023039483 
805	 0.117142964615672 
806	 0.11682999200951 
807	 0.116568704732925 
808	 0.116266983855786 
809	 0.115937228434343 
810	 0.11574483172984 
811	 0.115497066782026 
812	 0.115225431657959 
813	 0.114982316644224 
814	 0.114734183646858 
815	 0.114474537820206 
816	 0.114217616847169 
817	 0.113987625916564 
818	 0.113806705879808 
819	 0.113612047751801 
820	 0.113387248741028 
821	 0.113162349033659 
822	 0.112960870216144 
823	 0.112770221392363 
824	 0.112580330918526 
825	 0.1123964813896 
826	 0.112213265125011 
827	 0.112052033744476 
828	 0.1119193597772 
829	 0.111755472802866 
830	 0.111569058694371 
831	 0.111386591162402 
832	 0.111239558309957 
833	 0.111126510314584 
834	 0.111033033908547 
835	 0.110934442376839 
836	 0.1108010876818 
837	 0.11063111927614 
838	 0.110506547843564 
839	 0.110445158042417 
840	 0.110335078490061 
841	 0.110246155086506 
842	 0.110131591835206 
843	 0.109971932872093 
844	 0.109928313062992 
845	 0.10990491262745 
846	 0.10984916582885 
847	 0.109749733208471 
848	 0.109690415803094 
849	 0.109662223363958 
850	 0.109631820859118 
851	 0.109558230542744 
852	 0.109482408436544 
853	 0.109465504101932 
854	 0.109494827516246 
855	 0.109453020577677 
856	 0.109432028414046 
857	 0.109408263672108 
858	 0.109365068732571 
859	 0.109371029388132 
860	 0.109389617237327 
861	 0.109409237789611 
862	 0.109424147786824 
863	 0.109417681611811 
864	 0.109411461921887 
865	 0.10943275575611 
866	 0.109493102505385 
867	 0.109478266005342 
868	 0.109530594672751 
869	 0.109645981453988 
870	 0.109662546459909 
871	 0.109688610699294 
872	 0.109739158452355 
873	 0.109813173766262 
874	 0.109907483308756 
875	 0.109975040769563 
876	 0.110040763624774 
877	 0.110136192572386 
878	 0.110257359708919 
879	 0.110413263817722 
880	 0.11052495757003 
881	 0.110549942380328 
882	 0.110713852509136 
883	 0.110882009199382 
884	 0.11099429977952 
885	 0.111061843165312 
886	 0.111204268816272 
887	 0.111372002144998 
888	 0.111521262266269 
889	 0.111632996699122 
890	 0.111747828194759 
891	 0.111896541918356 
892	 0.112086175899245 
893	 0.112293381630215 
894	 0.112438287695942 
895	 0.112603069021175 
896	 0.11282894859266 
897	 0.113024847947523 
898	 0.113245414042554 
899	 0.113450285999517 
900	 0.113620405881428 
901	 0.11385288882265 
902	 0.114105471324898 
903	 0.11435918213284 
904	 0.114598178211695 
905	 0.114787101363517 
906	 0.115039187025816 
907	 0.115340652094536 
908	 0.115619515085499 
909	 0.115869421211226 
910	 0.116130450384644 
911	 0.116441254316338 
912	 0.116806158618812 
913	 0.11704933265549 
914	 0.11728280390864 
915	 0.117583391886903 
916	 0.117952423584119 
917	 0.118236572976236 
918	 0.118555376448199 
919	 0.118936203220209 
920	 0.119266946259424 
921	 0.119644976480986 
922	 0.119983557579094 
923	 0.120269274607625 
924	 0.120632456650973 
925	 0.121032752259127 
926	 0.121484222284869 
927	 0.121949196176078 
928	 0.122285350342502 
929	 0.122751596857518 
930	 0.123184874697616 
931	 0.123484356012953 
932	 0.123944211558278 
933	 0.124409390087716 
934	 0.124858374183247 
935	 0.125306336774447 
936	 0.125760742185198 
937	 0.126223116921471 
938	 0.126685883772764 
939	 0.127152473034833 
940	 0.127678131028998 
941	 0.128177614384394 
942	 0.12869394581457 
943	 0.129281385343562 
944	 0.129829518032782 
945	 0.130306857987239 
946	 0.13084523362876 
947	 0.131543660823111 
948	 0.132038287732665 
949	 0.132520988682549 
950	 0.133074234296406 
951	 0.133702809960327 
952	 0.134397573998805 
953	 0.13505391523697 
954	 0.135646549706232 
955	 0.136217536306036 
956	 0.136867452119213 
957	 0.137452573033372 
958	 0.13804832024318 
959	 0.138814491310244 
960	 0.139548569250357 
961	 0.140192509448447 
962	 0.140838281147232 
963	 0.141604626137362 
964	 0.142203441272799 
965	 0.142862714265776 
966	 0.143629263298821 
967	 0.144400079536878 
968	 0.145135044966778 
969	 0.145795263702776 
970	 0.146446187286063 
971	 0.147209549590447 
972	 0.148132545920176 
973	 0.148954680907483 
974	 0.149669814087353 
975	 0.150452958055387 
976	 0.151327554372522 
977	 0.152144140018884 
978	 0.152911540260108 
979	 0.153713898432796 
980	 0.154358542040359 
981	 0.15514637301931 
982	 0.156066287540114 
983	 0.156910175440006 
984	 0.15765544542952 
985	 0.158534810113577 
986	 0.15945166040246 
987	 0.160205304999114 
988	 0.161129943622856 
989	 0.162069794012727 
990	 0.16296522528852 
991	 0.163834603276736 
992	 0.164759047576147 
993	 0.165481430820899 
994	 0.166286545777067 
995	 0.1674508264185 
996	 0.168187127675982 
997	 0.16901622109837 
998	 0.169951553363782 
999	 0.170837677600459 
1000	 0.171736077202592 
1001	 0.173994374272631 
1002	 0.174846812560949 
1003	 0.175743803887572 
1004	 0.176637476760257 
1005	 0.177514918390916 
1006	 0.178405300873457 
1007	 0.179327330409645 
1008	 0.180228156833622 
1009	 0.18105746218722 
1010	 0.181924097181501 
1011	 0.182768983154446 
1012	 0.183558105688543 
1013	 0.18439163273701 
1014	 0.185236643129565 
1015	 0.186037479023213 
1016	 0.186851185594739 
1017	 0.187680200927528 
1018	 0.188523328151361 
1019	 0.189330505778244 
1020	 0.190137016670332 
1021	 0.190968729249742 
1022	 0.191785346465072 
1023	 0.192564504729912 
1024	 0.193358806338576 
1025	 0.194153393847991 
1026	 0.194904859352404 
1027	 0.195677864424123 
1028	 0.196467834085775 
1029	 0.19722421006121 
1030	 0.197967872232075 
1031	 0.198694867651525 
1032	 0.199400069306983 
1033	 0.20009565198715 
1034	 0.200835427083385 
1035	 0.201561391648952 
1036	 0.202292725562051 
1037	 0.203074155804176 
1038	 0.203800358330841 
1039	 0.204478801767949 
1040	 0.205167879401239 
1041	 0.205840430635994 
1042	 0.20654980005746 
1043	 0.207345480203802 
1044	 0.208075563085882 
1045	 0.208825162947893 
1046	 0.209503249549197 
1047	 0.210175239582107 
1048	 0.210842624221877 
1049	 0.211538349637237 
1050	 0.212296312803969 
1051	 0.213040669195678 
1052	 0.213728163547369 
1053	 0.214462382743723 
1054	 0.215195560039323 
1055	 0.215891728511522 
1056	 0.216666252609308 
1057	 0.21738430608875 
1058	 0.218019761993292 
1059	 0.218742895231363 
1060	 0.219524914473164 
1061	 0.220222467804102 
1062	 0.220927060393374 
1063	 0.221703002364575 
1064	 0.222427735617028 
1065	 0.223148500476133 
1066	 0.223890789661713 
1067	 0.22463131745731 
1068	 0.22536495932574 
1069	 0.226051756685909 
1070	 0.226762701245168 
1071	 0.227491240372244 
1072	 0.228212145698735 
1073	 0.228922884456225 
1074	 0.229640921969995 
1075	 0.230367788549053 
1076	 0.231071155378706 
1077	 0.2317603646357 
1078	 0.232442845418895 
1079	 0.23312698382015 
1080	 0.233831135900458 
1081	 0.234558794911372 
1082	 0.235284550458188 
1083	 0.235987134215988 
1084	 0.236672443932488 
1085	 0.237374064580156 
1086	 0.23804959371584 
1087	 0.238750633555185 
1088	 0.239478496883545 
1089	 0.240196663664318 
1090	 0.240901697447924 
1091	 0.241608181334585 
1092	 0.242287966472291 
1093	 0.242975362064022 
1094	 0.243656429939309 
1095	 0.244345457729973 
1096	 0.245095708148849 
1097	 0.245819488521806 
1098	 0.246534571547848 
1099	 0.247259316272946 
1100	 0.247974178499639 
1101	 0.248652781999299 
1102	 0.249367780225732 
1103	 0.250124159759271 
1104	 0.250826265748976 
1105	 0.251511352816501 
1106	 0.252250535803764 
1107	 0.25295305957686 
1108	 0.253656500590569 
1109	 0.254411080605132 
1110	 0.255145362637981 
1111	 0.255881112544685 
1112	 0.256616317912306 
1113	 0.257359196993296 
1114	 0.258106805714703 
1115	 0.258849561182271 
1116	 0.259596089176454 
1117	 0.26034820444729 
1118	 0.261095086258696 
1119	 0.261842340023884 
1120	 0.262633084972423 
1121	 0.263397297782164 
1122	 0.264149403843382 
1123	 0.264923943876324 
1124	 0.265686262788151 
1125	 0.266428864119081 
1126	 0.267190861309962 
1127	 0.26795621285185 
1128	 0.26873058201847 
1129	 0.269527287968281 
1130	 0.270291767623752 
1131	 0.27104028404827 
1132	 0.271811900539586 
1133	 0.272590030818105 
1134	 0.273345785266483 
1135	 0.274112999112652 
1136	 0.274860135691203 
1137	 0.275599384497625 
1138	 0.276303257393616 
1139	 0.277039309359877 
1140	 0.277795897657848 
1141	 0.278548318245858 
1142	 0.279308249629634 
1143	 0.28005619292713 
1144	 0.280808559183431 
1145	 0.281547723486021 
1146	 0.282271057528538 
1147	 0.282992969707924 
1148	 0.283699086198197 
1149	 0.284425905562797 
1150	 0.2851598596445 
1151	 0.285902484109777 
1152	 0.286622468706032 
1153	 0.287332347415326 
1154	 0.288050943355614 
1155	 0.288756647798458 
1156	 0.28945534886011 
1157	 0.290180392034487 
1158	 0.290859073829448 
1159	 0.291477602173959 
1160	 0.292148030158743 
1161	 0.29282895096196 
1162	 0.293506683359909 
1163	 0.294228806861517 
1164	 0.294905130751882 
1165	 0.295550198907352 
1166	 0.296195062512964 
1167	 0.296834943135182 
1168	 0.2974688851106 
1169	 0.298105004694325 
1170	 0.298752968625499 
1171	 0.299379797632643 
1172	 0.299996836031963 
1173	 0.300604335590657 
1174	 0.301202535471053 
1175	 0.301796591258144 
1176	 0.302377524478107 
1177	 0.302965854491174 
1178	 0.303556849624322 
1179	 0.304139940530901 
1180	 0.304724912380108 
1181	 0.305301924039162 
1182	 0.305869387853816 
1183	 0.306435295358449 
1184	 0.307002339872955 
1185	 0.307572210942229 
1186	 0.308129360728539 
1187	 0.308685867312614 
1188	 0.309230400151091 
1189	 0.309762003592881 
1190	 0.310291628521695 
1191	 0.3108290049521 
1192	 0.31133714446138 
1193	 0.31181988681973 
1194	 0.312312048695333 
1195	 0.312789704647644 
1196	 0.313267501052356 
1197	 0.313765820513297 
1198	 0.314237723173427 
1199	 0.314694910510876 
1200	 0.315139593424056 
1201	 0.315565798551189 
1202	 0.315963915799111 
1203	 0.316380437214807 
1204	 0.316778969629229 
1205	 0.317204483388113 
1206	 0.317664340303282 
1207	 0.318086953311364 
1208	 0.318513154335519 
1209	 0.318916826795692 
1210	 0.319302686166287 
1211	 0.319667958403458 
1212	 0.319999191069212 
1213	 0.32034801534618 
1214	 0.320684886131683 
1215	 0.321022458732312 
1216	 0.321363869890765 
1217	 0.321723209529854 
1218	 0.322065426224423 
1219	 0.322406809170571 
1220	 0.322722803798377 
1221	 0.323021107054843 
1222	 0.323331923963602 
1223	 0.323627239323041 
1224	 0.323927352665949 
1225	 0.324254762707592 
1226	 0.324549701480648 
1227	 0.324815142533393 
1228	 0.325090046630585 
1229	 0.325361562035865 
1230	 0.325626602957804 
1231	 0.325897437425091 
1232	 0.32615418454595 
1233	 0.326400830505789 
1234	 0.326634380024675 
1235	 0.326866228849245 
1236	 0.327085772870675 
1237	 0.327312536328475 
1238	 0.327536550179583 
1239	 0.327764164366361 
1240	 0.328001254039989 
1241	 0.328223642226832 
1242	 0.328435350276641 
1243	 0.328656008152735 
1244	 0.328888027005077 
1245	 0.329093970993738 
1246	 0.329288136444921 
1247	 0.329485411243623 
1248	 0.329660764154402 
1249	 0.329842302988985 
1250	 0.330030236755996 
1251	 0.330228170034956 
1252	 0.330409558708132 
1253	 0.330582962462424 
1254	 0.330746908884067 
1255	 0.330901504866509 
1256	 0.331057262212764 
1257	 0.331202462660698 
1258	 0.331353039219307 
1259	 0.331513528470731 
1260	 0.331657708627853 
1261	 0.331798570601395 
1262	 0.331926381844809 
1263	 0.33203095225694 
1264	 0.332147429580382 
1265	 0.332269704452106 
1266	 0.332379444097124 
1267	 0.332482949696624 
1268	 0.332591371121693 
1269	 0.332694691578899 
1270	 0.332781872637503 
1271	 0.332884847899406 
1272	 0.332996147543471 
1273	 0.333106980722522 
1274	 0.333209637160347 
1275	 0.333337079487714 
1276	 0.333483417877725 
1277	 0.333624754701813 
1278	 0.333771529324083 
1279	 0.333930844063216 
1280	 0.334099671831965 
1281	 0.334262407349324 
1282	 0.334438193655376 
1283	 0.334609452231478 
1284	 0.334778508421999 
1285	 0.334936727745642 
1286	 0.335087891625968 
1287	 0.335245021160148 
1288	 0.335388187223508 
1289	 0.335506847977481 
1290	 0.335652288255311 
1291	 0.335802985910812 
1292	 0.335960468474948 
1293	 0.336148355100963 
1294	 0.336290011264 
1295	 0.336413058418933 
1296	 0.336536953301994 
1297	 0.336622819163389 
1298	 0.336740360933175 
1299	 0.336901422415527 
1300	 0.33701445105408 
1301	 0.337111434913544 
1302	 0.337198784788082 
1303	 0.337255648310112 
1304	 0.3373051720824 
1305	 0.337367700935469 
1306	 0.337445655102506 
1307	 0.337484659217296 
1308	 0.337499917705563 
1309	 0.337523600103856 
1310	 0.337523297482587 
1311	 0.337543253925215 
1312	 0.337583678726996 
1313	 0.337599270303265 
1314	 0.337608114907487 
1315	 0.337609357624726 
1316	 0.337566018006295 
1317	 0.337591194069503 
1318	 0.337658445937936 
1319	 0.33769880681903 
1320	 0.337801246028127 
1321	 0.337832729954131 
1322	 0.337802453674423 
1323	 0.337773563071126 
1324	 0.337766341754826 
1325	 0.337745322308007 
1326	 0.337740453451955 
1327	 0.337754463709337 
1328	 0.337742214685203 
1329	 0.337717344970656 
1330	 0.337716781924824 
1331	 0.337724224804418 
1332	 0.337740962941402 
1333	 0.337789658183228 
1334	 0.337795689567843 
1335	 0.337780946729323 
1336	 0.337784730333294 
1337	 0.337763317979967 
1338	 0.3377746793296 
1339	 0.33782564424325 
1340	 0.337851253443916 
1341	 0.337873319685144 
1342	 0.337894089696302 
1343	 0.337909074762855 
1344	 0.337925801980871 
1345	 0.337934573078 
1346	 0.337950722830956 
1347	 0.337942695977885 
1348	 0.337942315374728 
1349	 0.337942598626323 
1350	 0.337918242593 
1351	 0.337894247054261 
1352	 0.337853440515087 
1353	 0.337836203840881 
1354	 0.337822213534443 
1355	 0.337808284875057 
1356	 0.337810094929109 
1357	 0.337803910144167 
1358	 0.337787213592219 
1359	 0.337783188502431 
1360	 0.337780201160066 
1361	 0.337789739823312 
1362	 0.337802737719462 
1363	 0.337825411493388 
1364	 0.337869508269348 
1365	 0.337907013860936 
1366	 0.337940452393039 
1367	 0.337994089131254 
1368	 0.338039616745284 
1369	 0.338065130660941 
1370	 0.33809332321829 
1371	 0.33809832367449 
1372	 0.338076879871648 
1373	 0.338055624699127 
1374	 0.338022005183645 
1375	 0.33798041549123 
1376	 0.337905272768715 
1377	 0.337810048390107 
1378	 0.337712645888886 
1379	 0.337587266076629 
1380	 0.337469266908624 
1381	 0.337340235909228 
1382	 0.337228643371398 
1383	 0.337120214316217 
1384	 0.337010845075879 
1385	 0.336939241598876 
1386	 0.336825224339762 
1387	 0.336702192014762 
1388	 0.336538882656561 
1389	 0.336339660861699 
1390	 0.336129134645261 
1391	 0.335893834174097 
1392	 0.335633118632734 
1393	 0.335355296461208 
1394	 0.335072385641052 
1395	 0.334771866096162 
1396	 0.334458563752115 
1397	 0.334136758902577 
1398	 0.333810339728997 
1399	 0.333463900559925 
1400	 0.333093045791607 
1401	 0.332733234728816 
1402	 0.332369298686667 
1403	 0.3320016016438 
1404	 0.33162284015415 
1405	 0.331264882115454 
1406	 0.33091272186453 
1407	 0.330560132804126 
1408	 0.330220646120211 
1409	 0.329879040368444 
1410	 0.329530133028784 
1411	 0.329188129348014 
1412	 0.328841094728907 
1413	 0.328519228578751 
1414	 0.328230461614293 
1415	 0.327935893323325 
1416	 0.327658910068783 
1417	 0.327406780879983 
1418	 0.327134218714531 
1419	 0.326875623990221 
1420	 0.326655441633529 
1421	 0.326447936941237 
1422	 0.326270073792683 
1423	 0.326117853269203 
1424	 0.325961195405072 
1425	 0.325817763376677 
1426	 0.325674065308802 
1427	 0.325527789885633 
1428	 0.325396660518711 
1429	 0.32527473863843 
1430	 0.325164443214573 
1431	 0.32506239846748 
1432	 0.324970203406507 
1433	 0.324896128101149 
1434	 0.324817272284551 
1435	 0.324738751348569 
1436	 0.3246771507982 
1437	 0.324610658817294 
1438	 0.324565622514148 
1439	 0.324552804821406 
1440	 0.32453044202843 
1441	 0.324491994511458 
1442	 0.324469683131623 
1443	 0.324413767267566 
1444	 0.324355803992098 
1445	 0.324329390385641 
1446	 0.324312466903637 
1447	 0.32431660991013 
1448	 0.324324556258805 
1449	 0.324325414382884 
1450	 0.324318994251449 
1451	 0.32432952401968 
1452	 0.324337338208051 
1453	 0.324377174658807 
1454	 0.324442976742271 
1455	 0.324507050056614 
1456	 0.324599509281096 
1457	 0.324659736992412 
1458	 0.3247034242536 
1459	 0.324756079707244 
1460	 0.32478836013291 
1461	 0.324849316283363 
1462	 0.324937199934175 
1463	 0.325019331996252 
1464	 0.325116826675845 
1465	 0.32519617921798 
1466	 0.32526010375581 
1467	 0.325332076878781 
1468	 0.325396433792971 
1469	 0.325472615635301 
1470	 0.325563723832684 
1471	 0.32565007059867 
1472	 0.325720167303886 
1473	 0.325808249272605 
1474	 0.325893587921229 
1475	 0.325982039081146 
1476	 0.326101283732523 
1477	 0.326209483360591 
1478	 0.326338322473406 
1479	 0.326474522074591 
1480	 0.326590059226366 
1481	 0.326719282038968 
1482	 0.326822827333112 
1483	 0.326893650380524 
1484	 0.326998134674951 
1485	 0.327097512407553 
1486	 0.327221121853198 
1487	 0.327373323528086 
1488	 0.327515588120605 
1489	 0.327675037082541 
1490	 0.327812284524861 
1491	 0.327943902100595 
1492	 0.328067113912046 
1493	 0.328171755250171 
1494	 0.328282832082619 
1495	 0.328391740704578 
1496	 0.328504886985302 
1497	 0.32861890863557 
1498	 0.328732550325595 
1499	 0.328854391760848 
1500	 0.328958664444907 
1501	 0.329057277314185 
1502	 0.32915139828097 
1503	 0.32922929161529 
1504	 0.329310731855105 
1505	 0.329404496199337 
1506	 0.329499729184471 
1507	 0.329610059764195 
1508	 0.329711212284448 
1509	 0.329805716940522 
1510	 0.329895721540666 
1511	 0.329961059921157 
1512	 0.33004097337055 
1513	 0.330138026611197 
1514	 0.330218212204046 
1515	 0.330314509472012 
1516	 0.330424857452938 
1517	 0.330505158257828 
1518	 0.330568171166703 
1519	 0.330638707933126 
1520	 0.330686323296746 
1521	 0.3307605182333 
1522	 0.330850456960202 
1523	 0.330934692875826 
1524	 0.331033975409024 
1525	 0.331118508408479 
1526	 0.331192218668448 
1527	 0.331271427357231 
1528	 0.33135388463824 
1529	 0.33142170965761 
1530	 0.331481023330753 
1531	 0.331547922305787 
1532	 0.331603025436705 
1533	 0.331670142304291 
1534	 0.331755168779985 
1535	 0.33182878154916 
1536	 0.331899650341128 
1537	 0.331964864898735 
1538	 0.332020020657889 
1539	 0.332081143759963 
1540	 0.332142847118782 
1541	 0.332207616498844 
1542	 0.332284109258252 
1543	 0.332346998654637 
1544	 0.332400871973623 
1545	 0.332454900844804 
1546	 0.332497602492944 
1547	 0.332546392083017 
1548	 0.332613257995674 
1549	 0.332669940968821 
1550	 0.332714008113784 
1551	 0.332755947116661 
1552	 0.332795579821955 
1553	 0.332839977459242 
1554	 0.33289820286858 
1555	 0.332956461923618 
1556	 0.333009406769215 
1557	 0.333059408811699 
1558	 0.333088859395809 
1559	 0.33313129785757 
1560	 0.33317209001545 
1561	 0.333198593786207 
1562	 0.333246432902774 
1563	 0.333314250615394 
1564	 0.333367148303203 
1565	 0.333422440888734 
1566	 0.333481025768465 
1567	 0.333531864939744 
1568	 0.333589194653704 
1569	 0.333666435296348 
1570	 0.333707485962506 
1571	 0.33373650027073 
1572	 0.333761825306578 
1573	 0.333756960513779 
1574	 0.333777421732536 
1575	 0.33380384798584 
1576	 0.333831431108508 
1577	 0.333877165233024 
1578	 0.333899337984327 
1579	 0.333913790784409 
1580	 0.333924616020335 
1581	 0.333918990886088 
1582	 0.333922785065495 
1583	 0.333917997982238 
1584	 0.333936359016167 
1585	 0.333960207893783 
1586	 0.33399520449078 
1587	 0.334061297770616 
1588	 0.334109630926052 
1589	 0.334165593402312 
1590	 0.334205428581533 
1591	 0.33423234035889 
1592	 0.334253200898616 
1593	 0.334259643395865 
1594	 0.334268723997397 
1595	 0.334263464850964 
1596	 0.334278169097067 
1597	 0.334307588538162 
1598	 0.33432713246498 
1599	 0.334365698318946 
1600	 0.334381120904511 
1601	 0.334351870675924 
1602	 0.334363414035145 
1603	 0.33439444792397 
1604	 0.33441660322792 
1605	 0.334467261043753 
1606	 0.334505838937455 
1607	 0.33453898354462 
1608	 0.334544182387822 
1609	 0.334568835007237 
1610	 0.33458673461295 
1611	 0.334575290327337 
1612	 0.334573391985322 
1613	 0.334582454153355 
1614	 0.334569191501349 
1615	 0.334550712999967 
1616	 0.334549992102338 
1617	 0.334559842096094 
1618	 0.334567148708452 
1619	 0.334565765176751 
1620	 0.334577278645052 
1621	 0.334581206786063 
1622	 0.334561305254805 
1623	 0.334563895944855 
1624	 0.334587839118048 
1625	 0.334593339624611 
1626	 0.334591157979932 
1627	 0.334594193777975 
1628	 0.334592203818888 
1629	 0.334608437455967 
1630	 0.334639245540139 
1631	 0.33464678640779 
1632	 0.334653037501093 
1633	 0.334666653789622 
1634	 0.334667581835224 
1635	 0.334673551633563 
1636	 0.334704210779292 
1637	 0.334698559292 
1638	 0.334665482413544 
1639	 0.334644897406883 
1640	 0.334610696940757 
1641	 0.33459767504342 
1642	 0.334600731741962 
1643	 0.334586676065723 
1644	 0.334570433959168 
1645	 0.334563425796696 
1646	 0.334548047060231 
1647	 0.334542831885272 
1648	 0.334549762497744 
1649	 0.334563522756635 
1650	 0.334579971452797 
1651	 0.334597808402739 
1652	 0.334634990918506 
1653	 0.334653194124512 
1654	 0.334676234231386 
1655	 0.334658346593617 
1656	 0.334615884139559 
1657	 0.334572602609464 
1658	 0.334485945219559 
1659	 0.334435693819579 
1660	 0.334395314718461 
1661	 0.334371194563461 
1662	 0.334365224593119 
1663	 0.334355389040326 
1664	 0.334363982433989 
1665	 0.334358469016558 
1666	 0.334350275566366 
1667	 0.334331784788114 
1668	 0.334306261704848 
1669	 0.334279066583787 
1670	 0.334236755763742 
1671	 0.334207551630554 
1672	 0.33418224168191 
1673	 0.334161004222602 
1674	 0.334143760066977 
1675	 0.334131043634489 
1676	 0.334117755790313 
1677	 0.334119704112928 
1678	 0.334141802719198 
1679	 0.334145877419282 
1680	 0.334165505687217 
1681	 0.334149987059076 
1682	 0.334093805635597 
1683	 0.334069029041997 
1684	 0.334041064038925 
1685	 0.334019408673075 
1686	 0.334012207535659 
1687	 0.334006412089302 
1688	 0.33400816619459 
1689	 0.333990647537878 
1690	 0.333971965446086 
1691	 0.333956304505618 
1692	 0.333922968721016 
1693	 0.333897173983576 
1694	 0.333885031687755 
1695	 0.333863628328639 
1696	 0.333828075246522 
1697	 0.33380628079132 
1698	 0.333789914098476 
1699	 0.333782147027464 
1700	 0.333784723319176 
1701	 0.333780862309099 
1702	 0.333793130304022 
1703	 0.333776251604797 
1704	 0.333739858790672 
1705	 0.333707889375889 
1706	 0.33364970257499 
1707	 0.333626417087712 
1708	 0.333630054659648 
1709	 0.333608628835019 
1710	 0.333595544796439 
1711	 0.33356810273641 
1712	 0.33350945603575 
1713	 0.333481572727884 
1714	 0.333475931807778 
1715	 0.333446505113911 
1716	 0.333400211087315 
1717	 0.333388153849011 
1718	 0.333382594546493 
1719	 0.333374555035729 
1720	 0.333405478156255 
1721	 0.33339938502691 
1722	 0.333368291078763 
1723	 0.33333248199012 
1724	 0.333291642207991 
1725	 0.333233785239252 
1726	 0.333146151880938 
1727	 0.333081640379797 
1728	 0.33300954585095 
1729	 0.332964907354011 
1730	 0.332947282876192 
1731	 0.332910317618222 
1732	 0.332894255656086 
1733	 0.3328300727076 
1734	 0.332736472480459 
1735	 0.332640305996731 
1736	 0.332503070932013 
1737	 0.332420320993546 
1738	 0.332357038953985 
1739	 0.332291945556449 
1740	 0.332255481846829 
1741	 0.332193831822611 
1742	 0.33210752505301 
1743	 0.33206490732347 
1744	 0.332045876336365 
1745	 0.332000392131966 
1746	 0.331969485549634 
1747	 0.331911106543952 
1748	 0.331833564141113 
1749	 0.331743893506797 
1750	 0.331669578995462 
1751	 0.33161159381153 
1752	 0.331540223489058 
1753	 0.331460744815309 
1754	 0.331393122331986 
1755	 0.33131454069056 
1756	 0.331235320759271 
1757	 0.331180255988125 
1758	 0.33112235812332 
1759	 0.331053513158858 
1760	 0.331000747323941 
1761	 0.330936210527647 
1762	 0.330865248279098 
1763	 0.330810838895758 
1764	 0.330758855882552 
1765	 0.330749497208373 
1766	 0.330754926131181 
1767	 0.33073047087717 
1768	 0.3307092733954 
1769	 0.330684306956018 
1770	 0.330647120925065 
1771	 0.330616931693016 
1772	 0.330550000624604 
1773	 0.330453122458575 
1774	 0.330375974003884 
1775	 0.330279443456304 
1776	 0.33019914419092 
1777	 0.330159717157724 
1778	 0.330102712198672 
1779	 0.33006900361558 
1780	 0.330047491986083 
1781	 0.330010707244079 
1782	 0.329986770502268 
1783	 0.329961428287354 
1784	 0.329934870538166 
1785	 0.32989129730246 
1786	 0.32985381181461 
1787	 0.329814888839067 
1788	 0.32979305147318 
1789	 0.329792658499447 
1790	 0.329791675192929 
1791	 0.329798207804709 
1792	 0.329804333607462 
1793	 0.329815829257166 
1794	 0.329805821888384 
1795	 0.329807556452818 
1796	 0.329766135641529 
1797	 0.329673918510549 
1798	 0.329614490386833 
1799	 0.329537859546239 
1800	 0.329494786986409 
1801	 0.327464471528174 
1802	 0.327524906499037 
1803	 0.327604754894412 
1804	 0.327706497436042 
1805	 0.327798719431667 
1806	 0.327876946462442 
1807	 0.327994984492473 
1808	 0.32808794357082 
1809	 0.328173438465124 
1810	 0.328252392735058 
1811	 0.328338210589769 
1812	 0.328393007453043 
1813	 0.328434283639845 
1814	 0.328485784900904 
1815	 0.328500498982288 
1816	 0.328499586158516 
1817	 0.328495384690047 
1818	 0.328462019950087 
1819	 0.328455662298237 
1820	 0.328462713295036 
1821	 0.328448517332637 
1822	 0.328452134762182 
1823	 0.328468461484539 
1824	 0.32846197885219 
1825	 0.328477808857738 
1826	 0.328531289009429 
1827	 0.328548077217505 
1828	 0.328547633187419 
1829	 0.328540802084778 
1830	 0.328531870123715 
1831	 0.328495217355824 
1832	 0.328472315707813 
1833	 0.328437589718835 
1834	 0.328408554984717 
1835	 0.328365945336902 
1836	 0.328319905569302 
1837	 0.328305034345475 
1838	 0.328284961760157 
1839	 0.328283834632075 
1840	 0.328304821035453 
1841	 0.328307339697483 
1842	 0.32828647997221 
1843	 0.328298049082354 
1844	 0.328277403242934 
1845	 0.328236944842804 
1846	 0.328217923756942 
1847	 0.328184686515308 
1848	 0.328115696421509 
1849	 0.328055649894958 
1850	 0.328021772046415 
1851	 0.328004539798214 
1852	 0.327979150518177 
1853	 0.327975396341428 
1854	 0.327980074999059 
1855	 0.327969576302943 
1856	 0.327947499711949 
1857	 0.327922054451607 
1858	 0.327865872049022 
1859	 0.327738948221616 
1860	 0.327598081502328 
1861	 0.327434025037477 
1862	 0.327221052716219 
1863	 0.326960729141691 
1864	 0.326721380356873 
1865	 0.326460826255778 
1866	 0.326191563022274 
1867	 0.325926545826342 
1868	 0.32563709726574 
1869	 0.325334220814299 
1870	 0.325007167955233 
1871	 0.324676771633088 
1872	 0.324341673833602 
1873	 0.324014454544206 
1874	 0.323655416245058 
1875	 0.323287245713229 
1876	 0.32289647540834 
1877	 0.322456230409965 
1878	 0.321951506666639 
1879	 0.321395782533976 
1880	 0.320781728899746 
1881	 0.320092035798197 
1882	 0.319371603757532 
1883	 0.318622381387068 
1884	 0.317782515819232 
1885	 0.316891219316139 
1886	 0.315947188019707 
1887	 0.314925500955915 
1888	 0.313869031328062 
1889	 0.312739212635343 
1890	 0.311590293129013 
1891	 0.310417968499386 
1892	 0.30918787662472 
1893	 0.307952021371326 
1894	 0.306723760191816 
1895	 0.305441294666896 
1896	 0.304075732606531 
1897	 0.302688184567871 
1898	 0.301274418806549 
1899	 0.299853838191484 
1900	 0.298471584992879 
1901	 0.297127173576312 
1902	 0.295819354203273 
1903	 0.294532453952176 
1904	 0.293304679842405 
1905	 0.292115479882679 
1906	 0.291002948259495 
1907	 0.289911679874504 
1908	 0.288845843999482 
1909	 0.28784286656923 
1910	 0.286819087040846 
1911	 0.285847001301975 
1912	 0.284940598617376 
1913	 0.284059752276183 
1914	 0.283206035482273 
1915	 0.282407551671034 
1916	 0.281651427433831 
1917	 0.28092959716757 
1918	 0.280277561327279 
1919	 0.279654884379167 
1920	 0.279100886520646 
1921	 0.278614275406763 
1922	 0.278160465251953 
1923	 0.277774710194438 
1924	 0.277417623614548 
1925	 0.277094031464922 
1926	 0.276826356911762 
1927	 0.276604367403059 
1928	 0.276423747110714 
1929	 0.276305180593989 
1930	 0.276227008681409 
1931	 0.276171938659646 
1932	 0.276122418130403 
1933	 0.276084019186265 
1934	 0.276087665298948 
1935	 0.276122431392363 
1936	 0.27619838575871 
1937	 0.276282248731743 
1938	 0.276407737162466 
1939	 0.276522996244264 
1940	 0.276626346552647 
1941	 0.276760742099085 
1942	 0.276940503910493 
1943	 0.277146321554331 
1944	 0.277392558721105 
1945	 0.277649444409995 
1946	 0.277907473420167 
1947	 0.278166347178699 
1948	 0.278444013571306 
1949	 0.278749455403813 
1950	 0.279040407755349 
1951	 0.279343173705992 
1952	 0.279621847655763 
1953	 0.279903460327075 
1954	 0.280187062417215 
1955	 0.280495951633185 
1956	 0.280825855267819 
1957	 0.281145630033685 
1958	 0.281475803267055 
1959	 0.28180060803804 
1960	 0.282111767905184 
1961	 0.282443218744717 
1962	 0.282783787922299 
1963	 0.283134748964464 
1964	 0.283504554079467 
1965	 0.283869260150847 
1966	 0.284233515593884 
1967	 0.284587649853672 
1968	 0.28494726217601 
1969	 0.28529963356603 
1970	 0.28565666002896 
1971	 0.28601822001061 
1972	 0.286385554759961 
1973	 0.286752889594075 
1974	 0.287123264025328 
1975	 0.287497564114316 
1976	 0.287878530290216 
1977	 0.28827383861206 
1978	 0.288670238220102 
1979	 0.289035016168166 
1980	 0.289414882025645 
1981	 0.289788202501214 
1982	 0.290132695330081 
1983	 0.290496407345631 
1984	 0.290885783907135 
1985	 0.291254730074459 
1986	 0.291604162240045 
1987	 0.29197299282563 
1988	 0.292349823536936 
1989	 0.29272331344934 
1990	 0.293102520318473 
1991	 0.29348765522779 
1992	 0.293875377784283 
1993	 0.294272585855607 
1994	 0.294653468179406 
1995	 0.295034340559515 
1996	 0.295407189764104 
1997	 0.295759774925109 
1998	 0.296125646965634 
1999	 0.296503297280868 
2000	 0.296870541593959 
2001	 0.297251162959297 
2002	 0.297590607446449 
2003	 0.297940586668662 
2004	 0.298300846289596 
2005	 0.298651445525429 
2006	 0.299005731363784 
2007	 0.299356286089331 
2008	 0.299692512538005 
2009	 0.300037133320549 
2010	 0.300384074179838 
2011	 0.300734208090957 
2012	 0.301091936746848 
2013	 0.301445872211929 
2014	 0.301809220480964 
2015	 0.302155962675859 
2016	 0.302486953036078 
2017	 0.302833427721115 
2018	 0.303174623613093 
2019	 0.303506425750433 
2020	 0.303847673652582 
2021	 0.304207161802925 
2022	 0.304544380440402 
2023	 0.304871500003923 
2024	 0.305202991680743 
2025	 0.305534619474792 
2026	 0.305847814662489 
2027	 0.30615003024636 
2028	 0.306457231364012 
2029	 0.306756134117526 
2030	 0.307026490994336 
2031	 0.307335987533771 
2032	 0.307659284451521 
2033	 0.307990880654657 
2034	 0.308348951860295 
2035	 0.308689009948481 
2036	 0.30904525561411 
2037	 0.309372669201092 
2038	 0.30968377213048 
2039	 0.309983932774264 
2040	 0.310266315121298 
2041	 0.310540615557248 
2042	 0.310790685881217 
2043	 0.31105312475894 
2044	 0.311312336239969 
2045	 0.311564574407994 
2046	 0.311816356498066 
2047	 0.312079415321837 
2048	 0.312323158193266 
2049	 0.312547394181077 
2050	 0.312781124512627 
2051	 0.313002821779341 
2052	 0.313238667179053 
2053	 0.313494559794024 
2054	 0.31373618766021 
2055	 0.313968945641664 
2056	 0.314216686542759 
2057	 0.314450466680774 
2058	 0.314674757369878 
2059	 0.314893484255515 
2060	 0.315102638058565 
2061	 0.315322087240646 
2062	 0.315526552523713 
2063	 0.315757213203784 
2064	 0.316011503754903 
2065	 0.316260266782726 
2066	 0.316536219538059 
2067	 0.31678028820821 
2068	 0.317010628614307 
2069	 0.317234654417067 
2070	 0.317449765065364 
2071	 0.317637663607214 
2072	 0.317850544254317 
2073	 0.318070308799665 
2074	 0.318287350249759 
2075	 0.3185082273359 
2076	 0.318729156231314 
2077	 0.318949008245853 
2078	 0.31917135656018 
2079	 0.31939537159372 
2080	 0.319621484230053 
2081	 0.319857674183035 
2082	 0.320080473786419 
2083	 0.320294138303563 
2084	 0.320517014006331 
2085	 0.320728476068534 
2086	 0.32092517483028 
2087	 0.321135355870219 
2088	 0.321350737608202 
2089	 0.321561697759216 
2090	 0.321775204150332 
2091	 0.321985116517489 
2092	 0.322189911134872 
2093	 0.322397359029267 
2094	 0.322605628023244 
2095	 0.322812785536798 
2096	 0.323034529138537 
2097	 0.323230887323827 
2098	 0.323415020679237 
2099	 0.323593832615144 
2100	 0.323758891055989 
2101	 0.323894919009329 
2102	 0.324056781704274 
2103	 0.324211350992057 
2104	 0.32439410817076 
2105	 0.324583138714971 
2106	 0.324799397963903 
2107	 0.325054477942572 
2108	 0.325293180441252 
2109	 0.325560178055148 
2110	 0.325799329785496 
2111	 0.326016848444823 
2112	 0.326238663639622 
2113	 0.326443961764074 
2114	 0.326656806216395 
2115	 0.326885250869443 
2116	 0.327127817576946 
2117	 0.327354289107584 
2118	 0.327593101377348 
2119	 0.327811201764511 
2120	 0.328004832933393 
2121	 0.328217459039619 
2122	 0.328437395222901 
2123	 0.328644942324339 
2124	 0.328859047162775 
2125	 0.329057278816255 
2126	 0.32925029378358 
2127	 0.329423048886438 
2128	 0.329580956534734 
2129	 0.32972822075725 
2130	 0.329851287715511 
2131	 0.329967943483252 
2132	 0.330090556162796 
2133	 0.330224760414403 
2134	 0.330315744811391 
2135	 0.33039566126238 
2136	 0.330455800160535 
2137	 0.330485754214617 
2138	 0.330501247946899 
2139	 0.330502684378275 
2140	 0.330490637207243 
2141	 0.330427113387497 
2142	 0.330401441623112 
2143	 0.330399530043389 
2144	 0.330379304251868 
2145	 0.330374887166802 
2146	 0.330349219079087 
2147	 0.330330965666709 
2148	 0.330250823862777 
2149	 0.330165221220791 
2150	 0.33005907532217 
2151	 0.329947263852927 
2152	 0.329811276297753 
2153	 0.329666177234911 
2154	 0.329502898468216 
2155	 0.329353631788618 
2156	 0.32918767650774 
2157	 0.329034901331994 
2158	 0.328914613080889 
2159	 0.328762959660804 
2160	 0.328601408236243 
2161	 0.328424282777276 
2162	 0.328221275492085 
2163	 0.328025407480892 
2164	 0.327833333905237 
2165	 0.327614682617065 
2166	 0.327403338248356 
2167	 0.327182686734538 
2168	 0.326987210353142 
2169	 0.326801661472969 
2170	 0.326605873139378 
2171	 0.32642949890074 
2172	 0.326232160438071 
2173	 0.32601268808789 
2174	 0.325797827865712 
2175	 0.325581077451464 
2176	 0.325368720298785 
2177	 0.325145680609536 
2178	 0.324934186400224 
2179	 0.324723456553436 
2180	 0.324529612196156 
2181	 0.324362940405025 
2182	 0.324178149080965 
2183	 0.323995519485644 
2184	 0.323806990804589 
2185	 0.323634749671987 
2186	 0.323449587174389 
2187	 0.323292538516585 
2188	 0.323178339229084 
2189	 0.323020568034927 
2190	 0.322843905458874 
2191	 0.322682766936207 
2192	 0.322516085099021 
2193	 0.322347784260124 
2194	 0.322182091270476 
2195	 0.322023661187623 
2196	 0.321858765319018 
2197	 0.321700672055831 
2198	 0.321549574425451 
2199	 0.321413934678658 
2200	 0.321277649517813 
2201	 0.321154658413223 
2202	 0.321047468241093 
2203	 0.320966838157191 
2204	 0.320868814830534 
2205	 0.320771995756251 
2206	 0.320673974842475 
2207	 0.320575309130746 
2208	 0.320472427152205 
2209	 0.320352105796232 
2210	 0.320272928769672 
2211	 0.320204866467648 
2212	 0.32015057055064 
2213	 0.320138971112876 
2214	 0.320104585306335 
2215	 0.320061291923411 
2216	 0.320029430054443 
2217	 0.320003983179435 
2218	 0.319973520619532 
2219	 0.319958793137409 
2220	 0.319920954404036 
2221	 0.319851643217981 
2222	 0.319812837696254 
2223	 0.319760707788672 
2224	 0.319685400815977 
2225	 0.319630335214936 
2226	 0.319584192009831 
2227	 0.319529668624402 
2228	 0.319483137787276 
2229	 0.319422156374012 
2230	 0.319352339259114 
2231	 0.319279758525614 
2232	 0.319194067526813 
2233	 0.31911404833174 
2234	 0.319032164843233 
2235	 0.31894892612837 
2236	 0.318845267216039 
2237	 0.318790763033146 
2238	 0.318755458816234 
2239	 0.318731779042747 
2240	 0.318779108932487 
2241	 0.318763683463663 
2242	 0.318723190679264 
2243	 0.318677794997003 
2244	 0.31860866150213 
2245	 0.318516187651444 
2246	 0.318450147282657 
2247	 0.318370386167862 
2248	 0.318321163891254 
2249	 0.318291296347919 
2250	 0.318247540288974 
2251	 0.318212681030827 
2252	 0.318189115448943 
2253	 0.318153153022279 
2254	 0.318139714857447 
2255	 0.318165399955098 
2256	 0.318160433456258 
2257	 0.318149433912587 
2258	 0.318136879363791 
2259	 0.318097974980221 
2260	 0.31809445745256 
2261	 0.318118543992206 
2262	 0.318121356225996 
2263	 0.318124635998554 
2264	 0.318140286690864 
2265	 0.318150359330573 
2266	 0.318158153967224 
2267	 0.31819738980488 
2268	 0.318210771387989 
2269	 0.31819507901693 
2270	 0.318190967011581 
2271	 0.318162254027288 
2272	 0.318109065621125 
2273	 0.318056866993765 
2274	 0.318027763887558 
2275	 0.31798861775524 
2276	 0.317961733487905 
2277	 0.317930161397421 
2278	 0.31788007682166 
2279	 0.317848995465067 
2280	 0.317830765982703 
2281	 0.317818032833106 
2282	 0.317823895124127 
2283	 0.317811816699411 
2284	 0.317813254989876 
2285	 0.317785888180158 
2286	 0.317711200962979 
2287	 0.317676317679707 
2288	 0.3176451199559 
2289	 0.317619585313435 
2290	 0.317631260853123 
2291	 0.317616541713062 
2292	 0.31757535435091 
2293	 0.317555396410905 
2294	 0.317555708261528 
2295	 0.317527538319293 
2296	 0.317475852170878 
2297	 0.317465428385839 
2298	 0.31741414398292 
2299	 0.317342768447407 
2300	 0.317339269917071 
2301	 0.317288427437906 
2302	 0.317266074437277 
2303	 0.317290769660975 
2304	 0.317273219455187 
2305	 0.317259800456639 
2306	 0.317234007556093 
2307	 0.317180988334335 
2308	 0.317145076390761 
2309	 0.317132792193176 
2310	 0.317072961416212 
2311	 0.316998268233088 
2312	 0.316909354682191 
2313	 0.316774110524251 
2314	 0.316659759261074 
2315	 0.316553314768371 
2316	 0.316423608903745 
2317	 0.316266977877469 
2318	 0.316155015172176 
2319	 0.31604626732366 
2320	 0.315957596149647 
2321	 0.315885379257027 
2322	 0.315839134013088 
2323	 0.31585191676732 
2324	 0.315807179661226 
2325	 0.315759443934587 
2326	 0.315711548613108 
2327	 0.315634088049721 
2328	 0.315528605378248 
2329	 0.31547615445528 
2330	 0.315444871595082 
2331	 0.315363083314697 
2332	 0.31525731594104 
2333	 0.315160624887741 
2334	 0.315099480363903 
2335	 0.315036110052513 
2336	 0.314932802888787 
2337	 0.314812716510045 
2338	 0.314657715037228 
2339	 0.314506813075787 
2340	 0.314385660352443 
2341	 0.314277635003886 
2342	 0.314142338810689 
2343	 0.313915152303626 
2344	 0.31373427623733 
2345	 0.313574002877232 
2346	 0.313410568315211 
2347	 0.31320297262553 
2348	 0.313032536977312 
2349	 0.312793188532785 
2350	 0.312460486894171 
2351	 0.31218774961544 
2352	 0.31192872254446 
2353	 0.311654067588309 
2354	 0.311352235719095 
2355	 0.311084529579094 
2356	 0.310853354304357 
2357	 0.310611061886104 
2358	 0.310360135407169 
2359	 0.31014529171979 
2360	 0.30993901718117 
2361	 0.309734435679468 
2362	 0.309630397812672 
2363	 0.30940075120244 
2364	 0.309057362778501 
2365	 0.308766574276647 
2366	 0.308427847922828 
2367	 0.308119765307896 
2368	 0.307867280428855 
2369	 0.307593657736699 
2370	 0.307318272109612 
2371	 0.307011996380789 
2372	 0.306722173754135 
2373	 0.306475754655377 
2374	 0.306209901374736 
2375	 0.305923516265866 
2376	 0.305649669907299 
2377	 0.305388698140697 
2378	 0.305092371429565 
2379	 0.304774088316586 
2380	 0.304436641751405 
2381	 0.304077662180406 
2382	 0.303730824288895 
2383	 0.303445925497905 
2384	 0.303211704970195 
2385	 0.302955553788459 
2386	 0.302647005779611 
2387	 0.30229926864485 
2388	 0.301979620182895 
2389	 0.30164060796077 
2390	 0.301268421247156 
2391	 0.300977596968185 
2392	 0.300682826830823 
2393	 0.300299079007035 
2394	 0.299998089487485 
2395	 0.299771275382017 
2396	 0.299475271841309 
2397	 0.299142045056009 
2398	 0.298794979726334 
2399	 0.298393848284453 
2400	 0.298000729052152 
2401	 0.297658127109257 
2402	 0.297399094339179 
2403	 0.297225872711337 
2404	 0.296922072883132 
2405	 0.296608665489424 
2406	 0.29639051911564 
2407	 0.296062875412422 
2408	 0.295816553145516 
2409	 0.295653617032293 
2410	 0.295362274642826 
2411	 0.295052679029333 
2412	 0.29471631855298 
2413	 0.294351931631064 
2414	 0.29408802826797 
2415	 0.293821044701222 
2416	 0.293498208424645 
2417	 0.293200749555565 
2418	 0.292852535704394 
2419	 0.29233849251698 
2420	 0.29201747147986 
2421	 0.291852948943309 
2422	 0.291553686714666 
2423	 0.291277769828826 
2424	 0.290981763705051 
2425	 0.290540146575881 
2426	 0.290209022283586 
2427	 0.289987309526261 
2428	 0.289755211875723 
2429	 0.289564783672216 
2430	 0.28929090732092 
2431	 0.288940405175249 
2432	 0.288674157872593 
2433	 0.288415574105464 
2434	 0.288175420602914 
2435	 0.288052475936888 
2436	 0.287824057986723 
2437	 0.287510736807548 
2438	 0.287182697506178 
2439	 0.286838710607177 
2440	 0.286489506044571 
2441	 0.286058364589716 
2442	 0.285727566405954 
2443	 0.285515282010907 
2444	 0.285196935140049 
2445	 0.284808043376484 
2446	 0.284486924149544 
2447	 0.284097281308755 
2448	 0.283741310483971 
2449	 0.283577598450655 
2450	 0.283270853539857 
2451	 0.282857569537118 
2452	 0.282502092747665 
2453	 0.282064689469625 
2454	 0.281685206765039 
2455	 0.28137676689323 
2456	 0.281009652715232 
2457	 0.280637842559736 
2458	 0.280292898850317 
2459	 0.279970672339551 
2460	 0.279640775078519 
2461	 0.279272238111235 
2462	 0.278959962138934 
2463	 0.278605612670463 
2464	 0.278388698883558 
2465	 0.278392943734262 
2466	 0.278195771748026 
2467	 0.27797389352685 
2468	 0.277689747935442 
2469	 0.277272844571735 
2470	 0.276932195467658 
2471	 0.276532106499801 
2472	 0.276249994506519 
2473	 0.275779962780583 
2474	 0.275220532904568 
2475	 0.274846068193981 
2476	 0.274440260042147 
2477	 0.274211683650542 
2478	 0.274002416785895 
2479	 0.273650030752866 
2480	 0.273348162613633 
2481	 0.272940128284321 
2482	 0.272495662055026 
2483	 0.272327651860432 
2484	 0.272143150202095 
2485	 0.271813620681933 
2486	 0.271742443644101 
2487	 0.271620597277183 
2488	 0.271383298324101 
2489	 0.271266608682788 
2490	 0.270839096978603 
2491	 0.270176914065473 
2492	 0.269731951145718 
2493	 0.26934424633553 
2494	 0.269072091011182 
2495	 0.269096864873614 
2496	 0.268896423015801 
2497	 0.268427990286648 
2498	 0.268190207676639 
2499	 0.267910210603809 
2500	 0.267458557418301 
