Wavelength	LMW800017.asd
350	 0.061380474952407 
351	 5.86808775716862E-02 
352	 5.12635279045297E-02 
353	 4.82122945225003E-02 
354	 5.46441759917318E-02 
355	 0.0546985614096 
356	 5.05567175803477E-02 
357	 4.85880157017033E-02 
358	 5.09394870748087E-02 
359	 5.18851217357332E-02 
360	 5.09069615328983E-02 
361	 5.07059760199635E-02 
362	 4.83439095518247E-02 
363	 0.048033750505131 
364	 5.02507865158038E-02 
365	 4.83269999085824E-02 
366	 4.84775789061503E-02 
367	 5.07433268226884E-02 
368	 5.32149772541611E-02 
369	 5.40280845218805E-02 
370	 5.16762517511355E-02 
371	 4.98997168371163E-02 
372	 5.45501680128381E-02 
373	 5.31049786817768E-02 
374	 0.051291754750971 
375	 0.052879937191102 
376	 5.43208505675423E-02 
377	 5.24434318317969E-02 
378	 5.10486314668372E-02 
379	 5.37530924714408E-02 
380	 5.35304306250388E-02 
381	 5.34271488366554E-02 
382	 5.44294734753787E-02 
383	 5.56511586761905E-02 
384	 5.67125968828813E-02 
385	 5.52352569071075E-02 
386	 5.20622809741667E-02 
387	 0.054698956010714 
388	 5.62362496007361E-02 
389	 5.56321443110909E-02 
390	 5.42895818756717E-02 
391	 0.055310948988723 
392	 5.58991232243574E-02 
393	 5.59712968880317E-02 
394	 5.77508250095013E-02 
395	 5.84840105774078E-02 
396	 0.0586156696273 
397	 5.89649965468476E-02 
398	 6.02247738404757E-02 
399	 5.95186901432716E-02 
400	 5.90070562611575E-02 
401	 6.14520983795933E-02 
402	 6.20339765276741E-02 
403	 6.14776562855143E-02 
404	 6.08754572163015E-02 
405	 6.12186386626914E-02 
406	 6.11049135557772E-02 
407	 6.12046074200999E-02 
408	 6.17849923578791E-02 
409	 0.060962300308918 
410	 6.04446273820091E-02 
411	 6.06188849788071E-02 
412	 6.11321671124155E-02 
413	 6.13101723907261E-02 
414	 0.061647604467503 
415	 6.19841517601744E-02 
416	 6.11815420614091E-02 
417	 6.06826141698199E-02 
418	 6.08483483928114E-02 
419	 6.14911730912781E-02 
420	 0.061770855618008 
421	 0.061268808017091 
422	 6.05898497685663E-02 
423	 6.08466487797951E-02 
424	 6.12779043207056E-02 
425	 6.11574034298447E-02 
426	 0.060473826087113 
427	 6.04059271412742E-02 
428	 6.06749171069784E-02 
429	 6.08440513690002E-02 
430	 6.05846742802924E-02 
431	 6.04684980180582E-02 
432	 6.03973004907637E-02 
433	 6.04262211080193E-02 
434	 0.060770670256595 
435	 6.11303491538627E-02 
436	 6.12112312002577E-02 
437	 6.09291093239991E-02 
438	 0.060653701128578 
439	 6.05188270356177E-02 
440	 6.07096820905747E-02 
441	 6.12629967786262E-02 
442	 6.09294130530231E-02 
443	 6.07175513089413E-02 
444	 6.10592724161935E-02 
445	 6.11975511507356E-02 
446	 6.13794361902419E-02 
447	 6.15887271323173E-02 
448	 6.17166216076085E-02 
449	 6.14740416558692E-02 
450	 6.16287393152913E-02 
451	 6.21421055862662E-02 
452	 6.22921373957109E-02 
453	 6.22497585549044E-02 
454	 6.22068404751653E-02 
455	 0.062301537976733 
456	 6.25521695476558E-02 
457	 6.25997057088952E-02 
458	 6.25015344224533E-02 
459	 6.25279745368914E-02 
460	 6.29349222876529E-02 
461	 6.30423270804353E-02 
462	 6.27594835128462E-02 
463	 0.062917920922677 
464	 6.31971888440104E-02 
465	 6.33306297619455E-02 
466	 6.32029254361617E-02 
467	 6.32620354433268E-02 
468	 6.33744781760474E-02 
469	 6.34378148124651E-02 
470	 6.33934282617572E-02 
471	 6.32489545682462E-02 
472	 0.063310511686114 
473	 6.36171818222135E-02 
474	 6.34549622016907E-02 
475	 6.34276643240667E-02 
476	 6.35449794108593E-02 
477	 6.35913964515226E-02 
478	 6.37508801026703E-02 
479	 6.37798331640352E-02 
480	 6.36800220371073E-02 
481	 6.38355533327397E-02 
482	 6.39179413809874E-02 
483	 6.39631155149016E-02 
484	 6.40549013325529E-02 
485	 6.40417734438776E-02 
486	 0.064099496620903 
487	 0.064177772053752 
488	 6.40580583204395E-02 
489	 6.40892834767066E-02 
490	 6.40664891599056E-02 
491	 6.39122309052485E-02 
492	 6.41336102558518E-02 
493	 6.41747717756709E-02 
494	 6.40454981362868E-02 
495	 6.40193293627476E-02 
496	 0.064185285069366 
497	 0.064178010233254 
498	 6.40080968802278E-02 
499	 6.43182561581835E-02 
500	 6.42859223087388E-02 
501	 6.41593302015533E-02 
502	 6.42998918238597E-02 
503	 6.40693278559879E-02 
504	 6.39935236514431E-02 
505	 6.41221183200883E-02 
506	 6.40522978528692E-02 
507	 6.39321620123071E-02 
508	 6.39136253580388E-02 
509	 6.40223000625413E-02 
510	 6.39339694546663E-02 
511	 6.39101085861635E-02 
512	 6.39424732938669E-02 
513	 6.38999904765268E-02 
514	 6.39317415363171E-02 
515	 6.39722224197586E-02 
516	 6.39810137138217E-02 
517	 0.0640047922099 
518	 6.39630252633338E-02 
519	 6.39053898159503E-02 
520	 0.063908019793066 
521	 6.39404107469287E-02 
522	 6.39892549969349E-02 
523	 0.064028422330284 
524	 6.40202449985974E-02 
525	 6.40707916881908E-02 
526	 6.41112117802257E-02 
527	 6.40836430341698E-02 
528	 6.40951126997732E-02 
529	 6.40770001571511E-02 
530	 6.40589390023265E-02 
531	 0.064123606404464 
532	 6.41695350503712E-02 
533	 6.42071103227162E-02 
534	 6.42497038894863E-02 
535	 6.42804816058896E-02 
536	 6.43200045271887E-02 
537	 6.43428349268593E-02 
538	 6.43257699686138E-02 
539	 6.43865815198309E-02 
540	 6.44502674556196E-02 
541	 6.44801346181096E-02 
542	 6.45102596830075E-02 
543	 6.45374362848645E-02 
544	 6.45898580009105E-02 
545	 6.46783044123295E-02 
546	 0.064725093046221 
547	 6.47072857435794E-02 
548	 6.46807444752894E-02 
549	 6.47563514630716E-02 
550	 6.48023148009299E-02 
551	 0.064863381172842 
552	 6.49704752986531E-02 
553	 0.065029679141875 
554	 0.065126164113596 
555	 0.065225514805521 
556	 6.52498851087416E-02 
557	 6.53363278034263E-02 
558	 6.54370314999898E-02 
559	 6.55283389865195E-02 
560	 6.56710320747915E-02 
561	 6.57765156333006E-02 
562	 6.58730446167218E-02 
563	 6.60207490524475E-02 
564	 6.62163315186401E-02 
565	 6.63824373749909E-02 
566	 6.65189660459666E-02 
567	 6.67154891290686E-02 
568	 6.69773286045749E-02 
569	 6.72235369209119E-02 
570	 6.74039633258158E-02 
571	 6.76406859697862E-02 
572	 6.79286000578328E-02 
573	 6.82512029036391E-02 
574	 6.85783312381927E-02 
575	 6.88320959853344E-02 
576	 6.91100350299266E-02 
577	 6.94633085094547E-02 
578	 6.97753844127315E-02 
579	 7.01404954392797E-02 
580	 0.070553497463588 
581	 7.09739924785562E-02 
582	 7.14289715684365E-02 
583	 7.19105233133862E-02 
584	 7.23906895356553E-02 
585	 7.28156414376549E-02 
586	 0.073332003727002 
587	 7.38778368863578E-02 
588	 7.43740242867202E-02 
589	 7.49649861112924E-02 
590	 7.55573308676181E-02 
591	 7.61127439576638E-02 
592	 7.66544037613084E-02 
593	 7.72324070457678E-02 
594	 7.78487769554474E-02 
595	 7.84736306204037E-02 
596	 7.90194903067287E-02 
597	 0.079613299691318 
598	 8.02515592110568E-02 
599	 8.08654960081158E-02 
600	 8.14775774687054E-02 
601	 8.20914600117885E-02 
602	 8.26816847601194E-02 
603	 8.31700632573536E-02 
604	 0.08366284948717 
605	 8.41961386627399E-02 
606	 8.47615335368359E-02 
607	 8.52603392974648E-02 
608	 8.57662623136111E-02 
609	 8.62953234114016E-02 
610	 8.67877673686926E-02 
611	 8.72535192491017E-02 
612	 8.77064911924671E-02 
613	 8.81452650915778E-02 
614	 8.85131331637685E-02 
615	 8.88691960229487E-02 
616	 8.92305600613805E-02 
617	 8.95809666581572E-02 
618	 8.99121715348421E-02 
619	 9.01928553983385E-02 
620	 9.04283969961539E-02 
621	 9.07075785783651E-02 
622	 9.09795207977432E-02 
623	 9.12115008321602E-02 
624	 9.13986010608106E-02 
625	 9.16756318497314E-02 
626	 9.19505502007168E-02 
627	 9.21684157509143E-02 
628	 9.23472748851975E-02 
629	 9.25629185483041E-02 
630	 9.27933745869679E-02 
631	 9.29937794635336E-02 
632	 9.31489394548539E-02 
633	 9.33049851544381E-02 
634	 9.34920060961605E-02 
635	 9.37186010148755E-02 
636	 9.38926750653719E-02 
637	 9.40544999287515E-02 
638	 9.42366790272874E-02 
639	 9.43912194231547E-02 
640	 9.45398136856474E-02 
641	 9.47153684208805E-02 
642	 9.49421417799335E-02 
643	 9.51364342097809E-02 
644	 9.53238335382574E-02 
645	 9.55233316474463E-02 
646	 9.57292959386013E-02 
647	 9.58953521634282E-02 
648	 9.60607026833565E-02 
649	 0.096274816958254 
650	 0.096515817518823 
651	 9.67476773880115E-02 
652	 9.69696847841751E-02 
653	 9.72096636495209E-02 
654	 9.74143490138064E-02 
655	 9.76287128800458E-02 
656	 9.78858647159003E-02 
657	 9.81459310910513E-02 
658	 9.84072329249701E-02 
659	 9.86576286091632E-02 
660	 9.88903673611672E-02 
661	 9.91703919877806E-02 
662	 9.94514088158557E-02 
663	 9.97333598616842E-02 
664	 0.100101733146824 
665	 0.100378382783439 
666	 0.100652427370226 
667	 0.101029322905126 
668	 0.101333130578074 
669	 0.101677503206385 
670	 0.10206378742504 
671	 0.102398338685635 
672	 0.102744838651173 
673	 0.103115046549327 
674	 0.103509605897973 
675	 0.103930881832531 
676	 0.104326420238585 
677	 0.104692431025004 
678	 0.105059641730953 
679	 0.105513097930437 
680	 0.105982741817918 
681	 0.106437375200562 
682	 0.106916454665841 
683	 0.10736873956055 
684	 0.107797403259659 
685	 0.108237428606958 
686	 0.108785422413425 
687	 0.109309741417052 
688	 0.109799476357493 
689	 0.11032648601634 
690	 0.110814781232981 
691	 0.111318037498721 
692	 0.111875240091263 
693	 0.11246788233836 
694	 0.113021353245226 
695	 0.11356634950676 
696	 0.114157511175157 
697	 0.114729684095665 
698	 0.115311906051296 
699	 0.115915769013386 
700	 0.116528008009452 
701	 0.117145402955181 
702	 0.117757670440723 
703	 0.118361905605947 
704	 0.118977142160694 
705	 0.119603307498186 
706	 0.120236277606915 
707	 0.120866867065508 
708	 0.121471704969444 
709	 0.122087661004124 
710	 0.122731427187046 
711	 0.123383640427511 
712	 0.123998834741526 
713	 0.124611267569401 
714	 0.125259213762164 
715	 0.125901408834984 
716	 0.126525994174886 
717	 0.127129907320567 
718	 0.12771577773676 
719	 0.128276547512407 
720	 0.128824751388574 
721	 0.129380090556691 
722	 0.129976506286982 
723	 0.130524673442609 
724	 0.131037268435162 
725	 0.131554402297938 
726	 0.132053694501525 
727	 0.13251766503419 
728	 0.132956248114586 
729	 0.133401599722599 
730	 0.133842334590025 
731	 0.134233659153139 
732	 0.134564218295409 
733	 0.134916323744293 
734	 0.135246714435007 
735	 0.135542483223997 
736	 0.135807170146147 
737	 0.136074262021835 
738	 0.136283407694572 
739	 0.136444491981648 
740	 0.136646577311597 
741	 0.136794123361913 
742	 0.136891636972194 
743	 0.136955725052526 
744	 0.136972229553123 
745	 0.13696200802704 
746	 0.136950535842032 
747	 0.136953211362139 
748	 0.1369068707199 
749	 0.136847561533506 
750	 0.136770508408904 
751	 0.136613347153845 
752	 0.136452963951434 
753	 0.136278094756443 
754	 0.136071276808864 
755	 0.135859848834902 
756	 0.135635963272357 
757	 0.135378833448666 
758	 0.135073705189696 
759	 0.134797124127876 
760	 0.134501282559303 
761	 0.134166952168794 
762	 0.133825005856352 
763	 0.133487047360729 
764	 0.133139800208598 
765	 0.132768257757132 
766	 0.132366654309585 
767	 0.131991117004558 
768	 0.131607439189489 
769	 0.131156798255423 
770	 0.130766878456769 
771	 0.130376013919706 
772	 0.129945044070187 
773	 0.129484221222717 
774	 0.129060038036222 
775	 0.128629311969035 
776	 0.12816254066955 
777	 0.127746878522497 
778	 0.12727210076944 
779	 0.126792535511576 
780	 0.126403223108871 
781	 0.125942839372413 
782	 0.125470869817896 
783	 0.125011000560184 
784	 0.124535734360863 
785	 0.124124505102332 
786	 0.123719943615984 
787	 0.123272050037604 
788	 0.122805869527955 
789	 0.122380840596341 
790	 0.121972142041682 
791	 0.12153629277601 
792	 0.121127189221951 
793	 0.120742803059488 
794	 0.120350150399991 
795	 0.119903394450518 
796	 0.119500992093031 
797	 0.119133166497168 
798	 0.118759826994699 
799	 0.118315877536341 
800	 0.117945826909401 
801	 0.117605280715672 
802	 0.117222500405821 
803	 0.116863816078008 
804	 0.116530997088871 
805	 0.116204025207369 
806	 0.115855774570897 
807	 0.115516302830638 
808	 0.115145778017517 
809	 0.114764993933518 
810	 0.114475865430058 
811	 0.114212400617506 
812	 0.113917120190968 
813	 0.113577722232102 
814	 0.113297447492641 
815	 0.113000508220936 
816	 0.112710663716068 
817	 0.112473752377476 
818	 0.112223932159626 
819	 0.11197435533439 
820	 0.11173111145228 
821	 0.111490194057302 
822	 0.111241262283988 
823	 0.111014671638115 
824	 0.110815238641212 
825	 0.110597619917987 
826	 0.110384816985828 
827	 0.110184757229426 
828	 0.109999989122056 
829	 0.109833836267962 
830	 0.109618055411097 
831	 0.10939357176478 
832	 0.109239537173001 
833	 0.109103427109313 
834	 0.108980113505654 
835	 0.108851170990779 
836	 0.108689722414898 
837	 0.108547382860431 
838	 0.108435075013086 
839	 0.108331690582147 
840	 0.108175170808214 
841	 0.108064998585744 
842	 0.107957861197314 
843	 0.107814392081163 
844	 0.107735074402788 
845	 0.107692861023913 
846	 0.107647425560006 
847	 0.107562126215961 
848	 0.107458166017198 
849	 0.107393130179496 
850	 0.107359337409044 
851	 0.10729786175541 
852	 0.107257920476291 
853	 0.107214110284375 
854	 0.107163532593896 
855	 0.107148842624441 
856	 0.107158994602399 
857	 0.107175897791239 
858	 0.107173712420894 
859	 0.107102508730167 
860	 0.107117073953054 
861	 0.107155574461147 
862	 0.107130192163234 
863	 0.107219948684574 
864	 0.107255038852695 
865	 0.107250379579138 
866	 0.107318518474664 
867	 0.10734073253697 
868	 0.107379112793252 
869	 0.107443156388715 
870	 0.107480232377764 
871	 0.107572136556243 
872	 0.107660200158364 
873	 0.107723025724 
874	 0.107833996668674 
875	 0.107980172457939 
876	 0.10810790786968 
877	 0.108182813448406 
878	 0.108235984674857 
879	 0.108403211327215 
880	 0.108575049217355 
881	 0.108628619247768 
882	 0.108777506707893 
883	 0.108968270656412 
884	 0.109134761649682 
885	 0.109236617917859 
886	 0.10940782962924 
887	 0.109631877109763 
888	 0.109828571907341 
889	 0.109907256076713 
890	 0.110096844981954 
891	 0.110335891186297 
892	 0.110567159368357 
893	 0.11078945728557 
894	 0.110974431216066 
895	 0.11118631812757 
896	 0.111456334819004 
897	 0.111724696095543 
898	 0.111994061983856 
899	 0.112236344870467 
900	 0.112452489073161 
901	 0.112734273445037 
902	 0.11300325039042 
903	 0.113255963937689 
904	 0.113525824504258 
905	 0.113881730222581 
906	 0.114214157629344 
907	 0.114526494560827 
908	 0.114862843622603 
909	 0.115152241426546 
910	 0.115488341558935 
911	 0.115862938789513 
912	 0.116206987573303 
913	 0.116573826597765 
914	 0.116976554249006 
915	 0.11738081407602 
916	 0.117728311384316 
917	 0.118090484358615 
918	 0.11850759369147 
919	 0.118958567422836 
920	 0.119361353143967 
921	 0.119736879964995 
922	 0.120152873591696 
923	 0.120623017689515 
924	 0.121074648986071 
925	 0.121586288118881 
926	 0.122100353933555 
927	 0.122576327374135 
928	 0.123055348110846 
929	 0.123622117313044 
930	 0.124196930988796 
931	 0.124718587742778 
932	 0.125278964547541 
933	 0.125807885588192 
934	 0.126331524059355 
935	 0.126883734770345 
936	 0.127435059506605 
937	 0.127984925572704 
938	 0.12858144767529 
939	 0.129246969878558 
940	 0.129862649254387 
941	 0.130534748783066 
942	 0.131253277943755 
943	 0.131957150942532 
944	 0.132592747086948 
945	 0.133168589657897 
946	 0.133813164253976 
947	 0.134627373848158 
948	 0.135378781414265 
949	 0.136089374658667 
950	 0.136764653751263 
951	 0.13744447183627 
952	 0.13836927496131 
953	 0.139201105479077 
954	 0.139931173859251 
955	 0.140728523578845 
956	 0.141506306663123 
957	 0.142397927108629 
958	 0.143284197394305 
959	 0.143979147377345 
960	 0.144842666665836 
961	 0.145781513011237 
962	 0.146678623976606 
963	 0.147463971425358 
964	 0.148299870975955 
965	 0.149212922057463 
966	 0.150204322271594 
967	 0.151245178165511 
968	 0.152222275980989 
969	 0.15314562738056 
970	 0.15403207674484 
971	 0.154919871346029 
972	 0.155987473944862 
973	 0.157071807737855 
974	 0.158129483132115 
975	 0.159203454880795 
976	 0.160207405404041 
977	 0.161222099380288 
978	 0.162263061376517 
979	 0.163304283512908 
980	 0.164410818704001 
981	 0.16542367080412 
982	 0.166389459459101 
983	 0.167477975047139 
984	 0.168737072070783 
985	 0.169875576008817 
986	 0.170899336958968 
987	 0.171983771945239 
988	 0.173129696318525 
989	 0.174338246993494 
990	 0.175471662317975 
991	 0.176449076002802 
992	 0.177762251862918 
993	 0.178759108608031 
994	 0.1797312743949 
995	 0.181148614017506 
996	 0.182278658066574 
997	 0.183470778996881 
998	 0.184747180159602 
999	 0.186005470901245 
1000	 0.18723394984718 
1001	 0.19008598512034 
1002	 0.191193658227861 
1003	 0.192380415219726 
1004	 0.193534215856883 
1005	 0.194710395310472 
1006	 0.195846132039378 
1007	 0.196972170871748 
1008	 0.198056908785872 
1009	 0.199117717541785 
1010	 0.200221903703151 
1011	 0.201360341898452 
1012	 0.202436845528158 
1013	 0.203500615602537 
1014	 0.204601697869074 
1015	 0.205640364679014 
1016	 0.206677197600473 
1017	 0.207740621150661 
1018	 0.208827648122672 
1019	 0.209845136847536 
1020	 0.210887833852488 
1021	 0.211970291707226 
1022	 0.212999764869743 
1023	 0.214027685528079 
1024	 0.215045687803746 
1025	 0.216043067238536 
1026	 0.217012171370803 
1027	 0.217973370234185 
1028	 0.218980298093678 
1029	 0.219952418033557 
1030	 0.220913276196769 
1031	 0.221884718908181 
1032	 0.222875474261404 
1033	 0.223828322981633 
1034	 0.224775585943734 
1035	 0.225695223634344 
1036	 0.226584220859872 
1037	 0.227509037167416 
1038	 0.228436674786388 
1039	 0.229359778480208 
1040	 0.230325188777877 
1041	 0.231286798096543 
1042	 0.232213469714465 
1043	 0.233156895627282 
1044	 0.234091079392355 
1045	 0.235024369640499 
1046	 0.235914796160618 
1047	 0.236846090778522 
1048	 0.237773328526134 
1049	 0.238635405694318 
1050	 0.239541678142859 
1051	 0.240472964277913 
1052	 0.241337243495731 
1053	 0.242239603075977 
1054	 0.24316954714787 
1055	 0.244020936701221 
1056	 0.244947214741821 
1057	 0.245839911142822 
1058	 0.246706540093339 
1059	 0.247571545097143 
1060	 0.248445994916283 
1061	 0.249275983616614 
1062	 0.250087912213459 
1063	 0.250998071818601 
1064	 0.251857467929819 
1065	 0.252669575451702 
1066	 0.253496185862021 
1067	 0.254300321192678 
1068	 0.255116503120712 
1069	 0.255935639459984 
1070	 0.256739079421303 
1071	 0.2575348468418 
1072	 0.258347704379647 
1073	 0.25913871935437 
1074	 0.259933052458968 
1075	 0.260744724038211 
1076	 0.261562254334316 
1077	 0.262297841006439 
1078	 0.263075687186589 
1079	 0.263866881436669 
1080	 0.264583789661805 
1081	 0.265340282644082 
1082	 0.266097532444472 
1083	 0.266852415920479 
1084	 0.267605752536136 
1085	 0.268364600313465 
1086	 0.269118159770265 
1087	 0.269877039691503 
1088	 0.270637396206369 
1089	 0.271383957550647 
1090	 0.27215290573905 
1091	 0.272940817836454 
1092	 0.273746324337214 
1093	 0.274567464534152 
1094	 0.275382345942287 
1095	 0.276192334394653 
1096	 0.276994589924133 
1097	 0.277805009107685 
1098	 0.278637829595013 
1099	 0.279487907617172 
1100	 0.28034932346863 
1101	 0.281229007759801 
1102	 0.282117193064501 
1103	 0.283033392492881 
1104	 0.283907664518737 
1105	 0.284818487296071 
1106	 0.285746393156279 
1107	 0.286650724855047 
1108	 0.287602288534717 
1109	 0.288547984406556 
1110	 0.289472956752305 
1111	 0.29041648409522 
1112	 0.291361179690252 
1113	 0.292320537308873 
1114	 0.29328733060339 
1115	 0.294274898299874 
1116	 0.295294109879262 
1117	 0.296296612160834 
1118	 0.297307054229703 
1119	 0.298300032914293 
1120	 0.299323791511658 
1121	 0.300334247320865 
1122	 0.301340631395468 
1123	 0.302404246192843 
1124	 0.30345536053191 
1125	 0.304503375988896 
1126	 0.305553232124448 
1127	 0.306613752633216 
1128	 0.307672548630488 
1129	 0.308729342381226 
1130	 0.309781775540184 
1131	 0.310847634379624 
1132	 0.31190150692915 
1133	 0.312932945049316 
1134	 0.313979222259499 
1135	 0.315037938960421 
1136	 0.316080170002815 
1137	 0.317141926200194 
1138	 0.318147512976345 
1139	 0.319171428796282 
1140	 0.320190183795197 
1141	 0.321207970973604 
1142	 0.322230935778471 
1143	 0.323237672854863 
1144	 0.324241542979011 
1145	 0.325222530745865 
1146	 0.326173425926566 
1147	 0.327143390897708 
1148	 0.328102996004533 
1149	 0.329066000642028 
1150	 0.330047440248057 
1151	 0.331019898915478 
1152	 0.331964185549373 
1153	 0.332912561441583 
1154	 0.333835066545348 
1155	 0.334727490780658 
1156	 0.335637977757335 
1157	 0.336558327903757 
1158	 0.337446144018863 
1159	 0.338324860635503 
1160	 0.339198336486539 
1161	 0.34004670537281 
1162	 0.340895779515349 
1163	 0.341759949655149 
1164	 0.342599588075035 
1165	 0.343424558660761 
1166	 0.344233390312953 
1167	 0.345020150488458 
1168	 0.345832285661663 
1169	 0.346628283870618 
1170	 0.347417482820999 
1171	 0.348201128381504 
1172	 0.348992292657247 
1173	 0.34975312978953 
1174	 0.350497791346907 
1175	 0.351240709576653 
1176	 0.351974985064067 
1177	 0.352692304467083 
1178	 0.353393065892138 
1179	 0.35409686908416 
1180	 0.354794650254473 
1181	 0.355479321653896 
1182	 0.356156723606755 
1183	 0.356848480412682 
1184	 0.357503578584131 
1185	 0.358130899175754 
1186	 0.358765361075467 
1187	 0.35938497422588 
1188	 0.360012063031783 
1189	 0.360652561336513 
1190	 0.361262249964989 
1191	 0.361862095778466 
1192	 0.362452124509917 
1193	 0.363023260975833 
1194	 0.363586631478404 
1195	 0.364148319692425 
1196	 0.364694251559061 
1197	 0.365215974626965 
1198	 0.365739423135725 
1199	 0.36625796365283 
1200	 0.366768571360778 
1201	 0.367281442039209 
1202	 0.367800672943128 
1203	 0.368297563491115 
1204	 0.368786737812091 
1205	 0.36926726822174 
1206	 0.369730541677487 
1207	 0.370194362933938 
1208	 0.370654807907869 
1209	 0.371110815912332 
1210	 0.371572486977587 
1211	 0.372009511627285 
1212	 0.372436258341236 
1213	 0.372850927969546 
1214	 0.373244394686044 
1215	 0.373630472429687 
1216	 0.374007714593681 
1217	 0.374367801108358 
1218	 0.374752090559402 
1219	 0.375141670593686 
1220	 0.375518295471199 
1221	 0.375924718068186 
1222	 0.376276076792416 
1223	 0.376578882300013 
1224	 0.376905589863756 
1225	 0.377217205274449 
1226	 0.377534321724749 
1227	 0.377877523925667 
1228	 0.378187368510324 
1229	 0.378469001239729 
1230	 0.378759816129743 
1231	 0.379039821985256 
1232	 0.379318412351781 
1233	 0.379596889921531 
1234	 0.379880659267006 
1235	 0.380160884775393 
1236	 0.380438809963934 
1237	 0.380708503694451 
1238	 0.380980699133935 
1239	 0.381242914720393 
1240	 0.381493641640677 
1241	 0.381742820406246 
1242	 0.382000345893378 
1243	 0.382232068252463 
1244	 0.382433400794135 
1245	 0.382653561560431 
1246	 0.382875608938641 
1247	 0.383086099382774 
1248	 0.383301966816411 
1249	 0.383514699655146 
1250	 0.383704929317799 
1251	 0.383882166413354 
1252	 0.384075263117157 
1253	 0.384272186149124 
1254	 0.384469930287566 
1255	 0.384680783194318 
1256	 0.384870802910207 
1257	 0.385060679773477 
1258	 0.385230697004264 
1259	 0.385377827118367 
1260	 0.385532151488824 
1261	 0.385667783930499 
1262	 0.385820178064922 
1263	 0.385992789730144 
1264	 0.38614503999893 
1265	 0.386283936048319 
1266	 0.386438792038535 
1267	 0.386607706018721 
1268	 0.386740881494884 
1269	 0.386893393058383 
1270	 0.387063672031725 
1271	 0.387217652686685 
1272	 0.387347496084563 
1273	 0.387515804965405 
1274	 0.387703558272054 
1275	 0.387883918225011 
1276	 0.388081093732897 
1277	 0.388272008374755 
1278	 0.38844552783569 
1279	 0.388642060189382 
1280	 0.388859741433446 
1281	 0.389066923395179 
1282	 0.38930291471463 
1283	 0.389499881782508 
1284	 0.389679935085083 
1285	 0.389843444744259 
1286	 0.389979417644432 
1287	 0.390088783794927 
1288	 0.390182069475907 
1289	 0.390255395015475 
1290	 0.39031341408148 
1291	 0.390343415176073 
1292	 0.39037549081016 
1293	 0.390400753928681 
1294	 0.39040555987425 
1295	 0.390419740232744 
1296	 0.39037708262362 
1297	 0.390280727294706 
1298	 0.390197363171224 
1299	 0.390077550056308 
1300	 0.389967812984177 
1301	 0.389875320860967 
1302	 0.389762934085453 
1303	 0.389640550501551 
1304	 0.389504903196912 
1305	 0.389352499649658 
1306	 0.389189135607407 
1307	 0.389009059778685 
1308	 0.388829426608116 
1309	 0.388667994923675 
1310	 0.388511544950763 
1311	 0.388365403594681 
1312	 0.388231424244945 
1313	 0.388103770536808 
1314	 0.387982880136535 
1315	 0.387870682354389 
1316	 0.387746057569164 
1317	 0.387679735514482 
1318	 0.387658153664459 
1319	 0.387617021172315 
1320	 0.387598485522478 
1321	 0.387593073137481 
1322	 0.387570167368081 
1323	 0.387578582535639 
1324	 0.387630200998207 
1325	 0.387662966919857 
1326	 0.387698244055493 
1327	 0.387744354890247 
1328	 0.387797582937737 
1329	 0.387871576647016 
1330	 0.387969766780738 
1331	 0.388083317687313 
1332	 0.388223849107291 
1333	 0.388399647077884 
1334	 0.388569186571614 
1335	 0.388756652336667 
1336	 0.388939122369494 
1337	 0.389120231778844 
1338	 0.389313016968371 
1339	 0.389512796699508 
1340	 0.389714036876224 
1341	 0.389929079206769 
1342	 0.390133574870519 
1343	 0.390333689865172 
1344	 0.39053617216627 
1345	 0.390732729338383 
1346	 0.390946837543996 
1347	 0.391166532294299 
1348	 0.391385021102075 
1349	 0.391582283976082 
1350	 0.391744097567639 
1351	 0.391930126226078 
1352	 0.392094975192614 
1353	 0.392300842475837 
1354	 0.392554009375399 
1355	 0.392761327399742 
1356	 0.392965272333874 
1357	 0.393155194458806 
1358	 0.393312674293417 
1359	 0.39349237366082 
1360	 0.393667783300813 
1361	 0.393865930997759 
1362	 0.394083845650485 
1363	 0.394288993320036 
1364	 0.394512996480439 
1365	 0.394722230335664 
1366	 0.394911054408937 
1367	 0.395106283025771 
1368	 0.395321326944058 
1369	 0.395516005520746 
1370	 0.395707579833238 
1371	 0.395884131419829 
1372	 0.396023494751103 
1373	 0.396147912091781 
1374	 0.396253630567872 
1375	 0.396343357191922 
1376	 0.396403598723773 
1377	 0.39644869790286 
1378	 0.396459087890296 
1379	 0.3964253549265 
1380	 0.39640282370388 
1381	 0.396347139662989 
1382	 0.396312655363159 
1383	 0.396302410974008 
1384	 0.396257068411815 
1385	 0.396233838880653 
1386	 0.396150211006783 
1387	 0.396021097845602 
1388	 0.395871205809335 
1389	 0.395700162062095 
1390	 0.395472662040616 
1391	 0.395220394451244 
1392	 0.394936031244626 
1393	 0.394606515623302 
1394	 0.394250474827518 
1395	 0.393831675547758 
1396	 0.393397072054352 
1397	 0.392949623206207 
1398	 0.392457817086898 
1399	 0.39196959698212 
1400	 0.39149348308885 
1401	 0.390975540410233 
1402	 0.390427549096591 
1403	 0.389867641376062 
1404	 0.38926647390991 
1405	 0.388691906218791 
1406	 0.3881204867415 
1407	 0.387539790896864 
1408	 0.386962672937395 
1409	 0.386388270111931 
1410	 0.385788294736943 
1411	 0.385217160218236 
1412	 0.384654522345451 
1413	 0.384116977732801 
1414	 0.383624328749964 
1415	 0.383139965668041 
1416	 0.382671336035457 
1417	 0.382239035833816 
1418	 0.381795998648087 
1419	 0.381375370557164 
1420	 0.381015496173116 
1421	 0.380666075020313 
1422	 0.380335927359909 
1423	 0.38003778825481 
1424	 0.37974903064382 
1425	 0.379474429328682 
1426	 0.379212893911645 
1427	 0.378967764546424 
1428	 0.378740616065788 
1429	 0.378523764057244 
1430	 0.378327889428536 
1431	 0.378159243008653 
1432	 0.377990278931055 
1433	 0.377832456698024 
1434	 0.377684831316718 
1435	 0.377539616100052 
1436	 0.377420471166722 
1437	 0.377327001871842 
1438	 0.377227727214531 
1439	 0.377153415433911 
1440	 0.37705758480719 
1441	 0.376938920372277 
1442	 0.376846878092115 
1443	 0.376744988201893 
1444	 0.376649012465252 
1445	 0.376595308286221 
1446	 0.376541679817075 
1447	 0.376511263766044 
1448	 0.376500923897846 
1449	 0.376480176216163 
1450	 0.376475529876183 
1451	 0.376478551517997 
1452	 0.376478477000796 
1453	 0.37651626300877 
1454	 0.376566746730071 
1455	 0.376645971772751 
1456	 0.376778405207294 
1457	 0.376880593665125 
1458	 0.37699388501842 
1459	 0.377100188634445 
1460	 0.377187686022221 
1461	 0.37728372977275 
1462	 0.377392641018276 
1463	 0.377490985789186 
1464	 0.377588164333455 
1465	 0.377677682389373 
1466	 0.377752178701829 
1467	 0.377836943178231 
1468	 0.377917373774873 
1469	 0.378006786997034 
1470	 0.378108021933911 
1471	 0.378210258229359 
1472	 0.37829763806039 
1473	 0.378395536685822 
1474	 0.378481089664369 
1475	 0.37858115093184 
1476	 0.378714740402435 
1477	 0.37884292587585 
1478	 0.378994557272484 
1479	 0.379137165747698 
1480	 0.379269247930529 
1481	 0.379429599919696 
1482	 0.379558692559794 
1483	 0.379672864026095 
1484	 0.379794404225417 
1485	 0.379891567674962 
1486	 0.38002197827023 
1487	 0.380164618669115 
1488	 0.380326616856043 
1489	 0.380529028593936 
1490	 0.38068824250719 
1491	 0.38084621644007 
1492	 0.380996783877032 
1493	 0.381118533212771 
1494	 0.381253108551085 
1495	 0.381396594749566 
1496	 0.381531309383406 
1497	 0.381654918419649 
1498	 0.381782863868048 
1499	 0.381922700982902 
1500	 0.382044473970114 
1501	 0.382159697649671 
1502	 0.382269091782316 
1503	 0.382360095073798 
1504	 0.382453734519858 
1505	 0.382559716080612 
1506	 0.38267359616991 
1507	 0.382805286518049 
1508	 0.382923489306614 
1509	 0.383024191908562 
1510	 0.383119807776043 
1511	 0.383214330604615 
1512	 0.383318647280378 
1513	 0.383452134874086 
1514	 0.383571569503129 
1515	 0.383685092748509 
1516	 0.38379344714947 
1517	 0.383884217218673 
1518	 0.383953736586564 
1519	 0.384040025961817 
1520	 0.3841206479157 
1521	 0.384206032431356 
1522	 0.384292176043554 
1523	 0.384384345436655 
1524	 0.384476491969859 
1525	 0.384579420637178 
1526	 0.384704116644011 
1527	 0.384806943086922 
1528	 0.384904174163693 
1529	 0.384998624195085 
1530	 0.385082137991126 
1531	 0.385166199636873 
1532	 0.385257965724126 
1533	 0.385331272128703 
1534	 0.385384865274865 
1535	 0.385450437160398 
1536	 0.385509832932409 
1537	 0.385573732807752 
1538	 0.385645901260372 
1539	 0.385715865879882 
1540	 0.38578179586836 
1541	 0.385853215862501 
1542	 0.385940347378749 
1543	 0.386008998716269 
1544	 0.386064616368569 
1545	 0.38612502464842 
1546	 0.386179753505548 
1547	 0.386226759884505 
1548	 0.386285704567856 
1549	 0.386357693637993 
1550	 0.386427210026786 
1551	 0.386489451057302 
1552	 0.386548180674168 
1553	 0.386607349922024 
1554	 0.386681521347999 
1555	 0.386758905564745 
1556	 0.386823118526826 
1557	 0.386893233326189 
1558	 0.386960911256777 
1559	 0.387009785743785 
1560	 0.387063993806123 
1561	 0.387125253000572 
1562	 0.387178591493742 
1563	 0.387220015408614 
1564	 0.387271683514429 
1565	 0.387321701848738 
1566	 0.387388211659735 
1567	 0.387461485825673 
1568	 0.387539563821133 
1569	 0.387644798905933 
1570	 0.387712324699069 
1571	 0.38776682919522 
1572	 0.387817402125881 
1573	 0.387851004139728 
1574	 0.387885062147094 
1575	 0.387911201055804 
1576	 0.387944522792483 
1577	 0.387977035898158 
1578	 0.388000839199608 
1579	 0.388026003482695 
1580	 0.388051463758987 
1581	 0.388065155624338 
1582	 0.388086333932231 
1583	 0.38811106984944 
1584	 0.38814639808866 
1585	 0.388174253187909 
1586	 0.388225513241802 
1587	 0.388305900621666 
1588	 0.388374246506352 
1589	 0.388465505731214 
1590	 0.388525587896435 
1591	 0.388564196825193 
1592	 0.388605880155518 
1593	 0.388632756005167 
1594	 0.38865888830902 
1595	 0.388679079422194 
1596	 0.388707764078867 
1597	 0.388732461058074 
1598	 0.388762487469549 
1599	 0.388819533595629 
1600	 0.388848944200287 
1601	 0.388849983664104 
1602	 0.388870471894819 
1603	 0.388882605503176 
1604	 0.388903135003644 
1605	 0.388940850983693 
1606	 0.388979744924656 
1607	 0.389022285385143 
1608	 0.389066052227448 
1609	 0.389100177834201 
1610	 0.389144066338881 
1611	 0.389146859484807 
1612	 0.389135567027765 
1613	 0.389132280744392 
1614	 0.389120342015241 
1615	 0.389141013695034 
1616	 0.38916370633818 
1617	 0.389180238739631 
1618	 0.389203765683324 
1619	 0.389217479515812 
1620	 0.389232631596068 
1621	 0.389241841684001 
1622	 0.389252725567797 
1623	 0.389255306803592 
1624	 0.389242263651838 
1625	 0.389250992936377 
1626	 0.389265729024513 
1627	 0.389280141894896 
1628	 0.389309154742261 
1629	 0.389323602949381 
1630	 0.389335114028925 
1631	 0.389331548683925 
1632	 0.389315792943501 
1633	 0.389306706361663 
1634	 0.389286023827012 
1635	 0.389278343421891 
1636	 0.389276698732896 
1637	 0.389281795525208 
1638	 0.38929674193198 
1639	 0.389295622408803 
1640	 0.389301885445078 
1641	 0.389291237382525 
1642	 0.389257318848579 
1643	 0.389239054321179 
1644	 0.389212676296151 
1645	 0.389211648491363 
1646	 0.38922377173116 
1647	 0.389239269709596 
1648	 0.389279172118958 
1649	 0.389299409117817 
1650	 0.389314659749363 
1651	 0.389325839416182 
1652	 0.389334416128962 
1653	 0.38933232949188 
1654	 0.389321746066648 
1655	 0.389311522991353 
1656	 0.389293130304898 
1657	 0.389274065519834 
1658	 0.389264363094633 
1659	 0.389226990648045 
1660	 0.389163317868564 
1661	 0.389121503061901 
1662	 0.389073954352278 
1663	 0.389028124331315 
1664	 0.388990804681958 
1665	 0.388960163352442 
1666	 0.388915907015241 
1667	 0.388900250215187 
1668	 0.388919679288372 
1669	 0.388917986082222 
1670	 0.388921483728555 
1671	 0.388915086587623 
1672	 0.38890908996331 
1673	 0.38887913248979 
1674	 0.38882277765001 
1675	 0.388791357949116 
1676	 0.388736391666315 
1677	 0.388725011166543 
1678	 0.38875813143938 
1679	 0.388773458585539 
1680	 0.388814095158332 
1681	 0.388817586524144 
1682	 0.388796503494952 
1683	 0.38878709395405 
1684	 0.388762965465518 
1685	 0.38874557421764 
1686	 0.388732855512014 
1687	 0.388726398082203 
1688	 0.388722937169246 
1689	 0.388715192519523 
1690	 0.388719909170638 
1691	 0.388709969228708 
1692	 0.388685381886476 
1693	 0.388661088544438 
1694	 0.388628157360952 
1695	 0.388609167358432 
1696	 0.388592423873007 
1697	 0.388577355133553 
1698	 0.388579550640836 
1699	 0.388561990388884 
1700	 0.388519694344284 
1701	 0.388509811003328 
1702	 0.388519840777635 
1703	 0.388504650865787 
1704	 0.388512523449055 
1705	 0.388474897217638 
1706	 0.388372827246887 
1707	 0.388330245086134 
1708	 0.388304500740392 
1709	 0.388265159957635 
1710	 0.388242385628797 
1711	 0.38821732600789 
1712	 0.388166441610852 
1713	 0.388148083944675 
1714	 0.388167107562761 
1715	 0.38816278089004 
1716	 0.388159295970824 
1717	 0.388147290166234 
1718	 0.388135210212365 
1719	 0.388103841641778 
1720	 0.388049531311109 
1721	 0.388014429436963 
1722	 0.387980011193629 
1723	 0.387932634659505 
1724	 0.387876932918687 
1725	 0.387850654023019 
1726	 0.387830643509744 
1727	 0.387802948999205 
1728	 0.387816693611665 
1729	 0.387772344954941 
1730	 0.387685199962259 
1731	 0.387594959828197 
1732	 0.387486682320914 
1733	 0.387371355777835 
1734	 0.387225532586586 
1735	 0.387116582910066 
1736	 0.387019013022342 
1737	 0.386923192707025 
1738	 0.38683913775757 
1739	 0.386765273818806 
1740	 0.386683624819551 
1741	 0.386631410414908 
1742	 0.386625037156588 
1743	 0.386571127115345 
1744	 0.386511161386628 
1745	 0.386438435858057 
1746	 0.386323026705827 
1747	 0.386277173512617 
1748	 0.386230368337745 
1749	 0.3862033675499 
1750	 0.386215666743767 
1751	 0.386186930442097 
1752	 0.386137345131978 
1753	 0.386057382146355 
1754	 0.385943489525998 
1755	 0.385855698774225 
1756	 0.385786407902692 
1757	 0.385738249055955 
1758	 0.385694500571522 
1759	 0.385620530003405 
1760	 0.385538389869198 
1761	 0.385466728428138 
1762	 0.385391364107328 
1763	 0.385308774378678 
1764	 0.385265082315188 
1765	 0.385234617384129 
1766	 0.385199701216345 
1767	 0.385212907303606 
1768	 0.385182244272772 
1769	 0.385107680856907 
1770	 0.385073060392123 
1771	 0.385020999723646 
1772	 0.384957783863308 
1773	 0.384913496986015 
1774	 0.384852087399675 
1775	 0.384792651259086 
1776	 0.384757213037202 
1777	 0.384723417692787 
1778	 0.384704536267119 
1779	 0.384691076978609 
1780	 0.38467001124278 
1781	 0.384665910421537 
1782	 0.384642043435854 
1783	 0.384585167009103 
1784	 0.384552621416898 
1785	 0.384534341356633 
1786	 0.384501687799021 
1787	 0.384466457622452 
1788	 0.384432301298571 
1789	 0.384371751235634 
1790	 0.38435331920532 
1791	 0.384369162759078 
1792	 0.384365034481122 
1793	 0.384390492922764 
1794	 0.384374503591315 
1795	 0.384312400705899 
1796	 0.384292694621518 
1797	 0.384261558668506 
1798	 0.38426670651088 
1799	 0.384322808151266 
1800	 0.384343315800278 
1801	 0.377430746676216 
1802	 0.377552869480736 
1803	 0.377692915487608 
1804	 0.377866576711059 
1805	 0.378021156396764 
1806	 0.378147790969352 
1807	 0.378282627654422 
1808	 0.378400971878302 
1809	 0.378509372807204 
1810	 0.378586301380888 
1811	 0.37864227170599 
1812	 0.378706704924469 
1813	 0.378733485835241 
1814	 0.378765200371914 
1815	 0.378810554361509 
1816	 0.378807827189886 
1817	 0.378820757851729 
1818	 0.378824476522908 
1819	 0.378831108356438 
1820	 0.378831174751418 
1821	 0.378851946705035 
1822	 0.378879603184723 
1823	 0.378882141210941 
1824	 0.378905618105803 
1825	 0.378957946055056 
1826	 0.378996802333742 
1827	 0.378999072219843 
1828	 0.378992666910414 
1829	 0.3789597444292 
1830	 0.378940511424625 
1831	 0.37890485936312 
1832	 0.378901109242527 
1833	 0.37887688305796 
1834	 0.378841012264522 
1835	 0.378817629802415 
1836	 0.3787628001541 
1837	 0.378716150139383 
1838	 0.378694265766329 
1839	 0.378708022976141 
1840	 0.378749359307691 
1841	 0.378789031312975 
1842	 0.378837935948875 
1843	 0.378897537105008 
1844	 0.378879840807809 
1845	 0.378853436490415 
1846	 0.378849892919088 
1847	 0.378830115017739 
1848	 0.378781895822454 
1849	 0.378721324267221 
1850	 0.378689311149127 
1851	 0.378665981751231 
1852	 0.378631837847932 
1853	 0.378617312653431 
1854	 0.37862308253518 
1855	 0.378586031130111 
1856	 0.378533487868614 
1857	 0.378487177623611 
1858	 0.378407398478816 
1859	 0.378304599273045 
1860	 0.378156244022365 
1861	 0.377973354543878 
1862	 0.377722260171442 
1863	 0.377472634309152 
1864	 0.377201282028556 
1865	 0.37692765591017 
1866	 0.376646092530986 
1867	 0.376315632602736 
1868	 0.375993829320627 
1869	 0.375662382051088 
1870	 0.375309915359107 
1871	 0.374955604304342 
1872	 0.374611692012749 
1873	 0.374248475029213 
1874	 0.37385376079313 
1875	 0.373459913281374 
1876	 0.373034504290968 
1877	 0.372551622318953 
1878	 0.372010936771102 
1879	 0.371400398571045 
1880	 0.370716838136849 
1881	 0.369944839769024 
1882	 0.369144257729873 
1883	 0.368293385565359 
1884	 0.367365189716085 
1885	 0.366408347500605 
1886	 0.365384210946358 
1887	 0.364245255703484 
1888	 0.36304377289477 
1889	 0.361745691350732 
1890	 0.360398475263449 
1891	 0.359017752496499 
1892	 0.357576596887578 
1893	 0.356094909487863 
1894	 0.354585903281754 
1895	 0.353018897322429 
1896	 0.351359120341386 
1897	 0.349670281321423 
1898	 0.347958605318248 
1899	 0.34622854735271 
1900	 0.34450271713265 
1901	 0.342811327428028 
1902	 0.341153866482343 
1903	 0.339519623935612 
1904	 0.337907816745785 
1905	 0.336324436423471 
1906	 0.334788650115307 
1907	 0.333250508201442 
1908	 0.331778879729541 
1909	 0.330404173021844 
1910	 0.329052921709574 
1911	 0.327787906522333 
1912	 0.326601826289385 
1913	 0.325463797983212 
1914	 0.324375805072395 
1915	 0.32336515667117 
1916	 0.322429298278552 
1917	 0.321524520909972 
1918	 0.320687768631159 
1919	 0.319923679131345 
1920	 0.319244361812735 
1921	 0.318649457813859 
1922	 0.318119923389454 
1923	 0.317632080809142 
1924	 0.31718071118103 
1925	 0.31675285536149 
1926	 0.316395062436409 
1927	 0.316080669396558 
1928	 0.315835047982259 
1929	 0.315658592934622 
1930	 0.315532382647713 
1931	 0.315440638192784 
1932	 0.315372448816118 
1933	 0.315326440217666 
1934	 0.315277055998965 
1935	 0.315260925254328 
1936	 0.315274297636956 
1937	 0.315301458544001 
1938	 0.315336393838443 
1939	 0.315411629974277 
1940	 0.315506861279272 
1941	 0.315627457644861 
1942	 0.315805674718455 
1943	 0.316036416458995 
1944	 0.316276450986603 
1945	 0.316544621052625 
1946	 0.316810863980364 
1947	 0.317074228479762 
1948	 0.317358314005025 
1949	 0.317667717382138 
1950	 0.317969122488629 
1951	 0.318267293009042 
1952	 0.318601906494527 
1953	 0.318921209983685 
1954	 0.319241423744744 
1955	 0.319585297361633 
1956	 0.319913991905822 
1957	 0.320259071067467 
1958	 0.320614124863751 
1959	 0.320972839815987 
1960	 0.321332652914741 
1961	 0.32171315446624 
1962	 0.322119456108303 
1963	 0.322508712455337 
1964	 0.322909121230037 
1965	 0.323295791151491 
1966	 0.323679076619016 
1967	 0.324048619268471 
1968	 0.324444285038109 
1969	 0.324863557582807 
1970	 0.325266985850573 
1971	 0.325676697982465 
1972	 0.326087499368709 
1973	 0.326487163614662 
1974	 0.326893955791042 
1975	 0.32730748008912 
1976	 0.327721030474614 
1977	 0.328148390007502 
1978	 0.328575499384881 
1979	 0.328999391822493 
1980	 0.329431213158585 
1981	 0.32985718529657 
1982	 0.330257436060992 
1983	 0.33069826253479 
1984	 0.331167292992379 
1985	 0.331622267482847 
1986	 0.332112043090238 
1987	 0.332563349562523 
1988	 0.332989158368721 
1989	 0.333406989181865 
1990	 0.333834631122746 
1991	 0.334248435435008 
1992	 0.334686368869377 
1993	 0.335151062865409 
1994	 0.335601904886187 
1995	 0.336053960476663 
1996	 0.336502664992359 
1997	 0.336963822984802 
1998	 0.337399919913333 
1999	 0.337819789077116 
2000	 0.338242112852952 
2001	 0.338659506277914 
2002	 0.339048581782144 
2003	 0.339470161900491 
2004	 0.339888875528249 
2005	 0.340304775071149 
2006	 0.340730226422408 
2007	 0.341145539949892 
2008	 0.341546326098871 
2009	 0.341955799162437 
2010	 0.342366851962957 
2011	 0.342775695266518 
2012	 0.34318801675021 
2013	 0.343598071847427 
2014	 0.344011298914442 
2015	 0.344412529962776 
2016	 0.344800984886064 
2017	 0.345214981653241 
2018	 0.345632774489133 
2019	 0.346062481666579 
2020	 0.346481920408056 
2021	 0.346927089060763 
2022	 0.347329373686529 
2023	 0.347709862440488 
2024	 0.34807986171045 
2025	 0.348416192562655 
2026	 0.348762989061297 
2027	 0.349095173860922 
2028	 0.349441854146625 
2029	 0.349791289413751 
2030	 0.350140551923669 
2031	 0.350504640889695 
2032	 0.350875664523306 
2033	 0.351256072032303 
2034	 0.351660906159751 
2035	 0.352044347935386 
2036	 0.352439681910807 
2037	 0.352810942504631 
2038	 0.353165040012455 
2039	 0.35350836141683 
2040	 0.353843283994962 
2041	 0.354150730621086 
2042	 0.354459400742979 
2043	 0.354781184617292 
2044	 0.355094675415279 
2045	 0.355414398405736 
2046	 0.355720764454991 
2047	 0.356023213554469 
2048	 0.356311542136951 
2049	 0.356580010629605 
2050	 0.356858640893319 
2051	 0.3571360145745 
2052	 0.357406748909329 
2053	 0.357667560281775 
2054	 0.357945256841846 
2055	 0.358231505323584 
2056	 0.358507305091663 
2057	 0.358780286555536 
2058	 0.35906872083143 
2059	 0.3593344256825 
2060	 0.35957393501378 
2061	 0.359827230934762 
2062	 0.360093769106633 
2063	 0.360337627373755 
2064	 0.360554459717855 
2065	 0.360797240141409 
2066	 0.361041896992402 
2067	 0.361285865245112 
2068	 0.361549067971266 
2069	 0.361810862213996 
2070	 0.362050275921549 
2071	 0.362266544181754 
2072	 0.362500768185663 
2073	 0.362731992490948 
2074	 0.362965321436028 
2075	 0.363208769181691 
2076	 0.363440596454795 
2077	 0.363654752454738 
2078	 0.363892723114042 
2079	 0.364141707388585 
2080	 0.364386024031795 
2081	 0.364650512050415 
2082	 0.364894663959969 
2083	 0.365111252375485 
2084	 0.365352053555702 
2085	 0.365584118125941 
2086	 0.365813566483605 
2087	 0.366039742767558 
2088	 0.366257178975714 
2089	 0.366496832451802 
2090	 0.366746476074247 
2091	 0.366988697682624 
2092	 0.367253810820032 
2093	 0.367495255582763 
2094	 0.367721703365974 
2095	 0.367939372057703 
2096	 0.368140448257627 
2097	 0.368349517931267 
2098	 0.368553898037075 
2099	 0.36874895174824 
2100	 0.368957215947466 
2101	 0.369177952921098 
2102	 0.369387409069723 
2103	 0.369582618935564 
2104	 0.369809444115091 
2105	 0.370043899795272 
2106	 0.370289791754325 
2107	 0.370560947317909 
2108	 0.370829164859403 
2109	 0.371098795522823 
2110	 0.371378292264685 
2111	 0.37169163869357 
2112	 0.371969755867827 
2113	 0.372250633268618 
2114	 0.372501997329252 
2115	 0.372732394780593 
2116	 0.372919226589608 
2117	 0.373141230411924 
2118	 0.373343387174213 
2119	 0.373587791037651 
2120	 0.373863500832836 
2121	 0.374132564387331 
2122	 0.37442992433059 
2123	 0.374703096409335 
2124	 0.374982481198846 
2125	 0.375233698879997 
2126	 0.375476244101353 
2127	 0.375691474346887 
2128	 0.37587459704043 
2129	 0.376049797051365 
2130	 0.37618919022614 
2131	 0.376345156298858 
2132	 0.376487204263809 
2133	 0.376626467085559 
2134	 0.376744715009851 
2135	 0.376865102984668 
2136	 0.37694201439895 
2137	 0.376985630590223 
2138	 0.377022913614606 
2139	 0.377033807961968 
2140	 0.377033396549532 
2141	 0.377008933193883 
2142	 0.376993565825234 
2143	 0.376967963397154 
2144	 0.376938512180961 
2145	 0.376931615118098 
2146	 0.376889463024748 
2147	 0.376824161378832 
2148	 0.376740220347204 
2149	 0.376648980696447 
2150	 0.3765392276012 
2151	 0.376418151900819 
2152	 0.376282595066237 
2153	 0.376145664323088 
2154	 0.375980053687087 
2155	 0.375842310780893 
2156	 0.375726839574644 
2157	 0.375589504713308 
2158	 0.375475276617854 
2159	 0.375311881447439 
2160	 0.375101068015791 
2161	 0.374904696211898 
2162	 0.374680364934037 
2163	 0.374467788288146 
2164	 0.374289191286785 
2165	 0.374069636922177 
2166	 0.373845997135542 
2167	 0.373603948140043 
2168	 0.37337994904452 
2169	 0.373145847429125 
2170	 0.372923683441348 
2171	 0.372726468283911 
2172	 0.372502754482084 
2173	 0.372259485282929 
2174	 0.372030970951067 
2175	 0.371796470023797 
2176	 0.371569717842951 
2177	 0.371363601737389 
2178	 0.371139825778702 
2179	 0.370887078206747 
2180	 0.370669030173487 
2181	 0.370456278808036 
2182	 0.370257366517877 
2183	 0.370086279972464 
2184	 0.36993330306166 
2185	 0.369755628427477 
2186	 0.369569868117258 
2187	 0.369387107184508 
2188	 0.369196608566721 
2189	 0.369012791754562 
2190	 0.368829087086115 
2191	 0.368656315600218 
2192	 0.368475761632124 
2193	 0.368321215197889 
2194	 0.368189634126596 
2195	 0.368058611536761 
2196	 0.367952986101049 
2197	 0.367831627124001 
2198	 0.367707266401243 
2199	 0.367581786215059 
2200	 0.367432543974953 
2201	 0.367310561949091 
2202	 0.367207791866044 
2203	 0.367102435601401 
2204	 0.367006752444571 
2205	 0.366934969281071 
2206	 0.36685080940892 
2207	 0.366752249821839 
2208	 0.366682451627412 
2209	 0.366630849620935 
2210	 0.366569269998965 
2211	 0.366512071902834 
2212	 0.366469170965803 
2213	 0.366434158129483 
2214	 0.366392655268989 
2215	 0.366372933921127 
2216	 0.366332190644363 
2217	 0.366243021297087 
2218	 0.366205606403148 
2219	 0.366202169485979 
2220	 0.366183871120715 
2221	 0.366171223906342 
2222	 0.366195536147679 
2223	 0.366172268010058 
2224	 0.366137487609991 
2225	 0.366106257729424 
2226	 0.36607708888976 
2227	 0.36603218989103 
2228	 0.36597573692764 
2229	 0.365919402465407 
2230	 0.365842349715314 
2231	 0.365792113165108 
2232	 0.36574619077626 
2233	 0.365719580946902 
2234	 0.365726724505868 
2235	 0.365711642262993 
2236	 0.365692179653866 
2237	 0.365675876068869 
2238	 0.365662977171929 
2239	 0.365634446809177 
2240	 0.365593191316459 
2241	 0.365568447289119 
2242	 0.365545436073208 
2243	 0.365512861640162 
2244	 0.365467123817195 
2245	 0.365461787891812 
2246	 0.365455862385449 
2247	 0.365434215519 
2248	 0.365421611128788 
2249	 0.365443510099958 
2250	 0.365408799605068 
2251	 0.365327536765795 
2252	 0.365292653993511 
2253	 0.365245342159638 
2254	 0.365235932455354 
2255	 0.365266998424264 
2256	 0.365285642301566 
2257	 0.365311959763505 
2258	 0.365347762434128 
2259	 0.365424787795283 
2260	 0.365434528383941 
2261	 0.365402409167225 
2262	 0.365396337161587 
2263	 0.365333449369291 
2264	 0.365328147480672 
2265	 0.36539398864866 
2266	 0.365429389062073 
2267	 0.365486861775272 
2268	 0.365513207884947 
2269	 0.365521152569451 
2270	 0.365505851652189 
2271	 0.365507055036539 
2272	 0.365475463057577 
2273	 0.365427560199109 
2274	 0.365425747842709 
2275	 0.365418202165447 
2276	 0.365407407036518 
2277	 0.365396096581405 
2278	 0.365415417318017 
2279	 0.365385431408299 
2280	 0.36531589864057 
2281	 0.36527247194235 
2282	 0.365210780550231 
2283	 0.365175862971829 
2284	 0.365178189369385 
2285	 0.365144030334982 
2286	 0.3651050467819 
2287	 0.365062786394612 
2288	 0.36498006929808 
2289	 0.364933630880749 
2290	 0.364913525288084 
2291	 0.364884546074151 
2292	 0.36484968258254 
2293	 0.364844798810587 
2294	 0.364872106240592 
2295	 0.364872690304691 
2296	 0.364869919724081 
2297	 0.364902385086501 
2298	 0.364871083025268 
2299	 0.364812592450893 
2300	 0.364817519287047 
2301	 0.364779622277766 
2302	 0.364732052383862 
2303	 0.364708136864428 
2304	 0.364642970530585 
2305	 0.364591919472364 
2306	 0.364554419346717 
2307	 0.364539091215769 
2308	 0.364507646297307 
2309	 0.364499408724368 
2310	 0.36442947084011 
2311	 0.36433362735972 
2312	 0.36422466449618 
2313	 0.364059561846962 
2314	 0.363917899166559 
2315	 0.363751266236146 
2316	 0.363643740943919 
2317	 0.363567756672546 
2318	 0.363501406649013 
2319	 0.363492212938317 
2320	 0.363440158516318 
2321	 0.363361473392545 
2322	 0.363297681077276 
2323	 0.363245703384366 
2324	 0.363188360003639 
2325	 0.363143969339444 
2326	 0.363062899390761 
2327	 0.362940924166528 
2328	 0.362833319163318 
2329	 0.362783304681668 
2330	 0.362702931781817 
2331	 0.362608966207408 
2332	 0.362530897677018 
2333	 0.362419977040143 
2334	 0.362341981340832 
2335	 0.36234007270176 
2336	 0.362346366798158 
2337	 0.362301659910034 
2338	 0.362268763049101 
2339	 0.3621642547863 
2340	 0.361965089593871 
2341	 0.361799371977457 
2342	 0.36159012695644 
2343	 0.361370135026495 
2344	 0.361216026474528 
2345	 0.361030269031634 
2346	 0.360805345941137 
2347	 0.3606153808807 
2348	 0.360486408409566 
2349	 0.360272627647831 
2350	 0.359996771172349 
2351	 0.359789133939001 
2352	 0.359581725578973 
2353	 0.35933899608853 
2354	 0.359141909786262 
2355	 0.358880960396174 
2356	 0.358509661608891 
2357	 0.358227651721818 
2358	 0.357977546173636 
2359	 0.357748873785304 
2360	 0.357578827910253 
2361	 0.357355244210388 
2362	 0.357166765604303 
2363	 0.356891116761431 
2364	 0.356511729397803 
2365	 0.356192684300279 
2366	 0.355792324723037 
2367	 0.3554683860533 
2368	 0.355271285008146 
2369	 0.355017365163926 
2370	 0.35476591061595 
2371	 0.354518406725895 
2372	 0.354208225007401 
2373	 0.353847390034646 
2374	 0.353557549339165 
2375	 0.353270814043263 
2376	 0.352940512700499 
2377	 0.352577081027686 
2378	 0.352151885616627 
2379	 0.35175094059897 
2380	 0.351444140465743 
2381	 0.351160828170884 
2382	 0.350840115247207 
2383	 0.350549276225078 
2384	 0.350238098203499 
2385	 0.349899522061647 
2386	 0.349655251192349 
2387	 0.349396199735627 
2388	 0.349129293888604 
2389	 0.348844385304514 
2390	 0.348485053776837 
2391	 0.348145543065766 
2392	 0.347811368260622 
2393	 0.347519546503578 
2394	 0.347270669482251 
2395	 0.347000847069122 
2396	 0.346688779974755 
2397	 0.346411535676722 
2398	 0.346126934281851 
2399	 0.345719226813429 
2400	 0.345366782124472 
2401	 0.345076352036809 
2402	 0.344684401456903 
2403	 0.344361640237864 
2404	 0.34408373545963 
2405	 0.343712189263264 
2406	 0.343361517436001 
2407	 0.342977760750415 
2408	 0.342631118135476 
2409	 0.342312092157539 
2410	 0.341955125346107 
2411	 0.34176068995327 
2412	 0.341541758095238 
2413	 0.341175267687352 
2414	 0.340795791193421 
2415	 0.34035150646764 
2416	 0.339967453774919 
2417	 0.339531840598156 
2418	 0.33918334295394 
2419	 0.339021982626098 
2420	 0.338690708707212 
2421	 0.338245773926457 
2422	 0.337898302901815 
2423	 0.337502331820499 
2424	 0.337128490288393 
2425	 0.336870007343172 
2426	 0.336482925955035 
2427	 0.335993081591462 
2428	 0.335636570813994 
2429	 0.335285395597757 
2430	 0.334975316490848 
2431	 0.334779628339293 
2432	 0.334460055870169 
2433	 0.334072411742522 
2434	 0.333715229695081 
2435	 0.333323708359039 
2436	 0.332997197957327 
2437	 0.332766748027926 
2438	 0.332404260124366 
2439	 0.332003604864026 
2440	 0.331574640671176 
2441	 0.330961066342713 
2442	 0.330580344982442 
2443	 0.330361141642375 
2444	 0.33003835517735 
2445	 0.329829225023339 
2446	 0.329501212509119 
2447	 0.329010900791172 
2448	 0.328615018752264 
2449	 0.328244847905726 
2450	 0.327847832005718 
2451	 0.327447267317854 
2452	 0.327028321231789 
2453	 0.326555472163039 
2454	 0.326193052932946 
2455	 0.325914351070609 
2456	 0.325605276732845 
2457	 0.325391812222755 
2458	 0.325045390871498 
2459	 0.324509990907718 
2460	 0.324091357781498 
2461	 0.323739714026884 
2462	 0.323387867983632 
2463	 0.323107181518953 
2464	 0.322831239711466 
2465	 0.322529015598046 
2466	 0.322142557668945 
2467	 0.321739583523512 
2468	 0.321352347203739 
2469	 0.320824203584916 
2470	 0.320479691180895 
2471	 0.320208796960447 
2472	 0.319895420597065 
2473	 0.31984559545284 
2474	 0.31981060773453 
2475	 0.319580986599442 
2476	 0.31926512930429 
2477	 0.318895928665527 
2478	 0.318439828359758 
2479	 0.318138115760836 
2480	 0.317924009346775 
2481	 0.317562516275222 
2482	 0.317396763936758 
2483	 0.31720374536014 
2484	 0.316782299022248 
2485	 0.316369984960679 
2486	 0.315751512954532 
2487	 0.315263975158088 
2488	 0.315086850231022 
2489	 0.314900715853129 
2490	 0.314923205271377 
2491	 0.314873071259219 
2492	 0.314472582119019 
2493	 0.314098363222757 
2494	 0.31375685137686 
2495	 0.313496409971192 
2496	 0.313400145512386 
2497	 0.31321460003322 
2498	 0.312944609874071 
2499	 0.312513664045101 
2500	 0.312042042656972 
