Wavelength	MM1000013.asd
350	 3.85084024967071E-02 
351	 3.73274842821178E-02 
352	 3.81457344412542E-02 
353	 3.98813237969441E-02 
354	 4.40079675864655E-02 
355	 3.95517441071429E-02 
356	 3.62524852743741E-02 
357	 4.31413181346727E-02 
358	 4.75730132383175E-02 
359	 4.22267073332539E-02 
360	 3.38692134130762E-02 
361	 3.68496199104895E-02 
362	 3.78628966816888E-02 
363	 4.19945900726414E-02 
364	 4.83090679434508E-02 
365	 4.30540803663366E-02 
366	 3.76085233258363E-02 
367	 3.58091878671427E-02 
368	 0.038408855629584 
369	 4.32534604191065E-02 
370	 4.58988503539547E-02 
371	 4.57988382630257E-02 
372	 4.51924898298245E-02 
373	 4.51052967969816E-02 
374	 4.60213707316474E-02 
375	 4.71692201950553E-02 
376	 4.59125098866535E-02 
377	 4.34717535488488E-02 
378	 4.35457713842073E-02 
379	 4.81404007781074E-02 
380	 5.02003101036079E-02 
381	 4.69792360773807E-02 
382	 0.043571611786852 
383	 4.92780395910695E-02 
384	 0.050711383043258 
385	 4.95813416477327E-02 
386	 4.90047969950742E-02 
387	 5.05398249102581E-02 
388	 5.05914696956815E-02 
389	 5.01225395198603E-02 
390	 5.08695836018026E-02 
391	 5.06540003595515E-02 
392	 5.08156334365362E-02 
393	 5.12341150605383E-02 
394	 5.06013617026443E-02 
395	 5.08744954853143E-02 
396	 5.21351060811105E-02 
397	 5.36524058332784E-02 
398	 5.37021288349619E-02 
399	 5.35173711004301E-02 
400	 0.053246019344798 
401	 5.29563155895843E-02 
402	 0.05468121782011 
403	 5.51055599881901E-02 
404	 5.39315942508643E-02 
405	 5.40975355021309E-02 
406	 5.52817604668725E-02 
407	 5.67446513561229E-02 
408	 5.74179429884534E-02 
409	 5.52892298958522E-02 
410	 5.50349672707121E-02 
411	 5.60938310012773E-02 
412	 5.58438833883614E-02 
413	 5.66391985796499E-02 
414	 5.65602846531129E-02 
415	 5.56122832368792E-02 
416	 5.66709946464852E-02 
417	 5.65097577703249E-02 
418	 5.62572124961276E-02 
419	 5.72663785192024E-02 
420	 5.81587449456425E-02 
421	 5.77788571096991E-02 
422	 5.70145507851232E-02 
423	 5.77623221771633E-02 
424	 5.77104453925978E-02 
425	 5.75231197136688E-02 
426	 5.76364613787814E-02 
427	 5.73593773938789E-02 
428	 5.70961534422799E-02 
429	 5.69981680930438E-02 
430	 5.70533709572044E-02 
431	 5.68411491065101E-02 
432	 5.67889778100252E-02 
433	 5.68589967802416E-02 
434	 5.65697750533764E-02 
435	 5.67509813566806E-02 
436	 5.71015292824653E-02 
437	 0.057192484084829 
438	 5.67884066016185E-02 
439	 5.66891460805772E-02 
440	 5.68441407457841E-02 
441	 5.67917934777623E-02 
442	 5.65368659444052E-02 
443	 5.66802111106659E-02 
444	 5.71698979214462E-02 
445	 5.68999410288157E-02 
446	 5.68060505782203E-02 
447	 5.69759037720148E-02 
448	 5.71967842665234E-02 
449	 0.057053836718204 
450	 5.71427088395809E-02 
451	 0.057442900187509 
452	 5.74134127246281E-02 
453	 5.72997592871722E-02 
454	 5.72908974280645E-02 
455	 5.74532448986041E-02 
456	 5.76153033601929E-02 
457	 0.057544938279964 
458	 5.74057911469818E-02 
459	 5.74846991278348E-02 
460	 5.74596112276618E-02 
461	 5.71875825179813E-02 
462	 5.68903161434215E-02 
463	 5.72705298319678E-02 
464	 5.75302140937276E-02 
465	 5.74706600909225E-02 
466	 5.71925613979308E-02 
467	 5.72254178503264E-02 
468	 5.72614498195072E-02 
469	 5.72047217812587E-02 
470	 5.71472219328885E-02 
471	 5.70426760724183E-02 
472	 5.71057109385777E-02 
473	 5.73187218791915E-02 
474	 5.69735540516574E-02 
475	 5.69840314220316E-02 
476	 5.71593690742924E-02 
477	 5.69443639230461E-02 
478	 0.056956583562305 
479	 5.71348882386344E-02 
480	 5.72864835965996E-02 
481	 5.71196973772147E-02 
482	 5.70961832378327E-02 
483	 5.72106529553206E-02 
484	 5.73131042015756E-02 
485	 5.72640711141903E-02 
486	 5.71328370259499E-02 
487	 5.70245881982158E-02 
488	 5.70588626207618E-02 
489	 5.71946034908905E-02 
490	 5.73204132505471E-02 
491	 5.73210787624195E-02 
492	 5.70658922615949E-02 
493	 5.69095783120494E-02 
494	 5.69187581274751E-02 
495	 5.70080778083062E-02 
496	 5.71465667879947E-02 
497	 5.71532933956644E-02 
498	 5.70498220343464E-02 
499	 5.71737676879787E-02 
500	 5.71710695729616E-02 
501	 5.70560795232859E-02 
502	 5.69619852864092E-02 
503	 5.70307254792858E-02 
504	 5.70756239855615E-02 
505	 5.70612160809556E-02 
506	 5.70925752359621E-02 
507	 5.69793846910459E-02 
508	 5.69409373190999E-02 
509	 5.71023307160275E-02 
510	 5.71382847979249E-02 
511	 5.71577359550977E-02 
512	 5.71564276492052E-02 
513	 5.70986588046401E-02 
514	 5.72110834010052E-02 
515	 5.72124289745879E-02 
516	 0.057067345564004 
517	 5.72714336843676E-02 
518	 5.72759990826318E-02 
519	 5.71253385668463E-02 
520	 5.70634010074383E-02 
521	 5.72772039025074E-02 
522	 0.057442595296782 
523	 5.74425595092548E-02 
524	 5.74068390736423E-02 
525	 5.72944852274906E-02 
526	 5.72641078597363E-02 
527	 5.73899944179363E-02 
528	 5.73561376043076E-02 
529	 5.73577850881531E-02 
530	 0.057442758909175 
531	 5.75519821866811E-02 
532	 5.75909800221061E-02 
533	 5.76738499769602E-02 
534	 0.057828106131982 
535	 5.78381494502383E-02 
536	 5.77915912827974E-02 
537	 5.77810146118584E-02 
538	 5.78846484527141E-02 
539	 5.80418702171627E-02 
540	 5.81508816435786E-02 
541	 0.058183846317288 
542	 5.82105210653156E-02 
543	 5.82271001960225E-02 
544	 0.058321836183151 
545	 5.85244454418581E-02 
546	 5.85392514697721E-02 
547	 5.86403663774737E-02 
548	 5.88245674373534E-02 
549	 0.058855382194666 
550	 0.058925461048845 
551	 5.90386744424445E-02 
552	 5.91733250763892E-02 
553	 5.93447600674984E-02 
554	 5.94459579006041E-02 
555	 0.059576568201475 
556	 0.05990045102293 
557	 6.00790685507592E-02 
558	 6.02796464433809E-02 
559	 6.06019858232148E-02 
560	 0.060937038185548 
561	 6.11800758169609E-02 
562	 6.14147304101243E-02 
563	 6.17462170710592E-02 
564	 6.19769833093006E-02 
565	 6.22079333211688E-02 
566	 6.24952952129814E-02 
567	 6.28258565409017E-02 
568	 0.063239385911952 
569	 6.37240800510676E-02 
570	 6.42493648183312E-02 
571	 6.47734970429363E-02 
572	 6.53179193689783E-02 
573	 6.58867386078505E-02 
574	 6.64686166503895E-02 
575	 6.70275723132467E-02 
576	 6.76231901360003E-02 
577	 6.82580743882354E-02 
578	 6.87542435824834E-02 
579	 0.069389678431195 
580	 7.01418120181097E-02 
581	 7.08725569333485E-02 
582	 7.16275016295949E-02 
583	 7.24181244294484E-02 
584	 7.32499399868635E-02 
585	 0.074126239157913 
586	 7.50516384244207E-02 
587	 7.59512645504858E-02 
588	 7.67829030265418E-02 
589	 7.77440319150083E-02 
590	 7.87386639146294E-02 
591	 7.97313924001125E-02 
592	 8.07569175941649E-02 
593	 8.18539806310614E-02 
594	 8.29807885411233E-02 
595	 8.40724635374734E-02 
596	 0.085052477537677 
597	 8.59741350406547E-02 
598	 8.68597984075809E-02 
599	 0.087727460849454 
600	 8.86671494790884E-02 
601	 8.95945840554425E-02 
602	 9.04453367472523E-02 
603	 9.12226759167523E-02 
604	 9.21052346889999E-02 
605	 9.30138967435116E-02 
606	 9.38158897177929E-02 
607	 9.46686050967476E-02 
608	 9.55022782623211E-02 
609	 9.62943911045657E-02 
610	 0.097089973046224 
611	 9.77978980082877E-02 
612	 9.84287116414737E-02 
613	 9.90133847972683E-02 
614	 9.95621117659865E-02 
615	 0.100081153064395 
616	 0.100586941416915 
617	 0.101099613662874 
618	 0.10164976911557 
619	 0.102088032313351 
620	 0.102386709786668 
621	 0.102833445591946 
622	 0.103263773540055 
623	 0.103654569911999 
624	 0.104034655454425 
625	 0.104419053705112 
626	 0.104743718686344 
627	 0.105013725111819 
628	 0.105331356442805 
629	 0.105649352896986 
630	 0.105945304095583 
631	 0.106218042409149 
632	 0.106527827084897 
633	 0.106807003197148 
634	 0.107049986820697 
635	 0.107306361367601 
636	 0.107615459145564 
637	 0.107910872455677 
638	 0.108152360943024 
639	 0.108406959950794 
640	 0.108696384250759 
641	 0.108993000973215 
642	 0.109253476030474 
643	 0.109534015182668 
644	 0.10982334839405 
645	 0.110116184729721 
646	 0.110424407087001 
647	 0.110756539234112 
648	 0.111079489811901 
649	 0.111363734655822 
650	 0.111639412731227 
651	 0.11197211267039 
652	 0.112344124599033 
653	 0.112671327887007 
654	 0.113041469112457 
655	 0.113397592143073 
656	 0.113713157739615 
657	 0.114099921361954 
658	 0.114506017754672 
659	 0.114913395399597 
660	 0.115315348009204 
661	 0.115679575935996 
662	 0.116090333444063 
663	 0.116557122053218 
664	 0.116966752281252 
665	 0.117373831105778 
666	 0.117825046425096 
667	 0.11833947295937 
668	 0.118830585791959 
669	 0.119304191725978 
670	 0.119798798487036 
671	 0.120367124297003 
672	 0.120890756335714 
673	 0.121410909498133 
674	 0.121968632863116 
675	 0.122539570783612 
676	 0.123113216047768 
677	 0.123691080765003 
678	 0.124279730033676 
679	 0.124865566889816 
680	 0.125482862855966 
681	 0.126125639390291 
682	 0.126731257693723 
683	 0.12738076256697 
684	 0.128048753738009 
685	 0.128705708860018 
686	 0.129414062602644 
687	 0.130135637926427 
688	 0.130861723163666 
689	 0.131602072680509 
690	 0.132329477124482 
691	 0.133040365585527 
692	 0.133759119290334 
693	 0.134567896101251 
694	 0.135335762404145 
695	 0.136081848909655 
696	 0.136873589073427 
697	 0.137709773122255 
698	 0.138532000007152 
699	 0.139333522095132 
700	 0.140165523262448 
701	 0.141027279525311 
702	 0.14187168387369 
703	 0.142679389025855 
704	 0.143541447771289 
705	 0.144367694486567 
706	 0.145198220170702 
707	 0.146113927380968 
708	 0.146939342798297 
709	 0.14776446737564 
710	 0.148640300328906 
711	 0.149525348327574 
712	 0.150309143738963 
713	 0.15108639554413 
714	 0.151953305102637 
715	 0.152765091585614 
716	 0.153557102186361 
717	 0.154358426052885 
718	 0.155183064910801 
719	 0.155958410078528 
720	 0.156678711110639 
721	 0.157380729036787 
722	 0.158169520083922 
723	 0.15889048529453 
724	 0.159577026472795 
725	 0.160293360448958 
726	 0.160900374304062 
727	 0.161491454674659 
728	 0.16209790614854 
729	 0.162680940654311 
730	 0.163238022951109 
731	 0.163727305865728 
732	 0.164147532931203 
733	 0.164607800591127 
734	 0.165043690300181 
735	 0.165447283418165 
736	 0.165823531384371 
737	 0.166118256241848 
738	 0.166384683013138 
739	 0.166636299938717 
740	 0.166835275196395 
741	 0.167009060237433 
742	 0.167165934085273 
743	 0.167298390830756 
744	 0.167369019723493 
745	 0.167392600090588 
746	 0.167400556754306 
747	 0.167416157111936 
748	 0.167349325951353 
749	 0.167230699711344 
750	 0.167100576583898 
751	 0.166994701220076 
752	 0.166805942985457 
753	 0.166589088151497 
754	 0.166389906525914 
755	 0.166114050849869 
756	 0.165788369218649 
757	 0.165454400704427 
758	 0.165148028164724 
759	 0.164801080233644 
760	 0.164407702209893 
761	 0.163990958443266 
762	 0.163600479691525 
763	 0.163156789963439 
764	 0.162692253210505 
765	 0.16224640771411 
766	 0.161805225806025 
767	 0.16129864536537 
768	 0.160753807776048 
769	 0.160236585000006 
770	 0.159691733125325 
771	 0.159152732476989 
772	 0.158623507788761 
773	 0.158065561704788 
774	 0.157482193615826 
775	 0.156899014276828 
776	 0.156342646417031 
777	 0.155837248384952 
778	 0.15527096899656 
779	 0.154673903059443 
780	 0.154124707799719 
781	 0.153546310586524 
782	 0.152958585815946 
783	 0.152370838625176 
784	 0.151776712423091 
785	 0.151219057032799 
786	 0.15067007207505 
787	 0.15010545249012 
788	 0.149537773050068 
789	 0.149012768925179 
790	 0.148489135974537 
791	 0.147915704149556 
792	 0.147385826290518 
793	 0.146821530700009 
794	 0.146248729200073 
795	 0.145773991325875 
796	 0.14523193256233 
797	 0.144691447173834 
798	 0.144204067098715 
799	 0.143722034237164 
800	 0.143239682993979 
801	 0.142759841891576 
802	 0.142279808949506 
803	 0.141752943116344 
804	 0.141284604213715 
805	 0.140859613000612 
806	 0.140395594104785 
807	 0.139952286873456 
808	 0.139527871529892 
809	 0.139111920096349 
810	 0.138690649039935 
811	 0.138301997141152 
812	 0.137877353900629 
813	 0.137402874145897 
814	 0.137079177802021 
815	 0.136737380340498 
816	 0.136369708858694 
817	 0.136021381439343 
818	 0.135633641263735 
819	 0.135276388780275 
820	 0.134956318282682 
821	 0.134624711668737 
822	 0.134323933118534 
823	 0.134027971948792 
824	 0.133725620957111 
825	 0.133446045277498 
826	 0.133176533939789 
827	 0.132891274060694 
828	 0.132582792630747 
829	 0.132303094639919 
830	 0.132092647627857 
831	 0.131904615860695 
832	 0.131669230574922 
833	 0.131475644398212 
834	 0.131268764620473 
835	 0.131041397981454 
836	 0.130839017059505 
837	 0.130650017922976 
838	 0.130489851570577 
839	 0.130340371720914 
840	 0.130121249349018 
841	 0.129939112289681 
842	 0.129819693481493 
843	 0.129747113958659 
844	 0.129664911960763 
845	 0.129542682409585 
846	 0.129397746782245 
847	 0.129270910563593 
848	 0.12917537165732 
849	 0.12908773058238 
850	 0.128994904488317 
851	 0.128899134953565 
852	 0.128832067050512 
853	 0.128810668293567 
854	 0.128824467218639 
855	 0.128829554682932 
856	 0.128786311453156 
857	 0.128735877973544 
858	 0.128715283856278 
859	 0.128692930527896 
860	 0.128715864083134 
861	 0.128727405713827 
862	 0.128682040240719 
863	 0.128748023357644 
864	 0.128807589890304 
865	 0.128848020498859 
866	 0.12891529301612 
867	 0.128928874257804 
868	 0.129003424661278 
869	 0.129153234583329 
870	 0.129273970885189 
871	 0.129332418299514 
872	 0.129391886019863 
873	 0.129486371918135 
874	 0.129572911758968 
875	 0.129722055372194 
876	 0.129868808880928 
877	 0.129973901461831 
878	 0.130156262389339 
879	 0.130333112445714 
880	 0.130518161673217 
881	 0.130731457676894 
882	 0.130876323401659 
883	 0.131057559416659 
884	 0.131271884314269 
885	 0.131466156006767 
886	 0.131708378654597 
887	 0.131947251788795 
888	 0.132166149752266 
889	 0.132384719327981 
890	 0.132592288636807 
891	 0.132833760766904 
892	 0.133149897217165 
893	 0.13355407379007 
894	 0.133809985598398 
895	 0.134030141174127 
896	 0.134318904615055 
897	 0.134631044765106 
898	 0.134979548162648 
899	 0.135334314858836 
900	 0.135675868443426 
901	 0.136037600436276 
902	 0.136413071455559 
903	 0.136787467160271 
904	 0.137149163141865 
905	 0.137509794597227 
906	 0.137884461202575 
907	 0.138296458890015 
908	 0.138760249012206 
909	 0.139243088065754 
910	 0.139680719598653 
911	 0.140094663962089 
912	 0.140553847166363 
913	 0.141018338403173 
914	 0.141520809953638 
915	 0.142046335971679 
916	 0.142539191234546 
917	 0.143007304817759 
918	 0.143470812645098 
919	 0.143979472251694 
920	 0.144596578456412 
921	 0.145201080383712 
922	 0.14578536056025 
923	 0.146361260205336 
924	 0.146937854725985 
925	 0.147469362489531 
926	 0.148078649032612 
927	 0.148775469816943 
928	 0.149306834161454 
929	 0.149968315000877 
930	 0.150668226399635 
931	 0.151306533301118 
932	 0.152000032035608 
933	 0.152731088763916 
934	 0.153456906792109 
935	 0.154162936609118 
936	 0.154940408625454 
937	 0.155711699338728 
938	 0.156455463778772 
939	 0.157186629300701 
940	 0.157966670946285 
941	 0.158776639355264 
942	 0.159641925522337 
943	 0.160562665765351 
944	 0.1613811651412 
945	 0.162255936802537 
946	 0.163130252032098 
947	 0.163901596560371 
948	 0.164741859601559 
949	 0.165591429585647 
950	 0.166481396209399 
951	 0.167473406230949 
952	 0.168537180467599 
953	 0.1694928497848 
954	 0.170392210098789 
955	 0.171387268549782 
956	 0.172373567655328 
957	 0.173338357157987 
958	 0.17429362664695 
959	 0.175280725433345 
960	 0.176414970616131 
961	 0.17761181999657 
962	 0.178762913364651 
963	 0.179791890665984 
964	 0.18080787145527 
965	 0.181840823899692 
966	 0.182926485353764 
967	 0.184084202888076 
968	 0.185219229047926 
969	 0.186422197824501 
970	 0.187583941798348 
971	 0.188561241560421 
972	 0.189886909348857 
973	 0.19119883975655 
974	 0.192366077679676 
975	 0.193487420782285 
976	 0.194688520512226 
977	 0.195948162267776 
978	 0.197162241161067 
979	 0.198252595919484 
980	 0.199526725139498 
981	 0.200806825376495 
982	 0.202011207104708 
983	 0.203188447633117 
984	 0.204595641690219 
985	 0.205937516318895 
986	 0.207150486788229 
987	 0.208354946230052 
988	 0.209733944864338 
989	 0.210983915212361 
990	 0.212125635678316 
991	 0.213336051256723 
992	 0.21457283879758 
993	 0.215831289539037 
994	 0.217149959203051 
995	 0.218529210224683 
996	 0.219758013192686 
997	 0.221097464453292 
998	 0.222420275851024 
999	 0.223571564380872 
1000	 0.224884129235601 
1001	 0.22171439090593 
1002	 0.222898162585339 
1003	 0.224173346389577 
1004	 0.225357137112371 
1005	 0.226584287280329 
1006	 0.227752784866771 
1007	 0.228821045187324 
1008	 0.229880833566246 
1009	 0.231022523213505 
1010	 0.232238331445359 
1011	 0.233432426084203 
1012	 0.234527185889763 
1013	 0.23569791077099 
1014	 0.236820126799363 
1015	 0.23786268624404 
1016	 0.239030754461241 
1017	 0.240124371113697 
1018	 0.241153995863603 
1019	 0.242169056955575 
1020	 0.243272085843963 
1021	 0.244278017892772 
1022	 0.245308600520202 
1023	 0.246358136395705 
1024	 0.247364099372328 
1025	 0.24835293340955 
1026	 0.249321262505325 
1027	 0.250320916398865 
1028	 0.251261099094625 
1029	 0.252199171349521 
1030	 0.253189038508302 
1031	 0.254126235050114 
1032	 0.255020680164047 
1033	 0.255942686452538 
1034	 0.256891736489292 
1035	 0.257741036137111 
1036	 0.258603692796125 
1037	 0.259522487776649 
1038	 0.260390103685668 
1039	 0.261301021766276 
1040	 0.262218222018784 
1041	 0.263079543584006 
1042	 0.263967801035959 
1043	 0.264787164320363 
1044	 0.265617829011393 
1045	 0.266423280401004 
1046	 0.267304962233851 
1047	 0.268151314210315 
1048	 0.269048059890002 
1049	 0.269965961849505 
1050	 0.27079955738187 
1051	 0.271631944821103 
1052	 0.272428506417562 
1053	 0.27321217079002 
1054	 0.274036209332888 
1055	 0.274828669311724 
1056	 0.2756162296647 
1057	 0.276405729725474 
1058	 0.277156123975459 
1059	 0.27794431568998 
1060	 0.278757802658477 
1061	 0.279591757890899 
1062	 0.280351896925837 
1063	 0.281124417564005 
1064	 0.281861210761202 
1065	 0.282509719216496 
1066	 0.28319103707858 
1067	 0.283921744096056 
1068	 0.284629008214176 
1069	 0.285340350372595 
1070	 0.286064799590878 
1071	 0.286803925063866 
1072	 0.287538895167146 
1073	 0.288297145426066 
1074	 0.289016210827238 
1075	 0.289723319917309 
1076	 0.29039721242167 
1077	 0.291086666925714 
1078	 0.291745350501894 
1079	 0.292423793598828 
1080	 0.293088029695494 
1081	 0.293679203743249 
1082	 0.294337091394261 
1083	 0.294997916108796 
1084	 0.295672725363346 
1085	 0.296325909530553 
1086	 0.296986010525717 
1087	 0.297626144068224 
1088	 0.298223083302471 
1089	 0.298871487341881 
1090	 0.299531523843336 
1091	 0.300178435964958 
1092	 0.300857013807405 
1093	 0.301527331752968 
1094	 0.302192182793744 
1095	 0.302844851758114 
1096	 0.303511123368963 
1097	 0.304208942795789 
1098	 0.304876277503119 
1099	 0.305558506972142 
1100	 0.306215489567447 
1101	 0.306805982728238 
1102	 0.307465115694617 
1103	 0.308153594119113 
1104	 0.308838866180372 
1105	 0.30954583084681 
1106	 0.310273698006603 
1107	 0.310958918510053 
1108	 0.311640632613383 
1109	 0.312349351325206 
1110	 0.313062758134411 
1111	 0.313787412950461 
1112	 0.314538330124599 
1113	 0.315267060631131 
1114	 0.315975919967612 
1115	 0.316720442075093 
1116	 0.317491488001117 
1117	 0.318226903408346 
1118	 0.318952903011781 
1119	 0.319704810553274 
1120	 0.320470094292829 
1121	 0.321217115492984 
1122	 0.321977349665812 
1123	 0.322748555440577 
1124	 0.323495843403545 
1125	 0.324194481491536 
1126	 0.324925468714949 
1127	 0.325683099743947 
1128	 0.326416397669742 
1129	 0.327130054083515 
1130	 0.327849775748523 
1131	 0.328575295025196 
1132	 0.3292919033493 
1133	 0.330017231589669 
1134	 0.330715123378535 
1135	 0.331409014812068 
1136	 0.332056757862383 
1137	 0.332705722204223 
1138	 0.333371276137014 
1139	 0.334042774625679 
1140	 0.334737427100364 
1141	 0.335408373709999 
1142	 0.336073278922297 
1143	 0.336733123609517 
1144	 0.337395469934627 
1145	 0.338029410280807 
1146	 0.338644305257363 
1147	 0.339264483710322 
1148	 0.339868268169528 
1149	 0.340467310485814 
1150	 0.341066361914882 
1151	 0.341674851962339 
1152	 0.342240027398638 
1153	 0.342805276843557 
1154	 0.343378611050443 
1155	 0.343953218165623 
1156	 0.344512142579283 
1157	 0.34508070665261 
1158	 0.345625265501403 
1159	 0.346153264262513 
1160	 0.346672823764684 
1161	 0.347172004145897 
1162	 0.347678993375351 
1163	 0.348183035140456 
1164	 0.348679433441076 
1165	 0.349168284901352 
1166	 0.349675595971582 
1167	 0.350160855146218 
1168	 0.350642212065626 
1169	 0.351110311922318 
1170	 0.351561389461548 
1171	 0.352033167546828 
1172	 0.352507265287658 
1173	 0.352972683243654 
1174	 0.353472223076499 
1175	 0.353917535191655 
1176	 0.354316323414299 
1177	 0.354732300292963 
1178	 0.355137280986307 
1179	 0.3555343501965 
1180	 0.355935850954259 
1181	 0.356329587092359 
1182	 0.356719954469929 
1183	 0.357082104941949 
1184	 0.357449828561506 
1185	 0.357816792760593 
1186	 0.358177220953864 
1187	 0.358527685776 
1188	 0.358878511281702 
1189	 0.359235717679491 
1190	 0.359571898446333 
1191	 0.359886731170932 
1192	 0.360215600835269 
1193	 0.360542458239228 
1194	 0.360865887689277 
1195	 0.361203848590441 
1196	 0.361523309361536 
1197	 0.361833354528894 
1198	 0.362131024602 
1199	 0.362418088710926 
1200	 0.36268807660245 
1201	 0.362974011342284 
1202	 0.363264255137514 
1203	 0.36353035896126 
1204	 0.363798048142392 
1205	 0.364051774059077 
1206	 0.364277159173243 
1207	 0.364509968936102 
1208	 0.364730269152319 
1209	 0.364975172225487 
1210	 0.365241596446907 
1211	 0.365481760460197 
1212	 0.365737679083947 
1213	 0.365971790820983 
1214	 0.366156895263865 
1215	 0.366365088919866 
1216	 0.366579038070662 
1217	 0.366809677423893 
1218	 0.36700740182541 
1219	 0.367196061464763 
1220	 0.367390727111356 
1221	 0.367569600654634 
1222	 0.367751598811707 
1223	 0.36795301984598 
1224	 0.368129152804644 
1225	 0.368262027863644 
1226	 0.368438427107777 
1227	 0.368650880227203 
1228	 0.368826531148376 
1229	 0.369003869604507 
1230	 0.369178421863251 
1231	 0.369324118332754 
1232	 0.369471509584453 
1233	 0.369620437973468 
1234	 0.369786843390145 
1235	 0.369929775931494 
1236	 0.370054854935139 
1237	 0.370187413167226 
1238	 0.370306937576342 
1239	 0.370451481915871 
1240	 0.370624208009596 
1241	 0.370757814513688 
1242	 0.370891284095923 
1243	 0.371015746242467 
1244	 0.371097387334481 
1245	 0.371203338315988 
1246	 0.371333238600792 
1247	 0.371446935711934 
1248	 0.371552495872903 
1249	 0.37165793720973 
1250	 0.371760088009035 
1251	 0.371879671091221 
1252	 0.371997862768978 
1253	 0.372130009297433 
1254	 0.372245364803239 
1255	 0.372361536184939 
1256	 0.372463812496982 
1257	 0.372546894097698 
1258	 0.372647263886776 
1259	 0.372745569964558 
1260	 0.372847344262193 
1261	 0.372967098095452 
1262	 0.373070023731474 
1263	 0.373162302176324 
1264	 0.373256517679338 
1265	 0.373345966107947 
1266	 0.373432892985869 
1267	 0.373522159412205 
1268	 0.373601868782512 
1269	 0.373688427600436 
1270	 0.373774497345721 
1271	 0.373862154434753 
1272	 0.373948176277354 
1273	 0.374046843148804 
1274	 0.374149255034232 
1275	 0.374249528254022 
1276	 0.374360156026631 
1277	 0.374470250495857 
1278	 0.374578837464585 
1279	 0.374686254495429 
1280	 0.374803363042997 
1281	 0.374907101449039 
1282	 0.374994296447034 
1283	 0.375090410804098 
1284	 0.375182143451293 
1285	 0.375286928077865 
1286	 0.37538305737131 
1287	 0.375476163078979 
1288	 0.375550776386974 
1289	 0.37561179449706 
1290	 0.37566305565949 
1291	 0.375699551254625 
1292	 0.375736720421402 
1293	 0.375759121093052 
1294	 0.375792070178434 
1295	 0.375832632901391 
1296	 0.375854246102924 
1297	 0.375890626508042 
1298	 0.375891516942972 
1299	 0.375839497787377 
1300	 0.375825009253362 
1301	 0.375814497076692 
1302	 0.37579031421665 
1303	 0.375769580578085 
1304	 0.375773322615753 
1305	 0.375728548248525 
1306	 0.37567459074537 
1307	 0.375626467527991 
1308	 0.375557274148808 
1309	 0.375494469949107 
1310	 0.375425337366235 
1311	 0.375363812587633 
1312	 0.375299946648845 
1313	 0.375248625375588 
1314	 0.375200689847077 
1315	 0.375158217258677 
1316	 0.375127640726057 
1317	 0.375094941838909 
1318	 0.375061632188299 
1319	 0.375036750508646 
1320	 0.375013402076303 
1321	 0.375000067506689 
1322	 0.374992275301873 
1323	 0.37500137611099 
1324	 0.375002432516213 
1325	 0.374997028218449 
1326	 0.374990683459785 
1327	 0.374984830094555 
1328	 0.374991607044489 
1329	 0.375001615592061 
1330	 0.375039148687928 
1331	 0.375082480797176 
1332	 0.375166513154472 
1333	 0.375306849643713 
1334	 0.375407436552483 
1335	 0.375524742086441 
1336	 0.375611841936212 
1337	 0.375646147292192 
1338	 0.375727901479469 
1339	 0.375812637645713 
1340	 0.375926381809424 
1341	 0.376101754132742 
1342	 0.376230472312844 
1343	 0.376350721057511 
1344	 0.376470682310744 
1345	 0.376558266357293 
1346	 0.376623308657736 
1347	 0.376719870867482 
1348	 0.376823682814551 
1349	 0.376940753292306 
1350	 0.377070024394413 
1351	 0.377187233090236 
1352	 0.377295508151205 
1353	 0.377429143473338 
1354	 0.377577648160056 
1355	 0.377707830459821 
1356	 0.377855108887829 
1357	 0.377972557127742 
1358	 0.37804998892183 
1359	 0.378160579858587 
1360	 0.378282250852371 
1361	 0.378398050633606 
1362	 0.378537649495602 
1363	 0.378643622499283 
1364	 0.378719977821505 
1365	 0.378806923214135 
1366	 0.378885086557948 
1367	 0.378955789285984 
1368	 0.379054873917104 
1369	 0.379159090973227 
1370	 0.379235863582676 
1371	 0.379314893497753 
1372	 0.37937847307835 
1373	 0.379413097821316 
1374	 0.379453989063727 
1375	 0.379502788199218 
1376	 0.379520894330839 
1377	 0.379524956673679 
1378	 0.379513563095399 
1379	 0.379471580268586 
1380	 0.379444775057684 
1381	 0.379407886008632 
1382	 0.379380649168972 
1383	 0.379377462598851 
1384	 0.379335226710662 
1385	 0.379286276627991 
1386	 0.379218200804257 
1387	 0.379109805026917 
1388	 0.379014452884908 
1389	 0.378920237951451 
1390	 0.378822529610966 
1391	 0.378696007716967 
1392	 0.378564134627271 
1393	 0.378411306478124 
1394	 0.378209152044618 
1395	 0.377990233370866 
1396	 0.37776260574191 
1397	 0.377535568377764 
1398	 0.377287680780008 
1399	 0.377054221201028 
1400	 0.376832600696805 
1401	 0.376598861223088 
1402	 0.376364743812536 
1403	 0.376119930747271 
1404	 0.375867616739181 
1405	 0.375611273143615 
1406	 0.375339956572181 
1407	 0.375073518447106 
1408	 0.37480042727273 
1409	 0.374539043471554 
1410	 0.374272594065281 
1411	 0.374035601062202 
1412	 0.373810524717462 
1413	 0.37360049956461 
1414	 0.373429734376239 
1415	 0.373271741675658 
1416	 0.373150010092245 
1417	 0.373059830895722 
1418	 0.372974942714021 
1419	 0.372885106679816 
1420	 0.372777775334268 
1421	 0.372678309931543 
1422	 0.372601651535066 
1423	 0.372530181515389 
1424	 0.372447231760344 
1425	 0.372365923569694 
1426	 0.372296701627865 
1427	 0.37221666896831 
1428	 0.372149685464927 
1429	 0.372108129273443 
1430	 0.37205418120372 
1431	 0.37198270115001 
1432	 0.371937180762217 
1433	 0.371907353381537 
1434	 0.371879469152639 
1435	 0.371866091940119 
1436	 0.371851721195153 
1437	 0.371836783428458 
1438	 0.371827219997317 
1439	 0.371826542432092 
1440	 0.371820198118127 
1441	 0.371812110597406 
1442	 0.371805327439284 
1443	 0.371797347408134 
1444	 0.371791601919747 
1445	 0.371800658748524 
1446	 0.371818779087954 
1447	 0.371829379492377 
1448	 0.371840951365552 
1449	 0.371853237772392 
1450	 0.371881287061061 
1451	 0.371907345130293 
1452	 0.371943906528479 
1453	 0.371970521524437 
1454	 0.371993413541258 
1455	 0.37201959285951 
1456	 0.372048818402505 
1457	 0.372066568700148 
1458	 0.372081114905292 
1459	 0.372089565938963 
1460	 0.372066892011854 
1461	 0.37209736775642 
1462	 0.372154677739492 
1463	 0.372209419260841 
1464	 0.372302952913885 
1465	 0.372366627326073 
1466	 0.372400684516256 
1467	 0.372460730793011 
1468	 0.372529702352808 
1469	 0.37259682643421 
1470	 0.372675402853057 
1471	 0.372754653905384 
1472	 0.372825309796254 
1473	 0.372902731405727 
1474	 0.373001210772025 
1475	 0.373102494680128 
1476	 0.373176184751821 
1477	 0.373262160436501 
1478	 0.373347461656925 
1479	 0.373428196363695 
1480	 0.373535513954289 
1481	 0.373631284357586 
1482	 0.373728152917494 
1483	 0.373822293407059 
1484	 0.373911743047321 
1485	 0.374000533670046 
1486	 0.37409752827107 
1487	 0.374180912121048 
1488	 0.374288567932931 
1489	 0.37441402222758 
1490	 0.374536112737298 
1491	 0.374665329815167 
1492	 0.374806737171886 
1493	 0.374961204579659 
1494	 0.375106977759639 
1495	 0.375275158659655 
1496	 0.375406691646867 
1497	 0.375508659257938 
1498	 0.375618830837799 
1499	 0.375715752218502 
1500	 0.375816967576252 
1501	 0.375927235968934 
1502	 0.376022645010251 
1503	 0.376113176204285 
1504	 0.376188437187224 
1505	 0.376249366572192 
1506	 0.376312142236211 
1507	 0.376378087253712 
1508	 0.376439487396592 
1509	 0.376505165283026 
1510	 0.376591341182832 
1511	 0.376677690295596 
1512	 0.376756048612694 
1513	 0.376846280092113 
1514	 0.376928991344056 
1515	 0.376998782910803 
1516	 0.377071608868627 
1517	 0.377146133903925 
1518	 0.377221938178776 
1519	 0.377284043633375 
1520	 0.377345709255543 
1521	 0.37739743065505 
1522	 0.377420430632911 
1523	 0.377479807721761 
1524	 0.377560163173127 
1525	 0.377626690722926 
1526	 0.377708874241351 
1527	 0.377765594807632 
1528	 0.377796278716583 
1529	 0.377846658215734 
1530	 0.377893976527899 
1531	 0.377950025458108 
1532	 0.378012559057188 
1533	 0.378082670514524 
1534	 0.378151621532317 
1535	 0.378238467425945 
1536	 0.378370526287639 
1537	 0.378452093752364 
1538	 0.378518552064223 
1539	 0.378581487308254 
1540	 0.378606841760221 
1541	 0.378641171265338 
1542	 0.3786791281076 
1543	 0.378720954791572 
1544	 0.378755446684872 
1545	 0.378798743685785 
1546	 0.378856928863211 
1547	 0.378908578262749 
1548	 0.378948573610816 
1549	 0.379008291228379 
1550	 0.379076620003918 
1551	 0.379130425837986 
1552	 0.379189246021204 
1553	 0.379251605441308 
1554	 0.379301522654051 
1555	 0.379351450185734 
1556	 0.379408495215568 
1557	 0.379450175618937 
1558	 0.379497776083079 
1559	 0.379556287343589 
1560	 0.379598728728007 
1561	 0.379636571166499 
1562	 0.379681126277692 
1563	 0.379709579945134 
1564	 0.379764046000041 
1565	 0.379844840481181 
1566	 0.379902576820669 
1567	 0.379965529260699 
1568	 0.380008958077859 
1569	 0.380032196535458 
1570	 0.380065057442173 
1571	 0.380090175870036 
1572	 0.38012274340241 
1573	 0.38016374958324 
1574	 0.38019602375983 
1575	 0.380220198035467 
1576	 0.380257405718524 
1577	 0.380303473469763 
1578	 0.380336344789382 
1579	 0.380361556448808 
1580	 0.380403952653392 
1581	 0.380445932117502 
1582	 0.380491196079955 
1583	 0.380544116313284 
1584	 0.38061076238476 
1585	 0.380687358381212 
1586	 0.380755364528228 
1587	 0.380853063375636 
1588	 0.380917864963256 
1589	 0.380943019176876 
1590	 0.380986469571261 
1591	 0.38103433280327 
1592	 0.381070579171863 
1593	 0.381096185788826 
1594	 0.381140112741233 
1595	 0.381183910653486 
1596	 0.381224177150546 
1597	 0.381292671011389 
1598	 0.381337546250679 
1599	 0.381355199915043 
1600	 0.381385038370367 
1601	 0.381419101044996 
1602	 0.381436288635509 
1603	 0.381438185230696 
1604	 0.381453335669541 
1605	 0.381451868689422 
1606	 0.381478017225269 
1607	 0.381545607269368 
1608	 0.38158933590917 
1609	 0.381630333181338 
1610	 0.381672662299835 
1611	 0.381699150040383 
1612	 0.381743801668728 
1613	 0.381803269287441 
1614	 0.381837079922957 
1615	 0.381869261908049 
1616	 0.381897756547113 
1617	 0.381906821166977 
1618	 0.381928118241445 
1619	 0.381940492592625 
1620	 0.381934330554645 
1621	 0.381947820416305 
1622	 0.381963432268819 
1623	 0.381988417104748 
1624	 0.382030891275782 
1625	 0.382052675278421 
1626	 0.382060986291022 
1627	 0.382099209584229 
1628	 0.382133913491921 
1629	 0.382195224601154 
1630	 0.382293764839211 
1631	 0.382371865911806 
1632	 0.382457490925643 
1633	 0.382523093465895 
1634	 0.382582274010096 
1635	 0.382633452408356 
1636	 0.38267970370619 
1637	 0.38269589742048 
1638	 0.382688513159304 
1639	 0.3826989286907 
1640	 0.382680819756334 
1641	 0.382699934134586 
1642	 0.38275343935122 
1643	 0.382785625495261 
1644	 0.382825444510158 
1645	 0.382845760037447 
1646	 0.38284989057484 
1647	 0.382866500080773 
1648	 0.382871243262099 
1649	 0.382894732617548 
1650	 0.382930120152652 
1651	 0.382972101636872 
1652	 0.383032204443084 
1653	 0.383071891351581 
1654	 0.383111638082158 
1655	 0.383147791861753 
1656	 0.383169140684757 
1657	 0.383196370224473 
1658	 0.383235655063083 
1659	 0.383255909425455 
1660	 0.383255280519702 
1661	 0.383274971415455 
1662	 0.383296243367771 
1663	 0.383318462271998 
1664	 0.383362373127742 
1665	 0.38337693805134 
1666	 0.383359620708009 
1667	 0.383378666432253 
1668	 0.383403082719211 
1669	 0.38342975370923 
1670	 0.383477762992011 
1671	 0.383521544889334 
1672	 0.383561458572855 
1673	 0.383599465699037 
1674	 0.383644196003043 
1675	 0.383688971260993 
1676	 0.383732546650058 
1677	 0.383763109288111 
1678	 0.383796682147529 
1679	 0.383821593095245 
1680	 0.383815164973942 
1681	 0.383841297343034 
1682	 0.383898691784121 
1683	 0.383919021185744 
1684	 0.383933987937397 
1685	 0.383946123371676 
1686	 0.383926584313654 
1687	 0.383930929269028 
1688	 0.383949857265992 
1689	 0.383967468281581 
1690	 0.383983750041513 
1691	 0.384012224881637 
1692	 0.384064605112365 
1693	 0.384087497734828 
1694	 0.384089350520563 
1695	 0.38412041041922 
1696	 0.384153962966147 
1697	 0.38417903151127 
1698	 0.384236883770408 
1699	 0.384255593327574 
1700	 0.384229107423477 
1701	 0.38423233987101 
1702	 0.384236116149011 
1703	 0.384244413271505 
1704	 0.384256228239995 
1705	 0.384284160002203 
1706	 0.384324701037279 
1707	 0.384360210688048 
1708	 0.384405550441367 
1709	 0.384451951164704 
1710	 0.384510898229299 
1711	 0.384526068738173 
1712	 0.384527611156657 
1713	 0.384530411312659 
1714	 0.384490836939259 
1715	 0.384490582514348 
1716	 0.384521899573964 
1717	 0.384529688279877 
1718	 0.384540007024167 
1719	 0.384528207474588 
1720	 0.384506103031119 
1721	 0.384472636046067 
1722	 0.38439572458126 
1723	 0.384381568688404 
1724	 0.384388883468183 
1725	 0.384399924220977 
1726	 0.384465153245648 
1727	 0.384475972226736 
1728	 0.384458459435064 
1729	 0.384443910488309 
1730	 0.384407987743537 
1731	 0.38438755341977 
1732	 0.384363842380884 
1733	 0.38436247697381 
1734	 0.384393891174219 
1735	 0.384373770531869 
1736	 0.384352748777092 
1737	 0.384293858060769 
1738	 0.384176832199311 
1739	 0.38410016087534 
1740	 0.384018752621967 
1741	 0.383963073487629 
1742	 0.383921437523338 
1743	 0.383891623547609 
1744	 0.383877945504907 
1745	 0.383872217885407 
1746	 0.383884065938552 
1747	 0.383900211735845 
1748	 0.383903528240266 
1749	 0.383881767846503 
1750	 0.383841726706892 
1751	 0.383758104928131 
1752	 0.383688697869578 
1753	 0.383619504104058 
1754	 0.383533502446009 
1755	 0.383494699259604 
1756	 0.383438228491112 
1757	 0.383385195267684 
1758	 0.383383947833091 
1759	 0.383347657416447 
1760	 0.383341651983798 
1761	 0.383369944266741 
1762	 0.383351967722222 
1763	 0.383363178001126 
1764	 0.383354674455681 
1765	 0.383300042089045 
1766	 0.38328338846741 
1767	 0.383266751353249 
1768	 0.383248580711483 
1769	 0.383238562802674 
1770	 0.383196526301841 
1771	 0.383174746865818 
1772	 0.383162529240898 
1773	 0.383147362420116 
1774	 0.383188804044771 
1775	 0.383189886433849 
1776	 0.383162692636565 
1777	 0.383182044952025 
1778	 0.38315740917169 
1779	 0.383124349508131 
1780	 0.383102151258389 
1781	 0.383033760721945 
1782	 0.382999790534857 
1783	 0.383021487651618 
1784	 0.383046908453141 
1785	 0.383142010560157 
1786	 0.38315965039181 
1787	 0.383124753692793 
1788	 0.383116072487858 
1789	 0.383090360150526 
1790	 0.383053482629433 
1791	 0.383026879254116 
1792	 0.382994193743445 
1793	 0.382915307000349 
1794	 0.38289333354099 
1795	 0.382894819135404 
1796	 0.38292690951928 
1797	 0.383012994183455 
1798	 0.383077116250443 
1799	 0.383161028570608 
1800	 0.383219871416039 
1801	 0.380242949283214 
1802	 0.380261442747352 
1803	 0.380286695529584 
1804	 0.38032344294272 
1805	 0.380339633707716 
1806	 0.380344574895515 
1807	 0.380370335555205 
1808	 0.380378559457997 
1809	 0.380373961687503 
1810	 0.380364085832206 
1811	 0.380351388801718 
1812	 0.380329214104387 
1813	 0.380285193322279 
1814	 0.380280369851726 
1815	 0.38029546831386 
1816	 0.380303536312439 
1817	 0.380313804808834 
1818	 0.380342875381536 
1819	 0.380354337535201 
1820	 0.380362564296423 
1821	 0.380339679154771 
1822	 0.380350030390071 
1823	 0.380387957407574 
1824	 0.380387900477212 
1825	 0.380416259206355 
1826	 0.380447010771227 
1827	 0.380433273151461 
1828	 0.380425796204169 
1829	 0.380415780757304 
1830	 0.380414394048484 
1831	 0.380406804986755 
1832	 0.380396578361785 
1833	 0.380406401609236 
1834	 0.380443899072096 
1835	 0.380447113455354 
1836	 0.380429172765687 
1837	 0.38045570059346 
1838	 0.3804577718134 
1839	 0.380441093908539 
1840	 0.380422939664831 
1841	 0.380409028982843 
1842	 0.380332890965303 
1843	 0.380266928736311 
1844	 0.380243432013406 
1845	 0.380238114758571 
1846	 0.380238159784392 
1847	 0.380217893704222 
1848	 0.380177909908441 
1849	 0.380129388118297 
1850	 0.380086479940179 
1851	 0.380039771285688 
1852	 0.380016985794003 
1853	 0.379998840498036 
1854	 0.379952698068936 
1855	 0.379917770085452 
1856	 0.379870573931204 
1857	 0.379785520231175 
1858	 0.379726184702395 
1859	 0.379687680159563 
1860	 0.379613409767053 
1861	 0.37952720864128 
1862	 0.379428855826515 
1863	 0.379302707724139 
1864	 0.37911478162053 
1865	 0.37889403393964 
1866	 0.378673297144705 
1867	 0.378452595997936 
1868	 0.378225395259284 
1869	 0.37802157398686 
1870	 0.377829045645723 
1871	 0.377602954006807 
1872	 0.377354733571586 
1873	 0.377105453829363 
1874	 0.376852427532455 
1875	 0.376567550667968 
1876	 0.376264233404325 
1877	 0.375946197500979 
1878	 0.375595285020933 
1879	 0.37517312075334 
1880	 0.374688586611086 
1881	 0.374164102131693 
1882	 0.373572995173497 
1883	 0.372897971134005 
1884	 0.372180133865807 
1885	 0.3714513574758 
1886	 0.370645665056841 
1887	 0.369803249382997 
1888	 0.368924794645638 
1889	 0.368010422641664 
1890	 0.367063889899603 
1891	 0.366094858110702 
1892	 0.365105796341005 
1893	 0.364082701082207 
1894	 0.363025073694022 
1895	 0.361950035266027 
1896	 0.360815356057845 
1897	 0.359652551508994 
1898	 0.358483624392066 
1899	 0.357285399310176 
1900	 0.356129741596786 
1901	 0.354976782744066 
1902	 0.353831309339332 
1903	 0.35269763664547 
1904	 0.351581933193689 
1905	 0.350463054362085 
1906	 0.349379177070615 
1907	 0.348337476011929 
1908	 0.347334179077626 
1909	 0.346389615722394 
1910	 0.345494947014158 
1911	 0.344641659367587 
1912	 0.343840373764212 
1913	 0.343069849615739 
1914	 0.342326451061349 
1915	 0.341640226818267 
1916	 0.341003397898866 
1917	 0.340392464127996 
1918	 0.339842934406185 
1919	 0.339345405070769 
1920	 0.338858138343894 
1921	 0.338408903182477 
1922	 0.33799862031998 
1923	 0.337606615505402 
1924	 0.337272022773825 
1925	 0.337001240021799 
1926	 0.33674673195414 
1927	 0.336520799075905 
1928	 0.336342445245055 
1929	 0.336192926079548 
1930	 0.336054427536675 
1931	 0.335981816644297 
1932	 0.335943913601674 
1933	 0.335907335305336 
1934	 0.335912965262631 
1935	 0.335942201022222 
1936	 0.33599308538309 
1937	 0.33606018551244 
1938	 0.336169256342555 
1939	 0.336278453768299 
1940	 0.336393634995877 
1941	 0.336520868255346 
1942	 0.33667751957706 
1943	 0.336853032561214 
1944	 0.337028163129955 
1945	 0.337222378083568 
1946	 0.337415624960989 
1947	 0.337605923986057 
1948	 0.337803411231647 
1949	 0.338018282806012 
1950	 0.338227181132215 
1951	 0.338424028104913 
1952	 0.338651053607222 
1953	 0.338879450390815 
1954	 0.339094707384331 
1955	 0.339336420186679 
1956	 0.339599785827845 
1957	 0.339870726046734 
1958	 0.340158816860717 
1959	 0.34044735207735 
1960	 0.340750709208488 
1961	 0.34105068153006 
1962	 0.341348775029746 
1963	 0.341663300470637 
1964	 0.341994277300071 
1965	 0.342308429128256 
1966	 0.342634672919517 
1967	 0.342972164085329 
1968	 0.343324742475375 
1969	 0.343696618876653 
1970	 0.344052739233744 
1971	 0.344425255874016 
1972	 0.344779193091746 
1973	 0.345104905300235 
1974	 0.345448909401752 
1975	 0.345785267835252 
1976	 0.346150546445444 
1977	 0.346535432881233 
1978	 0.346899960297334 
1979	 0.347293726654304 
1980	 0.34767170559033 
1981	 0.34805475957151 
1982	 0.348434322341384 
1983	 0.348827419715829 
1984	 0.349230812220027 
1985	 0.349629070191933 
1986	 0.350040989319455 
1987	 0.350433738780325 
1988	 0.350825068647142 
1989	 0.35119100485161 
1990	 0.351566527694369 
1991	 0.35191155827007 
1992	 0.352257520447166 
1993	 0.352593553725737 
1994	 0.352935451182119 
1995	 0.353247084744901 
1996	 0.353608580305006 
1997	 0.354003430204845 
1998	 0.35438090032415 
1999	 0.354796023843278 
2000	 0.355178591911144 
2001	 0.355519914748823 
2002	 0.355890180551855 
2003	 0.356253930014002 
2004	 0.356604670620895 
2005	 0.356976686325125 
2006	 0.357369363833309 
2007	 0.357737453695025 
2008	 0.358106737570129 
2009	 0.358468870593605 
2010	 0.358812163318365 
2011	 0.35916484111209 
2012	 0.359525428757379 
2013	 0.359876796922264 
2014	 0.360205320560949 
2015	 0.360560560475303 
2016	 0.36094220763969 
2017	 0.361317776013897 
2018	 0.361702132857964 
2019	 0.362129374482866 
2020	 0.362509561463232 
2021	 0.362873563311147 
2022	 0.363219487236532 
2023	 0.363539401878397 
2024	 0.363864003813655 
2025	 0.364170880891756 
2026	 0.364481485086882 
2027	 0.364807155291438 
2028	 0.365106475081207 
2029	 0.365399263322023 
2030	 0.365673439226613 
2031	 0.36596248620765 
2032	 0.366236772126828 
2033	 0.366539280867445 
2034	 0.366869671237914 
2035	 0.367175969394249 
2036	 0.367488930547049 
2037	 0.367791385345952 
2038	 0.368093347110263 
2039	 0.368371424798542 
2040	 0.368622029157633 
2041	 0.368888628509538 
2042	 0.369172737722918 
2043	 0.369398550557372 
2044	 0.369642918187167 
2045	 0.369911333273681 
2046	 0.370138558873702 
2047	 0.370328975402738 
2048	 0.370533221978869 
2049	 0.3707237050602 
2050	 0.370923445896801 
2051	 0.371117732494119 
2052	 0.371324535314885 
2053	 0.371553538460437 
2054	 0.371764312394464 
2055	 0.371982774860076 
2056	 0.37217654783242 
2057	 0.372373475655421 
2058	 0.372543010797538 
2059	 0.372751580242293 
2060	 0.372984785797365 
2061	 0.373196039976615 
2062	 0.373418854666412 
2063	 0.373627897871423 
2064	 0.373813468297552 
2065	 0.374010110578257 
2066	 0.374216201337027 
2067	 0.374414262119792 
2068	 0.374613222867626 
2069	 0.374796413578618 
2070	 0.374987929631485 
2071	 0.375169559443243 
2072	 0.37537702638604 
2073	 0.375600152817212 
2074	 0.375813920133178 
2075	 0.376039064878623 
2076	 0.376257716611294 
2077	 0.376477393511013 
2078	 0.376682527616856 
2079	 0.376885582708679 
2080	 0.377084000216796 
2081	 0.377255773234012 
2082	 0.377441010615082 
2083	 0.377634402302383 
2084	 0.377831403526079 
2085	 0.378017989282515 
2086	 0.378200192245458 
2087	 0.378388523832269 
2088	 0.378582258773858 
2089	 0.378756039362573 
2090	 0.378924420562228 
2091	 0.379094487912356 
2092	 0.379240456784596 
2093	 0.379406511502215 
2094	 0.379589455851451 
2095	 0.379767348691879 
2096	 0.37995492277589 
2097	 0.38012768957647 
2098	 0.380277894927898 
2099	 0.380448104719201 
2100	 0.380638517415579 
2101	 0.380827155109854 
2102	 0.381045699539119 
2103	 0.381317810000861 
2104	 0.381542334875644 
2105	 0.381737990203479 
2106	 0.381976786282349 
2107	 0.38222584642947 
2108	 0.382470956284419 
2109	 0.382750092232871 
2110	 0.383013465998791 
2111	 0.383254008242479 
2112	 0.383504051212505 
2113	 0.38376426656517 
2114	 0.384028007666155 
2115	 0.384273661458586 
2116	 0.384514090380675 
2117	 0.384739125987265 
2118	 0.384944069597536 
2119	 0.385161251662903 
2120	 0.385383854257575 
2121	 0.385580355744178 
2122	 0.385756153559426 
2123	 0.385954661294829 
2124	 0.386162011426513 
2125	 0.386336802381946 
2126	 0.386514048479062 
2127	 0.386684819174616 
2128	 0.386816471607616 
2129	 0.386952317490849 
2130	 0.387113016140129 
2131	 0.387247945500552 
2132	 0.387367450857615 
2133	 0.3874741419022 
2134	 0.387549908249734 
2135	 0.38761044175929 
2136	 0.387640796900412 
2137	 0.387614851775351 
2138	 0.387618912822664 
2139	 0.387633415830153 
2140	 0.387613096569179 
2141	 0.387590805606532 
2142	 0.387547781523533 
2143	 0.387456010235696 
2144	 0.387376747572957 
2145	 0.387324510961661 
2146	 0.387223032433168 
2147	 0.387075383274724 
2148	 0.386952971284725 
2149	 0.386793009825141 
2150	 0.386589350575608 
2151	 0.386400923967848 
2152	 0.38620380879426 
2153	 0.386015776133543 
2154	 0.385827741562796 
2155	 0.385631774346194 
2156	 0.38545057621609 
2157	 0.385244247544293 
2158	 0.385012081702734 
2159	 0.3847865259917 
2160	 0.384553163859332 
2161	 0.384316126167521 
2162	 0.384075759772359 
2163	 0.38383534796094 
2164	 0.383584281012625 
2165	 0.383343270631064 
2166	 0.383104809759382 
2167	 0.382878967315293 
2168	 0.382624657635698 
2169	 0.38236252196707 
2170	 0.38210054226551 
2171	 0.381804370047337 
2172	 0.381551548778727 
2173	 0.381342836229937 
2174	 0.38108674164512 
2175	 0.380831422280125 
2176	 0.380560661019186 
2177	 0.380244092980759 
2178	 0.379950294490527 
2179	 0.37964414051854 
2180	 0.379372326304508 
2181	 0.379138904410815 
2182	 0.378882134414661 
2183	 0.378639619990256 
2184	 0.378391428340748 
2185	 0.378139837982341 
2186	 0.377856233544737 
2187	 0.377614964354598 
2188	 0.377397746532356 
2189	 0.377177151846786 
2190	 0.376969241907674 
2191	 0.376755344257254 
2192	 0.376533152742657 
2193	 0.376333809370211 
2194	 0.376132660730664 
2195	 0.375960230537539 
2196	 0.375829844561739 
2197	 0.375681717808772 
2198	 0.375548704439231 
2199	 0.375404135299574 
2200	 0.375231330136489 
2201	 0.375085193110857 
2202	 0.374952409996363 
2203	 0.374821301026613 
2204	 0.374700935487008 
2205	 0.374596728168133 
2206	 0.374499733337895 
2207	 0.374394579915794 
2208	 0.374332772637798 
2209	 0.374297613332763 
2210	 0.374276075242422 
2211	 0.374274311497486 
2212	 0.374299333884572 
2213	 0.374375935562508 
2214	 0.374409762313635 
2215	 0.374455829635364 
2216	 0.37448692275076 
2217	 0.374460135862959 
2218	 0.374481524274691 
2219	 0.374550828850453 
2220	 0.374588617835388 
2221	 0.374626875758636 
2222	 0.374666483717174 
2223	 0.374699287900537 
2224	 0.374684987075739 
2225	 0.374681212233762 
2226	 0.374689180432831 
2227	 0.374651415432919 
2228	 0.374573755187527 
2229	 0.374515779839686 
2230	 0.374440728701061 
2231	 0.374373825238534 
2232	 0.374308167563506 
2233	 0.374255258210263 
2234	 0.374185698603604 
2235	 0.374151899769807 
2236	 0.374167244862134 
2237	 0.374149905534132 
2238	 0.37413333531368 
2239	 0.374119631937212 
2240	 0.374103835008126 
2241	 0.374069971591746 
2242	 0.374035942713073 
2243	 0.373992386599079 
2244	 0.373900550127736 
2245	 0.373839790392185 
2246	 0.373819380047236 
2247	 0.373851178748781 
2248	 0.373883711728447 
2249	 0.373963800580238 
2250	 0.374023818179947 
2251	 0.374084296802631 
2252	 0.374142849021942 
2253	 0.374224060158736 
2254	 0.374277332026384 
2255	 0.374337426580714 
2256	 0.374336852469382 
2257	 0.374284478003292 
2258	 0.374244585400719 
2259	 0.374152409960851 
2260	 0.374100571086534 
2261	 0.374063056920451 
2262	 0.374049952583337 
2263	 0.374042941381857 
2264	 0.374060225810183 
2265	 0.374130290068024 
2266	 0.374177773371074 
2267	 0.374234145034582 
2268	 0.374281124466118 
2269	 0.374326014465292 
2270	 0.37435208707341 
2271	 0.374361294591129 
2272	 0.3743976995871 
2273	 0.374400535099691 
2274	 0.37439645047894 
2275	 0.374448824782828 
2276	 0.374552927166661 
2277	 0.374575572745655 
2278	 0.374611251647407 
2279	 0.374613694301615 
2280	 0.374492114446555 
2281	 0.3745238988156 
2282	 0.374649922469637 
2283	 0.374726349949002 
2284	 0.374869880500478 
2285	 0.37495038896891 
2286	 0.374982492587233 
2287	 0.375012708526189 
2288	 0.375018767671894 
2289	 0.375031955186388 
2290	 0.375011432460285 
2291	 0.375023443463336 
2292	 0.375028954291197 
2293	 0.375089194011035 
2294	 0.37523114457006 
2295	 0.375319852775069 
2296	 0.375409734251193 
2297	 0.375518441500171 
2298	 0.375584749472383 
2299	 0.375634072732661 
2300	 0.375676396340639 
2301	 0.375722809416513 
2302	 0.375770865919002 
2303	 0.375758710390007 
2304	 0.375751153400925 
2305	 0.375760202204962 
2306	 0.37576317444529 
2307	 0.375750716514107 
2308	 0.375740803841399 
2309	 0.375736954516777 
2310	 0.375728936741771 
2311	 0.375698418677308 
2312	 0.375680945238593 
2313	 0.375676317155395 
2314	 0.375696884841678 
2315	 0.375721324120751 
2316	 0.375757098740063 
2317	 0.375837297165571 
2318	 0.375875474272998 
2319	 0.375902248514781 
2320	 0.375919112834875 
2321	 0.375893577232591 
2322	 0.375908121668304 
2323	 0.375960180129579 
2324	 0.375961516049684 
2325	 0.375962803220536 
2326	 0.375965532399315 
2327	 0.375938262427849 
2328	 0.375878406019127 
2329	 0.375914639894752 
2330	 0.375915225265998 
2331	 0.375869877099136 
2332	 0.375908409686047 
2333	 0.375943977574266 
2334	 0.376029831093787 
2335	 0.376171380425633 
2336	 0.376292551963466 
2337	 0.376382005696774 
2338	 0.376404365803441 
2339	 0.376401909801069 
2340	 0.376351022720862 
2341	 0.376292470540189 
2342	 0.376241181482065 
2343	 0.37619030301026 
2344	 0.376141068977926 
2345	 0.376108597026604 
2346	 0.376119606620069 
2347	 0.376062683500088 
2348	 0.375996959770435 
2349	 0.375915069830817 
2350	 0.375763599702671 
2351	 0.375644599512479 
2352	 0.37554040062651 
2353	 0.37541151326965 
2354	 0.375297657083311 
2355	 0.375122694520363 
2356	 0.374861643798254 
2357	 0.37472944068822 
2358	 0.374624632925441 
2359	 0.374518411679813 
2360	 0.374484897579309 
2361	 0.374419371503106 
2362	 0.374334040616248 
2363	 0.374228252882559 
2364	 0.374164542505153 
2365	 0.374066002156428 
2366	 0.37388285603634 
2367	 0.373745864646261 
2368	 0.373646404314461 
2369	 0.373499946449669 
2370	 0.373345948675931 
2371	 0.373173047870272 
2372	 0.372932888723679 
2373	 0.372645927317209 
2374	 0.372357164860303 
2375	 0.372065413296861 
2376	 0.37177478037364 
2377	 0.371526284494787 
2378	 0.371262433535821 
2379	 0.370989878656923 
2380	 0.370757651376812 
2381	 0.370572228972898 
2382	 0.370455795631086 
2383	 0.370303336045479 
2384	 0.370129593957809 
2385	 0.369923201912422 
2386	 0.369589618846511 
2387	 0.369284683831246 
2388	 0.368981821914055 
2389	 0.368686353289332 
2390	 0.36847031528975 
2391	 0.368169695542285 
2392	 0.367893106223951 
2393	 0.367735186967757 
2394	 0.367532191467416 
2395	 0.367340718192857 
2396	 0.3672057129104 
2397	 0.366996134904213 
2398	 0.366776300830911 
2399	 0.366643126341251 
2400	 0.366497989383903 
2401	 0.366229613692226 
2402	 0.365868561587082 
2403	 0.365519993407728 
2404	 0.365181446016106 
2405	 0.364878874834928 
2406	 0.364632010092534 
2407	 0.364360201178471 
2408	 0.364050895372801 
2409	 0.363746978435812 
2410	 0.363473993008962 
2411	 0.363262961838973 
2412	 0.36317206268143 
2413	 0.362982782741442 
2414	 0.362744513745098 
2415	 0.362517728623457 
2416	 0.362172738768067 
2417	 0.361633825747029 
2418	 0.361285659669663 
2419	 0.360921558950296 
2420	 0.360635288552386 
2421	 0.360522584890879 
2422	 0.360216197879882 
2423	 0.359881005572276 
2424	 0.359587623901667 
2425	 0.359201947758068 
2426	 0.358789180385154 
2427	 0.358364362654019 
2428	 0.357946817245 
2429	 0.357458487729657 
2430	 0.357101783950096 
2431	 0.356864856981462 
2432	 0.356593522226465 
2433	 0.356324595864258 
2434	 0.356088415550556 
2435	 0.355961723561246 
2436	 0.355710176821726 
2437	 0.355379295931442 
2438	 0.355094650096152 
2439	 0.354716034937942 
2440	 0.354443193112486 
2441	 0.354290107351195 
2442	 0.354053504418351 
2443	 0.353846045353041 
2444	 0.353530372889564 
2445	 0.353098120755669 
2446	 0.352793471120188 
2447	 0.352493955247061 
2448	 0.352231716194996 
2449	 0.352073743290505 
2450	 0.351782555666135 
2451	 0.351383649057648 
2452	 0.351093665655893 
2453	 0.350873658977461 
2454	 0.350523185258971 
2455	 0.350128733772821 
2456	 0.349793225930038 
2457	 0.349362786205211 
2458	 0.349094387676377 
2459	 0.349091159088094 
2460	 0.348791257962402 
2461	 0.348335310473158 
2462	 0.347935070711904 
2463	 0.347325579936087 
2464	 0.346968837688278 
2465	 0.346803306299386 
2466	 0.346601558880704 
2467	 0.346536966062621 
2468	 0.346292435565569 
2469	 0.34598367858868 
2470	 0.345590875251175 
2471	 0.345272166070113 
2472	 0.344950948716834 
2473	 0.344508039411594 
2474	 0.344093878789663 
2475	 0.343833910855116 
2476	 0.343605533490323 
2477	 0.343351370267248 
2478	 0.343173027853414 
2479	 0.342973709957278 
2480	 0.342779652775764 
2481	 0.34263910788631 
2482	 0.342346137961123 
2483	 0.341918519069037 
2484	 0.341474766556106 
2485	 0.341058671575192 
2486	 0.34076769472041 
2487	 0.340410612060876 
2488	 0.340027083071885 
2489	 0.339719671806037 
2490	 0.339339755304928 
2491	 0.339160929688854 
2492	 0.339005611294816 
2493	 0.33871750664944 
2494	 0.338600104028733 
2495	 0.338310591004847 
2496	 0.337933305869166 
2497	 0.337835097823774 
2498	 0.337740275558393 
2499	 0.337552021313346 
2500	 0.3373598802819 
