Wavelength	MM1000010.asd
350	 4.17865803134694E-02 
351	 5.27815858802075E-02 
352	 5.14579706914086E-02 
353	 3.67682041128361E-02 
354	 4.61297218442353E-02 
355	 4.97385139750503E-02 
356	 4.61257611970221E-02 
357	 4.19370590563328E-02 
358	 0.045674835432963 
359	 4.45671957228223E-02 
360	 4.05503066149602E-02 
361	 4.42671129475324E-02 
362	 4.68732762603504E-02 
363	 4.72508047988619E-02 
364	 4.64894534047992E-02 
365	 4.78285495294556E-02 
366	 0.044909649798532 
367	 4.17477422539142E-02 
368	 4.33596214196482E-02 
369	 4.78058969519881E-02 
370	 0.045816142844815 
371	 4.12144184608703E-02 
372	 0.045420151796374 
373	 0.045689012528962 
374	 4.54275897119308E-02 
375	 0.047124899906505 
376	 4.81855155076838E-02 
377	 0.04716124367625 
378	 4.55271752001028E-02 
379	 4.56055229240434E-02 
380	 4.91635841137385E-02 
381	 5.00491758002146E-02 
382	 4.88243228676897E-02 
383	 5.08499746503345E-02 
384	 0.051900650113286 
385	 5.11865673795555E-02 
386	 4.94125895067891E-02 
387	 4.89094974744631E-02 
388	 5.06862091957791E-02 
389	 5.19380479119031E-02 
390	 5.01135284525053E-02 
391	 5.01355990169504E-02 
392	 0.05023138511845 
393	 5.07873051923754E-02 
394	 5.38652230846315E-02 
395	 5.39738892263059E-02 
396	 5.34561532258845E-02 
397	 0.054259795489522 
398	 5.47164130822671E-02 
399	 5.38904627927941E-02 
400	 5.40528868003227E-02 
401	 5.71324012403271E-02 
402	 5.62098820059109E-02 
403	 5.50098097556531E-02 
404	 0.055201988782343 
405	 5.56717341107502E-02 
406	 5.59652912902127E-02 
407	 5.68072463977315E-02 
408	 5.81200744153935E-02 
409	 5.70429793029007E-02 
410	 5.60469989550242E-02 
411	 5.59337229801299E-02 
412	 5.64970654937596E-02 
413	 5.66623015339844E-02 
414	 5.68454301143144E-02 
415	 5.69969533936104E-02 
416	 0.056272712122738 
417	 5.61720095404893E-02 
418	 5.65386644382911E-02 
419	 5.70395915799586E-02 
420	 5.85337491294433E-02 
421	 5.83240517263291E-02 
422	 5.73327551510584E-02 
423	 5.84346018483661E-02 
424	 0.058511078336886 
425	 5.81175459885357E-02 
426	 5.79075538293844E-02 
427	 5.78577506889172E-02 
428	 5.74926691598937E-02 
429	 5.70106879584992E-02 
430	 5.68077671779534E-02 
431	 5.70928831954402E-02 
432	 5.70490693296326E-02 
433	 5.67592715948574E-02 
434	 5.71469004050752E-02 
435	 5.71856047572188E-02 
436	 5.70073124263916E-02 
437	 5.68564141261345E-02 
438	 5.66008254217553E-02 
439	 5.67170023702811E-02 
440	 0.056952449159663 
441	 5.67920596525383E-02 
442	 5.68300274459231E-02 
443	 5.69899012811575E-02 
444	 5.71210151914915E-02 
445	 5.70581152502393E-02 
446	 0.057189896461815 
447	 5.72463015465718E-02 
448	 5.69730191902468E-02 
449	 5.69977078539312E-02 
450	 5.71889085437958E-02 
451	 5.73382190922461E-02 
452	 5.72276399989345E-02 
453	 5.72994427492483E-02 
454	 5.73597377146333E-02 
455	 5.72878835667164E-02 
456	 5.74493030121336E-02 
457	 5.74222431129506E-02 
458	 5.72695346362719E-02 
459	 0.057245389578268 
460	 5.72223978835493E-02 
461	 5.72126520075091E-02 
462	 5.72240377028246E-02 
463	 5.72452036354363E-02 
464	 5.71958962272262E-02 
465	 0.057232874497991 
466	 5.74507138210708E-02 
467	 5.74407611004671E-02 
468	 5.73786539260806E-02 
469	 5.73058089402253E-02 
470	 5.71585626740672E-02 
471	 5.71630446453022E-02 
472	 5.72292619365516E-02 
473	 5.72128500082341E-02 
474	 5.69115993503839E-02 
475	 5.70551297252787E-02 
476	 5.73338331991315E-02 
477	 5.71109353458008E-02 
478	 5.70642539176174E-02 
479	 5.71539419443664E-02 
480	 5.72414769610708E-02 
481	 5.71437630338724E-02 
482	 5.70346383672867E-02 
483	 5.69763107080662E-02 
484	 5.70247978207202E-02 
485	 5.74337713721144E-02 
486	 5.72391168826687E-02 
487	 5.66843971895228E-02 
488	 5.69516777323508E-02 
489	 5.70644459866763E-02 
490	 5.71327762326143E-02 
491	 5.72641839745647E-02 
492	 5.70914120692481E-02 
493	 5.67761058799926E-02 
494	 5.66272762549418E-02 
495	 5.69142586238084E-02 
496	 5.70328720250708E-02 
497	 5.69547295286803E-02 
498	 5.68429746387916E-02 
499	 5.70576112155962E-02 
500	 5.71036875971635E-02 
501	 5.69796134203043E-02 
502	 5.68735255541344E-02 
503	 5.71282777894436E-02 
504	 0.057142443674734 
505	 5.69133132228311E-02 
506	 5.69853446245832E-02 
507	 5.70436821102621E-02 
508	 5.70942243883617E-02 
509	 5.71464749978059E-02 
510	 5.70436202029483E-02 
511	 5.70327671580486E-02 
512	 5.71217387309962E-02 
513	 5.71733378872199E-02 
514	 0.057003326587673 
515	 5.69112871844846E-02 
516	 5.70466849833003E-02 
517	 5.72379241676454E-02 
518	 5.72616453567162E-02 
519	 5.72111741590438E-02 
520	 0.057253987660784 
521	 5.72906760694025E-02 
522	 5.72995680063458E-02 
523	 0.057280563493686 
524	 5.72526882627649E-02 
525	 5.73062166574793E-02 
526	 5.73577509177959E-02 
527	 5.73374683968529E-02 
528	 5.73442293683505E-02 
529	 5.73793296287371E-02 
530	 5.74189938231834E-02 
531	 5.74298084114921E-02 
532	 5.74705059916829E-02 
533	 5.75959501231989E-02 
534	 5.77489389856009E-02 
535	 5.76102522251347E-02 
536	 5.76392365393596E-02 
537	 5.77981705342456E-02 
538	 5.78746033421253E-02 
539	 5.79388688783781E-02 
540	 5.80070074760215E-02 
541	 5.80797880011932E-02 
542	 5.81406072533697E-02 
543	 5.82462923833889E-02 
544	 0.058356672455998 
545	 5.84290183442025E-02 
546	 5.85247911930984E-02 
547	 5.86232132345377E-02 
548	 5.87166674478823E-02 
549	 5.88093805471519E-02 
550	 5.88649274090838E-02 
551	 5.89528101995133E-02 
552	 5.91156025706309E-02 
553	 5.92832733063939E-02 
554	 5.94453538102578E-02 
555	 5.95900583731396E-02 
556	 5.97232952574516E-02 
557	 5.99911859812175E-02 
558	 6.02618866277675E-02 
559	 6.04956005255493E-02 
560	 6.08851110475694E-02 
561	 6.10963133090251E-02 
562	 6.12692779296386E-02 
563	 6.16313142629179E-02 
564	 6.19078443224843E-02 
565	 6.21773252393418E-02 
566	 6.24813069310598E-02 
567	 6.27985082395601E-02 
568	 6.32142873772314E-02 
569	 6.37185717683509E-02 
570	 6.42542687719021E-02 
571	 6.46878004480611E-02 
572	 6.52029832820767E-02 
573	 6.58300250517233E-02 
574	 6.64780224465822E-02 
575	 6.70417239583649E-02 
576	 6.76418093104199E-02 
577	 0.068319982252245 
578	 6.88459768187673E-02 
579	 6.94532466934684E-02 
580	 0.07016296792561 
581	 7.09045833808452E-02 
582	 7.16420031057103E-02 
583	 7.24020960994415E-02 
584	 7.32327108789331E-02 
585	 7.42091265299595E-02 
586	 7.51711334198766E-02 
587	 7.60599346303267E-02 
588	 7.68976540873552E-02 
589	 7.78992262824466E-02 
590	 7.88885555035714E-02 
591	 7.98654252576028E-02 
592	 8.09927625134948E-02 
593	 0.082025718536956 
594	 8.30623236275834E-02 
595	 0.084183097903693 
596	 8.52550046211332E-02 
597	 8.61926263395212E-02 
598	 8.70402307500886E-02 
599	 8.79174408802261E-02 
600	 8.88380362023182E-02 
601	 8.97254637764472E-02 
602	 9.05489766014346E-02 
603	 9.13820403654599E-02 
604	 0.092272037530539 
605	 0.093162202499496 
606	 9.39783522712381E-02 
607	 9.48032863669271E-02 
608	 9.56225585997731E-02 
609	 9.64183090724191E-02 
610	 9.71760183281731E-02 
611	 9.78904381142309E-02 
612	 9.85293415841728E-02 
613	 9.90874943287197E-02 
614	 9.96755971034258E-02 
615	 0.100202505767941 
616	 0.10066809296637 
617	 0.10113499911117 
618	 0.101632122926187 
619	 0.102090386834585 
620	 0.102489494779095 
621	 0.102956438915369 
622	 0.103315428496998 
623	 0.103606393340116 
624	 0.103946623163813 
625	 0.104321094700437 
626	 0.104676719851157 
627	 0.104989085359348 
628	 0.105275610454667 
629	 0.105584879292316 
630	 0.105894293894523 
631	 0.10617224003935 
632	 0.106435628777463 
633	 0.10669616208503 
634	 0.106968732575842 
635	 0.107266530646164 
636	 0.107530961465865 
637	 0.107788374175989 
638	 0.108057408271457 
639	 0.108294981608836 
640	 0.108575583100985 
641	 0.108879067647438 
642	 0.109151974952849 
643	 0.109467394406776 
644	 0.109762795514648 
645	 0.110019048904425 
646	 0.110296266758407 
647	 0.110580442027365 
648	 0.110878035936049 
649	 0.111195236223419 
650	 0.111520997603929 
651	 0.111839534143663 
652	 0.112164873557638 
653	 0.112531289582861 
654	 0.112842795782816 
655	 0.113163384772615 
656	 0.113547939087796 
657	 0.11396109599509 
658	 0.114332368959897 
659	 0.114691935423934 
660	 0.115111038403976 
661	 0.115556402249913 
662	 0.115983682126334 
663	 0.116380995655197 
664	 0.116783155267986 
665	 0.117204175646696 
666	 0.117662700411046 
667	 0.118158870576208 
668	 0.118618422290331 
669	 0.119093684223992 
670	 0.119605700522252 
671	 0.120143928697423 
672	 0.120704389722123 
673	 0.121244673618778 
674	 0.121752501651217 
675	 0.122298615911399 
676	 0.122867078881548 
677	 0.123443039160124 
678	 0.124019967984842 
679	 0.124659711720322 
680	 0.125290463640726 
681	 0.125893169871162 
682	 0.12653143306328 
683	 0.127175513127873 
684	 0.127824960173797 
685	 0.128489618106541 
686	 0.129190998386201 
687	 0.129913486586596 
688	 0.130653060073476 
689	 0.1314074109861 
690	 0.132098014845484 
691	 0.132814482557784 
692	 0.133599330296367 
693	 0.134355880731908 
694	 0.1351114400091 
695	 0.135894872403602 
696	 0.136723782680353 
697	 0.13753705709993 
698	 0.138347985668185 
699	 0.139156809984307 
700	 0.139948611022848 
701	 0.14079889368749 
702	 0.141661436671338 
703	 0.142491221901899 
704	 0.143323720801746 
705	 0.144146603492604 
706	 0.145000873586622 
707	 0.145929203241895 
708	 0.146767677419053 
709	 0.147587150314218 
710	 0.148435505922751 
711	 0.149292374177602 
712	 0.150124263280921 
713	 0.150925961227862 
714	 0.15171533016634 
715	 0.152551141722236 
716	 0.153363682592224 
717	 0.154160151319042 
718	 0.15499619829273 
719	 0.155784296205284 
720	 0.156527566137217 
721	 0.157254082951459 
722	 0.158017472703813 
723	 0.1587414213522 
724	 0.159427909388664 
725	 0.160099413542113 
726	 0.160723940311774 
727	 0.161339226906077 
728	 0.161940022507173 
729	 0.162481412326019 
730	 0.16303645396515 
731	 0.163560428189997 
732	 0.16401874915024 
733	 0.164449793006699 
734	 0.164879367187717 
735	 0.165288590079493 
736	 0.165642680707287 
737	 0.165950455040283 
738	 0.166222583064366 
739	 0.16646237166455 
740	 0.166664780183382 
741	 0.166860803858154 
742	 0.167015939068928 
743	 0.167108467497937 
744	 0.167191493883279 
745	 0.167228519725308 
746	 0.167229899316094 
747	 0.167219569185287 
748	 0.167151616321438 
749	 0.167039009919972 
750	 0.166914828441748 
751	 0.166826806450057 
752	 0.166632855929738 
753	 0.166397620455515 
754	 0.166183944314798 
755	 0.165898964917881 
756	 0.16559066570413 
757	 0.16528061048181 
758	 0.164968393494005 
759	 0.164600918405197 
760	 0.16420371546395 
761	 0.16380410845176 
762	 0.163420695140154 
763	 0.162970319739647 
764	 0.162482835357976 
765	 0.16200353963901 
766	 0.161535318211427 
767	 0.161071744879422 
768	 0.16058241118553 
769	 0.160035726029782 
770	 0.159481686321871 
771	 0.158939270758245 
772	 0.158404902055473 
773	 0.157852807166723 
774	 0.157258689032415 
775	 0.156679829420401 
776	 0.156148001560841 
777	 0.155574619209609 
778	 0.155001304270425 
779	 0.154433348647478 
780	 0.153860905939456 
781	 0.153289108282304 
782	 0.15271484207223 
783	 0.152136353354551 
784	 0.15155582152717 
785	 0.150989242735122 
786	 0.150428747817114 
787	 0.149862965591467 
788	 0.149273305601251 
789	 0.148770000926614 
790	 0.148279376630648 
791	 0.14769330901218 
792	 0.147128133743182 
793	 0.146572710569154 
794	 0.146030263061851 
795	 0.14551592938143 
796	 0.144960130313721 
797	 0.144436402111466 
798	 0.143972542613753 
799	 0.143473052428575 
800	 0.142974955661018 
801	 0.142490260655782 
802	 0.142015558870843 
803	 0.141510807919751 
804	 0.141043182623017 
805	 0.14059830977002 
806	 0.140122285024825 
807	 0.139699601845629 
808	 0.139280726128259 
809	 0.138844179190671 
810	 0.138422362968096 
811	 0.138027807578912 
812	 0.137602445022353 
813	 0.137138680973083 
814	 0.136810105219443 
815	 0.136481140920026 
816	 0.136116303830977 
817	 0.135728214312786 
818	 0.135339012073438 
819	 0.134999494008533 
820	 0.134693215196784 
821	 0.134352783046911 
822	 0.13403746296075 
823	 0.133732247458642 
824	 0.133425710966148 
825	 0.133129280103334 
826	 0.132890310901248 
827	 0.132639754994111 
828	 0.132325540395179 
829	 0.132050611569181 
830	 0.131803410601886 
831	 0.131576041203922 
832	 0.131364613107921 
833	 0.131199002461259 
834	 0.130983355781249 
835	 0.130734683225363 
836	 0.130571433572155 
837	 0.130371208380699 
838	 0.130200155017737 
839	 0.130060413286222 
840	 0.12979380034598 
841	 0.129644637563273 
842	 0.129564068255973 
843	 0.129458389016433 
844	 0.129377142316704 
845	 0.129259349484844 
846	 0.129121108997269 
847	 0.129010909373665 
848	 0.128932018728474 
849	 0.128811057493781 
850	 0.128672329371628 
851	 0.128615029798476 
852	 0.128559684004157 
853	 0.128519773038047 
854	 0.128513924976977 
855	 0.128548441896098 
856	 0.128477967861956 
857	 0.128402842416073 
858	 0.128409704312146 
859	 0.12839053333989 
860	 0.128408697428026 
861	 0.128431416368659 
862	 0.128420561924112 
863	 0.128462887602438 
864	 0.128515446935464 
865	 0.128572382232742 
866	 0.128646138408995 
867	 0.128689122644332 
868	 0.128753054206112 
869	 0.128854130784441 
870	 0.128960459974621 
871	 0.129027996114853 
872	 0.129107540304896 
873	 0.129213596446454 
874	 0.129277108998507 
875	 0.12939437852157 
876	 0.129540843204047 
877	 0.129681220999378 
878	 0.129831304429439 
879	 0.130045022283938 
880	 0.130260987867865 
881	 0.130410895590828 
882	 0.13057796150907 
883	 0.130779689210665 
884	 0.131008392491003 
885	 0.131234865667607 
886	 0.131398091730617 
887	 0.131634940142682 
888	 0.131922512074786 
889	 0.132112556359849 
890	 0.132349670712261 
891	 0.13261288692541 
892	 0.132896914239993 
893	 0.133233831961811 
894	 0.133467709851674 
895	 0.133736010726177 
896	 0.134106634693713 
897	 0.134419448307341 
898	 0.134757956224817 
899	 0.135103461947532 
900	 0.135432484537757 
901	 0.135767519909967 
902	 0.13617796282605 
903	 0.136591750126141 
904	 0.136926715343644 
905	 0.137259855630716 
906	 0.137620634731716 
907	 0.138034575496743 
908	 0.13851042274026 
909	 0.139014826048331 
910	 0.139463024891401 
911	 0.139871851217571 
912	 0.140323709947049 
913	 0.140835125566181 
914	 0.141312171602717 
915	 0.14177595583833 
916	 0.14233455009608 
917	 0.142814914902417 
918	 0.143306781061021 
919	 0.143851158071974 
920	 0.144392902842782 
921	 0.144923121118297 
922	 0.145522230898868 
923	 0.146195802872695 
924	 0.146822611199774 
925	 0.147316170458707 
926	 0.147882447141109 
927	 0.148586397848964 
928	 0.149122555573078 
929	 0.149812910292902 
930	 0.150511546246561 
931	 0.151097338133149 
932	 0.15178222153995 
933	 0.152516408299654 
934	 0.15326516297386 
935	 0.154007298833783 
936	 0.154759558896343 
937	 0.155487208634728 
938	 0.156243878301783 
939	 0.157060362209443 
940	 0.157781143903256 
941	 0.158624530995223 
942	 0.15950676043444 
943	 0.160294240291263 
944	 0.161168477313613 
945	 0.162074848029431 
946	 0.162961400065848 
947	 0.163803706112818 
948	 0.164695704791471 
949	 0.165478558977948 
950	 0.166320784803423 
951	 0.167442829207002 
952	 0.168447680279872 
953	 0.169433377214697 
954	 0.170401595782619 
955	 0.171314629569753 
956	 0.17227103033346 
957	 0.173298783390389 
958	 0.174315531091167 
959	 0.17524202005226 
960	 0.176396262958872 
961	 0.177516341553741 
962	 0.178622545538876 
963	 0.17985418239915 
964	 0.180752337589797 
965	 0.181823702971601 
966	 0.183039843855211 
967	 0.184052833456087 
968	 0.185195829881021 
969	 0.18639515658187 
970	 0.187539329312552 
971	 0.188570476493402 
972	 0.189770384194226 
973	 0.19102952492127 
974	 0.192254143982568 
975	 0.193415830806774 
976	 0.194650415436604 
977	 0.195891251291609 
978	 0.197095532632405 
979	 0.198281124236912 
980	 0.199648608317637 
981	 0.200906810355831 
982	 0.202079893879131 
983	 0.203370577470075 
984	 0.204679598677759 
985	 0.20604059242067 
986	 0.207332110118151 
987	 0.208438632087607 
988	 0.2097038491651 
989	 0.210951604443222 
990	 0.212210286166183 
991	 0.213582011892304 
992	 0.214954635006436 
993	 0.216182842083376 
994	 0.217398719435573 
995	 0.218753364558238 
996	 0.219931196064036 
997	 0.221188919471985 
998	 0.22245808417093 
999	 0.223668384071841 
1000	 0.225241002694006 
1001	 0.221977554822509 
1002	 0.223214255035011 
1003	 0.22436169403278 
1004	 0.225538902415299 
1005	 0.226716984241481 
1006	 0.227859990759587 
1007	 0.228945558424773 
1008	 0.230155532701102 
1009	 0.231356493683103 
1010	 0.232509808227548 
1011	 0.233667476198452 
1012	 0.234753606934162 
1013	 0.235828029560899 
1014	 0.236954800519854 
1015	 0.238095039209139 
1016	 0.239200991571223 
1017	 0.240293461364805 
1018	 0.241363632318899 
1019	 0.242395985066505 
1020	 0.24340577787917 
1021	 0.244464187098199 
1022	 0.245537207928497 
1023	 0.246573811264041 
1024	 0.247587770199805 
1025	 0.248581676477882 
1026	 0.249542518860937 
1027	 0.250501948486101 
1028	 0.251502122159193 
1029	 0.252518247617416 
1030	 0.253549057967226 
1031	 0.254505625487664 
1032	 0.255419253964206 
1033	 0.256277461239757 
1034	 0.257188142548431 
1035	 0.258027440996998 
1036	 0.258848309169336 
1037	 0.259750904868112 
1038	 0.260655109681758 
1039	 0.261595204170992 
1040	 0.262527157103292 
1041	 0.263404533009059 
1042	 0.264269776886704 
1043	 0.265071831943463 
1044	 0.265891088652667 
1045	 0.266711930482883 
1046	 0.267600428834004 
1047	 0.268431085648402 
1048	 0.269275379765569 
1049	 0.27015165320684 
1050	 0.270986902740706 
1051	 0.271805600749683 
1052	 0.27262196529348 
1053	 0.27346089500899 
1054	 0.274302733549749 
1055	 0.275117872517615 
1056	 0.275904714757322 
1057	 0.276672637587724 
1058	 0.277347760938971 
1059	 0.278117030760103 
1060	 0.27893347478784 
1061	 0.279729367809197 
1062	 0.28050576613895 
1063	 0.28126714803428 
1064	 0.281942245676487 
1065	 0.282679343848053 
1066	 0.283435391362958 
1067	 0.28413936419017 
1068	 0.284867317326229 
1069	 0.285553047808954 
1070	 0.286274313316135 
1071	 0.287030881975482 
1072	 0.287763147318347 
1073	 0.288521333190607 
1074	 0.289215298815646 
1075	 0.289856893788652 
1076	 0.290480175061556 
1077	 0.291124355349923 
1078	 0.291738669977752 
1079	 0.292384120092065 
1080	 0.293093175005704 
1081	 0.293768029896229 
1082	 0.294409609970295 
1083	 0.295051676960703 
1084	 0.295659048111518 
1085	 0.296306938116957 
1086	 0.296966316170825 
1087	 0.297628960231599 
1088	 0.298326067797961 
1089	 0.298990271788768 
1090	 0.299608011831392 
1091	 0.300234997494299 
1092	 0.300880732293073 
1093	 0.301509251251302 
1094	 0.302146499662983 
1095	 0.302797474689478 
1096	 0.303428701796909 
1097	 0.304079368225989 
1098	 0.304736163941881 
1099	 0.305410744102639 
1100	 0.306065471199071 
1101	 0.306702063175058 
1102	 0.307372873215394 
1103	 0.308048627099534 
1104	 0.308743989631497 
1105	 0.309455916353922 
1106	 0.310149124472245 
1107	 0.310819441337878 
1108	 0.311547361367112 
1109	 0.312269981004024 
1110	 0.312976181763648 
1111	 0.31368712400122 
1112	 0.314383138621824 
1113	 0.315092844806966 
1114	 0.315792509178252 
1115	 0.316540191613311 
1116	 0.317339717171735 
1117	 0.318103326601171 
1118	 0.318874235757796 
1119	 0.319644939180435 
1120	 0.32041427954359 
1121	 0.321133407568675 
1122	 0.321813943141938 
1123	 0.322510529651889 
1124	 0.323222763764766 
1125	 0.323900753701189 
1126	 0.324622231137135 
1127	 0.325404072501775 
1128	 0.326147380876484 
1129	 0.326885559710895 
1130	 0.327597994865838 
1131	 0.32830170850487 
1132	 0.328995498752302 
1133	 0.329653960205959 
1134	 0.330336391776649 
1135	 0.331049536253784 
1136	 0.331712643712239 
1137	 0.33236542447731 
1138	 0.3330292210631 
1139	 0.333700870936444 
1140	 0.334369490605835 
1141	 0.335035072640714 
1142	 0.335719918020845 
1143	 0.336378944754677 
1144	 0.337021903915547 
1145	 0.337658318339516 
1146	 0.338299674169799 
1147	 0.338911523224232 
1148	 0.339494031447451 
1149	 0.340077522579969 
1150	 0.340630893085851 
1151	 0.341211184981849 
1152	 0.341801898083251 
1153	 0.342375419187773 
1154	 0.34294507983591 
1155	 0.343516281951307 
1156	 0.34407726434735 
1157	 0.344635739041703 
1158	 0.345172031960733 
1159	 0.345704158082809 
1160	 0.34621924832811 
1161	 0.346690708841923 
1162	 0.347193031925176 
1163	 0.34772110401343 
1164	 0.348215428430807 
1165	 0.348697647766479 
1166	 0.349192358024543 
1167	 0.349654152814168 
1168	 0.350121997212383 
1169	 0.350579943744223 
1170	 0.351044123892047 
1171	 0.35149342396987 
1172	 0.351912231225681 
1173	 0.352364657181866 
1174	 0.352855347701297 
1175	 0.35328995991733 
1176	 0.353709270462696 
1177	 0.354129997593901 
1178	 0.354513448490824 
1179	 0.354909013894855 
1180	 0.355332732000011 
1181	 0.355730354608716 
1182	 0.356118227315095 
1183	 0.356478842950379 
1184	 0.356843219344376 
1185	 0.357199865353578 
1186	 0.357550860785352 
1187	 0.357898200609946 
1188	 0.358233782811702 
1189	 0.358559410563998 
1190	 0.358881523264741 
1191	 0.359191953976803 
1192	 0.359502535353768 
1193	 0.35979655955451 
1194	 0.360114732746904 
1195	 0.3604629139498 
1196	 0.360777013784145 
1197	 0.361098318458089 
1198	 0.361398607772279 
1199	 0.36167924820007 
1200	 0.361918045620091 
1201	 0.362185786028293 
1202	 0.362459693994658 
1203	 0.362719979030329 
1204	 0.362978377023436 
1205	 0.363231605518075 
1206	 0.363472506204107 
1207	 0.363718128033534 
1208	 0.363965196911827 
1209	 0.364209810337303 
1210	 0.364462127654109 
1211	 0.36469582526405 
1212	 0.364921475094343 
1213	 0.365141135850644 
1214	 0.365339370285238 
1215	 0.365545110715765 
1216	 0.365751490378034 
1217	 0.36596296437141 
1218	 0.36616038012813 
1219	 0.366356684865504 
1220	 0.366543388166942 
1221	 0.3667195010451 
1222	 0.366891811517906 
1223	 0.367054861977951 
1224	 0.367223769175059 
1225	 0.367380956981865 
1226	 0.367553504608072 
1227	 0.367742900301731 
1228	 0.367921665282978 
1229	 0.368108127467829 
1230	 0.368284764294477 
1231	 0.36847120255644 
1232	 0.368625101755745 
1233	 0.368760697523657 
1234	 0.368864420981172 
1235	 0.369010916049399 
1236	 0.369152938091424 
1237	 0.369296657060092 
1238	 0.369483490000724 
1239	 0.369622576034692 
1240	 0.369719665436119 
1241	 0.369835961764799 
1242	 0.369951444038902 
1243	 0.370065114355232 
1244	 0.370177787511907 
1245	 0.370290527332562 
1246	 0.370407156500599 
1247	 0.370512339306266 
1248	 0.370604812044266 
1249	 0.370703763964297 
1250	 0.370816910991112 
1251	 0.370924482527718 
1252	 0.371044189204344 
1253	 0.37119431857537 
1254	 0.371307088090594 
1255	 0.371407495884344 
1256	 0.371502521822621 
1257	 0.371562869906244 
1258	 0.371665850681504 
1259	 0.371797057571182 
1260	 0.371901263670988 
1261	 0.372010953719235 
1262	 0.372120424190241 
1263	 0.372217219255749 
1264	 0.372309400160744 
1265	 0.372408765091014 
1266	 0.372506408733016 
1267	 0.372609225949567 
1268	 0.372669187577256 
1269	 0.372744732214936 
1270	 0.372823905992685 
1271	 0.37290392088883 
1272	 0.372970017851544 
1273	 0.373055901262742 
1274	 0.373155194554077 
1275	 0.373255311886632 
1276	 0.373353316733491 
1277	 0.373469999770257 
1278	 0.373607702780488 
1279	 0.373735594831416 
1280	 0.373887807613147 
1281	 0.374005964960169 
1282	 0.374101872524492 
1283	 0.374197207775352 
1284	 0.374276201083735 
1285	 0.374346568399815 
1286	 0.3744272912255 
1287	 0.37452634831959 
1288	 0.374598497689323 
1289	 0.374665306462241 
1290	 0.374726505779805 
1291	 0.374770833815315 
1292	 0.374815572448583 
1293	 0.374866303528163 
1294	 0.374898118103234 
1295	 0.374917179660989 
1296	 0.374927586033504 
1297	 0.374929862161255 
1298	 0.374923498999058 
1299	 0.374902408886864 
1300	 0.37488073727599 
1301	 0.374848873161866 
1302	 0.374815324065611 
1303	 0.374781589423914 
1304	 0.374742116123754 
1305	 0.374687584667447 
1306	 0.374633516664497 
1307	 0.374565838338075 
1308	 0.374505660437057 
1309	 0.374447675821237 
1310	 0.374394875956404 
1311	 0.374335222033464 
1312	 0.374271975198465 
1313	 0.374212887426944 
1314	 0.374141846702005 
1315	 0.374101491739433 
1316	 0.374090822581902 
1317	 0.374060207359863 
1318	 0.374024259217279 
1319	 0.37400596863287 
1320	 0.373978162868715 
1321	 0.373965015443998 
1322	 0.373973886301653 
1323	 0.37399714912076 
1324	 0.373997600193334 
1325	 0.374011713440387 
1326	 0.374013028764095 
1327	 0.374027895615146 
1328	 0.37405256079592 
1329	 0.374078676515496 
1330	 0.374118349652475 
1331	 0.374160545699971 
1332	 0.3742296333834 
1333	 0.374326908766584 
1334	 0.374408120504136 
1335	 0.374506229425419 
1336	 0.374597556669665 
1337	 0.374672054921598 
1338	 0.374757999276489 
1339	 0.37484050601576 
1340	 0.374944462719062 
1341	 0.375064641432202 
1342	 0.375180847473256 
1343	 0.375301123506893 
1344	 0.375449609469662 
1345	 0.3755784840577 
1346	 0.375699142464683 
1347	 0.375818832634281 
1348	 0.375931187918653 
1349	 0.376054368012357 
1350	 0.37616340471125 
1351	 0.376271432570517 
1352	 0.376378442759238 
1353	 0.376496980382033 
1354	 0.376609956145894 
1355	 0.376730506068776 
1356	 0.376877416146715 
1357	 0.376994461773886 
1358	 0.377087860553443 
1359	 0.377203163184473 
1360	 0.377313089201071 
1361	 0.377428573593337 
1362	 0.37758412535043 
1363	 0.377691914193991 
1364	 0.377770721171681 
1365	 0.377855894194187 
1366	 0.377925771124321 
1367	 0.377974412544702 
1368	 0.378043325948066 
1369	 0.378128687133882 
1370	 0.378218631546992 
1371	 0.37827897313645 
1372	 0.378339525440844 
1373	 0.378406532086758 
1374	 0.378452046018541 
1375	 0.378486189709668 
1376	 0.378509540170569 
1377	 0.378519986315127 
1378	 0.378516916675599 
1379	 0.378502216797941 
1380	 0.378483468645372 
1381	 0.37845329978965 
1382	 0.378415943651164 
1383	 0.378372162084164 
1384	 0.378313802074482 
1385	 0.378239356325549 
1386	 0.378170258351232 
1387	 0.37810058902891 
1388	 0.37801933325124 
1389	 0.377948589571976 
1390	 0.377848785566324 
1391	 0.37770922495352 
1392	 0.377545431095353 
1393	 0.377357387801291 
1394	 0.377162836491168 
1395	 0.376968729770466 
1396	 0.376772873440793 
1397	 0.376555939914151 
1398	 0.3763213597738 
1399	 0.376079416587049 
1400	 0.375812705817273 
1401	 0.375569380601351 
1402	 0.375334854752002 
1403	 0.375096295182011 
1404	 0.374874813468819 
1405	 0.374627063201666 
1406	 0.374358862085865 
1407	 0.374088286889865 
1408	 0.373793311808807 
1409	 0.373521567413626 
1410	 0.373243362246305 
1411	 0.372999299778478 
1412	 0.372768160979092 
1413	 0.372569274623136 
1414	 0.372405510515272 
1415	 0.372241464841278 
1416	 0.372108043765998 
1417	 0.372001616799005 
1418	 0.371902747686131 
1419	 0.3718176155187 
1420	 0.371737855124388 
1421	 0.371652652315195 
1422	 0.371562640225862 
1423	 0.371480923174217 
1424	 0.371394037133511 
1425	 0.371302976076959 
1426	 0.371223210402785 
1427	 0.371134508140605 
1428	 0.371072346551427 
1429	 0.371032087064971 
1430	 0.370987359135048 
1431	 0.370962615201815 
1432	 0.3709191587166 
1433	 0.370861983137459 
1434	 0.37081723201464 
1435	 0.370759919647901 
1436	 0.37073387949727 
1437	 0.37073040353047 
1438	 0.370727048747738 
1439	 0.370747137881194 
1440	 0.370755852435154 
1441	 0.370744729154234 
1442	 0.37072579780996 
1443	 0.370699608224671 
1444	 0.370679457665156 
1445	 0.370680009603807 
1446	 0.370694290328682 
1447	 0.370714929414521 
1448	 0.37073746486945 
1449	 0.370763069564832 
1450	 0.370783852061419 
1451	 0.370799044239479 
1452	 0.370810707419807 
1453	 0.370826143407844 
1454	 0.370831474324879 
1455	 0.370854980233383 
1456	 0.370894750046333 
1457	 0.370914400597979 
1458	 0.370927903335511 
1459	 0.370949569982686 
1460	 0.370961725186538 
1461	 0.370986566946577 
1462	 0.37102365201412 
1463	 0.371069463510895 
1464	 0.371116593797425 
1465	 0.371173390613906 
1466	 0.371254505721265 
1467	 0.371316615350548 
1468	 0.371372883449529 
1469	 0.371431276950538 
1470	 0.371473080657563 
1471	 0.371536977066164 
1472	 0.371615660892229 
1473	 0.371689517066669 
1474	 0.371794795513264 
1475	 0.371901555067396 
1476	 0.371988855653154 
1477	 0.372097373360437 
1478	 0.372209379320346 
1479	 0.37230970973868 
1480	 0.372405594513485 
1481	 0.372491814025269 
1482	 0.372587262014358 
1483	 0.372673363336314 
1484	 0.372761645175485 
1485	 0.372860577166022 
1486	 0.372959252859888 
1487	 0.373042212718825 
1488	 0.37314766031289 
1489	 0.373267747996307 
1490	 0.37339243527 
1491	 0.373532629366132 
1492	 0.373664129297233 
1493	 0.373798951093054 
1494	 0.373938200096545 
1495	 0.374077918562572 
1496	 0.374205225184289 
1497	 0.374344512561998 
1498	 0.374463400034915 
1499	 0.374562800104054 
1500	 0.374664466195147 
1501	 0.374755101208088 
1502	 0.374839316937036 
1503	 0.374916785011545 
1504	 0.374990944027585 
1505	 0.375068090804213 
1506	 0.375143944335545 
1507	 0.375226352764015 
1508	 0.375307148995062 
1509	 0.375372395893332 
1510	 0.375455039982322 
1511	 0.37554146084624 
1512	 0.375620526264142 
1513	 0.375697930195367 
1514	 0.375775941571275 
1515	 0.375834097992657 
1516	 0.375881713841706 
1517	 0.375944235870372 
1518	 0.376007041952429 
1519	 0.376074255751669 
1520	 0.376151031950175 
1521	 0.376223567861721 
1522	 0.376292746181344 
1523	 0.376371864618626 
1524	 0.376474713646747 
1525	 0.376538373522934 
1526	 0.37658223742598 
1527	 0.376633642822371 
1528	 0.37665566368481 
1529	 0.376701957921971 
1530	 0.376770936500013 
1531	 0.376835622470769 
1532	 0.376895609220992 
1533	 0.376965728327838 
1534	 0.377042076990329 
1535	 0.377122761914764 
1536	 0.377227562738287 
1537	 0.377305534587579 
1538	 0.377376924590123 
1539	 0.377441773663652 
1540	 0.377481929797994 
1541	 0.377528025653405 
1542	 0.377576658812107 
1543	 0.377623015562301 
1544	 0.377659738961297 
1545	 0.377704944070169 
1546	 0.377756690239022 
1547	 0.377804630857665 
1548	 0.377847849607207 
1549	 0.377913841344436 
1550	 0.377977757891642 
1551	 0.378044535602634 
1552	 0.378111131232907 
1553	 0.378168114610895 
1554	 0.378237190341351 
1555	 0.378282241359979 
1556	 0.378312233887311 
1557	 0.378355844787473 
1558	 0.378386849176029 
1559	 0.378431980882844 
1560	 0.378480999154966 
1561	 0.378553366227121 
1562	 0.378598940139144 
1563	 0.37862794612326 
1564	 0.378674824524922 
1565	 0.378726054669891 
1566	 0.37876985887402 
1567	 0.378815959889269 
1568	 0.37886600490321 
1569	 0.378912552000207 
1570	 0.378957994366163 
1571	 0.379016007864186 
1572	 0.379057242581314 
1573	 0.379078082402498 
1574	 0.379111932040045 
1575	 0.379140388509396 
1576	 0.379187901444663 
1577	 0.379264300156574 
1578	 0.379302823362677 
1579	 0.379333928608662 
1580	 0.37936470794538 
1581	 0.37935065129845 
1582	 0.379387163927022 
1583	 0.379451943039236 
1584	 0.379520968108628 
1585	 0.379625665969702 
1586	 0.379702793570271 
1587	 0.379782577388931 
1588	 0.379845641984317 
1589	 0.379889274053698 
1590	 0.379930225800237 
1591	 0.379961974160211 
1592	 0.379993354366431 
1593	 0.379998525146219 
1594	 0.380036602927104 
1595	 0.380096511808853 
1596	 0.380147781215172 
1597	 0.380227351480305 
1598	 0.380283357296075 
1599	 0.380328204384409 
1600	 0.380354808825981 
1601	 0.380359349063276 
1602	 0.380368046865369 
1603	 0.380335115591543 
1604	 0.380350267657964 
1605	 0.380407545568124 
1606	 0.380448193057299 
1607	 0.380510510396235 
1608	 0.380568896677277 
1609	 0.38059283286899 
1610	 0.380606828212474 
1611	 0.380646665398707 
1612	 0.380690034589929 
1613	 0.380717878011926 
1614	 0.380743072440926 
1615	 0.380758884260715 
1616	 0.380782075095259 
1617	 0.380825782026582 
1618	 0.380875104807352 
1619	 0.380910968864819 
1620	 0.380924779884475 
1621	 0.380944539070921 
1622	 0.3809571913101 
1623	 0.380965816573836 
1624	 0.380967010872348 
1625	 0.380986853362613 
1626	 0.381001610401979 
1627	 0.381038507987941 
1628	 0.381094735999262 
1629	 0.381154861907685 
1630	 0.381227978787196 
1631	 0.381295652259532 
1632	 0.381376786828143 
1633	 0.381440412245202 
1634	 0.381500044017165 
1635	 0.381540444173082 
1636	 0.381569780455144 
1637	 0.381590212644963 
1638	 0.381586669997134 
1639	 0.381603368521862 
1640	 0.381618582085572 
1641	 0.381642727982979 
1642	 0.381678423954984 
1643	 0.381706953079012 
1644	 0.381730225085947 
1645	 0.381772203771931 
1646	 0.38182674566588 
1647	 0.381869024449841 
1648	 0.381931132789253 
1649	 0.381956584752287 
1650	 0.381944270951697 
1651	 0.381962818411361 
1652	 0.381975203532064 
1653	 0.382001433805671 
1654	 0.382049862398912 
1655	 0.382089094327089 
1656	 0.382127396366265 
1657	 0.382166342344719 
1658	 0.382210907580949 
1659	 0.382247373262834 
1660	 0.382291349774982 
1661	 0.382304214151661 
1662	 0.382286522374694 
1663	 0.382297404999161 
1664	 0.382298440549419 
1665	 0.382310159476431 
1666	 0.382350635626695 
1667	 0.382372212229369 
1668	 0.382373533172064 
1669	 0.38239550670347 
1670	 0.38243053693494 
1671	 0.38245829744525 
1672	 0.382480463991235 
1673	 0.382523379652061 
1674	 0.382581165119926 
1675	 0.382624280557737 
1676	 0.382686238552243 
1677	 0.382720902648383 
1678	 0.382722129440249 
1679	 0.382744064083873 
1680	 0.38276609131711 
1681	 0.382791866777613 
1682	 0.382830956198606 
1683	 0.382853172067797 
1684	 0.38286809384048 
1685	 0.382882930174006 
1686	 0.382880350296262 
1687	 0.382900077306165 
1688	 0.382938249595319 
1689	 0.38295998722163 
1690	 0.382982683901183 
1691	 0.3830059021583 
1692	 0.383018766750767 
1693	 0.383037059207905 
1694	 0.383069001653967 
1695	 0.383083228481352 
1696	 0.383079338739693 
1697	 0.383092497164891 
1698	 0.383113187492832 
1699	 0.383122568611644 
1700	 0.383127871282409 
1701	 0.383146079871937 
1702	 0.383145139555304 
1703	 0.383184024632172 
1704	 0.383268486957472 
1705	 0.383323193032667 
1706	 0.383393062162416 
1707	 0.383432170326412 
1708	 0.38344174990807 
1709	 0.383463038761237 
1710	 0.383480797145087 
1711	 0.383489722120546 
1712	 0.383492676128797 
1713	 0.383497951032973 
1714	 0.38348963718742 
1715	 0.383496539742561 
1716	 0.383525551957872 
1717	 0.383524942420582 
1718	 0.38350681834979 
1719	 0.383505227450601 
1720	 0.383507748640721 
1721	 0.383487699245433 
1722	 0.383458348293214 
1723	 0.383445709085805 
1724	 0.383412583584203 
1725	 0.38340291659571 
1726	 0.3834366959642 
1727	 0.383436097481315 
1728	 0.383416143901331 
1729	 0.383401162350432 
1730	 0.383376883030817 
1731	 0.383366394461977 
1732	 0.383371063840697 
1733	 0.383352088851588 
1734	 0.383330626525221 
1735	 0.383295329899021 
1736	 0.383243803826747 
1737	 0.383183124476172 
1738	 0.383111631724469 
1739	 0.383054339304638 
1740	 0.382982040201649 
1741	 0.382922902851463 
1742	 0.382876276594984 
1743	 0.382838932565682 
1744	 0.382795743662299 
1745	 0.382783973727351 
1746	 0.382810923095435 
1747	 0.382805843384873 
1748	 0.382802136052564 
1749	 0.382788158432503 
1750	 0.382743899596942 
1751	 0.382670063201559 
1752	 0.382605956720137 
1753	 0.382511762444288 
1754	 0.382419253459183 
1755	 0.382377074731549 
1756	 0.382342059823194 
1757	 0.382330745845147 
1758	 0.382313311778251 
1759	 0.382299148964597 
1760	 0.382299174949701 
1761	 0.382297927918778 
1762	 0.382326414298843 
1763	 0.382374139036393 
1764	 0.382374121782612 
1765	 0.382328595774871 
1766	 0.382293369891372 
1767	 0.382213927768176 
1768	 0.382148607388316 
1769	 0.382145362270319 
1770	 0.382138767770251 
1771	 0.382151878668499 
1772	 0.382149720634395 
1773	 0.382144430033636 
1774	 0.382145250159395 
1775	 0.382129504884713 
1776	 0.382152435971036 
1777	 0.382157316512143 
1778	 0.382123413025787 
1779	 0.382090365995855 
1780	 0.38202157452284 
1781	 0.381959146752662 
1782	 0.381956660571889 
1783	 0.381975407482331 
1784	 0.38199635205355 
1785	 0.382054519985605 
1786	 0.382064551851415 
1787	 0.382063756451362 
1788	 0.382054791410119 
1789	 0.382002338297745 
1790	 0.381979021531545 
1791	 0.381952449214642 
1792	 0.381939132820156 
1793	 0.381958757626461 
1794	 0.381965694494981 
1795	 0.381960629780634 
1796	 0.381990764603571 
1797	 0.382031441487819 
1798	 0.382065902937035 
1799	 0.382138345673289 
1800	 0.382163830388817 
1801	 0.379161985213867 
1802	 0.379171499545741 
1803	 0.379244107097846 
1804	 0.3792714564236 
1805	 0.379284593191888 
1806	 0.37932421092953 
1807	 0.379350513333524 
1808	 0.379368258732366 
1809	 0.379390951959318 
1810	 0.379402589605898 
1811	 0.379412422993723 
1812	 0.379392163141214 
1813	 0.37933643728375 
1814	 0.379321204564794 
1815	 0.379307278007569 
1816	 0.379276490647787 
1817	 0.379281992526611 
1818	 0.379343694192402 
1819	 0.37936071702409 
1820	 0.379373338207644 
1821	 0.379371564455011 
1822	 0.379370162564836 
1823	 0.379391048478088 
1824	 0.379383188585577 
1825	 0.379378230414898 
1826	 0.379407256151058 
1827	 0.379421182798869 
1828	 0.379439123282698 
1829	 0.379501532372802 
1830	 0.37952150630542 
1831	 0.379524968121155 
1832	 0.379492291123362 
1833	 0.379450299008004 
1834	 0.379442414581377 
1835	 0.379420390704275 
1836	 0.37940013656312 
1837	 0.379435880178247 
1838	 0.379455842815827 
1839	 0.379462707217696 
1840	 0.37947662258076 
1841	 0.379485578795898 
1842	 0.379456223847412 
1843	 0.379400608110728 
1844	 0.379344013160386 
1845	 0.379295130875167 
1846	 0.379241946212903 
1847	 0.379212673777231 
1848	 0.379178506148036 
1849	 0.379125030435804 
1850	 0.379078794023372 
1851	 0.379024367274278 
1852	 0.378983687781571 
1853	 0.378967418870771 
1854	 0.37894081850523 
1855	 0.378924260235911 
1856	 0.378885686635707 
1857	 0.378812567893377 
1858	 0.378766103353383 
1859	 0.378734972339124 
1860	 0.378665066491924 
1861	 0.37858485729042 
1862	 0.378471708439159 
1863	 0.378323228962374 
1864	 0.37812795806569 
1865	 0.37791116491578 
1866	 0.377690327528296 
1867	 0.377476762489528 
1868	 0.377269650840563 
1869	 0.377073311860507 
1870	 0.376870979458016 
1871	 0.376639529253562 
1872	 0.376387639359417 
1873	 0.376128277827801 
1874	 0.375839081893063 
1875	 0.375561612036667 
1876	 0.375285560720825 
1877	 0.374941653933467 
1878	 0.374546704019994 
1879	 0.374091570982515 
1880	 0.373599185349491 
1881	 0.373054803421034 
1882	 0.372471570775007 
1883	 0.371859349728957 
1884	 0.371183818126369 
1885	 0.370446253693642 
1886	 0.369630486528707 
1887	 0.36876088281321 
1888	 0.367868060214657 
1889	 0.36694066816483 
1890	 0.366008418115087 
1891	 0.365046186946905 
1892	 0.364067942595633 
1893	 0.363039297359189 
1894	 0.361966798670955 
1895	 0.36088493875427 
1896	 0.359756109047948 
1897	 0.35860825244527 
1898	 0.357460536959914 
1899	 0.356279761590244 
1900	 0.355098426376959 
1901	 0.353936670845556 
1902	 0.352774848326976 
1903	 0.351602276611585 
1904	 0.350468327136578 
1905	 0.349345273013038 
1906	 0.348249923472574 
1907	 0.347183118254606 
1908	 0.346178250765668 
1909	 0.345242408188414 
1910	 0.34435088991661 
1911	 0.343542717853125 
1912	 0.342785663507533 
1913	 0.342029769224707 
1914	 0.341281312137554 
1915	 0.340592654954071 
1916	 0.339929336822732 
1917	 0.339299663660427 
1918	 0.338762394076423 
1919	 0.33825220944039 
1920	 0.337760679479972 
1921	 0.337325704317471 
1922	 0.336902656591206 
1923	 0.336510869430415 
1924	 0.336170634910723 
1925	 0.335880300477772 
1926	 0.33561865487874 
1927	 0.335391754640942 
1928	 0.335210612852828 
1929	 0.335078529753798 
1930	 0.334964179900765 
1931	 0.334866304272965 
1932	 0.334815129326403 
1933	 0.334760482612268 
1934	 0.33472564626679 
1935	 0.334732959817849 
1936	 0.334778922798959 
1937	 0.334837395116179 
1938	 0.334938727504524 
1939	 0.335039638579109 
1940	 0.335151212829328 
1941	 0.335278940434468 
1942	 0.335416753887229 
1943	 0.335597954926443 
1944	 0.335796237543893 
1945	 0.335974815838945 
1946	 0.336153536890327 
1947	 0.336315967238591 
1948	 0.336506296972402 
1949	 0.336700305279295 
1950	 0.336915141579172 
1951	 0.337162504957261 
1952	 0.337400341285115 
1953	 0.33763474755932 
1954	 0.33787404489578 
1955	 0.338142001188905 
1956	 0.338415218435432 
1957	 0.338678697031861 
1958	 0.338945672872375 
1959	 0.339218073254286 
1960	 0.339478146031317 
1961	 0.339757664262563 
1962	 0.340058925217407 
1963	 0.340360220449481 
1964	 0.340667030681671 
1965	 0.340966830241535 
1966	 0.341277210467387 
1967	 0.34160893029239 
1968	 0.341964661156165 
1969	 0.342358355483481 
1970	 0.342719440564058 
1971	 0.34310133589571 
1972	 0.343459677022875 
1973	 0.343767021236659 
1974	 0.344115878946235 
1975	 0.344483169849479 
1976	 0.344855469222958 
1977	 0.345218953046357 
1978	 0.345596060657166 
1979	 0.345977186393487 
1980	 0.346335950224691 
1981	 0.346712871545504 
1982	 0.347111541421311 
1983	 0.347499353322651 
1984	 0.347871915465562 
1985	 0.348266397442577 
1986	 0.34868482621822 
1987	 0.349077064739649 
1988	 0.349461518728607 
1989	 0.349869372730414 
1990	 0.350242844130466 
1991	 0.350572215337744 
1992	 0.350923641518415 
1993	 0.35126025024472 
1994	 0.351624951654034 
1995	 0.352013585211067 
1996	 0.352382985772545 
1997	 0.352759103026821 
1998	 0.353127960485306 
1999	 0.353464246483849 
2000	 0.353829162012268 
2001	 0.35419847865605 
2002	 0.35460670899488 
2003	 0.355009918902448 
2004	 0.35540107262609 
2005	 0.355780982041074 
2006	 0.356146883050615 
2007	 0.356517635885863 
2008	 0.356894781671771 
2009	 0.357245119355552 
2010	 0.357572632084755 
2011	 0.357919286147638 
2012	 0.358234767911204 
2013	 0.358582558906707 
2014	 0.358949031123185 
2015	 0.359353758298315 
2016	 0.359751111365197 
2017	 0.360136243523486 
2018	 0.360501247069554 
2019	 0.360846988244073 
2020	 0.361199508092382 
2021	 0.361539528349284 
2022	 0.361879333903662 
2023	 0.362226691852218 
2024	 0.362569065726109 
2025	 0.362894951597438 
2026	 0.363225828020192 
2027	 0.363576136244771 
2028	 0.363896431869201 
2029	 0.364216662468294 
2030	 0.364530187284351 
2031	 0.36483296909265 
2032	 0.365116811101628 
2033	 0.365419695780408 
2034	 0.3657281070864 
2035	 0.366028698678989 
2036	 0.366348671923387 
2037	 0.366635389963707 
2038	 0.366891204414011 
2039	 0.367155900457071 
2040	 0.367409547244511 
2041	 0.367660646510167 
2042	 0.367936394476889 
2043	 0.368185022867501 
2044	 0.368417206411877 
2045	 0.368631236169804 
2046	 0.368852003903744 
2047	 0.369051672308176 
2048	 0.369261172360544 
2049	 0.369476682168913 
2050	 0.369691413164618 
2051	 0.369906536597933 
2052	 0.370116371201268 
2053	 0.37032403342833 
2054	 0.370534664093128 
2055	 0.370745450094951 
2056	 0.370943223603619 
2057	 0.371156346761943 
2058	 0.371376128598303 
2059	 0.371608023638118 
2060	 0.371856509985573 
2061	 0.372087638989587 
2062	 0.372327729325446 
2063	 0.372550287851423 
2064	 0.372757239100444 
2065	 0.372960280290102 
2066	 0.373150082937414 
2067	 0.373350983999277 
2068	 0.373560717521608 
2069	 0.373746219963151 
2070	 0.373938265193873 
2071	 0.374137231088749 
2072	 0.374327082081355 
2073	 0.374490422800215 
2074	 0.374694363726967 
2075	 0.374920720970339 
2076	 0.375135776650247 
2077	 0.375388369384791 
2078	 0.375594638854169 
2079	 0.375758513082347 
2080	 0.375948806338249 
2081	 0.376125849644453 
2082	 0.376309808336969 
2083	 0.376513626052557 
2084	 0.376714051591794 
2085	 0.376908874309443 
2086	 0.377096884894252 
2087	 0.377288150365339 
2088	 0.377487273321987 
2089	 0.377668904452785 
2090	 0.377846009042267 
2091	 0.378009671642127 
2092	 0.378146488506859 
2093	 0.378303889673937 
2094	 0.378449732538567 
2095	 0.378620191472395 
2096	 0.378829368983111 
2097	 0.379011674599198 
2098	 0.379186751737637 
2099	 0.379364462367615 
2100	 0.379551729246268 
2101	 0.379725095803032 
2102	 0.379920523542174 
2103	 0.38013163275991 
2104	 0.38035524692107 
2105	 0.380576721416688 
2106	 0.38082928844583 
2107	 0.381131593441723 
2108	 0.381401738241126 
2109	 0.3816775736666 
2110	 0.381945224065469 
2111	 0.382196873184417 
2112	 0.382449424105052 
2113	 0.382706666258361 
2114	 0.382953636602829 
2115	 0.383201216282529 
2116	 0.383445114894558 
2117	 0.383679881459986 
2118	 0.383919135920871 
2119	 0.384134343491482 
2120	 0.384333482002463 
2121	 0.384522626779564 
2122	 0.384688505307837 
2123	 0.384864909514925 
2124	 0.385036864737712 
2125	 0.385204137728115 
2126	 0.385375423727934 
2127	 0.385537754731271 
2128	 0.38568737019214 
2129	 0.385837951882754 
2130	 0.386019548216381 
2131	 0.38614565213891 
2132	 0.386249862525854 
2133	 0.386337696318004 
2134	 0.386397897246091 
2135	 0.386409849766771 
2136	 0.386432218547492 
2137	 0.386435398264906 
2138	 0.386448584766176 
2139	 0.386470207449126 
2140	 0.386461040610198 
2141	 0.386444277437022 
2142	 0.386415862130807 
2143	 0.386363061704556 
2144	 0.386300196050603 
2145	 0.38625021494594 
2146	 0.386159062811987 
2147	 0.386030934916312 
2148	 0.385889124680597 
2149	 0.385733085081893 
2150	 0.385541625697322 
2151	 0.385368800951597 
2152	 0.385191613238935 
2153	 0.385014356480759 
2154	 0.384856068491489 
2155	 0.384652983518124 
2156	 0.384426432589074 
2157	 0.384198425271154 
2158	 0.383929845207052 
2159	 0.383684649708931 
2160	 0.383442858291885 
2161	 0.383209929032641 
2162	 0.383007935633651 
2163	 0.382771965511328 
2164	 0.382508634660623 
2165	 0.3822782264062 
2166	 0.382017219852305 
2167	 0.381719936022421 
2168	 0.381450948951511 
2169	 0.381181361200047 
2170	 0.380933904584437 
2171	 0.380706118883135 
2172	 0.380463397977853 
2173	 0.380252020227184 
2174	 0.379995188905127 
2175	 0.379696633581036 
2176	 0.379417859884735 
2177	 0.379106400912131 
2178	 0.378834532692911 
2179	 0.378608251744349 
2180	 0.378351374978385 
2181	 0.378094448375403 
2182	 0.377840978149659 
2183	 0.377550941263444 
2184	 0.37729270894461 
2185	 0.377057120058501 
2186	 0.376857605654621 
2187	 0.376627943239168 
2188	 0.376394781005743 
2189	 0.376186612549986 
2190	 0.375977539509247 
2191	 0.375775485594625 
2192	 0.375609227415644 
2193	 0.375419334068668 
2194	 0.375204170000837 
2195	 0.375010199858441 
2196	 0.374824088588111 
2197	 0.374645449062667 
2198	 0.374465808759492 
2199	 0.374306125978915 
2200	 0.374154901828379 
2201	 0.374021059543442 
2202	 0.373917248503684 
2203	 0.373813495797635 
2204	 0.373707162734027 
2205	 0.373601199199589 
2206	 0.373524970338979 
2207	 0.373444756115643 
2208	 0.373406398065926 
2209	 0.37341537937101 
2210	 0.373410815380449 
2211	 0.373417423835291 
2212	 0.373433348505655 
2213	 0.37346690319639 
2214	 0.373488998363064 
2215	 0.37352198389168 
2216	 0.3735453913858 
2217	 0.373559106123082 
2218	 0.373567089145001 
2219	 0.373568072948841 
2220	 0.373573199843935 
2221	 0.37356903121787 
2222	 0.373576014188144 
2223	 0.373578930577037 
2224	 0.373566407188402 
2225	 0.373571063064075 
2226	 0.373586213986171 
2227	 0.373567979785832 
2228	 0.373548706054744 
2229	 0.373515024384016 
2230	 0.373448529929102 
2231	 0.373382994879455 
2232	 0.37331093388188 
2233	 0.373253828782266 
2234	 0.373160450525385 
2235	 0.373134526423626 
2236	 0.373178084348197 
2237	 0.373178036561401 
2238	 0.373205020059265 
2239	 0.373195303748327 
2240	 0.373142242260012 
2241	 0.373100224243895 
2242	 0.373044891191243 
2243	 0.373000474881003 
2244	 0.372958615098723 
2245	 0.372899962951596 
2246	 0.372889922868877 
2247	 0.372956286076904 
2248	 0.372996011666828 
2249	 0.373077009188457 
2250	 0.373131204721048 
2251	 0.373176768998176 
2252	 0.373208952510985 
2253	 0.373244558881981 
2254	 0.373267586692872 
2255	 0.373279717422475 
2256	 0.373266162265933 
2257	 0.373245265508333 
2258	 0.373201686627534 
2259	 0.37308141455748 
2260	 0.373040274286214 
2261	 0.373025824497778 
2262	 0.373024193136084 
2263	 0.373083472662327 
2264	 0.373112585125842 
2265	 0.373108767412261 
2266	 0.373140651063203 
2267	 0.373204074693072 
2268	 0.373250984253366 
2269	 0.37331369990908 
2270	 0.373374414072009 
2271	 0.373394248621961 
2272	 0.373409578082 
2273	 0.373442810303238 
2274	 0.373459989063144 
2275	 0.373492810644923 
2276	 0.373550188834018 
2277	 0.373568596024928 
2278	 0.373578028031659 
2279	 0.373578020640628 
2280	 0.373523526319747 
2281	 0.37353957098356 
2282	 0.373568866014096 
2283	 0.373636615818228 
2284	 0.373788300384596 
2285	 0.373877515597582 
2286	 0.373978849633038 
2287	 0.374036361605087 
2288	 0.374027795891421 
2289	 0.374055385409476 
2290	 0.374063231644169 
2291	 0.374099299209074 
2292	 0.374155874489503 
2293	 0.374232666376506 
2294	 0.374358386779443 
2295	 0.374447291795127 
2296	 0.374533075766331 
2297	 0.374620435802966 
2298	 0.374682608397787 
2299	 0.374706411762484 
2300	 0.37471378827469 
2301	 0.37472660387428 
2302	 0.374745906885545 
2303	 0.37477633017189 
2304	 0.374840477834921 
2305	 0.374867881300087 
2306	 0.37490475700453 
2307	 0.374942504963533 
2308	 0.374939558775784 
2309	 0.374914606043054 
2310	 0.374909325020641 
2311	 0.374843740550856 
2312	 0.374863951985052 
2313	 0.374981340626991 
2314	 0.375014461251847 
2315	 0.375044529379747 
2316	 0.375058741288845 
2317	 0.374991835173161 
2318	 0.375006890198724 
2319	 0.375092621847077 
2320	 0.375120025265854 
2321	 0.375176211505973 
2322	 0.375175453562364 
2323	 0.375097510874656 
2324	 0.375044196915501 
2325	 0.374935707683972 
2326	 0.374898362760812 
2327	 0.374906087371725 
2328	 0.374907725747554 
2329	 0.37496412185726 
2330	 0.375048650550187 
2331	 0.375004799784072 
2332	 0.375013722224602 
2333	 0.375069698368646 
2334	 0.375105892769018 
2335	 0.375236020816229 
2336	 0.375345070740564 
2337	 0.375364247029663 
2338	 0.375387853744151 
2339	 0.375392958288937 
2340	 0.375365484077975 
2341	 0.375321285998593 
2342	 0.37524314187739 
2343	 0.375183029608292 
2344	 0.375130414635727 
2345	 0.375088000709952 
2346	 0.375088707828221 
2347	 0.375073302927541 
2348	 0.375067687949307 
2349	 0.374995939291508 
2350	 0.37490934789502 
2351	 0.374806420360139 
2352	 0.374621668379408 
2353	 0.374489795113284 
2354	 0.374405521166394 
2355	 0.374245656147695 
2356	 0.374027333524573 
2357	 0.373884965405 
2358	 0.373748937360635 
2359	 0.373616485316809 
2360	 0.373507498793988 
2361	 0.373426232790791 
2362	 0.373374798750202 
2363	 0.373287298389104 
2364	 0.373246566753925 
2365	 0.373153153679509 
2366	 0.372995416321059 
2367	 0.37281296779149 
2368	 0.372577859186286 
2369	 0.372385386306227 
2370	 0.372186292413094 
2371	 0.371999325669192 
2372	 0.371781110000165 
2373	 0.371596528199278 
2374	 0.371313726762497 
2375	 0.370971044621155 
2376	 0.370734092904714 
2377	 0.370504611525798 
2378	 0.370233890862965 
2379	 0.370065033641635 
2380	 0.369845731282871 
2381	 0.369551207953728 
2382	 0.369344173686946 
2383	 0.369125736439317 
2384	 0.368914730344527 
2385	 0.368716796519864 
2386	 0.368480730574011 
2387	 0.368271757369209 
2388	 0.36810195290735 
2389	 0.367953815586204 
2390	 0.367805049325572 
2391	 0.36755397206597 
2392	 0.367286441249104 
2393	 0.367070789934611 
2394	 0.366759690971118 
2395	 0.366504429200438 
2396	 0.366256620616327 
2397	 0.365900317424509 
2398	 0.365724555817872 
2399	 0.365597262880288 
2400	 0.365391140307282 
2401	 0.365188860432533 
2402	 0.364853889941942 
2403	 0.364480461735952 
2404	 0.364155873406702 
2405	 0.363823243328969 
2406	 0.363521399938788 
2407	 0.363220162697546 
2408	 0.362890678177687 
2409	 0.362605203432252 
2410	 0.36244061648393 
2411	 0.3623253423248 
2412	 0.362121749481965 
2413	 0.361923538587254 
2414	 0.361649154072529 
2415	 0.361227690448915 
2416	 0.360968977951044 
2417	 0.360856013032352 
2418	 0.360586024533942 
2419	 0.36035607216757 
2420	 0.360099605862873 
2421	 0.359700385045084 
2422	 0.359383516676075 
2423	 0.359129569548077 
2424	 0.358815417444013 
2425	 0.358433342354038 
2426	 0.358108623106315 
2427	 0.357837068463681 
2428	 0.357507031524722 
2429	 0.357230499637528 
2430	 0.356882519148182 
2431	 0.356429176512548 
2432	 0.356004727495756 
2433	 0.355479681066218 
2434	 0.355078238598581 
2435	 0.354759420788821 
2436	 0.354474855129672 
2437	 0.354279754946738 
2438	 0.354057805622007 
2439	 0.353896015232483 
2440	 0.353627067357073 
2441	 0.353341538387082 
2442	 0.353046390905627 
2443	 0.352616016369847 
2444	 0.352262694231235 
2445	 0.35198695496164 
2446	 0.351574736973666 
2447	 0.351117440537849 
2448	 0.350789905999267 
2449	 0.350403194800681 
2450	 0.350070826282187 
2451	 0.349861519576587 
2452	 0.349549996052633 
2453	 0.349187762282988 
2454	 0.34886401400041 
2455	 0.348538542964247 
2456	 0.348251868099533 
2457	 0.347999336769166 
2458	 0.347737076750823 
2459	 0.347468113642643 
2460	 0.347272700249928 
2461	 0.347194769655024 
2462	 0.34689457755785 
2463	 0.346516250728104 
2464	 0.346281343233253 
2465	 0.345952348493769 
2466	 0.345623928311358 
2467	 0.345436960140184 
2468	 0.34513090169339 
2469	 0.344646982322185 
2470	 0.344248188484293 
2471	 0.34393467817624 
2472	 0.343525328583989 
2473	 0.343035931174068 
2474	 0.342577418783383 
2475	 0.342293233526733 
2476	 0.342152040290454 
2477	 0.342039491779089 
2478	 0.341921966061624 
2479	 0.34158855737478 
2480	 0.341225887115304 
2481	 0.341145421453777 
2482	 0.341041549864952 
2483	 0.340802687785194 
2484	 0.340473046510687 
2485	 0.339925669514032 
2486	 0.339362497821205 
2487	 0.339035546603038 
2488	 0.338774741830614 
2489	 0.338535721206762 
2490	 0.338297177864545 
2491	 0.337894724040707 
2492	 0.33767776551527 
2493	 0.337582969852275 
2494	 0.337363306332953 
2495	 0.337235309125641 
2496	 0.3370606730049 
2497	 0.336865589663893 
2498	 0.336747827525087 
2499	 0.336698201233101 
2500	 0.336761442623796 
