Wavelength	MM100000.asd
350	 4.12101906331475E-02 
351	 4.76568022670754E-02 
352	 4.22876173142792E-02 
353	 2.97112356839394E-02 
354	 3.80292973116472E-02 
355	 4.04157522448187E-02 
356	 3.75402140561764E-02 
357	 3.66903561975007E-02 
358	 4.20393366416329E-02 
359	 4.20198834363782E-02 
360	 0.037675886901399 
361	 0.037773915370151 
362	 3.84143243783041E-02 
363	 3.90050544606363E-02 
364	 3.93269228874974E-02 
365	 3.91020209869698E-02 
366	 3.83946835420444E-02 
367	 0.038854668158026 
368	 4.13802859347592E-02 
369	 4.28455671108808E-02 
370	 4.14931241543499E-02 
371	 3.99431940818984E-02 
372	 4.28918441478579E-02 
373	 4.34728221419008E-02 
374	 4.21925917988243E-02 
375	 4.09636529353111E-02 
376	 4.23309352083615E-02 
377	 4.36386615583275E-02 
378	 4.40680801371532E-02 
379	 4.38006429874153E-02 
380	 4.48259921082711E-02 
381	 4.41800598550476E-02 
382	 4.33809138857526E-02 
383	 4.67478409352753E-02 
384	 4.82840697179174E-02 
385	 4.76035513393833E-02 
386	 4.60719268551044E-02 
387	 0.046551263851406 
388	 4.83972592689453E-02 
389	 4.92348156162369E-02 
390	 4.73999600936084E-02 
391	 4.69586509119588E-02 
392	 4.85060655613247E-02 
393	 5.08589156509153E-02 
394	 5.16347804863064E-02 
395	 5.14662299955317E-02 
396	 5.11424337621536E-02 
397	 5.13619268708957E-02 
398	 5.27110942593703E-02 
399	 5.33724631178255E-02 
400	 5.34285362121273E-02 
401	 5.36756393892393E-02 
402	 5.44756892385542E-02 
403	 5.47195373455622E-02 
404	 5.45801131684127E-02 
405	 5.55129740074888E-02 
406	 5.56763064448386E-02 
407	 5.62497341109665E-02 
408	 5.76252349804623E-02 
409	 5.65681297789648E-02 
410	 5.59345286870822E-02 
411	 5.62744259624265E-02 
412	 5.69736125998872E-02 
413	 5.78222066323825E-02 
414	 5.79732511286891E-02 
415	 5.75699428805353E-02 
416	 5.80275992222124E-02 
417	 5.79265912430995E-02 
418	 5.79250190290482E-02 
419	 5.85798820558992E-02 
420	 5.84348846402337E-02 
421	 5.79107444491001E-02 
422	 5.76392201469252E-02 
423	 5.82001202294831E-02 
424	 0.058380055148652 
425	 5.81804055901614E-02 
426	 5.79168149749822E-02 
427	 5.81895747236742E-02 
428	 5.81343367903002E-02 
429	 5.77496538979824E-02 
430	 5.73557435541196E-02 
431	 5.73250841954737E-02 
432	 5.72294032199102E-02 
433	 5.70607000364869E-02 
434	 5.72225221771119E-02 
435	 5.71183875646297E-02 
436	 0.057042651614622 
437	 5.71343662196386E-02 
438	 5.65734218961966E-02 
439	 5.65318048002801E-02 
440	 5.69534294813648E-02 
441	 0.057185123445704 
442	 5.72461896414176E-02 
443	 5.73678454892747E-02 
444	 5.75427767378839E-02 
445	 5.73564622931289E-02 
446	 5.73624333166947E-02 
447	 5.75930200504752E-02 
448	 5.78957189210542E-02 
449	 0.058059464474157 
450	 5.82273034272054E-02 
451	 5.84912338340319E-02 
452	 5.88617504685693E-02 
453	 5.88512863705741E-02 
454	 5.88924841425133E-02 
455	 5.92020460780262E-02 
456	 5.90270713749612E-02 
457	 5.90857405035225E-02 
458	 5.93760160500466E-02 
459	 5.95611250585405E-02 
460	 5.94692256440477E-02 
461	 5.94827469161332E-02 
462	 0.059681814911283 
463	 5.96564507394596E-02 
464	 5.96800871929293E-02 
465	 5.96736299277456E-02 
466	 5.95853238854935E-02 
467	 5.98581093732752E-02 
468	 6.01454655995506E-02 
469	 0.060206956733785 
470	 5.99505092676434E-02 
471	 5.98957044057394E-02 
472	 5.99401281432523E-02 
473	 5.99531153240438E-02 
474	 6.00179345952528E-02 
475	 6.00799468221125E-02 
476	 6.00806119487427E-02 
477	 5.99908429410628E-02 
478	 5.99831063253719E-02 
479	 0.060048794152909 
480	 6.01387811948455E-02 
481	 6.01761288229855E-02 
482	 6.01566221255015E-02 
483	 0.060191761530242 
484	 6.03333550302922E-02 
485	 6.02616298628807E-02 
486	 6.01716926023342E-02 
487	 0.060155986743535 
488	 6.02065320667738E-02 
489	 6.03224025509029E-02 
490	 6.04061407109668E-02 
491	 6.03944924535815E-02 
492	 6.03394562403575E-02 
493	 6.02083644042137E-02 
494	 6.01939258382318E-02 
495	 6.04953333499113E-02 
496	 6.05563829050552E-02 
497	 6.03628000321675E-02 
498	 6.01360801085972E-02 
499	 6.03638622508799E-02 
500	 6.04545680437314E-02 
501	 6.04456595381076E-02 
502	 6.05070616141428E-02 
503	 6.05202707160967E-02 
504	 6.04876963219889E-02 
505	 6.04547276058327E-02 
506	 6.04953318603021E-02 
507	 6.05143845792385E-02 
508	 6.05472143769231E-02 
509	 6.06009776874978E-02 
510	 6.05333050763689E-02 
511	 6.04666188751344E-02 
512	 6.04650415897828E-02 
513	 6.05411792915882E-02 
514	 6.05597932851519E-02 
515	 6.05421895683276E-02 
516	 6.05459093194627E-02 
517	 6.06694911729126E-02 
518	 6.06663791580288E-02 
519	 6.06080095493443E-02 
520	 6.06421097905863E-02 
521	 0.060702580045564 
522	 6.08038450359999E-02 
523	 6.08841734781459E-02 
524	 6.08053623712255E-02 
525	 6.07877072424436E-02 
526	 6.08256408069635E-02 
527	 6.08667305781276E-02 
528	 6.08885888822771E-02 
529	 6.09064401599883E-02 
530	 6.09545395417491E-02 
531	 6.10610368985963E-02 
532	 6.10076265332499E-02 
533	 6.10429252940428E-02 
534	 6.12540765750747E-02 
535	 6.12461073709575E-02 
536	 0.061312191056302 
537	 6.14251457113932E-02 
538	 6.14600443144267E-02 
539	 6.15141919255111E-02 
540	 0.061564459271335 
541	 6.16327579551408E-02 
542	 6.18151234263098E-02 
543	 6.19289227979204E-02 
544	 6.20064961478037E-02 
545	 6.21244845964684E-02 
546	 6.22803479774353E-02 
547	 6.24126671674884E-02 
548	 6.25310639659052E-02 
549	 6.27027343026611E-02 
550	 6.28749712495023E-02 
551	 6.30095447156025E-02 
552	 6.31270563020863E-02 
553	 6.34028893865292E-02 
554	 6.36330444058062E-02 
555	 6.38170646140916E-02 
556	 6.40589712348604E-02 
557	 6.43489705203657E-02 
558	 6.46873177469768E-02 
559	 6.50599633511766E-02 
560	 6.54335642942408E-02 
561	 6.57522457805157E-02 
562	 6.60901959806909E-02 
563	 6.65280016075141E-02 
564	 6.69014325919263E-02 
565	 6.73010766372792E-02 
566	 6.77835205145412E-02 
567	 6.83501216169662E-02 
568	 6.89207209215636E-02 
569	 0.069487494746563 
570	 0.07006976618661 
571	 7.07037204277091E-02 
572	 7.14057487178615E-02 
573	 7.21440747849044E-02 
574	 7.28527039550965E-02 
575	 7.35169850928647E-02 
576	 0.074225226027951 
577	 7.50250937200435E-02 
578	 7.58448158840581E-02 
579	 7.66771632066444E-02 
580	 7.75634673007057E-02 
581	 7.85514649909856E-02 
582	 7.95572933596941E-02 
583	 8.05455600236099E-02 
584	 8.15280306447747E-02 
585	 8.25816235402897E-02 
586	 8.35855287169932E-02 
587	 8.45918414578098E-02 
588	 8.56733042942672E-02 
589	 8.67651925749648E-02 
590	 8.78515871738834E-02 
591	 0.088940120075502 
592	 9.00588258512201E-02 
593	 9.11756659891447E-02 
594	 9.22409408071103E-02 
595	 9.32514499755434E-02 
596	 9.43359780198334E-02 
597	 9.54446453770664E-02 
598	 9.65452685159812E-02 
599	 9.76149632080097E-02 
600	 9.86067497522767E-02 
601	 9.95692539528461E-02 
602	 0.100529346234698 
603	 0.101459692944105 
604	 0.10235118058228 
605	 0.103219908901018 
606	 0.104090245386857 
607	 0.104970751208966 
608	 0.105826940931751 
609	 0.106642176508783 
610	 0.107424852637311 
611	 0.108158632085269 
612	 0.108878814398332 
613	 0.109588795192247 
614	 0.11014603069793 
615	 0.110704968151153 
616	 0.11128813447042 
617	 0.111821224669328 
618	 0.112300017517056 
619	 0.11275113236977 
620	 0.11319373774606 
621	 0.11361178864091 
622	 0.114056748895503 
623	 0.11448928720724 
624	 0.114849922371302 
625	 0.115218172876183 
626	 0.115569099536325 
627	 0.115894555181713 
628	 0.116218953785556 
629	 0.116572057467767 
630	 0.116910748736277 
631	 0.117201838913325 
632	 0.117538700432434 
633	 0.117836014078123 
634	 0.118109115262937 
635	 0.118450012295409 
636	 0.118742287473855 
637	 0.119031630133587 
638	 0.119350307905954 
639	 0.119626825323011 
640	 0.119897260116698 
641	 0.120182362344127 
642	 0.120493630766901 
643	 0.120824163938943 
644	 0.121148220026578 
645	 0.121452476392913 
646	 0.121741967679055 
647	 0.122064048959035 
648	 0.122388841059345 
649	 0.12269032391145 
650	 0.123065927929074 
651	 0.123438231132111 
652	 0.123765457565685 
653	 0.124050674853233 
654	 0.124442316874586 
655	 0.124814078316911 
656	 0.12510352699161 
657	 0.125542161058465 
658	 0.125971988930695 
659	 0.126363703287265 
660	 0.126750809628477 
661	 0.127161328889996 
662	 0.127620261199738 
663	 0.128100042239295 
664	 0.128498409127447 
665	 0.128924757326849 
666	 0.129386181484656 
667	 0.12986098600053 
668	 0.130329709406196 
669	 0.13086201034381 
670	 0.131412804582045 
671	 0.131852651110627 
672	 0.132363020941013 
673	 0.132908071446084 
674	 0.133450198091791 
675	 0.134050944805362 
676	 0.134597609752914 
677	 0.135117240553086 
678	 0.135692313317811 
679	 0.136312355715608 
680	 0.136923832193416 
681	 0.137524899232586 
682	 0.138187709429715 
683	 0.138820667480805 
684	 0.139425608505083 
685	 0.140038685402618 
686	 0.140721183688836 
687	 0.141419970103277 
688	 0.142122417745627 
689	 0.142840449346978 
690	 0.14349478585986 
691	 0.144142750185685 
692	 0.144844848068277 
693	 0.145642367189251 
694	 0.146343839446666 
695	 0.147028347219741 
696	 0.147825670550587 
697	 0.14852511332252 
698	 0.149271936855088 
699	 0.150091520311386 
700	 0.150863840049316 
701	 0.1516137690846 
702	 0.15236050886824 
703	 0.153117230118753 
704	 0.153877731234667 
705	 0.154643472415023 
706	 0.155412996728151 
707	 0.156182195592268 
708	 0.156945717620046 
709	 0.157695029734294 
710	 0.15844614223395 
711	 0.159252745677304 
712	 0.160004791958239 
713	 0.160735553075693 
714	 0.161499475820226 
715	 0.162264691784521 
716	 0.163010113112851 
717	 0.163725606194442 
718	 0.164409592292587 
719	 0.165058737443911 
720	 0.165710563157226 
721	 0.166371867585362 
722	 0.166974541360026 
723	 0.167637321976285 
724	 0.168313891555704 
725	 0.168912583835743 
726	 0.169425355995612 
727	 0.169929140123867 
728	 0.170445799017268 
729	 0.170941399167108 
730	 0.171448362668131 
731	 0.171911465097863 
732	 0.172303218387776 
733	 0.172701337873592 
734	 0.173044490563261 
735	 0.173343367926262 
736	 0.173641911287559 
737	 0.174000426898426 
738	 0.174258450230852 
739	 0.174410936845221 
740	 0.174632887666392 
741	 0.174778415290964 
742	 0.174913036491653 
743	 0.175082406983843 
744	 0.175161334140462 
745	 0.175181878659749 
746	 0.175187429105158 
747	 0.175208969537739 
748	 0.175134578867758 
749	 0.175045455751321 
750	 0.174978847581258 
751	 0.174897718719203 
752	 0.174766833360215 
753	 0.174608122469152 
754	 0.17443980123566 
755	 0.174222765301948 
756	 0.17398550634415 
757	 0.173736705857874 
758	 0.173474029640515 
759	 0.173196984575645 
760	 0.172876668742828 
761	 0.172524361471479 
762	 0.172201596207863 
763	 0.171832554451039 
764	 0.171464865235587 
765	 0.171126552868352 
766	 0.17069565286302 
767	 0.170285619760103 
768	 0.169881418637484 
769	 0.169419059507643 
770	 0.168995623776324 
771	 0.168552660503749 
772	 0.168078831330529 
773	 0.167633362068121 
774	 0.167169588266143 
775	 0.166684811090351 
776	 0.166188703011856 
777	 0.165696746739463 
778	 0.165202104492827 
779	 0.164699240351219 
780	 0.164187391932541 
781	 0.163688054801137 
782	 0.163233741721898 
783	 0.162773889276493 
784	 0.162185371683549 
785	 0.161699861634966 
786	 0.161237588592445 
787	 0.160723385720975 
788	 0.160245750716202 
789	 0.159740595313056 
790	 0.159233341741086 
791	 0.158762049078174 
792	 0.158245832835791 
793	 0.157757740034831 
794	 0.157300440500364 
795	 0.156815448952407 
796	 0.156353054428511 
797	 0.155899969262845 
798	 0.155431035424831 
799	 0.154913129079217 
800	 0.1544662938684 
801	 0.154072646225499 
802	 0.153665597324798 
803	 0.153177264946585 
804	 0.152718174737461 
805	 0.152316196812168 
806	 0.151935587483834 
807	 0.151513263819215 
808	 0.151066193833226 
809	 0.150628267743786 
810	 0.150237097166641 
811	 0.149876841356911 
812	 0.14952966396448 
813	 0.149180855420779 
814	 0.148829205966645 
815	 0.148470291257857 
816	 0.148088415014668 
817	 0.147690866804794 
818	 0.14742497881859 
819	 0.147135544896494 
820	 0.146785169612745 
821	 0.146452106585131 
822	 0.146135216314432 
823	 0.145842418432388 
824	 0.14556128216224 
825	 0.145247524887433 
826	 0.144980004472214 
827	 0.144748257659082 
828	 0.14452150249029 
829	 0.144297825786273 
830	 0.144012333647589 
831	 0.143713382153844 
832	 0.143488593957598 
833	 0.143287950601564 
834	 0.143081059683721 
835	 0.1428888798731 
836	 0.142766992064676 
837	 0.142578179260209 
838	 0.142354889511368 
839	 0.142144542311259 
840	 0.14196794890247 
841	 0.141823510593334 
842	 0.141667505142757 
843	 0.141483695184166 
844	 0.141379459214816 
845	 0.141277728527731 
846	 0.141177021745308 
847	 0.141098261873948 
848	 0.140970895587281 
849	 0.140869464742684 
850	 0.140799315693727 
851	 0.140704978773158 
852	 0.140628997603256 
853	 0.140578122661162 
854	 0.140532975930289 
855	 0.140446801566323 
856	 0.140423860477636 
857	 0.140427512143412 
858	 0.140409405431209 
859	 0.140380564756669 
860	 0.140365096657493 
861	 0.140365564255982 
862	 0.140374978884731 
863	 0.140388858372601 
864	 0.140398443814841 
865	 0.140427079112843 
866	 0.140501295823527 
867	 0.140523550501027 
868	 0.140581175408393 
869	 0.140662465191929 
870	 0.140653773990426 
871	 0.140694641547502 
872	 0.140778630044699 
873	 0.140885674728173 
874	 0.141014538814852 
875	 0.141168305011429 
876	 0.141269600845525 
877	 0.141305183562626 
878	 0.141474430777947 
879	 0.141666464489061 
880	 0.141813797150359 
881	 0.141908073732497 
882	 0.142116111523107 
883	 0.142310643208128 
884	 0.142460414544102 
885	 0.142605157316279 
886	 0.142823055730443 
887	 0.143046568111209 
888	 0.143251572274139 
889	 0.143459843185482 
890	 0.143654175503174 
891	 0.143847423130075 
892	 0.144087280861269 
893	 0.144443067974981 
894	 0.144666729082832 
895	 0.144872596250016 
896	 0.145154440956807 
897	 0.145433882890449 
898	 0.145719613517206 
899	 0.146015621142486 
900	 0.14631555627727 
901	 0.146574086467909 
902	 0.146942873841162 
903	 0.147341115215383 
904	 0.147658911845258 
905	 0.148008655162236 
906	 0.148365515149433 
907	 0.148737974281108 
908	 0.149134516096175 
909	 0.14947968814145 
910	 0.149884481172909 
911	 0.150313402996387 
912	 0.150659655273935 
913	 0.151076708505511 
914	 0.151530328100813 
915	 0.151992070610961 
916	 0.152451868762725 
917	 0.152858856083789 
918	 0.153319167602918 
919	 0.153853985906296 
920	 0.154365229317055 
921	 0.154873763841457 
922	 0.155399019541235 
923	 0.155928541849948 
924	 0.156408252013909 
925	 0.156930240016675 
926	 0.15749674253045 
927	 0.158070132617482 
928	 0.158580388840878 
929	 0.159199165270595 
930	 0.159797962974116 
931	 0.160309739777734 
932	 0.160995686062162 
933	 0.161571444027611 
934	 0.162131099194512 
935	 0.162800197561919 
936	 0.163459732521617 
937	 0.164115826498025 
938	 0.164753200103727 
939	 0.165372033728881 
940	 0.166032477019389 
941	 0.166711765317415 
942	 0.167455336664828 
943	 0.16828136379223 
944	 0.169009990082334 
945	 0.169707998483451 
946	 0.170431100286051 
947	 0.171201107223822 
948	 0.171938447231776 
949	 0.172675712188107 
950	 0.173395363265313 
951	 0.174089891266994 
952	 0.174921027808925 
953	 0.175777748466936 
954	 0.176571897169856 
955	 0.177292994154474 
956	 0.178198586688933 
957	 0.179050349077372 
958	 0.179817380081745 
959	 0.180609259208446 
960	 0.181411532043796 
961	 0.182269085049931 
962	 0.183181511875213 
963	 0.184097662965345 
964	 0.184891388759096 
965	 0.185705295742239 
966	 0.186591573842212 
967	 0.187523054191808 
968	 0.188495594897748 
969	 0.189394706532285 
970	 0.190233898818672 
971	 0.191112050740387 
972	 0.192045814270083 
973	 0.19301487960388 
974	 0.193975388127903 
975	 0.194891950236444 
976	 0.195837525801383 
977	 0.196804206801488 
978	 0.197766673562855 
979	 0.198707156357291 
980	 0.199709072954278 
981	 0.200592046785454 
982	 0.201407582766203 
983	 0.202339441140054 
984	 0.203395203407887 
985	 0.204340645970509 
986	 0.205184561490733 
987	 0.206076193605914 
988	 0.207036747499261 
989	 0.208002763521677 
990	 0.208931478951918 
991	 0.209830924746687 
992	 0.210871612888931 
993	 0.211674561884844 
994	 0.212486873933594 
995	 0.213631109493438 
996	 0.214494723765388 
997	 0.215342753259003 
998	 0.216224449258007 
999	 0.21709718918222 
1000	 0.217931836715049 
1001	 0.221973571710918 
1002	 0.222830796783477 
1003	 0.223754146790697 
1004	 0.224605058806635 
1005	 0.225420442770792 
1006	 0.22623018105442 
1007	 0.227023076664201 
1008	 0.227750779873643 
1009	 0.228514511977233 
1010	 0.229346733186365 
1011	 0.230132064796777 
1012	 0.230879416002578 
1013	 0.231608968228256 
1014	 0.232353890346948 
1015	 0.233092099486561 
1016	 0.23382460008604 
1017	 0.234518486082272 
1018	 0.235194184864117 
1019	 0.235801926904943 
1020	 0.236472361428839 
1021	 0.237164117021979 
1022	 0.237884960874494 
1023	 0.238607592349995 
1024	 0.239216281704276 
1025	 0.239805709803943 
1026	 0.240360555746242 
1027	 0.240860995967159 
1028	 0.241443575151097 
1029	 0.242079709930712 
1030	 0.242699407405305 
1031	 0.243288540071353 
1032	 0.243902284837866 
1033	 0.244462620828137 
1034	 0.244998088901208 
1035	 0.245534572291667 
1036	 0.246075123991931 
1037	 0.246626940804324 
1038	 0.247136181554083 
1039	 0.247641370412217 
1040	 0.248179811494413 
1041	 0.248711120037222 
1042	 0.249243903516381 
1043	 0.249794640114292 
1044	 0.25030581934685 
1045	 0.25079356035225 
1046	 0.25127469612844 
1047	 0.251796406578622 
1048	 0.252295400574884 
1049	 0.252803092327984 
1050	 0.253353664857548 
1051	 0.253877798101936 
1052	 0.254386682937153 
1053	 0.254940623619485 
1054	 0.255488611764839 
1055	 0.255972756380919 
1056	 0.256427250400516 
1057	 0.256869984514376 
1058	 0.25722503069624 
1059	 0.257673321703762 
1060	 0.258159312540747 
1061	 0.258652672983695 
1062	 0.25913547597043 
1063	 0.259626593094858 
1064	 0.260102089376675 
1065	 0.260517930431023 
1066	 0.260917184582583 
1067	 0.261324216711648 
1068	 0.261704680073236 
1069	 0.262083993598677 
1070	 0.262478236446923 
1071	 0.262924244342203 
1072	 0.263316568749279 
1073	 0.263671313101272 
1074	 0.264032532559296 
1075	 0.264380166581397 
1076	 0.264709613872546 
1077	 0.265085347117793 
1078	 0.265473222840299 
1079	 0.265830862214425 
1080	 0.266178713274671 
1081	 0.266495268686446 
1082	 0.26682028951146 
1083	 0.267138795444758 
1084	 0.267470503472945 
1085	 0.26777496588152 
1086	 0.268039117205167 
1087	 0.268332892079819 
1088	 0.268636764430191 
1089	 0.268936094592588 
1090	 0.269212596978992 
1091	 0.269514372290747 
1092	 0.269768618563005 
1093	 0.270029544673285 
1094	 0.270355209933217 
1095	 0.27065222805169 
1096	 0.270944482628688 
1097	 0.271240600319659 
1098	 0.271535599589488 
1099	 0.271816003636833 
1100	 0.272109606910156 
1101	 0.272405902513316 
1102	 0.272709826309929 
1103	 0.273027958389063 
1104	 0.273329185111119 
1105	 0.273606502066579 
1106	 0.273910770968639 
1107	 0.274190713160813 
1108	 0.274462265087249 
1109	 0.274770448255144 
1110	 0.275091618970525 
1111	 0.275399269307572 
1112	 0.275714724566713 
1113	 0.276010882187189 
1114	 0.276303922354037 
1115	 0.276576713976853 
1116	 0.276807949631082 
1117	 0.277082364437038 
1118	 0.277355860216262 
1119	 0.277652754825325 
1120	 0.277961016313177 
1121	 0.278265146148983 
1122	 0.278571177863944 
1123	 0.278862599250261 
1124	 0.279183610624374 
1125	 0.279548571097114 
1126	 0.279870111658416 
1127	 0.280184805853429 
1128	 0.280485757874469 
1129	 0.280752826259225 
1130	 0.281037199070543 
1131	 0.281346998424839 
1132	 0.281621169637612 
1133	 0.281877412441953 
1134	 0.28213450217064 
1135	 0.282377850575017 
1136	 0.282596595757916 
1137	 0.282843243783988 
1138	 0.283084137045703 
1139	 0.283324387888762 
1140	 0.283567359151204 
1141	 0.283804709349669 
1142	 0.2840359205095 
1143	 0.284271504347743 
1144	 0.284516161264344 
1145	 0.284731928679858 
1146	 0.284926006356331 
1147	 0.285142529181277 
1148	 0.285365453612881 
1149	 0.285568156943036 
1150	 0.285787307923963 
1151	 0.285977489212263 
1152	 0.286140797697337 
1153	 0.28630164415377 
1154	 0.286485393520072 
1155	 0.286689873439184 
1156	 0.286876516422432 
1157	 0.287068093159653 
1158	 0.287247153781807 
1159	 0.287417325779214 
1160	 0.28758096943931 
1161	 0.287732044409681 
1162	 0.287898436100916 
1163	 0.288067308808075 
1164	 0.288228328636289 
1165	 0.288400381986309 
1166	 0.288558445643692 
1167	 0.288713974236029 
1168	 0.288871539360647 
1169	 0.289020841692127 
1170	 0.289176537155329 
1171	 0.289317449604161 
1172	 0.289438431364776 
1173	 0.289573262238162 
1174	 0.289722868446498 
1175	 0.289843286457239 
1176	 0.289942175785725 
1177	 0.290059605106311 
1178	 0.290164389750613 
1179	 0.290278403431176 
1180	 0.290417845901858 
1181	 0.29054505199472 
1182	 0.290665822368022 
1183	 0.290779628455607 
1184	 0.290900632319931 
1185	 0.291027752060878 
1186	 0.291141767948181 
1187	 0.291253811641138 
1188	 0.291360668533255 
1189	 0.291452536189489 
1190	 0.291556233555983 
1191	 0.291667590293719 
1192	 0.291771044222148 
1193	 0.291881035738161 
1194	 0.291977487141515 
1195	 0.292055111854133 
1196	 0.292143188948202 
1197	 0.292227767381441 
1198	 0.292316590913753 
1199	 0.292409197669547 
1200	 0.292511541778614 
1201	 0.292604705258418 
1202	 0.292696956866929 
1203	 0.292786093181136 
1204	 0.292866654461385 
1205	 0.292960340101484 
1206	 0.293062401415804 
1207	 0.293154731324495 
1208	 0.293253939113687 
1209	 0.293343453340726 
1210	 0.293417492118688 
1211	 0.29349916868292 
1212	 0.293586451834417 
1213	 0.293666709590367 
1214	 0.293751805609587 
1215	 0.293824202675231 
1216	 0.293888524977357 
1217	 0.293940865121605 
1218	 0.294000187484649 
1219	 0.29404929781769 
1220	 0.294111667543635 
1221	 0.294185551826482 
1222	 0.29424994173919 
1223	 0.294317209142329 
1224	 0.294377546400589 
1225	 0.294415125525914 
1226	 0.294484405993017 
1227	 0.294585235032795 
1228	 0.294654516977565 
1229	 0.294729576245954 
1230	 0.294794697554325 
1231	 0.294826096732608 
1232	 0.294867793700034 
1233	 0.294912366354159 
1234	 0.294963773374636 
1235	 0.295015954591364 
1236	 0.295062490923476 
1237	 0.295123215644565 
1238	 0.295206687970381 
1239	 0.295262121674991 
1240	 0.295314513787252 
1241	 0.295358582909313 
1242	 0.295372580100035 
1243	 0.295413195735689 
1244	 0.295463284318656 
1245	 0.295514201714034 
1246	 0.295591445647087 
1247	 0.295641184323832 
1248	 0.295668200555374 
1249	 0.295709085871944 
1250	 0.295739976399096 
1251	 0.295766732873141 
1252	 0.295805596177788 
1253	 0.295866227527824 
1254	 0.295898974140287 
1255	 0.295915010729563 
1256	 0.295947443458593 
1257	 0.295979814210669 
1258	 0.296006037999309 
1259	 0.296050354343787 
1260	 0.296069999888576 
1261	 0.296055832633093 
1262	 0.296063561308824 
1263	 0.296067933271533 
1264	 0.296082175301651 
1265	 0.296119398466527 
1266	 0.296142948396881 
1267	 0.296166550258328 
1268	 0.296180187609095 
1269	 0.296198244051108 
1270	 0.296196930377833 
1271	 0.29624046512301 
1272	 0.296314077843376 
1273	 0.296366619763879 
1274	 0.296427887165873 
1275	 0.296498252520036 
1276	 0.296547133322872 
1277	 0.296630687904782 
1278	 0.296767519007825 
1279	 0.296867623063547 
1280	 0.296956738561473 
1281	 0.297052976527389 
1282	 0.297148312872503 
1283	 0.297228662984949 
1284	 0.297296440253706 
1285	 0.29738856409448 
1286	 0.297458269169818 
1287	 0.297509232183173 
1288	 0.297567272760459 
1289	 0.297637457211338 
1290	 0.297679264652042 
1291	 0.297702127281354 
1292	 0.297731199526457 
1293	 0.29775842653781 
1294	 0.297764587223789 
1295	 0.297761784623112 
1296	 0.297750881908007 
1297	 0.297725165230561 
1298	 0.297686919229552 
1299	 0.297645991657409 
1300	 0.29759108973099 
1301	 0.297508552579494 
1302	 0.297429136557076 
1303	 0.297353844149265 
1304	 0.297256073219046 
1305	 0.297159068742645 
1306	 0.297059490809114 
1307	 0.296932682397418 
1308	 0.29680129828963 
1309	 0.296676569444074 
1310	 0.296541707848124 
1311	 0.296420040645622 
1312	 0.296307619570051 
1313	 0.296198799139151 
1314	 0.296095428131182 
1315	 0.295983016146248 
1316	 0.295862741234199 
1317	 0.295766574196134 
1318	 0.295686002614317 
1319	 0.295591042365677 
1320	 0.295520798715801 
1321	 0.295424334112361 
1322	 0.295298541625877 
1323	 0.2951656076334 
1324	 0.295070652975537 
1325	 0.294981441509358 
1326	 0.294916811694796 
1327	 0.29487135695139 
1328	 0.294781439042948 
1329	 0.294692205542588 
1330	 0.294624944810985 
1331	 0.294546107668557 
1332	 0.294496459930747 
1333	 0.294488955821839 
1334	 0.294454808935188 
1335	 0.294417473801546 
1336	 0.294384773207693 
1337	 0.294348156957486 
1338	 0.294315812896009 
1339	 0.294290289821816 
1340	 0.294257864528636 
1341	 0.294228148149194 
1342	 0.294192616359973 
1343	 0.294149031344678 
1344	 0.294103726313995 
1345	 0.294078480989629 
1346	 0.294058022613826 
1347	 0.294038890643547 
1348	 0.294022951961133 
1349	 0.293983522524676 
1350	 0.293913959109239 
1351	 0.293858909652333 
1352	 0.293790653919956 
1353	 0.29374968393914 
1354	 0.293717874941427 
1355	 0.293690475451975 
1356	 0.293695978574259 
1357	 0.293660193783596 
1358	 0.293603764144094 
1359	 0.293560175180201 
1360	 0.293493151833778 
1361	 0.293444953188933 
1362	 0.293411303395886 
1363	 0.293382024235179 
1364	 0.293369884596836 
1365	 0.293341372754581 
1366	 0.293312001096245 
1367	 0.29328146291459 
1368	 0.293244284642576 
1369	 0.293193963142482 
1370	 0.293130701871472 
1371	 0.293046659313726 
1372	 0.292932720924707 
1373	 0.292794570899613 
1374	 0.292643701264176 
1375	 0.292481653108367 
1376	 0.292288797731934 
1377	 0.292086288425187 
1378	 0.291831473707567 
1379	 0.291534618268286 
1380	 0.291220830135361 
1381	 0.290858343442445 
1382	 0.290501911389403 
1383	 0.290154076049028 
1384	 0.289753314893583 
1385	 0.289344227979092 
1386	 0.288882703132698 
1387	 0.288374124622089 
1388	 0.28783151008641 
1389	 0.287255213199218 
1390	 0.286638022384008 
1391	 0.285984158323739 
1392	 0.285279461922888 
1393	 0.284543894172352 
1394	 0.28377890731992 
1395	 0.282950717267132 
1396	 0.282135923368366 
1397	 0.281324741282762 
1398	 0.28049201735344 
1399	 0.279670794608885 
1400	 0.278877403278013 
1401	 0.278048452579612 
1402	 0.277189004283908 
1403	 0.276361259698701 
1404	 0.275511159232246 
1405	 0.274712475598057 
1406	 0.2739407412882 
1407	 0.273195535327909 
1408	 0.272467859568928 
1409	 0.271784201985422 
1410	 0.271144514708727 
1411	 0.270518788106076 
1412	 0.269897577234459 
1413	 0.269354994797587 
1414	 0.268858532711715 
1415	 0.268381055385192 
1416	 0.267979845528754 
1417	 0.267622695254538 
1418	 0.267276668572727 
1419	 0.266935208617003 
1420	 0.266617149425752 
1421	 0.266302773639305 
1422	 0.26599873374816 
1423	 0.265735353265606 
1424	 0.265481475193204 
1425	 0.265260529478534 
1426	 0.265031043147897 
1427	 0.264800224665707 
1428	 0.264596144692866 
1429	 0.264398806134275 
1430	 0.264227779342471 
1431	 0.264090005404514 
1432	 0.263948682111696 
1433	 0.263818604967795 
1434	 0.26369804781337 
1435	 0.263587799196374 
1436	 0.263482582502495 
1437	 0.263382352802691 
1438	 0.263295845463875 
1439	 0.263222662635922 
1440	 0.263146902357313 
1441	 0.263072830107599 
1442	 0.263028464879564 
1443	 0.262983023925472 
1444	 0.262933563605073 
1445	 0.262921067121567 
1446	 0.262903873112498 
1447	 0.26287852883741 
1448	 0.262870748158245 
1449	 0.262853823581775 
1450	 0.262829785177966 
1451	 0.262818778841247 
1452	 0.262813807829973 
1453	 0.262815008170155 
1454	 0.262819152607017 
1455	 0.262838658978869 
1456	 0.262871453576041 
1457	 0.262904006461713 
1458	 0.262944634477088 
1459	 0.262989080706214 
1460	 0.263026363579243 
1461	 0.263085818896959 
1462	 0.263163366072446 
1463	 0.263246833469905 
1464	 0.263342224220705 
1465	 0.263446884707364 
1466	 0.263554844876794 
1467	 0.263679911906024 
1468	 0.26380776820582 
1469	 0.263965820326363 
1470	 0.264152040681166 
1471	 0.264347573816837 
1472	 0.264546505076545 
1473	 0.264769105623038 
1474	 0.26498303645753 
1475	 0.265192649681756 
1476	 0.265420072392623 
1477	 0.265654293715364 
1478	 0.265905087788853 
1479	 0.266155880768959 
1480	 0.266422255528899 
1481	 0.266702359922679 
1482	 0.266953918220357 
1483	 0.267189199576263 
1484	 0.267444053463848 
1485	 0.267685447381309 
1486	 0.267942673108044 
1487	 0.268221942545264 
1488	 0.268490831460959 
1489	 0.268761630132475 
1490	 0.269022531091603 
1491	 0.269279675544165 
1492	 0.269543644047015 
1493	 0.269796081616852 
1494	 0.270062393405802 
1495	 0.270353487635906 
1496	 0.270618598063131 
1497	 0.270884038147713 
1498	 0.271131169061088 
1499	 0.271355147559076 
1500	 0.271583192769018 
1501	 0.271795145055623 
1502	 0.272013955755185 
1503	 0.272237194909454 
1504	 0.272453460889368 
1505	 0.272676024243446 
1506	 0.27290834840298 
1507	 0.273134764275696 
1508	 0.273362401601022 
1509	 0.273566932555402 
1510	 0.273760733669884 
1511	 0.273943819263217 
1512	 0.274114179922382 
1513	 0.274322529127579 
1514	 0.274529902351611 
1515	 0.274743601403887 
1516	 0.274971159251524 
1517	 0.275169879072217 
1518	 0.27534988490804 
1519	 0.27553315568533 
1520	 0.275703835239351 
1521	 0.275880225814416 
1522	 0.276056976392312 
1523	 0.276225623384947 
1524	 0.276388583655636 
1525	 0.276555459873061 
1526	 0.276720229615786 
1527	 0.276886160169263 
1528	 0.277054764549165 
1529	 0.277219070433444 
1530	 0.277378587132 
1531	 0.277540779903432 
1532	 0.277700685913958 
1533	 0.277871374482267 
1534	 0.278061852446289 
1535	 0.27822104787364 
1536	 0.278371767555396 
1537	 0.278515842223746 
1538	 0.278626002876746 
1539	 0.278756416618652 
1540	 0.278894468287892 
1541	 0.279039269847407 
1542	 0.279207570033904 
1543	 0.279349925963727 
1544	 0.279492847915628 
1545	 0.279615029229141 
1546	 0.279712624593557 
1547	 0.279791877131621 
1548	 0.279887315935039 
1549	 0.279998426781521 
1550	 0.280118265332628 
1551	 0.280259420989985 
1552	 0.280385101247184 
1553	 0.280489094214721 
1554	 0.280609501047368 
1555	 0.280720755206233 
1556	 0.280832817611172 
1557	 0.280967564662612 
1558	 0.281077004180602 
1559	 0.281170909011666 
1560	 0.281265868955978 
1561	 0.281348426800167 
1562	 0.281440572141032 
1563	 0.281532469082646 
1564	 0.281630829252033 
1565	 0.281739060089892 
1566	 0.281835872607276 
1567	 0.281929448235374 
1568	 0.282027340388836 
1569	 0.282122139858447 
1570	 0.282212953516267 
1571	 0.282316397171512 
1572	 0.282394593755954 
1573	 0.282452884534733 
1574	 0.282517947261192 
1575	 0.282567185169308 
1576	 0.282627439736893 
1577	 0.282703631349637 
1578	 0.282759190520149 
1579	 0.282808262664317 
1580	 0.282855992014065 
1581	 0.28289121793864 
1582	 0.282926505794041 
1583	 0.282953340105268 
1584	 0.282995497812728 
1585	 0.283033626223274 
1586	 0.283085578949111 
1587	 0.28315984824578 
1588	 0.283229954064425 
1589	 0.283321981454917 
1590	 0.28337939916509 
1591	 0.283417651986204 
1592	 0.283458382957528 
1593	 0.283463438634149 
1594	 0.283497894646394 
1595	 0.283550412823515 
1596	 0.283604386196245 
1597	 0.283679012356539 
1598	 0.283738955802538 
1599	 0.283799641092504 
1600	 0.283854135209995 
1601	 0.283889709420558 
1602	 0.283936273450265 
1603	 0.283985985979863 
1604	 0.284035170398052 
1605	 0.284095190873896 
1606	 0.284146579155857 
1607	 0.284187814724502 
1608	 0.284232583123429 
1609	 0.284298248457138 
1610	 0.284350061506017 
1611	 0.284394900999954 
1612	 0.284442622573151 
1613	 0.284464440104397 
1614	 0.284484132272044 
1615	 0.284497865665077 
1616	 0.284499485350238 
1617	 0.284506256676913 
1618	 0.284516756912287 
1619	 0.284539483538338 
1620	 0.284564924976515 
1621	 0.284579200077947 
1622	 0.284586444005221 
1623	 0.284594097065384 
1624	 0.284594413839766 
1625	 0.284608000421394 
1626	 0.284624899325619 
1627	 0.284643928683469 
1628	 0.284673296418362 
1629	 0.284689629266294 
1630	 0.284697594275702 
1631	 0.28471845803971 
1632	 0.284741097329658 
1633	 0.28476369562292 
1634	 0.284791392080641 
1635	 0.284823611413279 
1636	 0.284859280890405 
1637	 0.284884428477922 
1638	 0.28491379688444 
1639	 0.284937052742515 
1640	 0.284938735411578 
1641	 0.284968266156058 
1642	 0.285022401417187 
1643	 0.285048798479812 
1644	 0.285071020446226 
1645	 0.285094996983927 
1646	 0.2851058253552 
1647	 0.285117967650054 
1648	 0.285141421835748 
1649	 0.285149353928756 
1650	 0.285138672103406 
1651	 0.285139559907719 
1652	 0.285142477684676 
1653	 0.285143812143589 
1654	 0.28515274711981 
1655	 0.285142927003639 
1656	 0.285121918100914 
1657	 0.285104463352317 
1658	 0.285073241943783 
1659	 0.285053176815398 
1660	 0.285038597864363 
1661	 0.285028235084904 
1662	 0.285023222547055 
1663	 0.285014387731202 
1664	 0.285008788066006 
1665	 0.285003589815598 
1666	 0.284998483715273 
1667	 0.284987651389733 
1668	 0.28498071943122 
1669	 0.284964108606601 
1670	 0.284939948606306 
1671	 0.28490850293306 
1672	 0.284859481560507 
1673	 0.284834911523509 
1674	 0.284809702377214 
1675	 0.284796221913834 
1676	 0.284802190781787 
1677	 0.284809985976946 
1678	 0.284830904510488 
1679	 0.284833411776983 
1680	 0.284843882401583 
1681	 0.284834867749383 
1682	 0.284782079428608 
1683	 0.284778359208334 
1684	 0.284798726098985 
1685	 0.284806251491842 
1686	 0.284845963216971 
1687	 0.284846664546948 
1688	 0.28481698446441 
1689	 0.284791612224983 
1690	 0.284749768104071 
1691	 0.284719088828839 
1692	 0.284684717045606 
1693	 0.284662637266233 
1694	 0.284657183671678 
1695	 0.284633692118906 
1696	 0.28460800876481 
1697	 0.284580941449993 
1698	 0.284541202544643 
1699	 0.284510387274818 
1700	 0.284491873059354 
1701	 0.284457024445416 
1702	 0.284409038503827 
1703	 0.284372109204386 
1704	 0.284339394063447 
1705	 0.284293627905089 
1706	 0.284242476749058 
1707	 0.284202504263958 
1708	 0.284158159158207 
1709	 0.284111341439992 
1710	 0.284078422758484 
1711	 0.284032308850127 
1712	 0.283973739669432 
1713	 0.28391518954283 
1714	 0.28384333051691 
1715	 0.28379550174519 
1716	 0.283746571531387 
1717	 0.283714790093381 
1718	 0.28373143423526 
1719	 0.283694535009405 
1720	 0.283642778844319 
1721	 0.283576168320575 
1722	 0.28346563988668 
1723	 0.283391738725431 
1724	 0.283319685309583 
1725	 0.283264473827883 
1726	 0.283241859101582 
1727	 0.283181675297114 
1728	 0.28311563588924 
1729	 0.283043370343002 
1730	 0.28295007196194 
1731	 0.282858973019806 
1732	 0.282776241851686 
1733	 0.282671243983177 
1734	 0.282537867676236 
1735	 0.282434904584954 
1736	 0.282334952442826 
1737	 0.282234634528748 
1738	 0.282153930336809 
1739	 0.282052344612917 
1740	 0.281940493872387 
1741	 0.281826592453299 
1742	 0.281700228619109 
1743	 0.281590577215984 
1744	 0.281480821137638 
1745	 0.281373629468558 
1746	 0.28127822781809 
1747	 0.281199493683019 
1748	 0.281105975637516 
1749	 0.281001484106358 
1750	 0.28088280084452 
1751	 0.280735756623547 
1752	 0.280595697587044 
1753	 0.280486943739454 
1754	 0.280376177267969 
1755	 0.280281890593104 
1756	 0.28019971474862 
1757	 0.280092460752488 
1758	 0.280008925016252 
1759	 0.279931353332011 
1760	 0.279815137470315 
1761	 0.279708500071184 
1762	 0.279615745635307 
1763	 0.279497674075608 
1764	 0.279382900451484 
1765	 0.279300057213318 
1766	 0.279203811424632 
1767	 0.27910201071749 
1768	 0.27901924510968 
1769	 0.278928897670367 
1770	 0.278829381420268 
1771	 0.27874876237861 
1772	 0.278677037310122 
1773	 0.278582371976264 
1774	 0.278488354957537 
1775	 0.27838423284642 
1776	 0.27827210851712 
1777	 0.278189045207892 
1778	 0.278104481538155 
1779	 0.278042927940916 
1780	 0.27800975789131 
1781	 0.277950608453652 
1782	 0.277895457631629 
1783	 0.277847591312599 
1784	 0.277801300314531 
1785	 0.277779734711623 
1786	 0.277738347195865 
1787	 0.277666361720198 
1788	 0.277628435177721 
1789	 0.277607936658497 
1790	 0.277582604066104 
1791	 0.277579685805823 
1792	 0.277552105862318 
1793	 0.277511164859836 
1794	 0.2774705924814 
1795	 0.277435210002671 
1796	 0.277383166654257 
1797	 0.277293542049099 
1798	 0.277227244897644 
1799	 0.277152004378585 
1800	 0.277115316377673 
1801	 0.277862406256916 
1802	 0.27790579715448 
1803	 0.2779641544395 
1804	 0.278049244260461 
1805	 0.278143466543139 
1806	 0.278263988336896 
1807	 0.27836414412668 
1808	 0.278457452563198 
1809	 0.278572306274693 
1810	 0.278639174005904 
1811	 0.278674058815329 
1812	 0.278709354147349 
1813	 0.278733669414636 
1814	 0.278713926130278 
1815	 0.27868898595166 
1816	 0.278654836122444 
1817	 0.278621727094673 
1818	 0.278549801299826 
1819	 0.278542268074705 
1820	 0.278572333539517 
1821	 0.278588542549413 
1822	 0.278604624442347 
1823	 0.278588353882482 
1824	 0.278541136554852 
1825	 0.278464959405618 
1826	 0.278396005690321 
1827	 0.278365238992896 
1828	 0.278310968207011 
1829	 0.278247143073894 
1830	 0.278188698231744 
1831	 0.278146352093455 
1832	 0.278051382131954 
1833	 0.277954545516465 
1834	 0.277862685354424 
1835	 0.277760386468408 
1836	 0.277666444815115 
1837	 0.277569067782004 
1838	 0.277492087993457 
1839	 0.277404128903074 
1840	 0.277323038540249 
1841	 0.277207225015917 
1842	 0.277086540230639 
1843	 0.276963060651369 
1844	 0.276810563665143 
1845	 0.27665033295495 
1846	 0.276513418083645 
1847	 0.276359270308426 
1848	 0.276185391273639 
1849	 0.276014220346101 
1850	 0.275836997238364 
1851	 0.275654446411283 
1852	 0.275453395724967 
1853	 0.275233696825209 
1854	 0.274995858024547 
1855	 0.274740785233393 
1856	 0.274463011040219 
1857	 0.27414996028523 
1858	 0.273801396196287 
1859	 0.273412788073036 
1860	 0.27296709755189 
1861	 0.272461696492099 
1862	 0.271910009881623 
1863	 0.271332196435132 
1864	 0.270700641711284 
1865	 0.270034476196421 
1866	 0.269329014363525 
1867	 0.268566717233406 
1868	 0.267776812187914 
1869	 0.26691878730531 
1870	 0.266022746423893 
1871	 0.265063724611967 
1872	 0.264068595781831 
1873	 0.262981461961948 
1874	 0.261839546848069 
1875	 0.260623149232663 
1876	 0.259323714447686 
1877	 0.257930979034872 
1878	 0.256411332048561 
1879	 0.254771046254392 
1880	 0.253014543556706 
1881	 0.251096460560382 
1882	 0.24913636573426 
1883	 0.247092734723582 
1884	 0.244917077934437 
1885	 0.24270785640327 
1886	 0.240425152693795 
1887	 0.238006137268625 
1888	 0.23555626210839 
1889	 0.23302782668718 
1890	 0.230458541383342 
1891	 0.227919199535567 
1892	 0.225353317953973 
1893	 0.222806232359144 
1894	 0.220266106104778 
1895	 0.217745109721104 
1896	 0.215183314259044 
1897	 0.212720536063245 
1898	 0.210327901324842 
1899	 0.208027923375007 
1900	 0.20588312868677 
1901	 0.203817386286301 
1902	 0.201866709797597 
1903	 0.200032150891165 
1904	 0.198301303420212 
1905	 0.196657235219535 
1906	 0.195179362393984 
1907	 0.19380056420805 
1908	 0.192510766393431 
1909	 0.191313851594086 
1910	 0.190176780534162 
1911	 0.189121031552326 
1912	 0.188156133076059 
1913	 0.187266659773873 
1914	 0.186470317326206 
1915	 0.185724964521574 
1916	 0.185060726639851 
1917	 0.18444091200896 
1918	 0.183859351534338 
1919	 0.183360014871133 
1920	 0.182916807392309 
1921	 0.182530950902426 
1922	 0.182227706744257 
1923	 0.181957041345441 
1924	 0.181721070882364 
1925	 0.181534250982823 
1926	 0.181382455330225 
1927	 0.18125859441819 
1928	 0.181178207055734 
1929	 0.181162608402233 
1930	 0.181147404768175 
1931	 0.18116105918654 
1932	 0.181222895489037 
1933	 0.181310525876556 
1934	 0.181453522950471 
1935	 0.181616952675798 
1936	 0.181830409132896 
1937	 0.182049455500208 
1938	 0.182289122590779 
1939	 0.182542177729738 
1940	 0.182808914692788 
1941	 0.183098887038654 
1942	 0.183417828274475 
1943	 0.183781783570741 
1944	 0.184176778500517 
1945	 0.184593806582584 
1946	 0.185012474089857 
1947	 0.185444223467908 
1948	 0.185882365076559 
1949	 0.186326812654607 
1950	 0.186782782574586 
1951	 0.187248260622795 
1952	 0.18772677474916 
1953	 0.188210488564254 
1954	 0.188731415821174 
1955	 0.189269405660526 
1956	 0.189801927821409 
1957	 0.190341180533294 
1958	 0.190887021491663 
1959	 0.191443173112441 
1960	 0.1920026478427 
1961	 0.192574805540651 
1962	 0.19316611202158 
1963	 0.193753121146373 
1964	 0.194338646678407 
1965	 0.194940122139646 
1966	 0.195549606621795 
1967	 0.196158868809712 
1968	 0.196765603053647 
1969	 0.197369643165402 
1970	 0.197986609883885 
1971	 0.198610654236944 
1972	 0.199232831897867 
1973	 0.199862957476471 
1974	 0.200493532779243 
1975	 0.201117713968468 
1976	 0.201751376596636 
1977	 0.202401330575513 
1978	 0.203042783937167 
1979	 0.203671449898793 
1980	 0.204292206319451 
1981	 0.204903419077285 
1982	 0.205486264217988 
1983	 0.206100081592005 
1984	 0.206718999256507 
1985	 0.207338479196706 
1986	 0.20797258234876 
1987	 0.208603025264979 
1988	 0.209224145129576 
1989	 0.209871533591704 
1990	 0.210508237351467 
1991	 0.211117593036481 
1992	 0.21173542788879 
1993	 0.212344014202621 
1994	 0.212955651287972 
1995	 0.213571834270636 
1996	 0.214180400987773 
1997	 0.214789012415789 
1998	 0.215384807489419 
1999	 0.215957026965111 
2000	 0.216554314613163 
2001	 0.217167336438176 
2002	 0.217762663821459 
2003	 0.218360355336051 
2004	 0.218956753623102 
2005	 0.219539312405119 
2006	 0.220101028643874 
2007	 0.220661388721884 
2008	 0.221221925859365 
2009	 0.221771789260978 
2010	 0.222291985520355 
2011	 0.222837099402477 
2012	 0.223404703323417 
2013	 0.223948216458453 
2014	 0.22448951042969 
2015	 0.225025666562738 
2016	 0.225543572629537 
2017	 0.226057335636987 
2018	 0.226590159620096 
2019	 0.227150429995537 
2020	 0.227673666111457 
2021	 0.22819771977499 
2022	 0.228702824258009 
2023	 0.229180238356272 
2024	 0.229658802800513 
2025	 0.230118807778271 
2026	 0.230590523741282 
2027	 0.231077982843097 
2028	 0.231534202660633 
2029	 0.231984058140557 
2030	 0.232435936083357 
2031	 0.23287684876361 
2032	 0.233281679995325 
2033	 0.233722922643382 
2034	 0.234181127412652 
2035	 0.234637475527969 
2036	 0.235110476135712 
2037	 0.235565715197037 
2038	 0.236029589069188 
2039	 0.236468494597302 
2040	 0.23688694062309 
2041	 0.237301153313257 
2042	 0.237696781071707 
2043	 0.238093853196649 
2044	 0.238491023238725 
2045	 0.238887558494757 
2046	 0.239280752823849 
2047	 0.239676026346158 
2048	 0.240058680899881 
2049	 0.240443696717051 
2050	 0.240806960901299 
2051	 0.241145045404554 
2052	 0.241492826423086 
2053	 0.241826733759838 
2054	 0.242167992576794 
2055	 0.242523503222773 
2056	 0.242866068294208 
2057	 0.243207679075496 
2058	 0.243550083426546 
2059	 0.243875203812534 
2060	 0.244181423140285 
2061	 0.244506617914687 
2062	 0.2448211024353 
2063	 0.245153373505504 
2064	 0.245511085212396 
2065	 0.245858008778547 
2066	 0.24620746188672 
2067	 0.246553722352042 
2068	 0.246920492934034 
2069	 0.247243825413832 
2070	 0.247565632060478 
2071	 0.247878547469805 
2072	 0.248187583964239 
2073	 0.248479427567082 
2074	 0.24877424279971 
2075	 0.249054563999982 
2076	 0.249359682487081 
2077	 0.249683417595872 
2078	 0.249983556956043 
2079	 0.250291047614333 
2080	 0.250594288565028 
2081	 0.250870994987636 
2082	 0.251154933151667 
2083	 0.251459651870261 
2084	 0.251751135495476 
2085	 0.252020742997742 
2086	 0.252270352181355 
2087	 0.252526406406495 
2088	 0.252755412565519 
2089	 0.25302010550504 
2090	 0.253304037166923 
2091	 0.253579970959046 
2092	 0.25387710751191 
2093	 0.25415422951982 
2094	 0.254420225917421 
2095	 0.254682828207029 
2096	 0.254934656233007 
2097	 0.255189901666743 
2098	 0.255444812913106 
2099	 0.255694752598851 
2100	 0.255940796324083 
2101	 0.25618490936041 
2102	 0.25643032950584 
2103	 0.256668832431267 
2104	 0.256913118981904 
2105	 0.257158928481757 
2106	 0.257409691163457 
2107	 0.257655847234999 
2108	 0.257918064364692 
2109	 0.258193343243029 
2110	 0.258471035027791 
2111	 0.258790824052625 
2112	 0.259057983680246 
2113	 0.259285565313208 
2114	 0.259529399558176 
2115	 0.259774175273756 
2116	 0.259985932748889 
2117	 0.260232599197721 
2118	 0.260513664664627 
2119	 0.260776563503125 
2120	 0.26102890792787 
2121	 0.261296502472889 
2122	 0.261585909938687 
2123	 0.261850406494627 
2124	 0.262131337758122 
2125	 0.26236858002811 
2126	 0.262574057544057 
2127	 0.262770785801774 
2128	 0.262927816974928 
2129	 0.263092291214209 
2130	 0.263246467766797 
2131	 0.263409583788035 
2132	 0.26355827519069 
2133	 0.263708744995672 
2134	 0.263835831788048 
2135	 0.263950730334618 
2136	 0.264050820515658 
2137	 0.264139376625224 
2138	 0.264204876372712 
2139	 0.264255458771534 
2140	 0.264285494713153 
2141	 0.264269480570527 
2142	 0.264279482700553 
2143	 0.264289178475226 
2144	 0.264294749413401 
2145	 0.264335874795731 
2146	 0.264329853407093 
2147	 0.264302845441755 
2148	 0.264241996382496 
2149	 0.264173795900619 
2150	 0.264058571008253 
2151	 0.263985670032737 
2152	 0.263922967991516 
2153	 0.26384922060784 
2154	 0.263791430146417 
2155	 0.263712170762269 
2156	 0.263619168372025 
2157	 0.26351838082227 
2158	 0.263418568770563 
2159	 0.263293580558877 
2160	 0.263148354537544 
2161	 0.262992657201048 
2162	 0.262806713417644 
2163	 0.262631012356633 
2164	 0.262445593726607 
2165	 0.26226803530917 
2166	 0.262091948177036 
2167	 0.261915884663998 
2168	 0.261752788319082 
2169	 0.261590030931707 
2170	 0.261446443458537 
2171	 0.261334270811915 
2172	 0.261191863773065 
2173	 0.261044893944 
2174	 0.260901355239289 
2175	 0.260768457424867 
2176	 0.260592714460538 
2177	 0.260387805630759 
2178	 0.260200479575537 
2179	 0.259967914087231 
2180	 0.259771094511343 
2181	 0.259637953265642 
2182	 0.259465056664086 
2183	 0.259271254444583 
2184	 0.259076586280282 
2185	 0.258895155595468 
2186	 0.258691098526524 
2187	 0.258529723431557 
2188	 0.258412633186023 
2189	 0.258260314656013 
2190	 0.25811308664866 
2191	 0.257955372414094 
2192	 0.25776153359753 
2193	 0.257612779889182 
2194	 0.257477168899435 
2195	 0.257352117012188 
2196	 0.257277761443841 
2197	 0.257163855773152 
2198	 0.257024732167809 
2199	 0.256907102240263 
2200	 0.256761212224888 
2201	 0.256650416809204 
2202	 0.256560515302107 
2203	 0.256515284249702 
2204	 0.256442412298145 
2205	 0.256373220081458 
2206	 0.256318981896845 
2207	 0.256249211629715 
2208	 0.256225652102938 
2209	 0.256238149490934 
2210	 0.256256762230294 
2211	 0.256308854468886 
2212	 0.256346034857413 
2213	 0.256397506295865 
2214	 0.256432612943848 
2215	 0.256468393647775 
2216	 0.256484115354691 
2217	 0.256484968685945 
2218	 0.25647952633426 
2219	 0.256439363290254 
2220	 0.25642510656899 
2221	 0.256418262575911 
2222	 0.256420131217735 
2223	 0.256410747771872 
2224	 0.256415494361601 
2225	 0.25640232860778 
2226	 0.256377122440489 
2227	 0.256338241743571 
2228	 0.25628497918797 
2229	 0.256250854426132 
2230	 0.256219024920023 
2231	 0.2561623816357 
2232	 0.256114178015955 
2233	 0.256047170185417 
2234	 0.255929154215633 
2235	 0.255853709066181 
2236	 0.255804856100641 
2237	 0.255739430287703 
2238	 0.255686271572548 
2239	 0.255613259801289 
2240	 0.255518315343422 
2241	 0.255433399857758 
2242	 0.255347475584679 
2243	 0.255255614323384 
2244	 0.255154386517236 
2245	 0.255074541098062 
2246	 0.254974414541966 
2247	 0.254865857470329 
2248	 0.25477651376466 
2249	 0.254702439381382 
2250	 0.254601932282616 
2251	 0.254493948448346 
2252	 0.254399062222502 
2253	 0.254296049341406 
2254	 0.254194293589949 
2255	 0.254116083447145 
2256	 0.254011476861003 
2257	 0.253869733910374 
2258	 0.253764767875219 
2259	 0.253658880778662 
2260	 0.253580355148235 
2261	 0.253530637564806 
2262	 0.253479422063035 
2263	 0.253443755077966 
2264	 0.253410422745018 
2265	 0.253389138172022 
2266	 0.253366055845574 
2267	 0.253349888777026 
2268	 0.253332512796833 
2269	 0.253330350929887 
2270	 0.253294685991549 
2271	 0.253253525098833 
2272	 0.253202278159964 
2273	 0.253132012005139 
2274	 0.253101310723641 
2275	 0.253049773957272 
2276	 0.253007973691062 
2277	 0.252943699164049 
2278	 0.252847434408853 
2279	 0.252780931630822 
2280	 0.25272688630529 
2281	 0.252669687170375 
2282	 0.25263840891307 
2283	 0.252579379093294 
2284	 0.25248184569056 
2285	 0.252423733367641 
2286	 0.252373512183498 
2287	 0.252320637260002 
2288	 0.252305329927417 
2289	 0.252256113494928 
2290	 0.252181648016381 
2291	 0.252113386365215 
2292	 0.252018641650693 
2293	 0.2519568409334 
2294	 0.251927578156409 
2295	 0.251873162737776 
2296	 0.25181938206577 
2297	 0.251762347620423 
2298	 0.251723491854658 
2299	 0.251698019820793 
2300	 0.251645389474197 
2301	 0.251592595201155 
2302	 0.251488260625331 
2303	 0.251345095920663 
2304	 0.251286318361218 
2305	 0.25122428178991 
2306	 0.251152540470394 
2307	 0.251101704805255 
2308	 0.251025383876943 
2309	 0.250923644255678 
2310	 0.250838703351773 
2311	 0.250767683350161 
2312	 0.250653892612222 
2313	 0.250516546548465 
2314	 0.250381367766025 
2315	 0.250200589556474 
2316	 0.250088568770265 
2317	 0.25003338174195 
2318	 0.249927188156412 
2319	 0.249810909287753 
2320	 0.249710415833574 
2321	 0.249588189585424 
2322	 0.24948001285927 
2323	 0.24941029328672 
2324	 0.249327715547255 
2325	 0.24922691194238 
2326	 0.249137720563575 
2327	 0.24907003228407 
2328	 0.248983919624025 
2329	 0.248884446392597 
2330	 0.24876185151608 
2331	 0.248657308885505 
2332	 0.248558647983973 
2333	 0.248445050972917 
2334	 0.248308918528395 
2335	 0.248149833204761 
2336	 0.247984093250853 
2337	 0.247795700627636 
2338	 0.247660367570898 
2339	 0.247492770816408 
2340	 0.247289136396655 
2341	 0.24717990867755 
2342	 0.247009271930447 
2343	 0.246846221924759 
2344	 0.24676668750539 
2345	 0.246610731134031 
2346	 0.246417748664466 
2347	 0.246211426726792 
2348	 0.245979431469137 
2349	 0.245726157897187 
2350	 0.245441779093787 
2351	 0.24517934082605 
2352	 0.244907107463872 
2353	 0.244618694279562 
2354	 0.244295858160016 
2355	 0.244042438729698 
2356	 0.243812962230441 
2357	 0.243581606445732 
2358	 0.243406915798286 
2359	 0.243223689443642 
2360	 0.243065737660547 
2361	 0.242827274735229 
2362	 0.24254607206776 
2363	 0.242288566892886 
2364	 0.24195795357706 
2365	 0.241654694428457 
2366	 0.241424030966421 
2367	 0.241150941675377 
2368	 0.240838026540264 
2369	 0.240541937349661 
2370	 0.240268055147413 
2371	 0.239933406817521 
2372	 0.239660936492244 
2373	 0.239341056649042 
2374	 0.239019905312558 
2375	 0.238767961746601 
2376	 0.238486227313036 
2377	 0.238200653248142 
2378	 0.237898400155543 
2379	 0.237564317805891 
2380	 0.237154923630725 
2381	 0.236732723516035 
2382	 0.236396547841363 
2383	 0.236060478896191 
2384	 0.235750047542849 
2385	 0.235461818661113 
2386	 0.23511777755635 
2387	 0.234789488608155 
2388	 0.234478922236504 
2389	 0.234139579041999 
2390	 0.23385075549563 
2391	 0.233546339317416 
2392	 0.233181416656199 
2393	 0.232854851238651 
2394	 0.232464868666958 
2395	 0.232058271237046 
2396	 0.231674557794073 
2397	 0.231241676222992 
2398	 0.23084724554564 
2399	 0.230460317277212 
2400	 0.23017703632235 
2401	 0.2298813147557 
2402	 0.229494763039136 
2403	 0.229220459932498 
2404	 0.228877412018603 
2405	 0.228568109154494 
2406	 0.228263744419787 
2407	 0.227785091439074 
2408	 0.227336474396973 
2409	 0.226891510920122 
2410	 0.226465933237013 
2411	 0.226101932341848 
2412	 0.225725646254694 
2413	 0.225354105337209 
2414	 0.224951128443621 
2415	 0.224466631457331 
2416	 0.224038644109161 
2417	 0.223586628293396 
2418	 0.223159599542572 
2419	 0.222789864629056 
2420	 0.222424054499234 
2421	 0.222070690774059 
2422	 0.22168099511186 
2423	 0.221295355547971 
2424	 0.220908865582626 
2425	 0.220477026272272 
2426	 0.220070924532987 
2427	 0.21972326995249 
2428	 0.219258540603207 
2429	 0.218668531566851 
2430	 0.218233286882792 
2431	 0.217832078260175 
2432	 0.217467826814722 
2433	 0.217275908941814 
2434	 0.216953466239055 
2435	 0.216491452369793 
2436	 0.216101448840224 
2437	 0.215731409152625 
2438	 0.215328392881864 
2439	 0.214946805996196 
2440	 0.21451946250712 
2441	 0.214094818606633 
2442	 0.213704603000112 
2443	 0.213291275869034 
2444	 0.21291201574471 
2445	 0.2124914113585 
2446	 0.212072155288837 
2447	 0.211728878894123 
2448	 0.211301329445544 
2449	 0.210838151755752 
2450	 0.210382067831262 
2451	 0.209861932056814 
2452	 0.209432955175636 
2453	 0.209105010153181 
2454	 0.208671985055621 
2455	 0.208184060120698 
2456	 0.207721253271932 
2457	 0.207209800280126 
2458	 0.20673480865622 
2459	 0.206330741522101 
2460	 0.205858894616575 
2461	 0.205304429406623 
2462	 0.204862378291137 
2463	 0.204488271706216 
2464	 0.204039819470576 
2465	 0.203592366549509 
2466	 0.203168585530774 
2467	 0.202734209853567 
2468	 0.202361772151005 
2469	 0.202083025711553 
2470	 0.201738668863457 
2471	 0.201168378545829 
2472	 0.200533661317066 
2473	 0.200119232316668 
2474	 0.1997356343797 
2475	 0.199390400588369 
2476	 0.199199210001895 
2477	 0.198943704459302 
2478	 0.198571854544467 
2479	 0.198285169882014 
2480	 0.19801330382523 
2481	 0.197489671068446 
2482	 0.196973089723122 
2483	 0.196626293738677 
2484	 0.196141015815129 
2485	 0.195645705150028 
2486	 0.195188511678083 
2487	 0.194703114320432 
2488	 0.194352639637415 
2489	 0.194183844762499 
2490	 0.194095281171248 
2491	 0.193859637917386 
2492	 0.193628464516872 
2493	 0.193250359096662 
2494	 0.192644404284082 
2495	 0.192290440776359 
2496	 0.191918691203101 
2497	 0.191474327811592 
2498	 0.191277364543095 
2499	 0.191002863491605 
2500	 0.190488329004173 
