Wavelength	MM100006.asd
350	 0.031589991937735 
351	 3.25018213383254E-02 
352	 3.06799031099376E-02 
353	 2.55818761362903E-02 
354	 2.17471910494626E-02 
355	 2.55330788642898E-02 
356	 3.18507505320856E-02 
357	 3.37287359152288E-02 
358	 3.00640344413365E-02 
359	 2.96426761726121E-02 
360	 0.03259469784496 
361	 3.34574385912231E-02 
362	 3.23908605273969E-02 
363	 3.09063298678905E-02 
364	 2.98539516757701E-02 
365	 2.88803833528199E-02 
366	 2.62007324738824E-02 
367	 2.60984736919294E-02 
368	 3.14460231466072E-02 
369	 3.38090592825426E-02 
370	 0.032537274833235 
371	 3.07784549897174E-02 
372	 3.32631806872741E-02 
373	 3.32670228804375E-02 
374	 3.24691213508263E-02 
375	 3.28835511467775E-02 
376	 3.53470486868684E-02 
377	 3.55398642067693E-02 
378	 3.45102279132074E-02 
379	 3.45352006130851E-02 
380	 0.035430395867458 
381	 3.48848811598528E-02 
382	 3.45503455773304E-02 
383	 0.038319910046376 
384	 3.84320227384026E-02 
385	 3.69319617047556E-02 
386	 3.64177855919726E-02 
387	 0.037703884427314 
388	 3.99273358452958E-02 
389	 4.04701185101777E-02 
390	 3.79237216170701E-02 
391	 0.038499097658818 
392	 4.07020053936568E-02 
393	 4.24721518128812E-02 
394	 4.19368955744294E-02 
395	 4.25035468897943E-02 
396	 4.33868808615466E-02 
397	 4.38857670159706E-02 
398	 4.52196750074363E-02 
399	 4.53153564378442E-02 
400	 4.53638095093621E-02 
401	 4.68558822550538E-02 
402	 4.56848030853556E-02 
403	 4.51287349587094E-02 
404	 4.59399889572743E-02 
405	 4.59672375194038E-02 
406	 4.73949373935966E-02 
407	 0.048817526182434 
408	 4.89727654817037E-02 
409	 4.85515874489587E-02 
410	 4.88842442098575E-02 
411	 4.94875840444269E-02 
412	 4.92766829894574E-02 
413	 4.97478560277229E-02 
414	 5.00129776005523E-02 
415	 4.99078717401088E-02 
416	 0.050446317587091 
417	 5.07190844962748E-02 
418	 5.09498486877348E-02 
419	 5.13958630560065E-02 
420	 5.15628376485229E-02 
421	 5.09205579382083E-02 
422	 5.03779944667658E-02 
423	 0.051411832634323 
424	 0.051023768329915 
425	 5.06034039519457E-02 
426	 5.09639821719792E-02 
427	 5.08593811356065E-02 
428	 5.06936247928885E-02 
429	 5.06792405935237E-02 
430	 5.08620154886487E-02 
431	 5.07147246623274E-02 
432	 5.04097237577262E-02 
433	 5.01412921837152E-02 
434	 5.00732010970175E-02 
435	 5.01047184351836E-02 
436	 5.00606708382526E-02 
437	 4.98768356251834E-02 
438	 4.97697162912539E-02 
439	 4.99294662177961E-02 
440	 5.01993798091349E-02 
441	 5.02792463108192E-02 
442	 5.02975116215381E-02 
443	 5.03594207398426E-02 
444	 5.05021018081286E-02 
445	 5.06731105459136E-02 
446	 5.07218585150618E-02 
447	 5.08321843514959E-02 
448	 5.11605981564771E-02 
449	 0.051304722399946 
450	 5.15394088531243E-02 
451	 5.18463105881211E-02 
452	 5.19625624994568E-02 
453	 5.21799110595776E-02 
454	 5.22357796709663E-02 
455	 5.21032830601299E-02 
456	 5.26131139397533E-02 
457	 5.28208240811406E-02 
458	 5.27690732887144E-02 
459	 5.28949763025865E-02 
460	 5.29056659453848E-02 
461	 5.29701339322407E-02 
462	 5.30631747814295E-02 
463	 0.05282684822543 
464	 5.29694448861317E-02 
465	 5.32526369511189E-02 
466	 5.32956126490776E-02 
467	 5.33068699512096E-02 
468	 5.32126656472098E-02 
469	 5.31276862706043E-02 
470	 5.32924899889216E-02 
471	 5.34295312472941E-02 
472	 5.33897766045609E-02 
473	 5.32233940279641E-02 
474	 5.34042888587627E-02 
475	 5.34445205489864E-02 
476	 5.33627632751675E-02 
477	 5.33846045177929E-02 
478	 5.34869117874267E-02 
479	 5.35818385369352E-02 
480	 0.053606714810992 
481	 0.053536709351685 
482	 0.053646222379183 
483	 5.38165881246509E-02 
484	 5.38650990047132E-02 
485	 5.38564694574325E-02 
486	 5.37443703011986E-02 
487	 0.053593253338823 
488	 5.35547639964976E-02 
489	 5.36508494328577E-02 
490	 5.37031095104863E-02 
491	 5.36486782134814E-02 
492	 5.38116818953524E-02 
493	 5.38579369826325E-02 
494	 5.38083477154296E-02 
495	 5.38363397993406E-02 
496	 0.053886729514874 
497	 5.39715470962646E-02 
498	 5.40755374411337E-02 
499	 0.05413946011028 
500	 5.41457090556321E-02 
501	 5.41003945083216E-02 
502	 5.40427317635098E-02 
503	 5.41009364360697E-02 
504	 5.41864149600917E-02 
505	 0.054248028113783 
506	 5.42784000328069E-02 
507	 0.054282458066248 
508	 0.054306727078908 
509	 5.43435134045454E-02 
510	 5.41923090179606E-02 
511	 5.42264132546974E-02 
512	 5.43481454027455E-02 
513	 5.42575418976105E-02 
514	 0.05431061620188 
515	 5.44230335538371E-02 
516	 5.45018879310231E-02 
517	 5.45252792122699E-02 
518	 5.45335140020617E-02 
519	 5.44978686135121E-02 
520	 5.44136651861532E-02 
521	 5.45243850262616E-02 
522	 5.45560799004182E-02 
523	 5.44866267432853E-02 
524	 5.45798470795819E-02 
525	 5.46760025787429E-02 
526	 5.47056290923189E-02 
527	 5.46677521879902E-02 
528	 5.47064148936361E-02 
529	 5.47544365216611E-02 
530	 5.48211981306584E-02 
531	 0.054950059168781 
532	 5.49413004643085E-02 
533	 5.49862114469032E-02 
534	 5.51746718025581E-02 
535	 5.52787239959064E-02 
536	 0.055339688467326 
537	 5.53964549608183E-02 
538	 5.54831137398747E-02 
539	 5.55499968574927E-02 
540	 5.56344324491205E-02 
541	 5.57593020977475E-02 
542	 5.59226833363466E-02 
543	 5.60044097254399E-02 
544	 5.60680385272298E-02 
545	 5.62011905397097E-02 
546	 5.63650701577462E-02 
547	 5.65251523488644E-02 
548	 5.66757502730726E-02 
549	 5.68347071229862E-02 
550	 0.056960302109468 
551	 5.71251739621477E-02 
552	 5.73783047796268E-02 
553	 5.76699889424058E-02 
554	 5.78968728515561E-02 
555	 0.058099421026761 
556	 5.83861746843972E-02 
557	 5.86974391464068E-02 
558	 5.90205823977734E-02 
559	 5.93765462557875E-02 
560	 5.98501903259969E-02 
561	 6.02016333387966E-02 
562	 6.05280610739899E-02 
563	 6.10004930808179E-02 
564	 6.14847796987548E-02 
565	 6.19573606923944E-02 
566	 6.24485618183633E-02 
567	 6.30406266667763E-02 
568	 6.36732227994775E-02 
569	 6.43068135539267E-02 
570	 6.49283366202895E-02 
571	 6.55850596704914E-02 
572	 6.63520980230074E-02 
573	 6.71728796854055E-02 
574	 6.79062401679546E-02 
575	 6.86397306669582E-02 
576	 6.94589860852417E-02 
577	 7.03683377295685E-02 
578	 7.11882457646427E-02 
579	 7.20874711923196E-02 
580	 7.30621325624441E-02 
581	 7.40509862403967E-02 
582	 7.51342296214212E-02 
583	 7.62786328700863E-02 
584	 7.74241210766914E-02 
585	 7.84889923121455E-02 
586	 7.96192789140634E-02 
587	 8.07509249441705E-02 
588	 8.18118950696334E-02 
589	 8.29828134599323E-02 
590	 8.41957918410502E-02 
591	 0.085391767651214 
592	 8.65357328917777E-02 
593	 0.087701649384985 
594	 0.088882536114438 
595	 9.00563346857651E-02 
596	 9.12090560556002E-02 
597	 9.23994362642772E-02 
598	 9.35961275888185E-02 
599	 0.09473015686549 
600	 9.58413429170008E-02 
601	 9.69227872511918E-02 
602	 9.79607143228655E-02 
603	 9.89398554316416E-02 
604	 9.98959610064266E-02 
605	 0.100841727623456 
606	 0.101779985223117 
607	 0.10271592853128 
608	 0.103587822253021 
609	 0.104417861047071 
610	 0.105325513285998 
611	 0.106154867758467 
612	 0.106918007114427 
613	 0.107648435267786 
614	 0.108314706179849 
615	 0.108931354129532 
616	 0.109523919283126 
617	 0.110116589454084 
618	 0.110651561344344 
619	 0.111137618381894 
620	 0.111593178571414 
621	 0.11202224656873 
622	 0.112511185611963 
623	 0.112991530148531 
624	 0.113362251243928 
625	 0.113784728108034 
626	 0.114166609058513 
627	 0.114489739585711 
628	 0.114858956104966 
629	 0.1152386323824 
630	 0.115598688536195 
631	 0.115924615321718 
632	 0.116264575522439 
633	 0.116567232709616 
634	 0.1168585986146 
635	 0.117221384395326 
636	 0.117554900313059 
637	 0.117867753407155 
638	 0.118182154705146 
639	 0.118505802883719 
640	 0.11881111991177 
641	 0.119129946429427 
642	 0.119506591557107 
643	 0.119858644248645 
644	 0.120192599075777 
645	 0.120521137876487 
646	 0.120851570937762 
647	 0.121194599567703 
648	 0.121544030242525 
649	 0.121896790827798 
650	 0.122291888592355 
651	 0.122662034034881 
652	 0.122997172518506 
653	 0.123343461474826 
654	 0.12378447679227 
655	 0.124197903190636 
656	 0.124523535453454 
657	 0.124946935349956 
658	 0.125424514597716 
659	 0.125892557278494 
660	 0.126293594216718 
661	 0.126742991956233 
662	 0.127230340519892 
663	 0.127721394104845 
664	 0.128164745776034 
665	 0.128644334249738 
666	 0.129151555996186 
667	 0.1296586758995 
668	 0.130172866961087 
669	 0.130716374744626 
670	 0.131276750912869 
671	 0.131813233821153 
672	 0.132360372081291 
673	 0.132944927805104 
674	 0.133567798996229 
675	 0.134179616700115 
676	 0.134757670830237 
677	 0.135332752171642 
678	 0.13595696624086 
679	 0.136631067156855 
680	 0.137302432008649 
681	 0.137957832522304 
682	 0.138643228646839 
683	 0.139317555734421 
684	 0.139984988902517 
685	 0.140668272877225 
686	 0.141413070179446 
687	 0.142164283375735 
688	 0.142910033556692 
689	 0.143666788224479 
690	 0.144378156118833 
691	 0.145083928229887 
692	 0.145833687747403 
693	 0.146680509173621 
694	 0.147466186617448 
695	 0.148234171028141 
696	 0.149068445695687 
697	 0.149810376016328 
698	 0.150608575439524 
699	 0.151487897562517 
700	 0.152325959010125 
701	 0.153122076951531 
702	 0.153931892297194 
703	 0.154788888875735 
704	 0.155630621152292 
705	 0.15643207922754 
706	 0.157221952186276 
707	 0.158049135455346 
708	 0.158858523138793 
709	 0.159702942921718 
710	 0.160573517040073 
711	 0.161358413893222 
712	 0.162155670392398 
713	 0.162971153275523 
714	 0.163784473543837 
715	 0.164576535654949 
716	 0.165356701761349 
717	 0.166129417768582 
718	 0.166891119497527 
719	 0.16760481571285 
720	 0.168298669939842 
721	 0.168986796935184 
722	 0.16963396622508 
723	 0.170295430253789 
724	 0.170985556117692 
725	 0.171677790043204 
726	 0.172226293122316 
727	 0.172768582150788 
728	 0.17334392317583 
729	 0.173886199931951 
730	 0.174404380652987 
731	 0.174860635666861 
732	 0.175254136365631 
733	 0.175690837577921 
734	 0.176091572701107 
735	 0.176439839407748 
736	 0.176751667798192 
737	 0.177078525606699 
738	 0.177342274679667 
739	 0.177541698984197 
740	 0.177765723571599 
741	 0.177920155692722 
742	 0.178062752056635 
743	 0.178224457035068 
744	 0.178273228133027 
745	 0.178302431929794 
746	 0.178335189467442 
747	 0.178351991949934 
748	 0.1782908976688 
749	 0.178206288458099 
750	 0.1781280684393 
751	 0.178042615583696 
752	 0.177895987337273 
753	 0.177703610956078 
754	 0.177491438887454 
755	 0.177259188965697 
756	 0.177019570009962 
757	 0.176762129377175 
758	 0.176467504026807 
759	 0.176145823225369 
760	 0.175803011717715 
761	 0.175451117738848 
762	 0.175108438414853 
763	 0.174729870635842 
764	 0.1743348532313 
765	 0.17394004305343 
766	 0.173503332339837 
767	 0.173055277409646 
768	 0.17260358199228 
769	 0.172145378394197 
770	 0.171702158223879 
771	 0.171209501503574 
772	 0.170674666190008 
773	 0.170195332238601 
774	 0.169709124146071 
775	 0.169200820808251 
776	 0.168677749266369 
777	 0.168183380704828 
778	 0.167668323249732 
779	 0.167112223836704 
780	 0.166526403162882 
781	 0.166015791272265 
782	 0.165530745561057 
783	 0.165011847171357 
784	 0.164413774166211 
785	 0.163890804763957 
786	 0.163379960364689 
787	 0.16282524529358 
788	 0.162289912763727 
789	 0.161776268939617 
790	 0.161255649687794 
791	 0.160698821505314 
792	 0.160144333558526 
793	 0.159640693691005 
794	 0.159165559660893 
795	 0.158644737266721 
796	 0.158159169425496 
797	 0.157679327378936 
798	 0.157169373471272 
799	 0.156608972109308 
800	 0.156116985659034 
801	 0.155688645123882 
802	 0.155256180754413 
803	 0.154672240007816 
804	 0.154199223616594 
805	 0.153830416367786 
806	 0.153394211253423 
807	 0.152945354301754 
808	 0.152480357533852 
809	 0.152018992171444 
810	 0.151611566710707 
811	 0.151236762236461 
812	 0.150842851533554 
813	 0.150417222851294 
814	 0.15007862305694 
815	 0.14967697696079 
816	 0.149251803535572 
817	 0.148902374679524 
818	 0.148585095610609 
819	 0.148253614651313 
820	 0.147891289443158 
821	 0.147515131416793 
822	 0.147200821210683 
823	 0.146902267500421 
824	 0.146584418338048 
825	 0.146264173418445 
826	 0.145934387174199 
827	 0.145651180668505 
828	 0.145437849024055 
829	 0.145167758417619 
830	 0.14486080994613 
831	 0.144553941058693 
832	 0.144292256075579 
833	 0.144102373101804 
834	 0.14392310636073 
835	 0.14371810872744 
836	 0.143487849131761 
837	 0.143291887154698 
838	 0.143094484293515 
839	 0.142883289403865 
840	 0.14271329006713 
841	 0.142548437304552 
842	 0.142373367428872 
843	 0.142189813278128 
844	 0.14202874936183 
845	 0.141920859108281 
846	 0.141831411869543 
847	 0.141707090115196 
848	 0.141585714929376 
849	 0.141471359889172 
850	 0.141371167905001 
851	 0.141292484891519 
852	 0.14120612651761 
853	 0.141137255536627 
854	 0.141090678326377 
855	 0.141031831192532 
856	 0.141010647516531 
857	 0.140990971178076 
858	 0.140944361623695 
859	 0.140911996518703 
860	 0.140901281357011 
861	 0.140903376985946 
862	 0.140906338755014 
863	 0.140920884271886 
864	 0.140933766939393 
865	 0.140966947155924 
866	 0.141046697822786 
867	 0.141068566009946 
868	 0.141112711547803 
869	 0.14119314718995 
870	 0.141244492257801 
871	 0.141310918022119 
872	 0.141389164659263 
873	 0.141485578138241 
874	 0.141632156768441 
875	 0.141783010989805 
876	 0.141895964893116 
877	 0.14197170571682 
878	 0.142111656671436 
879	 0.14227740966551 
880	 0.14243196640203 
881	 0.142570356333551 
882	 0.14282881609924 
883	 0.143010800077597 
884	 0.143118139762538 
885	 0.143271254511066 
886	 0.143529315710943 
887	 0.143747416977774 
888	 0.143924913976485 
889	 0.144180937854774 
890	 0.144396161600871 
891	 0.144623383825172 
892	 0.144898536382173 
893	 0.145205494714034 
894	 0.145485921885276 
895	 0.145773268088984 
896	 0.146086171507673 
897	 0.146382352229031 
898	 0.146665313195654 
899	 0.146966002008872 
900	 0.147303398343316 
901	 0.147642073554232 
902	 0.148016214413224 
903	 0.14838915816587 
904	 0.148729135218341 
905	 0.149113183735823 
906	 0.149524321986909 
907	 0.14994806133772 
908	 0.150365731751025 
909	 0.150733934827953 
910	 0.151107990331559 
911	 0.151531756422687 
912	 0.152015324289907 
913	 0.152450511536009 
914	 0.152881290477623 
915	 0.153353277353166 
916	 0.153882710832368 
917	 0.154311133133498 
918	 0.154794822330568 
919	 0.155387856488279 
920	 0.155973485579849 
921	 0.156466715879408 
922	 0.156982858997491 
923	 0.157558781171188 
924	 0.158070358542266 
925	 0.158635523779953 
926	 0.159232682605394 
927	 0.159832025607024 
928	 0.160442635327377 
929	 0.161120765921082 
930	 0.16173846117932 
931	 0.162254969321793 
932	 0.162936242743819 
933	 0.1636011892863 
934	 0.164262816076252 
935	 0.164957933633943 
936	 0.165622879994687 
937	 0.166309924402486 
938	 0.167010032057598 
939	 0.167708052966242 
940	 0.16844682699833 
941	 0.16916430915989 
942	 0.169899475912823 
943	 0.170708796240175 
944	 0.171553221055849 
945	 0.172329300185965 
946	 0.173070174363393 
947	 0.173845740986137 
948	 0.174576261314915 
949	 0.175314127683127 
950	 0.176101203663142 
951	 0.176965930148205 
952	 0.177928738166425 
953	 0.178834454668115 
954	 0.179627337177862 
955	 0.180368914959531 
956	 0.181338993132303 
957	 0.182264950054669 
958	 0.183076767610779 
959	 0.183874574210565 
960	 0.184787289983508 
961	 0.185710382420179 
962	 0.186601461181126 
963	 0.187483193883559 
964	 0.18843874411259 
965	 0.189326616509461 
966	 0.190208910083257 
967	 0.191244821489901 
968	 0.192236396440705 
969	 0.193202554282069 
970	 0.194135633130278 
971	 0.19503342244375 
972	 0.196098413978818 
973	 0.197143084881534 
974	 0.198073522528452 
975	 0.198938232321481 
976	 0.200049616355766 
977	 0.201056245230214 
978	 0.201951856410576 
979	 0.202952935430793 
980	 0.203967090849803 
981	 0.204953667404224 
982	 0.205910635344712 
983	 0.20687094916672 
984	 0.207907913277578 
985	 0.208857376629558 
986	 0.209792615914609 
987	 0.210855833837629 
988	 0.211788478993867 
989	 0.212752243854484 
990	 0.213718323200256 
991	 0.214614222391005 
992	 0.215704577625381 
993	 0.216556077047913 
994	 0.217434638084591 
995	 0.21867557399495 
996	 0.219506742154576 
997	 0.220417599665282 
998	 0.221372296113845 
999	 0.222220852432923 
1000	 0.223226562918303 
1001	 0.227070855410448 
1002	 0.227936207697742 
1003	 0.228850415938669 
1004	 0.229710885987002 
1005	 0.230541625561278 
1006	 0.231407155255872 
1007	 0.232273885903244 
1008	 0.23310852299887 
1009	 0.23393934958628 
1010	 0.234788876575842 
1011	 0.235587229092533 
1012	 0.236331129987665 
1013	 0.237086359320937 
1014	 0.237845402846731 
1015	 0.238577214908249 
1016	 0.239278545681899 
1017	 0.239995746690475 
1018	 0.240705358683342 
1019	 0.241448881917847 
1020	 0.24222436681147 
1021	 0.24297588592284 
1022	 0.243709658245975 
1023	 0.244400018789911 
1024	 0.244984011976429 
1025	 0.245556592762325 
1026	 0.246152333562024 
1027	 0.246735210417456 
1028	 0.247326192648388 
1029	 0.247891935952599 
1030	 0.24845908388278 
1031	 0.249049715931092 
1032	 0.249657353988656 
1033	 0.250221912962874 
1034	 0.250783733524141 
1035	 0.251364946484793 
1036	 0.251881751192639 
1037	 0.252418560721425 
1038	 0.253005002069515 
1039	 0.253557795139777 
1040	 0.254060862239547 
1041	 0.254550509870539 
1042	 0.255088857869103 
1043	 0.255650540264413 
1044	 0.256201244244235 
1045	 0.256782788402046 
1046	 0.257362277229578 
1047	 0.257898326266452 
1048	 0.258390149017218 
1049	 0.258886986863085 
1050	 0.259447435830428 
1051	 0.259953238086738 
1052	 0.260409379148869 
1053	 0.260949649029233 
1054	 0.261481913474363 
1055	 0.26196928371492 
1056	 0.262510221206331 
1057	 0.263013145289852 
1058	 0.263455870364893 
1059	 0.26390714486066 
1060	 0.264364950371645 
1061	 0.26480208557674 
1062	 0.265233789772112 
1063	 0.265665032640997 
1064	 0.266132999557958 
1065	 0.266600064015298 
1066	 0.266991255803067 
1067	 0.267409961708756 
1068	 0.267811412178052 
1069	 0.268165691809107 
1070	 0.268540899361008 
1071	 0.268932612518083 
1072	 0.269314833742056 
1073	 0.269675861250892 
1074	 0.270065867162917 
1075	 0.270495526603179 
1076	 0.270885463072941 
1077	 0.271243516640725 
1078	 0.271571051236638 
1079	 0.271827321716983 
1080	 0.272130247919988 
1081	 0.272476773782255 
1082	 0.272788609925041 
1083	 0.27308845387652 
1084	 0.27339209596205 
1085	 0.273691297721047 
1086	 0.273942217504866 
1087	 0.27424196956382 
1088	 0.274589606386821 
1089	 0.274905179774969 
1090	 0.275181301781824 
1091	 0.275483007664517 
1092	 0.275763410691928 
1093	 0.276038491772093 
1094	 0.276325417661547 
1095	 0.276610856515108 
1096	 0.276889537390509 
1097	 0.277134158066431 
1098	 0.27740537987893 
1099	 0.277678117172823 
1100	 0.277969099143243 
1101	 0.2782898523214 
1102	 0.278596364378705 
1103	 0.278916049209523 
1104	 0.279205628820094 
1105	 0.279498160783183 
1106	 0.279773984453122 
1107	 0.280082521269785 
1108	 0.280405467557639 
1109	 0.280694869334743 
1110	 0.28097805557345 
1111	 0.281264076330667 
1112	 0.281504903044417 
1113	 0.281819863178527 
1114	 0.282207341364106 
1115	 0.282522496739086 
1116	 0.282827591235817 
1117	 0.283139476429715 
1118	 0.283409188387206 
1119	 0.283703015982831 
1120	 0.28404181697211 
1121	 0.284392630239041 
1122	 0.284708005435766 
1123	 0.284982582249581 
1124	 0.285282235694166 
1125	 0.285568020242649 
1126	 0.285873134421341 
1127	 0.28620017716727 
1128	 0.286518061216566 
1129	 0.286846481329713 
1130	 0.28714816391714 
1131	 0.287439594156384 
1132	 0.28772221763919 
1133	 0.287980283622991 
1134	 0.288250521832332 
1135	 0.288525539302555 
1136	 0.288799092064375 
1137	 0.289056670849233 
1138	 0.289275024373801 
1139	 0.289533596201184 
1140	 0.289799636173332 
1141	 0.290046539175831 
1142	 0.290320009906932 
1143	 0.290559649997918 
1144	 0.290753311498887 
1145	 0.290968943552861 
1146	 0.291188177184823 
1147	 0.291405123517829 
1148	 0.291625371076489 
1149	 0.291838133526548 
1150	 0.292052853202721 
1151	 0.292260423768418 
1152	 0.292441728207301 
1153	 0.292625681393238 
1154	 0.292812343445808 
1155	 0.292987742215669 
1156	 0.293170602867315 
1157	 0.293373358845455 
1158	 0.293548990435638 
1159	 0.293711547004591 
1160	 0.293874918642913 
1161	 0.2940205337839 
1162	 0.294179125884983 
1163	 0.294328583537543 
1164	 0.294499209649856 
1165	 0.294697512194675 
1166	 0.294887572563555 
1167	 0.295042566124816 
1168	 0.295207031336852 
1169	 0.295356280295006 
1170	 0.295476032970132 
1171	 0.29560362577894 
1172	 0.295737709102651 
1173	 0.295864696430684 
1174	 0.295968308901431 
1175	 0.29609277386636 
1176	 0.296236261448964 
1177	 0.296368125674729 
1178	 0.296510939746971 
1179	 0.296633504853603 
1180	 0.296730602291845 
1181	 0.296842074275417 
1182	 0.296953368357418 
1183	 0.29706507556797 
1184	 0.297164558269398 
1185	 0.297271481651481 
1186	 0.297364484300184 
1187	 0.297420477512319 
1188	 0.297524833563813 
1189	 0.297656423350921 
1190	 0.297772156444782 
1191	 0.297905243683322 
1192	 0.298025772246342 
1193	 0.298143843303081 
1194	 0.298242956994886 
1195	 0.298329271114799 
1196	 0.298420276972351 
1197	 0.298491583991066 
1198	 0.298569999639199 
1199	 0.298652562293594 
1200	 0.298748367659325 
1201	 0.298832351428357 
1202	 0.298909916624439 
1203	 0.298991698073185 
1204	 0.299071951709643 
1205	 0.299157329743072 
1206	 0.299243135871077 
1207	 0.29933373156756 
1208	 0.299432434183781 
1209	 0.299526489610859 
1210	 0.299622526518635 
1211	 0.29971602523954 
1212	 0.299831040175834 
1213	 0.2999056587281 
1214	 0.299943635371241 
1215	 0.299998483306241 
1216	 0.300047871979945 
1217	 0.300062867923781 
1218	 0.300123949129196 
1219	 0.300220615780039 
1220	 0.300292581283404 
1221	 0.300369915353284 
1222	 0.30043794395843 
1223	 0.300496587544636 
1224	 0.300556955489685 
1225	 0.300616467510995 
1226	 0.30067268532164 
1227	 0.300720700855424 
1228	 0.300776514064761 
1229	 0.300839319104623 
1230	 0.300894514013538 
1231	 0.300948264414513 
1232	 0.301003685387681 
1233	 0.301057409972555 
1234	 0.301103277950602 
1235	 0.301156219698183 
1236	 0.301213715130607 
1237	 0.30127189331973 
1238	 0.301336435779549 
1239	 0.301386865942049 
1240	 0.30143019454487 
1241	 0.301479933461833 
1242	 0.301523652224841 
1243	 0.301570056483986 
1244	 0.301624949719342 
1245	 0.301675496999798 
1246	 0.301727277923349 
1247	 0.301766877030749 
1248	 0.301794977102056 
1249	 0.301831513528173 
1250	 0.301869837372439 
1251	 0.301899354547951 
1252	 0.301933092696571 
1253	 0.301983501536271 
1254	 0.302010709116814 
1255	 0.302019113288325 
1256	 0.30203790404545 
1257	 0.302046574589806 
1258	 0.302070193685008 
1259	 0.302113573895936 
1260	 0.302137105740386 
1261	 0.302168103229925 
1262	 0.302177240678404 
1263	 0.30214145877899 
1264	 0.302142479458026 
1265	 0.302155991911272 
1266	 0.302167132028948 
1267	 0.302197329836347 
1268	 0.302231138235266 
1269	 0.302247148943916 
1270	 0.302236711008961 
1271	 0.302267174075518 
1272	 0.302309045508636 
1273	 0.302351816991271 
1274	 0.302413900699616 
1275	 0.30247558401397 
1276	 0.302532272490839 
1277	 0.3026025201998 
1278	 0.302683352087476 
1279	 0.302771425160795 
1280	 0.30287567018844 
1281	 0.302969435855515 
1282	 0.303074883849216 
1283	 0.303168860560141 
1284	 0.30325829682635 
1285	 0.303331589331506 
1286	 0.303391686298788 
1287	 0.303461590619811 
1288	 0.303501535356933 
1289	 0.303512223239076 
1290	 0.303541201115575 
1291	 0.303568712208615 
1292	 0.303582542437701 
1293	 0.303602346289034 
1294	 0.303601543630653 
1295	 0.303576744951919 
1296	 0.303550533507871 
1297	 0.303517070417281 
1298	 0.303480982423809 
1299	 0.303446642060751 
1300	 0.303391300085335 
1301	 0.303329336766095 
1302	 0.303250428999902 
1303	 0.303152664790024 
1304	 0.303033644347607 
1305	 0.302924890860943 
1306	 0.302809036793943 
1307	 0.30267380348894 
1308	 0.3025387902106 
1309	 0.302406016175791 
1310	 0.302264057014476 
1311	 0.302127660436045 
1312	 0.302000008988689 
1313	 0.301865895820773 
1314	 0.301722177972175 
1315	 0.301586852545482 
1316	 0.301444653284544 
1317	 0.301328983456244 
1318	 0.301233361339983 
1319	 0.301131314379568 
1320	 0.301049998170849 
1321	 0.300956194280203 
1322	 0.300847905342908 
1323	 0.300744307924364 
1324	 0.300657662268181 
1325	 0.30057898698643 
1326	 0.300526138950656 
1327	 0.300471829595693 
1328	 0.300388830077063 
1329	 0.300307367751979 
1330	 0.300234400304298 
1331	 0.300139302249667 
1332	 0.300081297518574 
1333	 0.300056448435801 
1334	 0.300015354518559 
1335	 0.299969816633464 
1336	 0.299947929688223 
1337	 0.29993599401194 
1338	 0.299926403244742 
1339	 0.299949694828873 
1340	 0.299942552388996 
1341	 0.299915900288896 
1342	 0.29989568481101 
1343	 0.299870892002878 
1344	 0.299835525079362 
1345	 0.299819316571673 
1346	 0.299808940535098 
1347	 0.299793789253071 
1348	 0.299790990765416 
1349	 0.299759157389755 
1350	 0.299722863283135 
1351	 0.299685951137903 
1352	 0.299625952081941 
1353	 0.299596150430632 
1354	 0.299575773533985 
1355	 0.299568113908176 
1356	 0.299591579544349 
1357	 0.299582868216058 
1358	 0.299574248364573 
1359	 0.29955539348645 
1360	 0.29950792306396 
1361	 0.299477800607819 
1362	 0.299449371295953 
1363	 0.299427022312303 
1364	 0.299425345302139 
1365	 0.299401573629679 
1366	 0.299371421366835 
1367	 0.299334244143672 
1368	 0.299305945175208 
1369	 0.299273061818159 
1370	 0.299223516439075 
1371	 0.299159126075069 
1372	 0.299043869027757 
1373	 0.298894000736872 
1374	 0.29873774908231 
1375	 0.298572772552483 
1376	 0.298365757994914 
1377	 0.298132457906613 
1378	 0.297873846527605 
1379	 0.297583363399296 
1380	 0.297268546331075 
1381	 0.296930794077235 
1382	 0.296570199327055 
1383	 0.2961878882964 
1384	 0.295770476061078 
1385	 0.295344910388071 
1386	 0.294866565867527 
1387	 0.294356715945526 
1388	 0.293792454636866 
1389	 0.2931836563421 
1390	 0.292521734165138 
1391	 0.291826113517919 
1392	 0.291093531260209 
1393	 0.290337430849655 
1394	 0.289566964678821 
1395	 0.288732056204644 
1396	 0.287881009789417 
1397	 0.287033420654416 
1398	 0.286148682823469 
1399	 0.285292592785637 
1400	 0.284458724950835 
1401	 0.283600917307229 
1402	 0.282726521698097 
1403	 0.281885555864694 
1404	 0.281033364846166 
1405	 0.280221398885147 
1406	 0.279436795427415 
1407	 0.278667177394239 
1408	 0.277908108948129 
1409	 0.277189685782754 
1410	 0.276498163480145 
1411	 0.275843748822708 
1412	 0.275215534003862 
1413	 0.274627856622191 
1414	 0.274101175123168 
1415	 0.273597440681194 
1416	 0.273162752423235 
1417	 0.272772215793835 
1418	 0.272381716391213 
1419	 0.272027794854053 
1420	 0.271703569917138 
1421	 0.271392682632333 
1422	 0.271100423728185 
1423	 0.270814981448488 
1424	 0.270532970092284 
1425	 0.270242957264748 
1426	 0.269980820876309 
1427	 0.269728096381891 
1428	 0.269505575231268 
1429	 0.269307533689851 
1430	 0.26911890730138 
1431	 0.268958678166638 
1432	 0.268795542281399 
1433	 0.268630452936165 
1434	 0.268488659744417 
1435	 0.268356188717646 
1436	 0.268246377221228 
1437	 0.268168004812095 
1438	 0.268085080290525 
1439	 0.268015500466435 
1440	 0.267946408511989 
1441	 0.26787537142451 
1442	 0.267808443805869 
1443	 0.267735021329809 
1444	 0.267670834018154 
1445	 0.267631405949594 
1446	 0.267595198879152 
1447	 0.267582777367816 
1448	 0.267579601251487 
1449	 0.26754861780167 
1450	 0.26752803217913 
1451	 0.267508714129016 
1452	 0.267474417812409 
1453	 0.267475841899006 
1454	 0.267499079373256 
1455	 0.267516311585648 
1456	 0.26755141055619 
1457	 0.267584519282584 
1458	 0.267610739672871 
1459	 0.267653502996454 
1460	 0.267703606808667 
1461	 0.267768834078791 
1462	 0.267840006332364 
1463	 0.26792846018517 
1464	 0.268033606949961 
1465	 0.268150656633369 
1466	 0.268287159347155 
1467	 0.268429496102223 
1468	 0.268577836532347 
1469	 0.268744409609314 
1470	 0.268931023435944 
1471	 0.269109177078087 
1472	 0.269300708044008 
1473	 0.269524063511428 
1474	 0.269743700653047 
1475	 0.269982504835584 
1476	 0.270242600996304 
1477	 0.27048745545624 
1478	 0.270758469723301 
1479	 0.271030114212817 
1480	 0.271291811057595 
1481	 0.271582386125057 
1482	 0.271843093215877 
1483	 0.27208179269758 
1484	 0.272337191250081 
1485	 0.272584214607009 
1486	 0.272846358744071 
1487	 0.273125324871698 
1488	 0.273397661404055 
1489	 0.273671421556434 
1490	 0.273945531458491 
1491	 0.274226758431689 
1492	 0.274496115195506 
1493	 0.274758406206787 
1494	 0.275025804852945 
1495	 0.275287487376541 
1496	 0.275548493235681 
1497	 0.275822636871823 
1498	 0.276080467731799 
1499	 0.276326598348878 
1500	 0.276570995602764 
1501	 0.276806288797151 
1502	 0.277038585660497 
1503	 0.277265957630148 
1504	 0.277490429876881 
1505	 0.277717262527215 
1506	 0.277954824502345 
1507	 0.278194145133818 
1508	 0.278419615650172 
1509	 0.278640304091367 
1510	 0.278867348152411 
1511	 0.279078140522617 
1512	 0.279306596480443 
1513	 0.279550714499391 
1514	 0.279768395637788 
1515	 0.279995897793659 
1516	 0.280222032129239 
1517	 0.280429155895358 
1518	 0.280619679157443 
1519	 0.280809245990459 
1520	 0.280986782452647 
1521	 0.281166015733257 
1522	 0.2813389277007 
1523	 0.281516832833751 
1524	 0.281696748367961 
1525	 0.281871469641926 
1526	 0.282042637365912 
1527	 0.282214981780594 
1528	 0.282384262887575 
1529	 0.282555788208984 
1530	 0.282730523482393 
1531	 0.282906256880586 
1532	 0.283080029300933 
1533	 0.283255401745866 
1534	 0.283440827605166 
1535	 0.283610841047651 
1536	 0.28378325460899 
1537	 0.283936468613034 
1538	 0.284063935012626 
1539	 0.284202482413391 
1540	 0.284326019305528 
1541	 0.284463289743319 
1542	 0.284622889251182 
1543	 0.284765107835905 
1544	 0.284909058371255 
1545	 0.285038615565913 
1546	 0.285150776182282 
1547	 0.285259894252449 
1548	 0.285364348082825 
1549	 0.28548691490802 
1550	 0.285620189738802 
1551	 0.285733888484103 
1552	 0.285843829874176 
1553	 0.28593981605813 
1554	 0.286030594293108 
1555	 0.286143978745422 
1556	 0.286258318447035 
1557	 0.286372496881567 
1558	 0.286486524280015 
1559	 0.286585707629798 
1560	 0.286690368327416 
1561	 0.286793320125839 
1562	 0.286898882420956 
1563	 0.287000030847963 
1564	 0.287114151883467 
1565	 0.28723919900084 
1566	 0.287353433051168 
1567	 0.28747851821669 
1568	 0.287581620365492 
1569	 0.287669242636794 
1570	 0.28775119678171 
1571	 0.287821282254522 
1572	 0.287893099234447 
1573	 0.287957286301497 
1574	 0.288024197807337 
1575	 0.28808916610567 
1576	 0.288156293615464 
1577	 0.288235155785334 
1578	 0.288286732533808 
1579	 0.28831683538051 
1580	 0.288364123716228 
1581	 0.288398132947797 
1582	 0.288446121178935 
1583	 0.288519267626392 
1584	 0.288578774714356 
1585	 0.288618120955155 
1586	 0.28868357181601 
1587	 0.288770735664406 
1588	 0.288841548931959 
1589	 0.288928919695856 
1590	 0.288996136850873 
1591	 0.289035228734518 
1592	 0.289088008120761 
1593	 0.28914116301396 
1594	 0.289191919253483 
1595	 0.289241793038515 
1596	 0.289295546253167 
1597	 0.289346056742575 
1598	 0.289403298296213 
1599	 0.289487084288281 
1600	 0.289537942762986 
1601	 0.289563771426976 
1602	 0.289602387283264 
1603	 0.289626022372233 
1604	 0.289653991440461 
1605	 0.289688142490275 
1606	 0.289733825114481 
1607	 0.289795624900859 
1608	 0.289832840830274 
1609	 0.289871931884788 
1610	 0.289918100486957 
1611	 0.289930297160111 
1612	 0.289949597234826 
1613	 0.289986318362043 
1614	 0.290016096517947 
1615	 0.290056814523698 
1616	 0.290091171230393 
1617	 0.290113822570924 
1618	 0.290146680449079 
1619	 0.290158456558728 
1620	 0.290167714363266 
1621	 0.290183172437749 
1622	 0.290197181795851 
1623	 0.290213317495084 
1624	 0.290231930557007 
1625	 0.290255820485256 
1626	 0.290281438949161 
1627	 0.290308155775361 
1628	 0.29034102295016 
1629	 0.290374070776395 
1630	 0.290410710797166 
1631	 0.290432926889063 
1632	 0.290453687764781 
1633	 0.290470590167487 
1634	 0.290470068288447 
1635	 0.290487909239488 
1636	 0.290516762737294 
1637	 0.290538214233594 
1638	 0.29056210823085 
1639	 0.290581076622584 
1640	 0.290594054688249 
1641	 0.290613066075005 
1642	 0.290624918048102 
1643	 0.29065979066047 
1644	 0.290712312929284 
1645	 0.290752785727166 
1646	 0.290811061372213 
1647	 0.290840781901357 
1648	 0.290851763047569 
1649	 0.290862550898598 
1650	 0.290863926139521 
1651	 0.290860269669227 
1652	 0.290848089348512 
1653	 0.290837106996983 
1654	 0.290823416069331 
1655	 0.290802244394994 
1656	 0.290768949287722 
1657	 0.29075448741948 
1658	 0.290740232610332 
1659	 0.290730887132316 
1660	 0.290743553053493 
1661	 0.290737086149117 
1662	 0.290720842098269 
1663	 0.290703962431848 
1664	 0.290679520070441 
1665	 0.290662093394291 
1666	 0.290647105648587 
1667	 0.290625884820391 
1668	 0.29060178497744 
1669	 0.290585085000801 
1670	 0.290565323938641 
1671	 0.290549969983598 
1672	 0.290547496823458 
1673	 0.290535082849663 
1674	 0.290519927407018 
1675	 0.290498092109216 
1676	 0.290454881302897 
1677	 0.290449936492822 
1678	 0.290462112910264 
1679	 0.290467439594038 
1680	 0.290504822166492 
1681	 0.29051315134542 
1682	 0.290497886862712 
1683	 0.290486022697634 
1684	 0.290467590023356 
1685	 0.290454193307737 
1686	 0.290432796547825 
1687	 0.290424228157344 
1688	 0.29043242779268 
1689	 0.290424220940574 
1690	 0.290419854156418 
1691	 0.29039803891235 
1692	 0.290353794890892 
1693	 0.290324486839791 
1694	 0.290291951113831 
1695	 0.290261357922289 
1696	 0.290242491739625 
1697	 0.290211046966358 
1698	 0.290169417140262 
1699	 0.290134384692172 
1700	 0.290099015608026 
1701	 0.290060791051436 
1702	 0.290026664307589 
1703	 0.289983340872518 
1704	 0.289933518926488 
1705	 0.28988256788255 
1706	 0.289823686565455 
1707	 0.289771414630963 
1708	 0.289727166431295 
1709	 0.28966444478936 
1710	 0.289578479573137 
1711	 0.289531871782786 
1712	 0.289489249541507 
1713	 0.289461243372348 
1714	 0.289480294689061 
1715	 0.289460371997774 
1716	 0.289421381728182 
1717	 0.289385848545904 
1718	 0.289348970179649 
1719	 0.289297371927135 
1720	 0.289242235068091 
1721	 0.289176244374362 
1722	 0.289091466942341 
1723	 0.289010745737472 
1724	 0.288913823797828 
1725	 0.288845203589177 
1726	 0.288781228235072 
1727	 0.288733212011593 
1728	 0.288728682118647 
1729	 0.288669881358421 
1730	 0.288610292838334 
1731	 0.288508568299811 
1732	 0.288349315907533 
1733	 0.288224299788738 
1734	 0.28808059263461 
1735	 0.287965973858358 
1736	 0.287879204926776 
1737	 0.287776080200691 
1738	 0.287673751503622 
1739	 0.287571861874941 
1740	 0.287473108241314 
1741	 0.287360498559517 
1742	 0.287240646703904 
1743	 0.28713656450805 
1744	 0.287028913924529 
1745	 0.286917130550655 
1746	 0.286812257540438 
1747	 0.28671785467385 
1748	 0.286618127312349 
1749	 0.286519418200694 
1750	 0.286427623416373 
1751	 0.2862896660649 
1752	 0.28615696287607 
1753	 0.286031026742293 
1754	 0.285899657795206 
1755	 0.285819396444085 
1756	 0.28571781837425 
1757	 0.285599357783339 
1758	 0.285500242396672 
1759	 0.285377777353022 
1760	 0.285260197235669 
1761	 0.285178363672013 
1762	 0.285076364469825 
1763	 0.284935618476368 
1764	 0.284793309185709 
1765	 0.284657262291114 
1766	 0.284561105836417 
1767	 0.284506146594552 
1768	 0.284447246787537 
1769	 0.284379698245981 
1770	 0.284290039388614 
1771	 0.284178288344421 
1772	 0.284063377874357 
1773	 0.283935736997434 
1774	 0.283819461722073 
1775	 0.283714323918307 
1776	 0.28361737419172 
1777	 0.283553925368809 
1778	 0.283494840265846 
1779	 0.283445161244938 
1780	 0.283422319776839 
1781	 0.283381762246568 
1782	 0.283320459225656 
1783	 0.283244699183373 
1784	 0.283177473569013 
1785	 0.283116526513534 
1786	 0.283044966009855 
1787	 0.282954545003736 
1788	 0.282901661221938 
1789	 0.282853221118698 
1790	 0.28283338783681 
1791	 0.282867147402129 
1792	 0.282862625840321 
1793	 0.282860522817048 
1794	 0.282840790656424 
1795	 0.282808948727072 
1796	 0.282761859181566 
1797	 0.2826724888609 
1798	 0.28263014345137 
1799	 0.282583933168803 
1800	 0.282567365632106 
1801	 0.282272847422202 
1802	 0.28233773578486 
1803	 0.28242183036882 
1804	 0.282534201504091 
1805	 0.28262484356473 
1806	 0.282730390106178 
1807	 0.282858694773954 
1808	 0.282957286233504 
1809	 0.283069970887606 
1810	 0.283141365643194 
1811	 0.283187537430574 
1812	 0.283208966275463 
1813	 0.283220122101935 
1814	 0.283219557784143 
1815	 0.283200310238279 
1816	 0.283185451592789 
1817	 0.283172531460474 
1818	 0.283138476052938 
1819	 0.283131959741238 
1820	 0.283150874489727 
1821	 0.28315657716198 
1822	 0.283127303641122 
1823	 0.283116424695931 
1824	 0.283096727035061 
1825	 0.283044555916445 
1826	 0.283016779476568 
1827	 0.283005005229976 
1828	 0.2829617134886 
1829	 0.282901831794085 
1830	 0.28283055330636 
1831	 0.282744626734394 
1832	 0.282639730242817 
1833	 0.282533722321943 
1834	 0.282442009002217 
1835	 0.282366077882064 
1836	 0.28227839711578 
1837	 0.282174421896662 
1838	 0.282093174674472 
1839	 0.282002304363926 
1840	 0.281910972659164 
1841	 0.281794053689279 
1842	 0.281695714127932 
1843	 0.281575506957751 
1844	 0.28144202847292 
1845	 0.281327867839344 
1846	 0.281171648499232 
1847	 0.28099130806099 
1848	 0.280800381799316 
1849	 0.280588824804764 
1850	 0.28038111295567 
1851	 0.280177100494541 
1852	 0.279972624418879 
1853	 0.279762945577083 
1854	 0.279534317265105 
1855	 0.279307659455783 
1856	 0.279050985683078 
1857	 0.278741373479269 
1858	 0.278413593814903 
1859	 0.278005110107598 
1860	 0.277543662448706 
1861	 0.277027183684494 
1862	 0.276467714201536 
1863	 0.275834615693692 
1864	 0.275177571120599 
1865	 0.274500628877555 
1866	 0.273770470959022 
1867	 0.27299436389683 
1868	 0.272192730353552 
1869	 0.271330937954955 
1870	 0.270394937397393 
1871	 0.269399088800827 
1872	 0.268357026982196 
1873	 0.267247784647363 
1874	 0.266040723529729 
1875	 0.264771750187449 
1876	 0.263426636585789 
1877	 0.261950005823098 
1878	 0.2603697032011 
1879	 0.258698196321193 
1880	 0.256923839782678 
1881	 0.255025481926454 
1882	 0.253059213212993 
1883	 0.251024244875893 
1884	 0.248832957308406 
1885	 0.246557552692655 
1886	 0.244202748667602 
1887	 0.24172388849272 
1888	 0.239209305317573 
1889	 0.236625615655278 
1890	 0.233993660436852 
1891	 0.231395153936809 
1892	 0.228753884897 
1893	 0.226151278938737 
1894	 0.223564844821588 
1895	 0.221012331959495 
1896	 0.218432271946437 
1897	 0.215926459773995 
1898	 0.213483455087325 
1899	 0.211133819552685 
1900	 0.208915300266045 
1901	 0.206789789429816 
1902	 0.204791243689894 
1903	 0.202930519566987 
1904	 0.201162360932103 
1905	 0.199493935088858 
1906	 0.197965190007244 
1907	 0.196528352271999 
1908	 0.195180542515325 
1909	 0.193947226545189 
1910	 0.192790436509202 
1911	 0.191720773671276 
1912	 0.190732905703834 
1913	 0.189816525510465 
1914	 0.188964270138351 
1915	 0.188203730570971 
1916	 0.187537335904601 
1917	 0.186929494270914 
1918	 0.186386814168272 
1919	 0.185902277856805 
1920	 0.185455223096385 
1921	 0.185045327432486 
1922	 0.184685692198168 
1923	 0.18436740638744 
1924	 0.184107254334364 
1925	 0.183921873572443 
1926	 0.183748528252043 
1927	 0.183616734154616 
1928	 0.183510597109172 
1929	 0.183444525826126 
1930	 0.183399825512322 
1931	 0.183390875255742 
1932	 0.183445115219129 
1933	 0.183533343358505 
1934	 0.183630975697572 
1935	 0.183763990296384 
1936	 0.183934357167099 
1937	 0.184135654314842 
1938	 0.184367137644547 
1939	 0.184618009963082 
1940	 0.184899731925169 
1941	 0.185208042306302 
1942	 0.185539721993708 
1943	 0.185906155001311 
1944	 0.186292183841586 
1945	 0.186690869489978 
1946	 0.187104580739868 
1947	 0.187521018552562 
1948	 0.187961951567936 
1949	 0.188431223876297 
1950	 0.188906098999914 
1951	 0.189385219839814 
1952	 0.189902619735562 
1953	 0.190409067190606 
1954	 0.190928131281192 
1955	 0.191456264435838 
1956	 0.191966962416842 
1957	 0.192519599722334 
1958	 0.193104231572653 
1959	 0.193678901842212 
1960	 0.194281201548752 
1961	 0.194869317875941 
1962	 0.195439017784014 
1963	 0.196029335388228 
1964	 0.196632426181478 
1965	 0.197237077260973 
1966	 0.197845877624919 
1967	 0.198452694356152 
1968	 0.199067347725762 
1969	 0.199682804320938 
1970	 0.200299385785609 
1971	 0.200929714127211 
1972	 0.201553648700779 
1973	 0.202165802522656 
1974	 0.202794986734854 
1975	 0.203443752963309 
1976	 0.204067659822407 
1977	 0.204708007354189 
1978	 0.20534339294068 
1979	 0.205953618220059 
1980	 0.206585977750561 
1981	 0.207218024392103 
1982	 0.207848693553801 
1983	 0.208485222740231 
1984	 0.20913224406321 
1985	 0.209773973412917 
1986	 0.210425423320947 
1987	 0.211062967207587 
1988	 0.211688035858678 
1989	 0.212320827648083 
1990	 0.212966046711731 
1991	 0.213599004758589 
1992	 0.214236250569519 
1993	 0.214896982302286 
1994	 0.21553033926888 
1995	 0.216143906305624 
1996	 0.216756543344519 
1997	 0.217353823345505 
1998	 0.217964585902278 
1999	 0.218582782963596 
2000	 0.219191758183373 
2001	 0.219813060280096 
2002	 0.22040878227922 
2003	 0.22101018398058 
2004	 0.221601461940761 
2005	 0.222187414972306 
2006	 0.222788393236494 
2007	 0.223353524628513 
2008	 0.2238698951274 
2009	 0.224428492978694 
2010	 0.224990277881193 
2011	 0.225549204359144 
2012	 0.22614143326505 
2013	 0.226709811155679 
2014	 0.227258331928925 
2015	 0.227800527969404 
2016	 0.228351475175469 
2017	 0.228892997919041 
2018	 0.229440111542764 
2019	 0.229995764939681 
2020	 0.230533283144743 
2021	 0.231076615684071 
2022	 0.231592586587775 
2023	 0.232082632401729 
2024	 0.232576474279334 
2025	 0.233047449838354 
2026	 0.233528122210729 
2027	 0.234013270569013 
2028	 0.234498513751584 
2029	 0.234973885925049 
2030	 0.235447217206723 
2031	 0.235916304538682 
2032	 0.236376423659236 
2033	 0.236839113005842 
2034	 0.237303595461155 
2035	 0.237761954472803 
2036	 0.238219184611317 
2037	 0.238666365515488 
2038	 0.239100592596237 
2039	 0.239542850807207 
2040	 0.23998255574843 
2041	 0.240423366456994 
2042	 0.240869306742498 
2043	 0.241302961492311 
2044	 0.241724685370074 
2045	 0.242129817983767 
2046	 0.242542531906313 
2047	 0.242960969933729 
2048	 0.243351444329733 
2049	 0.243730636233647 
2050	 0.24410179338183 
2051	 0.244445672782188 
2052	 0.244794500286438 
2053	 0.245129970128764 
2054	 0.245483759312591 
2055	 0.245840103911814 
2056	 0.24620000537328 
2057	 0.246568074402323 
2058	 0.246967906852112 
2059	 0.247325532891889 
2060	 0.247663616433578 
2061	 0.248007942685462 
2062	 0.248328721662915 
2063	 0.248671315952455 
2064	 0.249029528872447 
2065	 0.249382494316496 
2066	 0.249740923552457 
2067	 0.250094924853473 
2068	 0.25044913203032 
2069	 0.250799899513077 
2070	 0.251143329218072 
2071	 0.251493352427889 
2072	 0.251807244744367 
2073	 0.252096509668828 
2074	 0.252394301042676 
2075	 0.252661651008947 
2076	 0.252957386179835 
2077	 0.253278529596552 
2078	 0.253577851804092 
2079	 0.253859996380674 
2080	 0.254166996498168 
2081	 0.25449375174022 
2082	 0.254796562758052 
2083	 0.255119312945332 
2084	 0.255413986303452 
2085	 0.25568988272571 
2086	 0.255922134861046 
2087	 0.256186287498386 
2088	 0.256438628005046 
2089	 0.256722856018402 
2090	 0.257036207731526 
2091	 0.257327767489822 
2092	 0.257637954744331 
2093	 0.25792502315266 
2094	 0.25818732711241 
2095	 0.258454854736249 
2096	 0.258718498063694 
2097	 0.258979363533657 
2098	 0.259235718766151 
2099	 0.259490060420951 
2100	 0.259744635490931 
2101	 0.259996406631427 
2102	 0.260248855248241 
2103	 0.260500158999405 
2104	 0.260755248171663 
2105	 0.261008124127754 
2106	 0.261269270542728 
2107	 0.261539002607399 
2108	 0.261805038208157 
2109	 0.262065650301813 
2110	 0.262341227566168 
2111	 0.262630493565022 
2112	 0.262909245625188 
2113	 0.263188401052019 
2114	 0.263481919855806 
2115	 0.263754643783574 
2116	 0.26400751719922 
2117	 0.264276726919081 
2118	 0.264553763910271 
2119	 0.264817365554611 
2120	 0.265072078779237 
2121	 0.265342908096107 
2122	 0.265621967328002 
2123	 0.265882136334671 
2124	 0.266172881063053 
2125	 0.266408195494958 
2126	 0.266582686976123 
2127	 0.266780595728913 
2128	 0.266950811653343 
2129	 0.267137251259603 
2130	 0.267339005336173 
2131	 0.2675649699476 
2132	 0.267728560746702 
2133	 0.267882463642686 
2134	 0.267999269594898 
2135	 0.268056282309317 
2136	 0.26813770722251 
2137	 0.268212720191779 
2138	 0.268276909822286 
2139	 0.268337513898633 
2140	 0.268385539449155 
2141	 0.268417042694936 
2142	 0.268445770800728 
2143	 0.268464025073127 
2144	 0.26848239022554 
2145	 0.268505448717441 
2146	 0.2685096359253 
2147	 0.26851280997481 
2148	 0.26849764217468 
2149	 0.268457884182294 
2150	 0.268390827634242 
2151	 0.268323017761961 
2152	 0.268236935584221 
2153	 0.268146215120744 
2154	 0.268038288266416 
2155	 0.267943751620423 
2156	 0.267848661234846 
2157	 0.267746740398298 
2158	 0.267661891040622 
2159	 0.267549644396614 
2160	 0.267409080302846 
2161	 0.26727595818019 
2162	 0.267136093683623 
2163	 0.266992802799332 
2164	 0.266854475972559 
2165	 0.266700569924596 
2166	 0.266547603253526 
2167	 0.26637757333861 
2168	 0.266235701055227 
2169	 0.26611765932925 
2170	 0.26596320768273 
2171	 0.26580335562563 
2172	 0.26564461050047 
2173	 0.265469847157834 
2174	 0.265286050855367 
2175	 0.265105926393302 
2176	 0.264921131679726 
2177	 0.264702266210311 
2178	 0.264506599954585 
2179	 0.264326015875675 
2180	 0.264149599435409 
2181	 0.263987785378909 
2182	 0.263816624315658 
2183	 0.263641482756279 
2184	 0.263475475062791 
2185	 0.263306331274448 
2186	 0.263125415377445 
2187	 0.262958680128845 
2188	 0.262802066638157 
2189	 0.262645550591791 
2190	 0.262480444947033 
2191	 0.262345554019409 
2192	 0.262235820325269 
2193	 0.262112337717661 
2194	 0.261995385081544 
2195	 0.261888442274989 
2196	 0.261796924360127 
2197	 0.261678488547078 
2198	 0.261552223465797 
2199	 0.261435747943482 
2200	 0.26128181836565 
2201	 0.261160001305242 
2202	 0.261065174671119 
2203	 0.260988985138549 
2204	 0.260910644492664 
2205	 0.260832449459467 
2206	 0.260784327729293 
2207	 0.260750357929993 
2208	 0.260733941686812 
2209	 0.26074243291478 
2210	 0.260763555637506 
2211	 0.26082591178557 
2212	 0.260837273558936 
2213	 0.260836342838877 
2214	 0.260843402956698 
2215	 0.260806669985347 
2216	 0.260812732541996 
2217	 0.260879804594525 
2218	 0.260897550497681 
2219	 0.260893099672807 
2220	 0.260898794950762 
2221	 0.260875488001002 
2222	 0.260882282718593 
2223	 0.260895907769381 
2224	 0.260879491751813 
2225	 0.26086335729728 
2226	 0.260825268379855 
2227	 0.260802808240463 
2228	 0.260789353607048 
2229	 0.260763172327623 
2230	 0.260737777191255 
2231	 0.260700858253227 
2232	 0.260658273643994 
2233	 0.260595924901897 
2234	 0.260520701355754 
2235	 0.260439713379577 
2236	 0.26033060703557 
2237	 0.260239007912421 
2238	 0.260137605917099 
2239	 0.260060197030969 
2240	 0.26000461967099 
2241	 0.25994368882802 
2242	 0.259911495129933 
2243	 0.259853095142966 
2244	 0.259782771789068 
2245	 0.259705113559496 
2246	 0.259593918070701 
2247	 0.259465496640576 
2248	 0.259346743879028 
2249	 0.259202516952158 
2250	 0.259089486150954 
2251	 0.258991775487931 
2252	 0.25890849325211 
2253	 0.258854410561046 
2254	 0.258760516435344 
2255	 0.258658375102556 
2256	 0.258561834734415 
2257	 0.258434011101199 
2258	 0.258338581877292 
2259	 0.258272884406226 
2260	 0.25819883360845 
2261	 0.25810951649368 
2262	 0.258055385948668 
2263	 0.258039876124624 
2264	 0.258001039628001 
2265	 0.257968732443026 
2266	 0.257938380709203 
2267	 0.257901077727157 
2268	 0.257856446618187 
2269	 0.257821216531712 
2270	 0.257773014907395 
2271	 0.257725292576344 
2272	 0.257671907628765 
2273	 0.25760594056642 
2274	 0.257604113350031 
2275	 0.257562418279111 
2276	 0.257496218386897 
2277	 0.257461230409884 
2278	 0.257439516379817 
2279	 0.257398413376449 
2280	 0.257380390213897 
2281	 0.257333111031031 
2282	 0.257258917654492 
2283	 0.257183772251758 
2284	 0.257077719017397 
2285	 0.257013038178245 
2286	 0.256954808929439 
2287	 0.256913180899116 
2288	 0.256920890394022 
2289	 0.256888895840444 
2290	 0.256856553773595 
2291	 0.256797629069214 
2292	 0.256699065830888 
2293	 0.256623880066402 
2294	 0.256541012114335 
2295	 0.256455536579594 
2296	 0.256349616253446 
2297	 0.256302387381354 
2298	 0.256270612253543 
2299	 0.256247777837192 
2300	 0.256256857279964 
2301	 0.256205238294097 
2302	 0.256089764742721 
2303	 0.255981708685691 
2304	 0.255856523455873 
2305	 0.255779127016466 
2306	 0.255684706442528 
2307	 0.255588022238756 
2308	 0.2555076977502 
2309	 0.255442863535559 
2310	 0.255348662459453 
2311	 0.255274176964824 
2312	 0.25516256130967 
2313	 0.254997878839409 
2314	 0.254869128874714 
2315	 0.254739387988374 
2316	 0.254621774216405 
2317	 0.254521394320951 
2318	 0.25440793970371 
2319	 0.254290817696404 
2320	 0.25417441094492 
2321	 0.254051701200281 
2322	 0.253952562905927 
2323	 0.253888184251279 
2324	 0.253787008877716 
2325	 0.253675691289907 
2326	 0.253554411630244 
2327	 0.253400064368532 
2328	 0.253243859418649 
2329	 0.253138253841826 
2330	 0.253061856340885 
2331	 0.252989995611941 
2332	 0.252899184115789 
2333	 0.252835035248158 
2334	 0.252757321031155 
2335	 0.252653269299418 
2336	 0.252578551450696 
2337	 0.25244263437551 
2338	 0.252269193948618 
2339	 0.252096530875315 
2340	 0.251914778005433 
2341	 0.251746000064644 
2342	 0.251585316802169 
2343	 0.251421431853586 
2344	 0.251228526503251 
2345	 0.251010102049824 
2346	 0.250740447467325 
2347	 0.250514886527748 
2348	 0.250297878321219 
2349	 0.250051531982722 
2350	 0.249813665190704 
2351	 0.249572559089761 
2352	 0.249292322792199 
2353	 0.249037212740781 
2354	 0.248814919880173 
2355	 0.248568050467343 
2356	 0.248301976918783 
2357	 0.248037280587725 
2358	 0.247751042245657 
2359	 0.247509802749308 
2360	 0.247318209122471 
2361	 0.247067369603965 
2362	 0.246820368878302 
2363	 0.246566764900402 
2364	 0.246240696249487 
2365	 0.245949200638343 
2366	 0.245721120666896 
2367	 0.245432495006984 
2368	 0.245080737298319 
2369	 0.244795286466056 
2370	 0.244538016078851 
2371	 0.24424376439471 
2372	 0.24397322676152 
2373	 0.243674437832479 
2374	 0.243320751831377 
2375	 0.242971630305216 
2376	 0.242692739599542 
2377	 0.242435868674185 
2378	 0.242147520146776 
2379	 0.241794929966956 
2380	 0.24136567148194 
2381	 0.240948724282861 
2382	 0.240555876894725 
2383	 0.240244846130915 
2384	 0.239980111451848 
2385	 0.239707720317879 
2386	 0.239498954495258 
2387	 0.2392120573406 
2388	 0.23884293329321 
2389	 0.238456048093733 
2390	 0.237967849377621 
2391	 0.237525780516438 
2392	 0.237224857440763 
2393	 0.236971457102763 
2394	 0.236769833918198 
2395	 0.236541140186242 
2396	 0.236278019310494 
2397	 0.235920684158867 
2398	 0.235403810207558 
2399	 0.234901916522553 
2400	 0.23443064399106 
2401	 0.234002124795155 
2402	 0.233637782491865 
2403	 0.233300984722248 
2404	 0.232986040788871 
2405	 0.232610962576985 
2406	 0.232193744449475 
2407	 0.231825155808601 
2408	 0.23141667741683 
2409	 0.231000170723488 
2410	 0.230619535189875 
2411	 0.230206403078098 
2412	 0.229767124965431 
2413	 0.229308664359985 
2414	 0.228915649508752 
2415	 0.22852254392469 
2416	 0.228127146024833 
2417	 0.227797790065091 
2418	 0.227373303850938 
2419	 0.226859284212859 
2420	 0.226409120692967 
2421	 0.225887117602143 
2422	 0.225474108967479 
2423	 0.225166591462186 
2424	 0.224886622311301 
2425	 0.224748132362327 
2426	 0.224387656231559 
2427	 0.223923528723775 
2428	 0.223475811909331 
2429	 0.222846610477452 
2430	 0.222437402791591 
2431	 0.222206331098385 
2432	 0.221845150512879 
2433	 0.221519861019621 
2434	 0.221177453241817 
2435	 0.220769890749357 
2436	 0.220354519441097 
2437	 0.219957202736828 
2438	 0.219490838568155 
2439	 0.218945547610599 
2440	 0.218508549976488 
2441	 0.218067700790402 
2442	 0.217653065428416 
2443	 0.217320369932104 
2444	 0.216928079046834 
2445	 0.216542481464946 
2446	 0.216156543648227 
2447	 0.215721980327505 
2448	 0.215262488252648 
2449	 0.21477780373812 
2450	 0.21434091468447 
2451	 0.213961776367279 
2452	 0.213549897015188 
2453	 0.213133125527383 
2454	 0.212723392216938 
2455	 0.212303752230752 
2456	 0.211778842842065 
2457	 0.211160752606755 
2458	 0.210740321553087 
2459	 0.210366491726853 
2460	 0.209958424923578 
2461	 0.209708089021505 
2462	 0.209385280732873 
2463	 0.208916343841202 
2464	 0.208486972772634 
2465	 0.20813874969874 
2466	 0.20763523418381 
2467	 0.206944412877529 
2468	 0.20647360067392 
2469	 0.206133989918813 
2470	 0.205799716556619 
2471	 0.205465592656391 
2472	 0.205140872523663 
2473	 0.204721171534665 
2474	 0.204273001151515 
2475	 0.203867998915703 
2476	 0.203471403285423 
2477	 0.203136893424233 
2478	 0.20269810128538 
2479	 0.202270441414221 
2480	 0.201895720114404 
2481	 0.201309805020899 
2482	 0.200796893173608 
2483	 0.200570326337948 
2484	 0.200330858465597 
2485	 0.199993434072698 
2486	 0.199712133028553 
2487	 0.199319804139503 
2488	 0.199005421136693 
2489	 0.198769641283367 
2490	 0.198621910692865 
2491	 0.198450332576689 
2492	 0.197934611578832 
2493	 0.197575667774258 
2494	 0.197110572678245 
2495	 0.196646499280908 
2496	 0.196566243920797 
2497	 0.196131100716988 
2498	 0.195712722497289 
2499	 0.195590893412367 
2500	 0.19511063128364 
