Wavelength	MM200002.asd
350	 5.36479210343925E-02 
351	 6.00355510451686E-02 
352	 0.057944800653705 
353	 4.67388440931064E-02 
354	 5.24758596040008E-02 
355	 5.37054304656277E-02 
356	 5.20940812906782E-02 
357	 5.35717832107861E-02 
358	 5.73660966652566E-02 
359	 5.52953089281699E-02 
360	 5.06072114258179E-02 
361	 5.28422938279195E-02 
362	 5.38883284749087E-02 
363	 5.36760250109334E-02 
364	 5.27540033599194E-02 
365	 5.07535275908139E-02 
366	 5.15586706797232E-02 
367	 5.32174621445172E-02 
368	 5.33659442623943E-02 
369	 5.52649963136041E-02 
370	 5.48882719446252E-02 
371	 5.43312365681461E-02 
372	 5.87641174620257E-02 
373	 5.66306840174939E-02 
374	 5.59281572419956E-02 
375	 0.05967921823405 
376	 5.80304519910806E-02 
377	 0.055827315375464 
378	 5.57803119374983E-02 
379	 5.83226622366348E-02 
380	 5.70695291999581E-02 
381	 5.56452854962599E-02 
382	 5.56127739740372E-02 
383	 5.66184574083585E-02 
384	 5.86368535309614E-02 
385	 5.91356940655935E-02 
386	 0.05778276282084 
387	 0.058919879162634 
388	 6.05367942542496E-02 
389	 6.07982107728276E-02 
390	 5.91199758159254E-02 
391	 0.060297594397163 
392	 6.21660462971038E-02 
393	 0.063619883451248 
394	 6.47598303587569E-02 
395	 6.51609937534759E-02 
396	 6.54964155418934E-02 
397	 6.61968789588395E-02 
398	 6.69179521202016E-02 
399	 6.69355530596548E-02 
400	 6.67056239055284E-02 
401	 6.69228834692807E-02 
402	 6.67414776473625E-02 
403	 6.71957397513522E-02 
404	 6.82696571776801E-02 
405	 6.88208156529028E-02 
406	 6.83784409464256E-02 
407	 6.87586454343387E-02 
408	 7.03830442325145E-02 
409	 6.87374290126405E-02 
410	 6.88304158261348E-02 
411	 7.01768696996797E-02 
412	 7.01725970473514E-02 
413	 7.13154271584385E-02 
414	 7.21249924719854E-02 
415	 7.19004790859153E-02 
416	 7.13262542856689E-02 
417	 7.10078155867773E-02 
418	 7.14810472213441E-02 
419	 7.26757790445816E-02 
420	 7.29338436972371E-02 
421	 7.21703012110573E-02 
422	 7.16183689523564E-02 
423	 7.29257273583149E-02 
424	 7.27434523138131E-02 
425	 7.23845401963735E-02 
426	 7.26344173976933E-02 
427	 7.21865430463221E-02 
428	 7.18196060509272E-02 
429	 7.19040718044882E-02 
430	 7.24377812605315E-02 
431	 7.23256507835011E-02 
432	 7.20374950539343E-02 
433	 7.17928753650501E-02 
434	 7.14958015897995E-02 
435	 7.14107128480294E-02 
436	 7.13450665545346E-02 
437	 7.11696037568383E-02 
438	 7.10928734896329E-02 
439	 7.16698978880501E-02 
440	 7.22805184378662E-02 
441	 7.19452310372803E-02 
442	 7.19917769942844E-02 
443	 7.21445689328768E-02 
444	 0.072251246775369 
445	 7.26048703545688E-02 
446	 7.28169236117148E-02 
447	 7.29814709760791E-02 
448	 7.32442735195269E-02 
449	 7.33179056525097E-02 
450	 7.35133973808277E-02 
451	 7.38329409015444E-02 
452	 7.40128372139277E-02 
453	 7.41714332833756E-02 
454	 7.41484691870091E-02 
455	 7.40036952171676E-02 
456	 7.44923185624012E-02 
457	 7.46605935467189E-02 
458	 7.46575089131634E-02 
459	 7.50080510713772E-02 
460	 7.49480997584467E-02 
461	 7.49724859357222E-02 
462	 7.52819870963884E-02 
463	 7.55239433318847E-02 
464	 7.55078864425165E-02 
465	 7.54728555747578E-02 
466	 7.56371561117628E-02 
467	 7.55528499851268E-02 
468	 7.56945921716684E-02 
469	 7.59247155462679E-02 
470	 7.56612820324973E-02 
471	 7.56957234262292E-02 
472	 0.075853573588977 
473	 7.59322973038971E-02 
474	 7.60718546013926E-02 
475	 0.076168659016889 
476	 7.61703795980908E-02 
477	 7.60809692870776E-02 
478	 0.076106482138257 
479	 7.61786953736838E-02 
480	 7.62576240019144E-02 
481	 0.076378833847851 
482	 7.65507731583737E-02 
483	 7.66552493402853E-02 
484	 7.66063551389392E-02 
485	 0.076560836535021 
486	 7.66627120770458E-02 
487	 0.076820336922555 
488	 7.67702301708386E-02 
489	 7.67677454411626E-02 
490	 7.68443526965659E-02 
491	 7.69619854393441E-02 
492	 7.70361321164239E-02 
493	 0.076913700378534 
494	 7.68151455358266E-02 
495	 7.70539207498587E-02 
496	 7.71602931776263E-02 
497	 0.077178480044618 
498	 0.077204891858014 
499	 7.73358677660842E-02 
500	 7.74595288050758E-02 
501	 7.74951858148338E-02 
502	 7.74338954815819E-02 
503	 7.75175760099924E-02 
504	 7.76071515184095E-02 
505	 7.76639447766543E-02 
506	 7.77502815140999E-02 
507	 7.78255711058797E-02 
508	 7.78018813532073E-02 
509	 7.76996832397254E-02 
510	 7.78638152278622E-02 
511	 7.79236215552504E-02 
512	 7.79241077850987E-02 
513	 0.07808960722824 
514	 7.80875994409895E-02 
515	 7.81478285299932E-02 
516	 7.83521694661953E-02 
517	 7.84367253857779E-02 
518	 7.84014662960645E-02 
519	 7.83739602435944E-02 
520	 7.84863523583647E-02 
521	 7.86354559245967E-02 
522	 7.86843363202254E-02 
523	 7.86563784253768E-02 
524	 7.87374534959025E-02 
525	 7.87051125030685E-02 
526	 7.87263864116962E-02 
527	 7.89219068733823E-02 
528	 7.89942385339902E-02 
529	 7.90957516440326E-02 
530	 0.07920826319936 
531	 7.92146768538961E-02 
532	 7.92169413324712E-02 
533	 7.93290196922872E-02 
534	 7.95564126728853E-02 
535	 7.96958700836713E-02 
536	 7.97362183150763E-02 
537	 7.97711400605153E-02 
538	 7.99116907868091E-02 
539	 8.00263660661041E-02 
540	 8.01106138882598E-02 
541	 8.01849357859538E-02 
542	 8.02876208401263E-02 
543	 8.03985188069346E-02 
544	 8.05553728330337E-02 
545	 8.07682975088039E-02 
546	 8.08777959198128E-02 
547	 8.10176270581391E-02 
548	 8.12112465049522E-02 
549	 8.13832826750937E-02 
550	 0.081540776709205 
551	 8.17017989184977E-02 
552	 8.18948716158657E-02 
553	 8.21804700296458E-02 
554	 8.24158537638196E-02 
555	 0.082594100712171 
556	 8.27882243295349E-02 
557	 8.30663129249475E-02 
558	 8.33656173516916E-02 
559	 0.083666658308816 
560	 8.40595227722068E-02 
561	 8.44295265693577E-02 
562	 8.47901745327744E-02 
563	 8.51930964774326E-02 
564	 8.56395523394072E-02 
565	 8.60556125086802E-02 
566	 8.64681117010064E-02 
567	 8.70174784552765E-02 
568	 8.75254760707866E-02 
569	 8.80293132570953E-02 
570	 0.088578127005405 
571	 8.90720759121945E-02 
572	 8.96285573119545E-02 
573	 9.02535643213289E-02 
574	 9.08731426369709E-02 
575	 9.15066253595138E-02 
576	 9.21948128578156E-02 
577	 9.29406997853431E-02 
578	 9.36461573586646E-02 
579	 9.44587195105774E-02 
580	 9.53466450764125E-02 
581	 9.62140655147093E-02 
582	 9.71204495051234E-02 
583	 9.79904765029253E-02 
584	 9.88138918755724E-02 
585	 9.96884113063096E-02 
586	 0.100631857899692 
587	 0.101593660450477 
588	 0.102525403837319 
589	 0.10349981412028 
590	 0.104515467153401 
591	 0.105539552702427 
592	 0.106518989870167 
593	 0.107483748718481 
594	 0.108490606511173 
595	 0.109550132945012 
596	 0.110544659666104 
597	 0.111547689784637 
598	 0.112533545483239 
599	 0.113445145071895 
600	 0.114417243887257 
601	 0.115372575651289 
602	 0.116254661579156 
603	 0.117089523862055 
604	 0.117900616336083 
605	 0.118728429964157 
606	 0.119585921963948 
607	 0.120308743434057 
608	 0.121063899475476 
609	 0.121878422833397 
610	 0.12260169974855 
611	 0.123277490471135 
612	 0.123908644358043 
613	 0.124502541478693 
614	 0.125115420295852 
615	 0.125687100845641 
616	 0.12619812772195 
617	 0.126662442065227 
618	 0.127145187587491 
619	 0.127603950879131 
620	 0.128005482086246 
621	 0.12836140890364 
622	 0.128752120085623 
623	 0.129140087045141 
624	 0.129459664367154 
625	 0.129820322416315 
626	 0.130194387962463 
627	 0.130545505298411 
628	 0.130840449230888 
629	 0.131200460344728 
630	 0.131545850269599 
631	 0.131799174765452 
632	 0.132123640905564 
633	 0.132406521617535 
634	 0.132656556834653 
635	 0.132978691585126 
636	 0.133278751852617 
637	 0.133580439649563 
638	 0.133887093394149 
639	 0.134087621873846 
640	 0.134367708818711 
641	 0.134711524606175 
642	 0.135016292925627 
643	 0.135322641310876 
644	 0.135609413752896 
645	 0.135884549707756 
646	 0.136204986292616 
647	 0.136502693743348 
648	 0.136794264429812 
649	 0.137110423196233 
650	 0.137422653583456 
651	 0.137796647481822 
652	 0.138198201480145 
653	 0.13851510592164 
654	 0.138876564522115 
655	 0.139241729325537 
656	 0.139582306334083 
657	 0.139980220176143 
658	 0.140382231167758 
659	 0.140767831969092 
660	 0.141135309490937 
661	 0.141502507128953 
662	 0.141937626319409 
663	 0.142431440481658 
664	 0.14285836401505 
665	 0.143285838691046 
666	 0.143736251465018 
667	 0.144211476239748 
668	 0.144676737215767 
669	 0.145129368930763 
670	 0.145594689622075 
671	 0.14611304541619 
672	 0.146629726001932 
673	 0.147149111207278 
674	 0.147680381360979 
675	 0.148221539154487 
676	 0.148751526691492 
677	 0.14926772946915 
678	 0.149792806424078 
679	 0.15045388610748 
680	 0.151093617128994 
681	 0.151656063633504 
682	 0.152249716145437 
683	 0.152891010999499 
684	 0.153522400328434 
685	 0.154112111940686 
686	 0.154805196811612 
687	 0.155495540984439 
688	 0.156149925508232 
689	 0.156794202238591 
690	 0.157462154837369 
691	 0.158140861246082 
692	 0.158829975644095 
693	 0.159577490665066 
694	 0.160292246374205 
695	 0.16098725649021 
696	 0.161707405035343 
697	 0.162426433299853 
698	 0.163188739981863 
699	 0.163982971542518 
700	 0.164737533657177 
701	 0.165500989332922 
702	 0.166241461708762 
703	 0.166942057150445 
704	 0.167665123086545 
705	 0.168446707388546 
706	 0.169255497042011 
707	 0.170025157629615 
708	 0.170744361770376 
709	 0.171494602898022 
710	 0.172291967825702 
711	 0.173046189123506 
712	 0.17378554837868 
713	 0.17452219105158 
714	 0.175264255784291 
715	 0.176010732390635 
716	 0.17677096091018 
717	 0.177514022001391 
718	 0.178186005492113 
719	 0.178835069752388 
720	 0.179473270484989 
721	 0.180113228126572 
722	 0.180784490272935 
723	 0.181407889797358 
724	 0.182006266332113 
725	 0.182618742129217 
726	 0.183163264055692 
727	 0.183730050670741 
728	 0.184291315868995 
729	 0.184714397579798 
730	 0.185169727879872 
731	 0.185640463725429 
732	 0.18607602215068 
733	 0.186423260283314 
734	 0.186822617856395 
735	 0.187199598875047 
736	 0.187437598136163 
737	 0.187762748549348 
738	 0.188040068601913 
739	 0.188238864755702 
740	 0.18846710970418 
741	 0.188654335739475 
742	 0.188809706708896 
743	 0.18893902205793 
744	 0.188990837800359 
745	 0.189014656914667 
746	 0.189058897990283 
747	 0.189140475826329 
748	 0.189076906528057 
749	 0.188992301079452 
750	 0.188927005222432 
751	 0.188788385847651 
752	 0.188663887008225 
753	 0.188534938704832 
754	 0.188371943951722 
755	 0.188186244784763 
756	 0.187994563325154 
757	 0.187776614305406 
758	 0.187501507800218 
759	 0.187212779517985 
760	 0.186888049660561 
761	 0.186546712985493 
762	 0.186264245233679 
763	 0.18596898540949 
764	 0.185600121087899 
765	 0.185154995172655 
766	 0.184784197121519 
767	 0.184403817472407 
768	 0.183990377040034 
769	 0.183558001674716 
770	 0.183159851463378 
771	 0.182748339298585 
772	 0.182300736441747 
773	 0.181835987468843 
774	 0.181386613014097 
775	 0.180938488186998 
776	 0.180476396955401 
777	 0.180013657955511 
778	 0.17956715980848 
779	 0.179102342621375 
780	 0.178580522876127 
781	 0.178093802576544 
782	 0.177645048777605 
783	 0.177190001080265 
784	 0.176653892650682 
785	 0.176215802170819 
786	 0.175793654772052 
787	 0.175307269405286 
788	 0.174800298244665 
789	 0.174317571483143 
790	 0.173862865019248 
791	 0.173416129774529 
792	 0.1729450552558 
793	 0.172476564094531 
794	 0.172014464661266 
795	 0.171543932454076 
796	 0.171102861360827 
797	 0.170675762994898 
798	 0.170235169778253 
799	 0.169743844942016 
800	 0.169328132112072 
801	 0.168950271678269 
802	 0.168533005398343 
803	 0.168057341211548 
804	 0.167649758255698 
805	 0.167314587953616 
806	 0.166972022157803 
807	 0.166576919641215 
808	 0.16614492531014 
809	 0.165725595990376 
810	 0.165393506777112 
811	 0.165054478147812 
812	 0.164720008252564 
813	 0.164406269269841 
814	 0.164080517960505 
815	 0.163706726544978 
816	 0.163334841641073 
817	 0.163031597614931 
818	 0.162734303629154 
819	 0.162446200401559 
820	 0.162182583217619 
821	 0.161953601913853 
822	 0.161609061758823 
823	 0.161292909541039 
824	 0.161062519370524 
825	 0.160759876690793 
826	 0.160531920615584 
827	 0.160329787100707 
828	 0.160087513689133 
829	 0.159864191335515 
830	 0.159604805671084 
831	 0.159345094241797 
832	 0.159150689101908 
833	 0.15897507684255 
834	 0.158820454336947 
835	 0.158677330935909 
836	 0.158521853719847 
837	 0.158314922638449 
838	 0.158127592488431 
839	 0.157979369269037 
840	 0.157769955105977 
841	 0.157659701661813 
842	 0.157548052162903 
843	 0.15735177478584 
844	 0.157276868051636 
845	 0.157230249827848 
846	 0.157140216227316 
847	 0.156984599009702 
848	 0.156949450212014 
849	 0.156906777198147 
850	 0.156805079079196 
851	 0.15668529845381 
852	 0.156643757242291 
853	 0.156612491995207 
854	 0.156560631945944 
855	 0.156546501542451 
856	 0.156514155967773 
857	 0.156473906847945 
858	 0.156454327760826 
859	 0.156494847389695 
860	 0.15649114749306 
861	 0.156485396561392 
862	 0.15654130746679 
863	 0.156567075507728 
864	 0.156582888245606 
865	 0.156611912554382 
866	 0.156667592510035 
867	 0.156691300646187 
868	 0.156742276542218 
869	 0.1568255992011 
870	 0.156885145708722 
871	 0.156956767207315 
872	 0.15706250597309 
873	 0.15720077469242 
874	 0.157337101703439 
875	 0.157450709734508 
876	 0.15755087278814 
877	 0.157655590812933 
878	 0.15777592174556 
879	 0.157952949615911 
880	 0.158092520073194 
881	 0.158132213869957 
882	 0.158337856339072 
883	 0.158549015977465 
884	 0.158724767993147 
885	 0.158902227960653 
886	 0.159109710088514 
887	 0.159344853594352 
888	 0.159554794476757 
889	 0.159672527733121 
890	 0.159876448892732 
891	 0.160128642296415 
892	 0.160402146454298 
893	 0.160715439259855 
894	 0.160954101279656 
895	 0.161159683829333 
896	 0.161396767258841 
897	 0.161706281214665 
898	 0.162079796342983 
899	 0.162415474084621 
900	 0.162665755118226 
901	 0.162985989882383 
902	 0.163302515337528 
903	 0.163626062320437 
904	 0.163982883453196 
905	 0.164352569145176 
906	 0.164754256061888 
907	 0.165143676447199 
908	 0.165470083539052 
909	 0.165803720986743 
910	 0.166155401856904 
911	 0.166552580890699 
912	 0.167017570129589 
913	 0.167482838851147 
914	 0.16790017191543 
915	 0.168296737685063 
916	 0.168749696861373 
917	 0.169143026250581 
918	 0.169622076656554 
919	 0.170188766637407 
920	 0.170657449417589 
921	 0.171148442111034 
922	 0.171672169239214 
923	 0.172197681614317 
924	 0.172666909747084 
925	 0.173167285878072 
926	 0.173738236804625 
927	 0.174353812437128 
928	 0.174895300820848 
929	 0.175509803614816 
930	 0.176105912910019 
931	 0.176621934334968 
932	 0.177205754983806 
933	 0.177830001228527 
934	 0.178466138423313 
935	 0.179090135411524 
936	 0.179692311735594 
937	 0.180371256535077 
938	 0.181074408992114 
939	 0.181732129028065 
940	 0.182414056297452 
941	 0.183088171502979 
942	 0.183781090075331 
943	 0.184518777508272 
944	 0.185230911201666 
945	 0.185941964202284 
946	 0.186720185872407 
947	 0.187583901109592 
948	 0.188276094260199 
949	 0.188964685308123 
950	 0.189708241568427 
951	 0.19050324518593 
952	 0.191396777108687 
953	 0.192222982090633 
954	 0.192974976227572 
955	 0.19375489050176 
956	 0.194674059936201 
957	 0.195489149363039 
958	 0.196276756442108 
959	 0.197254173501513 
960	 0.198167810737853 
961	 0.199076048349523 
962	 0.20000154497111 
963	 0.200917693744967 
964	 0.201735886208083 
965	 0.20255860947252 
966	 0.203460441563761 
967	 0.204448319457695 
968	 0.205330624774833 
969	 0.20625117143896 
970	 0.207192674408689 
971	 0.20805980512289 
972	 0.209091686520207 
973	 0.210214208052153 
974	 0.211297311803127 
975	 0.21223140004187 
976	 0.213115217256661 
977	 0.214072120609388 
978	 0.215122292428036 
979	 0.216188551480613 
980	 0.217125071533446 
981	 0.21797501728775 
982	 0.218839396170039 
983	 0.219824864106556 
984	 0.22092491748072 
985	 0.222077100367835 
986	 0.223158162329385 
987	 0.22407902093019 
988	 0.225020242659829 
989	 0.22617703948323 
990	 0.227259408247504 
991	 0.227963439701829 
992	 0.229100172364584 
993	 0.230019630760576 
994	 0.23089510384983 
995	 0.232073547164751 
996	 0.232895344132921 
997	 0.233865726386143 
998	 0.23495663616015 
999	 0.235977945142846 
1000	 0.237025445622162 
1001	 0.238359772240603 
1002	 0.239274737927112 
1003	 0.2402138534325 
1004	 0.241135693929169 
1005	 0.242054437489487 
1006	 0.242940833245415 
1007	 0.243803126296616 
1008	 0.244667687590462 
1009	 0.245556055941871 
1010	 0.246422932951082 
1011	 0.247277585190235 
1012	 0.24814076062735 
1013	 0.24899309537732 
1014	 0.249796309231048 
1015	 0.250601814554652 
1016	 0.251415280843338 
1017	 0.25220276500758 
1018	 0.252927293849191 
1019	 0.25370717916502 
1020	 0.254533950616463 
1021	 0.255304837921046 
1022	 0.256083276422248 
1023	 0.256809258158901 
1024	 0.257503538095126 
1025	 0.258248254815361 
1026	 0.258930923536492 
1027	 0.259579936964796 
1028	 0.260246310455253 
1029	 0.260898029030552 
1030	 0.261566361548375 
1031	 0.262216930539298 
1032	 0.262884681044948 
1033	 0.263542776403249 
1034	 0.264184803289536 
1035	 0.264767514028666 
1036	 0.265333286593745 
1037	 0.265909054220395 
1038	 0.266469698318868 
1039	 0.267003438477866 
1040	 0.267547923506707 
1041	 0.268132643476304 
1042	 0.268715740701121 
1043	 0.269305507616318 
1044	 0.269876149237342 
1045	 0.270476155629621 
1046	 0.271024657075149 
1047	 0.2715485756592 
1048	 0.272083477282483 
1049	 0.272646476600056 
1050	 0.273244619113877 
1051	 0.273802343722938 
1052	 0.274329719051071 
1053	 0.274901836243535 
1054	 0.275449101116957 
1055	 0.276018909995708 
1056	 0.276630219579643 
1057	 0.277188636366112 
1058	 0.277706049690192 
1059	 0.278267386587913 
1060	 0.278823171553821 
1061	 0.279348762776157 
1062	 0.279960169252136 
1063	 0.280566516216203 
1064	 0.281183882438952 
1065	 0.281810130438576 
1066	 0.282365859710067 
1067	 0.282862536152566 
1068	 0.283379967344412 
1069	 0.283889313738911 
1070	 0.284400138749051 
1071	 0.284938507888386 
1072	 0.28551280269793 
1073	 0.2860806006025 
1074	 0.286634412254901 
1075	 0.287245071510209 
1076	 0.287768681239515 
1077	 0.288265918509191 
1078	 0.288817189595673 
1079	 0.289349335717721 
1080	 0.289866497592702 
1081	 0.290380503138056 
1082	 0.290887607482326 
1083	 0.291383055444239 
1084	 0.291889382641278 
1085	 0.292377779396907 
1086	 0.292799413816477 
1087	 0.293277558467472 
1088	 0.293778221902707 
1089	 0.294287865743564 
1090	 0.294767179340565 
1091	 0.295307373719669 
1092	 0.295813509939573 
1093	 0.296251782445609 
1094	 0.296706666329824 
1095	 0.2971837154304 
1096	 0.297623524010996 
1097	 0.298070224259539 
1098	 0.298534471695332 
1099	 0.299018888319918 
1100	 0.299478510942365 
1101	 0.299944990920193 
1102	 0.300400177416185 
1103	 0.300845195618872 
1104	 0.301284196959024 
1105	 0.301705747950949 
1106	 0.302161111370108 
1107	 0.302604683210668 
1108	 0.30303988963362 
1109	 0.303476426739084 
1110	 0.30390269272528 
1111	 0.30433225701114 
1112	 0.30474912609869 
1113	 0.305177637508814 
1114	 0.305611540655509 
1115	 0.30604739482009 
1116	 0.3064985711511 
1117	 0.306934179076412 
1118	 0.307359002857871 
1119	 0.307801530319957 
1120	 0.308225743518344 
1121	 0.308627860056536 
1122	 0.309071994468397 
1123	 0.309481896746537 
1124	 0.30989625438819 
1125	 0.310319359114215 
1126	 0.310729759200242 
1127	 0.311122206641451 
1128	 0.311523720043853 
1129	 0.311919402134648 
1130	 0.312325191192757 
1131	 0.312755991922138 
1132	 0.313154570357551 
1133	 0.313529467512931 
1134	 0.313917038838247 
1135	 0.314311269927895 
1136	 0.314664875438272 
1137	 0.315025595714709 
1138	 0.315403320141985 
1139	 0.315775520948459 
1140	 0.316124303929625 
1141	 0.316506324266372 
1142	 0.31693282749965 
1143	 0.317309317268749 
1144	 0.317673414508846 
1145	 0.318026470587468 
1146	 0.318356297714803 
1147	 0.318678630930282 
1148	 0.318978790229755 
1149	 0.319302385841438 
1150	 0.319624249486214 
1151	 0.319953642308209 
1152	 0.320287611103977 
1153	 0.320628074430497 
1154	 0.320947484349 
1155	 0.321245102425688 
1156	 0.321552078315469 
1157	 0.321851287821721 
1158	 0.32216221303839 
1159	 0.322488847282287 
1160	 0.322790621066564 
1161	 0.323085375744581 
1162	 0.323382843321046 
1163	 0.323668527456884 
1164	 0.323952505165661 
1165	 0.32423939147931 
1166	 0.324527183516415 
1167	 0.324813552045728 
1168	 0.325091085099294 
1169	 0.325366446665021 
1170	 0.325645463850711 
1171	 0.325919076705722 
1172	 0.326181657562039 
1173	 0.326448788297543 
1174	 0.326724449389068 
1175	 0.326989902627247 
1176	 0.327252129830945 
1177	 0.32750642097894 
1178	 0.327745511170833 
1179	 0.327997506806097 
1180	 0.328243349101437 
1181	 0.328500017268891 
1182	 0.328781040743864 
1183	 0.329052186395224 
1184	 0.329300505716157 
1185	 0.329538820608187 
1186	 0.329779320354801 
1187	 0.330001247680556 
1188	 0.33023222470142 
1189	 0.330476772183649 
1190	 0.330703147304629 
1191	 0.330913906883592 
1192	 0.331130664085783 
1193	 0.331352148918338 
1194	 0.331560648528427 
1195	 0.331765196587267 
1196	 0.331963371007783 
1197	 0.332133876662042 
1198	 0.332326634667273 
1199	 0.332527135284651 
1200	 0.332739063832074 
1201	 0.332935997371997 
1202	 0.333146624271996 
1203	 0.333332715690274 
1204	 0.333492937367497 
1205	 0.333668439481484 
1206	 0.333845125533382 
1207	 0.33401688352791 
1208	 0.334189359739544 
1209	 0.334359865436453 
1210	 0.334527417691169 
1211	 0.334690803052583 
1212	 0.334850030403042 
1213	 0.335012260505618 
1214	 0.335193117664852 
1215	 0.335340181158345 
1216	 0.335472196333371 
1217	 0.33558863358804 
1218	 0.335719110256417 
1219	 0.335827291205247 
1220	 0.335952296140219 
1221	 0.33609959557872 
1222	 0.336235362182056 
1223	 0.336363559124069 
1224	 0.336490554086074 
1225	 0.336629463201916 
1226	 0.336751000564229 
1227	 0.336858160822111 
1228	 0.336963289625016 
1229	 0.337053266346285 
1230	 0.337154267548244 
1231	 0.337268703118756 
1232	 0.337364891470688 
1233	 0.337454843778287 
1234	 0.337539167055874 
1235	 0.337634889856632 
1236	 0.337713506382503 
1237	 0.337819466039269 
1238	 0.337959627555064 
1239	 0.338072286038697 
1240	 0.338185030876709 
1241	 0.338286945404933 
1242	 0.33837561821164 
1243	 0.338465020862992 
1244	 0.338542571657921 
1245	 0.338630744290393 
1246	 0.338728896973642 
1247	 0.338814800772657 
1248	 0.338897595295023 
1249	 0.33898294657871 
1250	 0.339055749260793 
1251	 0.339131100735031 
1252	 0.339211865287679 
1253	 0.339306764229941 
1254	 0.339380469581974 
1255	 0.339445910058255 
1256	 0.33951227408619 
1257	 0.339562565027839 
1258	 0.339628795821372 
1259	 0.339706103177272 
1260	 0.339777180518171 
1261	 0.339865621877331 
1262	 0.339924339131034 
1263	 0.339956854420543 
1264	 0.340003150813663 
1265	 0.340046439418702 
1266	 0.34007914684757 
1267	 0.340115367652887 
1268	 0.340145572619893 
1269	 0.340170670313168 
1270	 0.340171162675973 
1271	 0.340199853226216 
1272	 0.34024371833571 
1273	 0.340282104636046 
1274	 0.340321887126455 
1275	 0.34036801773955 
1276	 0.340400000768492 
1277	 0.340470470218836 
1278	 0.340570858689672 
1279	 0.340664508324654 
1280	 0.340778021840592 
1281	 0.340892292961646 
1282	 0.340994505952458 
1283	 0.341120273347901 
1284	 0.341288655869522 
1285	 0.34142062023755 
1286	 0.341540715849582 
1287	 0.341689004564574 
1288	 0.341823429772863 
1289	 0.341941949022956 
1290	 0.342074716139101 
1291	 0.342211712802296 
1292	 0.342355513486842 
1293	 0.342509193017532 
1294	 0.342652504075581 
1295	 0.342806425255268 
1296	 0.34294894894659 
1297	 0.343061598010848 
1298	 0.343203730274518 
1299	 0.343379606777545 
1300	 0.343518423079394 
1301	 0.343658013649557 
1302	 0.343778801590091 
1303	 0.343874047025377 
1304	 0.343950023720669 
1305	 0.344033847817451 
1306	 0.344126076148497 
1307	 0.344196348000622 
1308	 0.34426664402579 
1309	 0.344333341588027 
1310	 0.344390762098212 
1311	 0.344451881013091 
1312	 0.34451963929644 
1313	 0.344566815699295 
1314	 0.344610431236805 
1315	 0.344638345588046 
1316	 0.344627494515906 
1317	 0.344661474875803 
1318	 0.3447181917932 
1319	 0.344752110895301 
1320	 0.344814510338849 
1321	 0.344840307415025 
1322	 0.344828619871038 
1323	 0.344817434864283 
1324	 0.344807190118708 
1325	 0.344794525722505 
1326	 0.344800396102721 
1327	 0.344797689554118 
1328	 0.344769718817421 
1329	 0.344742454391962 
1330	 0.344724586833169 
1331	 0.344689200473373 
1332	 0.344680286981923 
1333	 0.344708705940968 
1334	 0.34470164843874 
1335	 0.344675055477978 
1336	 0.344668483664608 
1337	 0.344660760714946 
1338	 0.344652967592319 
1339	 0.344663883999269 
1340	 0.344657948884106 
1341	 0.344635664003899 
1342	 0.344619767567496 
1343	 0.344596767380065 
1344	 0.344588299995205 
1345	 0.344582469292282 
1346	 0.344565425771179 
1347	 0.344558280969374 
1348	 0.344551730206365 
1349	 0.344525570882964 
1350	 0.34449231607802 
1351	 0.344477730987362 
1352	 0.344459287184801 
1353	 0.344455820535049 
1354	 0.34448140828583 
1355	 0.344479705432524 
1356	 0.344467102756622 
1357	 0.344456383185526 
1358	 0.344430938663691 
1359	 0.344429574220674 
1360	 0.344439668620032 
1361	 0.34445201783282 
1362	 0.344469014342252 
1363	 0.34449125574026 
1364	 0.344529554823181 
1365	 0.3445552109711 
1366	 0.34457254029168 
1367	 0.344611223304754 
1368	 0.344643340839236 
1369	 0.344653664267649 
1370	 0.344667050316176 
1371	 0.344674140243869 
1372	 0.344663998485824 
1373	 0.344636546132531 
1374	 0.344604806060089 
1375	 0.344570779660875 
1376	 0.344514690507373 
1377	 0.344447986894774 
1378	 0.344362527722451 
1379	 0.344242050825711 
1380	 0.344144182889178 
1381	 0.344034892364979 
1382	 0.343943292709003 
1383	 0.343871983736864 
1384	 0.343792522375161 
1385	 0.343725050248568 
1386	 0.343636430813994 
1387	 0.343563253926983 
1388	 0.343445523512167 
1389	 0.343300648655826 
1390	 0.343134395492609 
1391	 0.342940397607547 
1392	 0.342716518849882 
1393	 0.342497715008258 
1394	 0.342283671114603 
1395	 0.342038903719189 
1396	 0.341804004460683 
1397	 0.341564072795097 
1398	 0.341301350591903 
1399	 0.341068052957098 
1400	 0.340860894606763 
1401	 0.34062331094919 
1402	 0.340390165687692 
1403	 0.340136457182142 
1404	 0.339845800879684 
1405	 0.339587550158603 
1406	 0.339326013857336 
1407	 0.339089421534203 
1408	 0.338866000686696 
1409	 0.338661079077346 
1410	 0.338468417533628 
1411	 0.338297751997554 
1412	 0.338135912957593 
1413	 0.338017946421196 
1414	 0.337930013067577 
1415	 0.337864309867871 
1416	 0.337826484468494 
1417	 0.337803307652206 
1418	 0.337772802667511 
1419	 0.33775130528965 
1420	 0.337757747510464 
1421	 0.337760696865773 
1422	 0.337763254501664 
1423	 0.337769042636282 
1424	 0.337755085741574 
1425	 0.337717454123954 
1426	 0.337693271713216 
1427	 0.337658857622439 
1428	 0.337643429772183 
1429	 0.337632803755474 
1430	 0.337636464282374 
1431	 0.337665981666738 
1432	 0.337674980438254 
1433	 0.337682415552484 
1434	 0.337690734283969 
1435	 0.337688223893557 
1436	 0.337692807420311 
1437	 0.337697547919552 
1438	 0.337714622357984 
1439	 0.337741354783359 
1440	 0.337765799957906 
1441	 0.337783745342259 
1442	 0.337814804736246 
1443	 0.337829296482694 
1444	 0.33781045096311 
1445	 0.337808560802877 
1446	 0.337828027559824 
1447	 0.337854299259683 
1448	 0.337888151628586 
1449	 0.337917424215703 
1450	 0.337932689055149 
1451	 0.337946503972237 
1452	 0.337943375597633 
1453	 0.337959569202988 
1454	 0.337977933430056 
1455	 0.338007633412041 
1456	 0.338057331011461 
1457	 0.338084924664326 
1458	 0.338117466132552 
1459	 0.338131038660057 
1460	 0.338110575134603 
1461	 0.338117394215624 
1462	 0.338125569383411 
1463	 0.338146808012445 
1464	 0.338197673124213 
1465	 0.338223301462684 
1466	 0.338234733103576 
1467	 0.338263006359232 
1468	 0.338276274460509 
1469	 0.338310023845921 
1470	 0.338370768693454 
1471	 0.338422463795708 
1472	 0.338480001482422 
1473	 0.338564971882711 
1474	 0.338648546046754 
1475	 0.338739974139655 
1476	 0.338817785763987 
1477	 0.338883517376881 
1478	 0.338979224649187 
1479	 0.339071586134306 
1480	 0.33916547591581 
1481	 0.339288721387724 
1482	 0.339392987645252 
1483	 0.339482746776072 
1484	 0.339585476287289 
1485	 0.339694785235362 
1486	 0.339796811287871 
1487	 0.339900541624557 
1488	 0.339997994814423 
1489	 0.340096693430947 
1490	 0.340181921941431 
1491	 0.340248608854759 
1492	 0.340336352154358 
1493	 0.340419252643321 
1494	 0.340512291717741 
1495	 0.340629978986125 
1496	 0.340733553344517 
1497	 0.340829262396954 
1498	 0.340930900106219 
1499	 0.341043998103468 
1500	 0.341137805079225 
1501	 0.34121990834198 
1502	 0.341307446128339 
1503	 0.341390605356573 
1504	 0.341458674991042 
1505	 0.34155008508166 
1506	 0.34164299981023 
1507	 0.341716426772854 
1508	 0.341790079655153 
1509	 0.3418589680723 
1510	 0.341927173026189 
1511	 0.341992869834675 
1512	 0.342057888794263 
1513	 0.342145995303279 
1514	 0.342237378161222 
1515	 0.342342545768459 
1516	 0.34245176411372 
1517	 0.342532834225096 
1518	 0.342592574752244 
1519	 0.342655598979922 
1520	 0.342702484188829 
1521	 0.342763961526103 
1522	 0.342827620116274 
1523	 0.342892582494142 
1524	 0.342959227804081 
1525	 0.343030288722424 
1526	 0.34310591578734 
1527	 0.343176087456915 
1528	 0.343253668941726 
1529	 0.343317784346963 
1530	 0.343367294926339 
1531	 0.343430594341159 
1532	 0.343500183649678 
1533	 0.343558089858465 
1534	 0.343618771775043 
1535	 0.343672181846078 
1536	 0.343698186540162 
1537	 0.343752014849091 
1538	 0.343833724678561 
1539	 0.343886158529941 
1540	 0.343942720521707 
1541	 0.343986504379613 
1542	 0.344003689721654 
1543	 0.34402693505747 
1544	 0.344046949814491 
1545	 0.344067385287164 
1546	 0.344084041743406 
1547	 0.344092791018602 
1548	 0.344123596120656 
1549	 0.344171193183646 
1550	 0.344223641590132 
1551	 0.344281156789121 
1552	 0.344326875236358 
1553	 0.344357640123052 
1554	 0.344392088290023 
1555	 0.344433871123571 
1556	 0.344486811918347 
1557	 0.344558828729052 
1558	 0.344611359189791 
1559	 0.3446405662191 
1560	 0.344682366387677 
1561	 0.344709202071656 
1562	 0.344755128862291 
1563	 0.344822933165723 
1564	 0.344871466560012 
1565	 0.344910007126354 
1566	 0.344959491659962 
1567	 0.345005954549836 
1568	 0.345055035644079 
1569	 0.345124777944209 
1570	 0.345162858774056 
1571	 0.345185890898903 
1572	 0.345209546679204 
1573	 0.345217014935854 
1574	 0.345227696717315 
1575	 0.345229063892302 
1576	 0.345246711322236 
1577	 0.345269856836034 
1578	 0.345291207204319 
1579	 0.345327977515436 
1580	 0.345354117108103 
1581	 0.345374560531474 
1582	 0.345390515706387 
1583	 0.345392715241868 
1584	 0.345414601746306 
1585	 0.345435300686015 
1586	 0.345466315011461 
1587	 0.345525426123187 
1588	 0.345568327883579 
1589	 0.345613905022209 
1590	 0.345642988038245 
1591	 0.345658857965834 
1592	 0.345673786552116 
1593	 0.345666494057763 
1594	 0.345679995324651 
1595	 0.345701121360738 
1596	 0.345725970000592 
1597	 0.345770250603458 
1598	 0.345800286713133 
1599	 0.345830276328367 
1600	 0.345853258466909 
1601	 0.345865480555061 
1602	 0.345875909461444 
1603	 0.345880400074572 
1604	 0.345883661748003 
1605	 0.345876040504653 
1606	 0.345881781709709 
1607	 0.345896839273557 
1608	 0.345904510243057 
1609	 0.345931400495723 
1610	 0.345960026141141 
1611	 0.345969813463788 
1612	 0.345982213037533 
1613	 0.345988247653934 
1614	 0.345984992446336 
1615	 0.346002905440854 
1616	 0.346017676582195 
1617	 0.346026996507813 
1618	 0.34605145339927 
1619	 0.346042035615668 
1620	 0.346041722590359 
1621	 0.346054593135169 
1622	 0.346072322057119 
1623	 0.346080328779783 
1624	 0.346102423099533 
1625	 0.346102858761173 
1626	 0.346073046542922 
1627	 0.346086255398632 
1628	 0.346119149593637 
1629	 0.346136407108258 
1630	 0.346175074045721 
1631	 0.346176161736575 
1632	 0.346149635838433 
1633	 0.346131277575586 
1634	 0.346094835234444 
1635	 0.346085303202092 
1636	 0.34608518026328 
1637	 0.346082913859614 
1638	 0.346089045234415 
1639	 0.346102403334824 
1640	 0.346119112590419 
1641	 0.346133093637994 
1642	 0.346166139679409 
1643	 0.346171966977646 
1644	 0.346155598990652 
1645	 0.346151314854387 
1646	 0.346138540323125 
1647	 0.346138392910007 
1648	 0.346148518567366 
1649	 0.346153681476101 
1650	 0.346160203551576 
1651	 0.346168591062094 
1652	 0.346180271960575 
1653	 0.346183120561152 
1654	 0.346180635919335 
1655	 0.346188389471282 
1656	 0.34619567846889 
1657	 0.346201620442794 
1658	 0.346219375964584 
1659	 0.346224261725746 
1660	 0.346222077279483 
1661	 0.346211046035567 
1662	 0.346185834811864 
1663	 0.346177739929335 
1664	 0.346161852722755 
1665	 0.346163021902924 
1666	 0.346194289796683 
1667	 0.346198822870552 
1668	 0.346186377488657 
1669	 0.34619641720966 
1670	 0.346216261733595 
1671	 0.346218287831291 
1672	 0.346234094809103 
1673	 0.346226934142527 
1674	 0.346180644609833 
1675	 0.346164325745059 
1676	 0.346153447103373 
1677	 0.346151010866031 
1678	 0.34616559572442 
1679	 0.346169288668498 
1680	 0.346187971072236 
1681	 0.346173233678898 
1682	 0.346128769535657 
1683	 0.346105328890583 
1684	 0.346069598122022 
1685	 0.346045144993554 
1686	 0.346033870175991 
1687	 0.346028230759208 
1688	 0.346018250715373 
1689	 0.346024114747295 
1690	 0.346053251242491 
1691	 0.346074870789846 
1692	 0.346111312244396 
1693	 0.346119348477543 
1694	 0.346107086297261 
1695	 0.346108585269371 
1696	 0.346099486524845 
1697	 0.346095826438868 
1698	 0.346112630390383 
1699	 0.346108977389644 
1700	 0.346089547286085 
1701	 0.346072044006697 
1702	 0.346055845842719 
1703	 0.346024515030361 
1704	 0.345986322584189 
1705	 0.345936210129908 
1706	 0.34585227387912 
1707	 0.345810566505137 
1708	 0.34578624837884 
1709	 0.345753695780029 
1710	 0.345730147852756 
1711	 0.345724253048836 
1712	 0.345712899235951 
1713	 0.345719813929622 
1714	 0.345776138564186 
1715	 0.345787418491079 
1716	 0.345773496797621 
1717	 0.345777885183459 
1718	 0.345777580592069 
1719	 0.345769861486723 
1720	 0.345786499690265 
1721	 0.345754116019365 
1722	 0.345690657582568 
1723	 0.345619666301176 
1724	 0.345504342936773 
1725	 0.345432651025123 
1726	 0.345362806320345 
1727	 0.34531387569319 
1728	 0.345306987945535 
1729	 0.345260490134381 
1730	 0.345208330580316 
1731	 0.345147829075084 
1732	 0.345067484904538 
1733	 0.344995306971358 
1734	 0.344930223700461 
1735	 0.344842592331589 
1736	 0.34473480947109 
1737	 0.344644142338767 
1738	 0.344526743512725 
1739	 0.344473320190625 
1740	 0.344470296037667 
1741	 0.344440397202405 
1742	 0.344448434053874 
1743	 0.344403740024454 
1744	 0.344313179401238 
1745	 0.344244337237659 
1746	 0.344159545032854 
1747	 0.344113301337259 
1748	 0.344081083665793 
1749	 0.344019992060362 
1750	 0.343959435840129 
1751	 0.343869327260145 
1752	 0.343802355592562 
1753	 0.343765514602451 
1754	 0.343706105486497 
1755	 0.343672691435008 
1756	 0.343632461023114 
1757	 0.343578942020337 
1758	 0.343554389183211 
1759	 0.343508977248448 
1760	 0.343430383326576 
1761	 0.34335322943688 
1762	 0.343277415694714 
1763	 0.343177729460185 
1764	 0.343100554959601 
1765	 0.343046428144234 
1766	 0.342981591686453 
1767	 0.342955024949341 
1768	 0.342912326168578 
1769	 0.342832781102374 
1770	 0.342750779986538 
1771	 0.342669100257719 
1772	 0.342605451226781 
1773	 0.342543171130996 
1774	 0.342505281167821 
1775	 0.342462809983337 
1776	 0.342387031508792 
1777	 0.342349700472601 
1778	 0.342329069811013 
1779	 0.342302208486143 
1780	 0.342296386498106 
1781	 0.342293383877103 
1782	 0.342274156545149 
1783	 0.34223914710809 
1784	 0.342195594886742 
1785	 0.342110596914353 
1786	 0.342054422987959 
1787	 0.342001332593757 
1788	 0.341971855630823 
1789	 0.341991772264124 
1790	 0.34197848385303 
1791	 0.341949573039295 
1792	 0.341927324699594 
1793	 0.341907511171866 
1794	 0.341862191503163 
1795	 0.341823559093706 
1796	 0.341755019864844 
1797	 0.341622305447207 
1798	 0.341533546732065 
1799	 0.341442959645184 
1800	 0.341401576705858 
1801	 0.334519032978248 
1802	 0.334649258636191 
1803	 0.334810611546218 
1804	 0.334995158728169 
1805	 0.335195066382827 
1806	 0.33538513033335 
1807	 0.335598967160881 
1808	 0.335769320269962 
1809	 0.335926139766884 
1810	 0.336036780026936 
1811	 0.33611863588369 
1812	 0.336174819893194 
1813	 0.336222942013342 
1814	 0.336267959588191 
1815	 0.336277288793093 
1816	 0.336279703583029 
1817	 0.336282926623231 
1818	 0.336225544109065 
1819	 0.336238405775252 
1820	 0.336294776741546 
1821	 0.336344918821523 
1822	 0.33639216924375 
1823	 0.336437626676947 
1824	 0.336463042086285 
1825	 0.336468184045279 
1826	 0.336464170775508 
1827	 0.3364761861024 
1828	 0.336473194073944 
1829	 0.336456868697524 
1830	 0.336441558949899 
1831	 0.336430170115807 
1832	 0.336399845041118 
1833	 0.336345636547669 
1834	 0.3363155043162 
1835	 0.336302150992915 
1836	 0.33628485838368 
1837	 0.336250082227549 
1838	 0.336195955696379 
1839	 0.336190636560997 
1840	 0.336199258844531 
1841	 0.336208159815863 
1842	 0.336233950393677 
1843	 0.336299388279032 
1844	 0.336314204245254 
1845	 0.336281238178788 
1846	 0.336233630911169 
1847	 0.336184235281217 
1848	 0.336095754638509 
1849	 0.336019563791152 
1850	 0.336000555902878 
1851	 0.336036411761192 
1852	 0.336051725962741 
1853	 0.336081061029523 
1854	 0.33614141031202 
1855	 0.336175190142966 
1856	 0.336187581154055 
1857	 0.336200015716149 
1858	 0.33617820663927 
1859	 0.336093696837258 
1860	 0.335993141374249 
1861	 0.335866284977484 
1862	 0.335714774226276 
1863	 0.335542098920668 
1864	 0.335378945727567 
1865	 0.335224814569761 
1866	 0.335054964602582 
1867	 0.334862185535229 
1868	 0.33465016241994 
1869	 0.334421210781439 
1870	 0.334189346921747 
1871	 0.333955125467655 
1872	 0.33372765910087 
1873	 0.333493180902898 
1874	 0.333249389926091 
1875	 0.332999879478818 
1876	 0.332714568123598 
1877	 0.332409142173286 
1878	 0.332047482647934 
1879	 0.331613615302616 
1880	 0.331141469890934 
1881	 0.330613437903033 
1882	 0.330056056011629 
1883	 0.329460165141679 
1884	 0.328815049358347 
1885	 0.32813780368909 
1886	 0.327418966831098 
1887	 0.326634557229735 
1888	 0.32582343956525 
1889	 0.324945394479521 
1890	 0.324016594414829 
1891	 0.323065720622196 
1892	 0.322054521076266 
1893	 0.321034058384378 
1894	 0.319993552442987 
1895	 0.318933329121491 
1896	 0.317841904287428 
1897	 0.316712145270666 
1898	 0.31555441454353 
1899	 0.314410178055084 
1900	 0.313275631933553 
1901	 0.312187259871702 
1902	 0.311145261798454 
1903	 0.310154363815417 
1904	 0.309192377723558 
1905	 0.308265653551064 
1906	 0.307388162715683 
1907	 0.306534994340723 
1908	 0.305738306146858 
1909	 0.304997945900298 
1910	 0.304258402846218 
1911	 0.303560368564359 
1912	 0.302895300255466 
1913	 0.302251204680632 
1914	 0.301596887389305 
1915	 0.301036184550266 
1916	 0.300535947384939 
1917	 0.300060589299293 
1918	 0.299640995737891 
1919	 0.299253837082105 
1920	 0.298878579991323 
1921	 0.298529139983791 
1922	 0.298206009851837 
1923	 0.297924551513295 
1924	 0.297683809472322 
1925	 0.297482082314459 
1926	 0.297308408153887 
1927	 0.297181430879741 
1928	 0.297072987995017 
1929	 0.296982560884033 
1930	 0.296905863163789 
1931	 0.29686355212946 
1932	 0.296847531235468 
1933	 0.296816218829688 
1934	 0.296811486217722 
1935	 0.296844521671556 
1936	 0.2968886933238 
1937	 0.296970615463162 
1938	 0.29711851113713 
1939	 0.297254154945571 
1940	 0.297395885891548 
1941	 0.29756283132704 
1942	 0.297743282178798 
1943	 0.297931438825461 
1944	 0.298140786834502 
1945	 0.298342056655007 
1946	 0.298521837183735 
1947	 0.298657419324994 
1948	 0.29885625016656 
1949	 0.299070779509493 
1950	 0.299288069220548 
1951	 0.299546905482209 
1952	 0.299799364429647 
1953	 0.300024675951559 
1954	 0.300241923574767 
1955	 0.300471210733319 
1956	 0.300721529934564 
1957	 0.30098524087897 
1958	 0.301260678742812 
1959	 0.30154778556474 
1960	 0.30185947752065 
1961	 0.302170446617897 
1962	 0.302501979196898 
1963	 0.302811948100005 
1964	 0.303114596183138 
1965	 0.303417008813829 
1966	 0.303724953389292 
1967	 0.304027885436124 
1968	 0.30433505596589 
1969	 0.304659472935223 
1970	 0.304967563977564 
1971	 0.305261080508325 
1972	 0.305566070286393 
1973	 0.305868121343222 
1974	 0.306179188479348 
1975	 0.306491363333291 
1976	 0.306817430237125 
1977	 0.307149265754535 
1978	 0.30747735684725 
1979	 0.30780713960947 
1980	 0.308142925816241 
1981	 0.308480475994321 
1982	 0.308816569261162 
1983	 0.309163876248029 
1984	 0.309529683207968 
1985	 0.309876687855402 
1986	 0.310233494841713 
1987	 0.310570612403942 
1988	 0.310894723639133 
1989	 0.311197254920388 
1990	 0.311496006766542 
1991	 0.311812162841764 
1992	 0.312141236515978 
1993	 0.312491524196634 
1994	 0.31282093312206 
1995	 0.313157486122076 
1996	 0.31348178438067 
1997	 0.313788812950708 
1998	 0.314101444587714 
1999	 0.314412133763975 
2000	 0.314727431848386 
2001	 0.31504874069997 
2002	 0.315345816229047 
2003	 0.315681901991606 
2004	 0.316036624809598 
2005	 0.31636286729628 
2006	 0.316695566648126 
2007	 0.317018448428959 
2008	 0.317317450761786 
2009	 0.317619526750444 
2010	 0.317931810420373 
2011	 0.318223507716863 
2012	 0.318491522723618 
2013	 0.318767037688862 
2014	 0.319037599903145 
2015	 0.319302456190213 
2016	 0.31957226439767 
2017	 0.319865932415167 
2018	 0.320171522506707 
2019	 0.320506339384537 
2020	 0.320818292344618 
2021	 0.321144123953788 
2022	 0.321447664523927 
2023	 0.321729788968448 
2024	 0.322013024407147 
2025	 0.322302963322042 
2026	 0.322568548779384 
2027	 0.322814299566147 
2028	 0.32305021985375 
2029	 0.323304639531768 
2030	 0.323546130962391 
2031	 0.32380851678977 
2032	 0.324100688410455 
2033	 0.324371425986918 
2034	 0.324633414219134 
2035	 0.324901021059397 
2036	 0.325184841917727 
2037	 0.32543880593821 
2038	 0.325686127340813 
2039	 0.325916747956536 
2040	 0.326124537029667 
2041	 0.326313629444324 
2042	 0.326496011593598 
2043	 0.326718778787776 
2044	 0.326930714161595 
2045	 0.327145739559055 
2046	 0.327366317976578 
2047	 0.327607981880234 
2048	 0.327816532745387 
2049	 0.328012154861987 
2050	 0.328212975678875 
2051	 0.328409417150335 
2052	 0.328585262748428 
2053	 0.32875303963556 
2054	 0.32892076570633 
2055	 0.329066793306097 
2056	 0.329208907735905 
2057	 0.329358913089743 
2058	 0.329517078784117 
2059	 0.329675043177579 
2060	 0.329822197811461 
2061	 0.32999176926948 
2062	 0.330175361475156 
2063	 0.330364672727187 
2064	 0.330588835703015 
2065	 0.330772571995334 
2066	 0.330936769174111 
2067	 0.331111255048013 
2068	 0.331291513743937 
2069	 0.331425952518295 
2070	 0.331574939405045 
2071	 0.331733401416816 
2072	 0.331884033213493 
2073	 0.332015254768917 
2074	 0.332160640769285 
2075	 0.332308443145795 
2076	 0.332471166520604 
2077	 0.332637955312466 
2078	 0.33280797165084 
2079	 0.333015703876611 
2080	 0.333187066758078 
2081	 0.3333396126926 
2082	 0.333487313780629 
2083	 0.333630886227663 
2084	 0.333745944271259 
2085	 0.333860448692761 
2086	 0.333961783880265 
2087	 0.334071704925176 
2088	 0.334164425509386 
2089	 0.334283215108781 
2090	 0.334416638129237 
2091	 0.334552410903634 
2092	 0.334693193154383 
2093	 0.334846606950727 
2094	 0.335021238436361 
2095	 0.335180292837726 
2096	 0.335352340633891 
2097	 0.335507126931444 
2098	 0.335638131067222 
2099	 0.335778154136762 
2100	 0.335910571018516 
2101	 0.336037537392535 
2102	 0.336161282407577 
2103	 0.336269359427474 
2104	 0.336406605038517 
2105	 0.336543381948897 
2106	 0.336702218320812 
2107	 0.336885087591299 
2108	 0.337074202899698 
2109	 0.337283729654331 
2110	 0.337487925639735 
2111	 0.337704913562916 
2112	 0.337916070591889 
2113	 0.338130991605746 
2114	 0.338337076720582 
2115	 0.338522237946489 
2116	 0.338699020933299 
2117	 0.338869531781704 
2118	 0.339010999988671 
2119	 0.339174825437121 
2120	 0.339344220850958 
2121	 0.339518198698151 
2122	 0.339697921712408 
2123	 0.339875555982445 
2124	 0.340076150904186 
2125	 0.340242736852464 
2126	 0.340406180351085 
2127	 0.340539983573944 
2128	 0.340634341294309 
2129	 0.34072954191025 
2130	 0.340800550878276 
2131	 0.340881179322312 
2132	 0.340943615913436 
2133	 0.341006345645332 
2134	 0.341039804840764 
2135	 0.341050460572291 
2136	 0.341058464673235 
2137	 0.341053040879761 
2138	 0.341032829242483 
2139	 0.340997888600435 
2140	 0.340960148330626 
2141	 0.340916582562517 
2142	 0.340851850990398 
2143	 0.340767281179525 
2144	 0.34068843787335 
2145	 0.340594383270219 
2146	 0.340495575304668 
2147	 0.340407152664433 
2148	 0.3403166393676 
2149	 0.340181294054408 
2150	 0.340012444609983 
2151	 0.339845739069681 
2152	 0.339637212957541 
2153	 0.339468783778856 
2154	 0.339329947296662 
2155	 0.339154349194858 
2156	 0.338989841344115 
2157	 0.338788295850447 
2158	 0.338554964658458 
2159	 0.338304021524425 
2160	 0.338004232613225 
2161	 0.337738881056819 
2162	 0.337466380784824 
2163	 0.337201813285478 
2164	 0.33696147375472 
2165	 0.336727734686967 
2166	 0.336473681684853 
2167	 0.336204320989339 
2168	 0.335945406214614 
2169	 0.335688185974674 
2170	 0.335423554278853 
2171	 0.335158393301266 
2172	 0.334886600572016 
2173	 0.334602998178892 
2174	 0.334325231546651 
2175	 0.33405615710796 
2176	 0.333770794158527 
2177	 0.333472670807923 
2178	 0.333179817211097 
2179	 0.33286767714134 
2180	 0.332576537427377 
2181	 0.332291525712514 
2182	 0.332022441089992 
2183	 0.331775599566388 
2184	 0.331527222347878 
2185	 0.331280313702372 
2186	 0.331045157104814 
2187	 0.330804179933417 
2188	 0.330571070995597 
2189	 0.330310550369824 
2190	 0.330036504946776 
2191	 0.329767276345657 
2192	 0.329464106696187 
2193	 0.329195273211465 
2194	 0.328931908897096 
2195	 0.328701825754916 
2196	 0.328500337635193 
2197	 0.32830452622602 
2198	 0.328110280158631 
2199	 0.327969227338459 
2200	 0.327874570391985 
2201	 0.327768493648917 
2202	 0.327709825842138 
2203	 0.327644835260439 
2204	 0.327558600675084 
2205	 0.32743507334471 
2206	 0.327358820774531 
2207	 0.327286733848691 
2208	 0.327246262147833 
2209	 0.327239338996072 
2210	 0.327225834726212 
2211	 0.327222018016659 
2212	 0.327235705430921 
2213	 0.327260805450925 
2214	 0.327292036695624 
2215	 0.327339626744729 
2216	 0.327400001885201 
2217	 0.327474553261298 
2218	 0.327541232547366 
2219	 0.327646412166393 
2220	 0.327705207223837 
2221	 0.327715889795295 
2222	 0.327759456486388 
2223	 0.327764267180133 
2224	 0.327748390731875 
2225	 0.327726248577312 
2226	 0.32769106495796 
2227	 0.327648414614508 
2228	 0.327579876916987 
2229	 0.327543755761635 
2230	 0.32752451000653 
2231	 0.327481686969712 
2232	 0.327453663980057 
2233	 0.327393224913773 
2234	 0.327274365578408 
2235	 0.327214688366707 
2236	 0.327167571957628 
2237	 0.327131706476416 
2238	 0.327144696497529 
2239	 0.327129334823588 
2240	 0.327100681184325 
2241	 0.327075256685924 
2242	 0.327047713724764 
2243	 0.327013352393797 
2244	 0.3269754289196 
2245	 0.326947748699332 
2246	 0.326883430054386 
2247	 0.326798574095342 
2248	 0.326737125235044 
2249	 0.326665853699928 
2250	 0.326607077608004 
2251	 0.326572558689261 
2252	 0.326524620373448 
2253	 0.326459638563207 
2254	 0.326418865975371 
2255	 0.326388677145068 
2256	 0.326362159343306 
2257	 0.326346377197035 
2258	 0.326333297266686 
2259	 0.32635213691968 
2260	 0.32632276990644 
2261	 0.326243541950399 
2262	 0.326220841496097 
2263	 0.326173845391996 
2264	 0.326171776453316 
2265	 0.326247200937634 
2266	 0.326306595375719 
2267	 0.326385917729129 
2268	 0.326449532601664 
2269	 0.326532886451522 
2270	 0.326568086412881 
2271	 0.326587840384185 
2272	 0.326616397296399 
2273	 0.326653492731805 
2274	 0.326712715427891 
2275	 0.326760970543654 
2276	 0.326831953017636 
2277	 0.326870417318351 
2278	 0.326882244498662 
2279	 0.326902866031377 
2280	 0.326913186343943 
2281	 0.326933494497463 
2282	 0.326951617250215 
2283	 0.326991251436508 
2284	 0.327047055182911 
2285	 0.327098072652247 
2286	 0.327159771104082 
2287	 0.327218669735468 
2288	 0.327295578406981 
2289	 0.327333387123114 
2290	 0.327352554308405 
2291	 0.327371277491803 
2292	 0.327317135390831 
2293	 0.327342618819637 
2294	 0.327444720283168 
2295	 0.32749790892827 
2296	 0.327545787695305 
2297	 0.32763770147795 
2298	 0.327672001223586 
2299	 0.32772966604274 
2300	 0.327830447969579 
2301	 0.327895437830402 
2302	 0.327965459903817 
2303	 0.328009788164504 
2304	 0.328071917983191 
2305	 0.328160876193371 
2306	 0.328201032258752 
2307	 0.328221680116509 
2308	 0.32824780116353 
2309	 0.328249715096614 
2310	 0.328263689103202 
2311	 0.328290813383905 
2312	 0.328295064312427 
2313	 0.328277278016218 
2314	 0.328255250515754 
2315	 0.328218464963431 
2316	 0.32821189233199 
2317	 0.328215989536172 
2318	 0.32820985921902 
2319	 0.328200883275181 
2320	 0.328221366198938 
2321	 0.32822988038015 
2322	 0.328275395434425 
2323	 0.328397724513722 
2324	 0.328468373615617 
2325	 0.328543171474242 
2326	 0.328600140701667 
2327	 0.328635835731093 
2328	 0.328626900764642 
2329	 0.328701641520358 
2330	 0.328745752968324 
2331	 0.328777326784995 
2332	 0.328811659550124 
2333	 0.328778041541873 
2334	 0.328737977932977 
2335	 0.328725301010446 
2336	 0.328777635882691 
2337	 0.328850339092478 
2338	 0.328897755137912 
2339	 0.328945813713965 
2340	 0.328935834435131 
2341	 0.328913001074764 
2342	 0.328867266555881 
2343	 0.32873636782187 
2344	 0.328655651616683 
2345	 0.328583981777852 
2346	 0.328501336414497 
2347	 0.328412645008238 
2348	 0.328343263386879 
2349	 0.328288312445216 
2350	 0.328249871032113 
2351	 0.328156596906671 
2352	 0.328070658872259 
2353	 0.327948883506883 
2354	 0.327712388930572 
2355	 0.327581708841768 
2356	 0.327541625947495 
2357	 0.32743158081712 
2358	 0.327303190536362 
2359	 0.327205787064598 
2360	 0.327102697999996 
2361	 0.326979374326971 
2362	 0.326901801809989 
2363	 0.326771770521358 
2364	 0.326528088404473 
2365	 0.32637314562948 
2366	 0.326305697604459 
2367	 0.326145944498385 
2368	 0.325956345363132 
2369	 0.32580432334046 
2370	 0.325636510583328 
2371	 0.325401904638105 
2372	 0.325280997609558 
2373	 0.325164592614919 
2374	 0.32497677199632 
2375	 0.324798482730919 
2376	 0.32461366639863 
2377	 0.324412243214438 
2378	 0.324233525339269 
2379	 0.324045715030923 
2380	 0.323776980467399 
2381	 0.323501460780851 
2382	 0.323247930040806 
2383	 0.322956511342165 
2384	 0.322701650951154 
2385	 0.322525463787943 
2386	 0.322321863208619 
2387	 0.322102945293913 
2388	 0.321962428721713 
2389	 0.321779561609881 
2390	 0.321536493971493 
2391	 0.321357950526558 
2392	 0.321150798570645 
2393	 0.3209344513844 
2394	 0.320734933138728 
2395	 0.32049584601884 
2396	 0.320229182941103 
2397	 0.319947963937926 
2398	 0.319658404010106 
2399	 0.319317714379898 
2400	 0.319045030538891 
2401	 0.318789144679143 
2402	 0.318532668412005 
2403	 0.318374939381775 
2404	 0.318200021835325 
2405	 0.318041693366328 
2406	 0.317846961907839 
2407	 0.31759119898376 
2408	 0.317352548517208 
2409	 0.317035500342453 
2410	 0.316717757933036 
2411	 0.316504364187922 
2412	 0.316310444128647 
2413	 0.316089859558037 
2414	 0.315873054998358 
2415	 0.315653530796445 
2416	 0.315407786710053 
2417	 0.315104109703038 
2418	 0.314856245387906 
2419	 0.314647468685492 
2420	 0.314357310708288 
2421	 0.313994931081972 
2422	 0.313714699342217 
2423	 0.313450012915242 
2424	 0.313191024066535 
2425	 0.31302562317783 
2426	 0.312757022116581 
2427	 0.312395770871387 
2428	 0.312102412762322 
2429	 0.311807729305696 
2430	 0.311502547437209 
2431	 0.311204570351639 
2432	 0.310916860686077 
2433	 0.310640017141048 
2434	 0.310373811067966 
2435	 0.31010758211093 
2436	 0.309881817251454 
2437	 0.309680213649429 
2438	 0.309410844707295 
2439	 0.309213304617373 
2440	 0.308909105838768 
2441	 0.308437923346582 
2442	 0.308072521396941 
2443	 0.307680535698505 
2444	 0.307400977229212 
2445	 0.307273689971431 
2446	 0.30704421262421 
2447	 0.30682352032158 
2448	 0.306526813321745 
2449	 0.306149860321919 
2450	 0.305761239251989 
2451	 0.30531410284957 
2452	 0.305000063588352 
2453	 0.304677312377838 
2454	 0.304405978913835 
2455	 0.304332971151621 
2456	 0.304110733486694 
2457	 0.303781662906585 
2458	 0.303535845632149 
2459	 0.303286871356619 
2460	 0.30298724474947 
2461	 0.302740709879337 
2462	 0.302412212894629 
2463	 0.301915000633163 
2464	 0.301606973395795 
2465	 0.301418600144367 
2466	 0.301118082011212 
2467	 0.300814674187701 
2468	 0.300576174839345 
2469	 0.300268884163111 
2470	 0.300217715345707 
2471	 0.300243790157506 
2472	 0.300186118046971 
2473	 0.299977661598916 
2474	 0.299705134769962 
2475	 0.299312079713916 
2476	 0.299020697179988 
2477	 0.298808392999772 
2478	 0.298382912649734 
2479	 0.298204639651308 
2480	 0.29805468489815 
2481	 0.297501966161127 
2482	 0.297176972701981 
2483	 0.296912477951584 
2484	 0.296547957699471 
2485	 0.296347151886944 
2486	 0.29597691415792 
2487	 0.295808035783611 
2488	 0.295627476890247 
2489	 0.29530804864262 
2490	 0.295386806196421 
2491	 0.295119402523894 
2492	 0.294890174091291 
2493	 0.294850536375848 
2494	 0.294432621804443 
2495	 0.294332367979839 
2496	 0.294271674823689 
2497	 0.293963805306108 
2498	 0.293922841483946 
2499	 0.293832515062508 
2500	 0.293468799419069 
