Wavelength	MM300003.asd
350	 7.56088643749945E-02 
351	 6.86130856566139E-02 
352	 5.79690857266213E-02 
353	 0.05165558375613 
354	 5.45796360051088E-02 
355	 5.94737129150527E-02 
356	 6.05882964093829E-02 
357	 5.65755750269653E-02 
358	 5.90618487144659E-02 
359	 5.86903676345651E-02 
360	 5.63950010775417E-02 
361	 5.90446816236486E-02 
362	 5.79910879157885E-02 
363	 0.056883719973747 
364	 5.75167804835018E-02 
365	 0.056510285935912 
366	 5.62020583260974E-02 
367	 5.62854849451416E-02 
368	 5.63534064902982E-02 
369	 0.058683046705133 
370	 6.01080402226796E-02 
371	 6.03861062330628E-02 
372	 6.11423175895677E-02 
373	 5.92953232751328E-02 
374	 5.84595747820629E-02 
375	 5.95476864017319E-02 
376	 0.05732936780047 
377	 5.60929178932456E-02 
378	 5.78410436141162E-02 
379	 6.21714498676718E-02 
380	 6.24984738700144E-02 
381	 6.12452043483362E-02 
382	 6.06077089277856E-02 
383	 6.20363852287182E-02 
384	 6.31758980918588E-02 
385	 6.32409810179185E-02 
386	 6.27308617353638E-02 
387	 0.064150248757597 
388	 0.064382949025134 
389	 6.41479696127487E-02 
390	 6.47304718992426E-02 
391	 6.35945838319261E-02 
392	 6.41960135335413E-02 
393	 0.066316725778339 
394	 0.066701494726502 
395	 6.81569700477718E-02 
396	 6.87750775770423E-02 
397	 6.78029611699586E-02 
398	 6.85083084807118E-02 
399	 6.92118930343531E-02 
400	 6.95398789069738E-02 
401	 6.96587357228118E-02 
402	 7.01588400377152E-02 
403	 7.01923497085923E-02 
404	 6.99153658469296E-02 
405	 7.05087164440402E-02 
406	 7.07208400151016E-02 
407	 7.14572066665809E-02 
408	 7.29909146089766E-02 
409	 0.073006428472341 
410	 7.22892463201077E-02 
411	 7.18255798860079E-02 
412	 7.24333333163804E-02 
413	 7.30397145220567E-02 
414	 7.35335059507551E-02 
415	 7.39135444993633E-02 
416	 7.41918467125199E-02 
417	 7.42653081864047E-02 
418	 7.42728886941113E-02 
419	 7.43465338724438E-02 
420	 7.43915639800998E-02 
421	 7.43489742268532E-02 
422	 7.45157489290626E-02 
423	 0.075267008393515 
424	 7.52642249426576E-02 
425	 7.49046004670969E-02 
426	 7.46506363577583E-02 
427	 7.46522449798501E-02 
428	 7.46596416157198E-02 
429	 7.47421905732329E-02 
430	 0.074941412057106 
431	 0.074629004796317 
432	 0.074366519996057 
433	 0.074314879778594 
434	 7.42011839427413E-02 
435	 7.39584461421252E-02 
436	 7.39863414560935E-02 
437	 0.074349696016689 
438	 7.39229927445785E-02 
439	 7.40898837179894E-02 
440	 7.46781498450428E-02 
441	 7.48079540621521E-02 
442	 7.47689762907303E-02 
443	 7.47521801804658E-02 
444	 7.49006778761021E-02 
445	 0.075314761522714 
446	 7.55448407413348E-02 
447	 7.57410492394432E-02 
448	 7.61116527637385E-02 
449	 7.62934338295898E-02 
450	 7.65244835285086E-02 
451	 7.68318240172456E-02 
452	 7.70519544188327E-02 
453	 7.71921651332464E-02 
454	 7.72266624420618E-02 
455	 7.72291501120783E-02 
456	 7.75527527656709E-02 
457	 7.76981766279811E-02 
458	 7.76476878865354E-02 
459	 7.76310841184485E-02 
460	 7.79035587307333E-02 
461	 7.80806422737295E-02 
462	 7.80895957216135E-02 
463	 0.078374404310944 
464	 7.85376381996322E-02 
465	 7.86114770351019E-02 
466	 7.87179944419691E-02 
467	 7.88528701329396E-02 
468	 7.88465506804768E-02 
469	 0.078771373596654 
470	 7.88829190159595E-02 
471	 7.90787885330841E-02 
472	 0.079155747793304 
473	 7.90746683938219E-02 
474	 7.92199495050324E-02 
475	 7.93644604637592E-02 
476	 7.93500239245785E-02 
477	 7.91239251187818E-02 
478	 7.91315425139219E-02 
479	 7.93802553671989E-02 
480	 7.96633012464036E-02 
481	 7.95409007828848E-02 
482	 7.95940344701237E-02 
483	 7.97581451350043E-02 
484	 7.98309272016191E-02 
485	 7.98363664175299E-02 
486	 7.98260970847646E-02 
487	 0.079802501585108 
488	 7.97359808963591E-02 
489	 7.98052169340786E-02 
490	 7.99107506798322E-02 
491	 7.99604374233123E-02 
492	 8.00029097357165E-02 
493	 8.00503055138884E-02 
494	 8.01310745512924E-02 
495	 8.02594954224762E-02 
496	 8.03111475016762E-02 
497	 8.02831517205617E-02 
498	 8.02416642774908E-02 
499	 8.03373027830967E-02 
500	 8.03696347828099E-02 
501	 8.03330883180768E-02 
502	 0.080310080205497 
503	 8.05078934178532E-02 
504	 8.05710326350484E-02 
505	 8.04871405381871E-02 
506	 8.05600454105646E-02 
507	 0.080632268232738 
508	 8.07484236061519E-02 
509	 8.09061329953457E-02 
510	 8.08759699694181E-02 
511	 8.08614774203504E-02 
512	 8.08735218461351E-02 
513	 8.08364346263977E-02 
514	 8.08767132153486E-02 
515	 8.09840779240813E-02 
516	 8.11118427717702E-02 
517	 8.11831382281474E-02 
518	 8.12211201789145E-02 
519	 0.081221280236078 
520	 8.12025087727572E-02 
521	 8.13412712432316E-02 
522	 8.14174792164956E-02 
523	 8.13977938959266E-02 
524	 8.14624902993048E-02 
525	 8.14761499215365E-02 
526	 8.14672737071249E-02 
527	 8.14994474256899E-02 
528	 8.16453533970991E-02 
529	 8.17210056114701E-02 
530	 0.081746419823438 
531	 8.18613537710331E-02 
532	 8.18849792177932E-02 
533	 8.19750571512353E-02 
534	 8.21696437213608E-02 
535	 8.21492051150909E-02 
536	 8.21737756358979E-02 
537	 8.22822690359916E-02 
538	 8.24154244511249E-02 
539	 8.24747993947436E-02 
540	 8.25225896522969E-02 
541	 8.25967164330806E-02 
542	 8.26856307962234E-02 
543	 8.27207450904517E-02 
544	 8.28227106293764E-02 
545	 8.30604100579662E-02 
546	 8.30831105915344E-02 
547	 8.31066627917256E-02 
548	 8.32301805094978E-02 
549	 8.34298822513498E-02 
550	 8.35314028692469E-02 
551	 0.083639936153279 
552	 8.38356279256633E-02 
553	 8.39950203402407E-02 
554	 8.41363300618751E-02 
555	 8.42697727590359E-02 
556	 8.44091949852381E-02 
557	 8.46076734387955E-02 
558	 8.48305148114284E-02 
559	 8.50541836128342E-02 
560	 8.52960951361191E-02 
561	 8.55046144951755E-02 
562	 8.57449224233297E-02 
563	 8.60834268938122E-02 
564	 0.08636331657537 
565	 8.66245115301367E-02 
566	 8.68999679487411E-02 
567	 0.087201562171503 
568	 8.76184289942179E-02 
569	 0.088022702280773 
570	 8.83264821184356E-02 
571	 8.87641375765073E-02 
572	 8.91771703236425E-02 
573	 8.95753038946954E-02 
574	 9.00728530887374E-02 
575	 9.04674696072972E-02 
576	 9.08898522610174E-02 
577	 9.13988335592976E-02 
578	 9.17606334214283E-02 
579	 9.22532076137676E-02 
580	 9.28694432728657E-02 
581	 9.34869594187453E-02 
582	 9.41202643355402E-02 
583	 9.47544068260319E-02 
584	 9.53831452766722E-02 
585	 9.60157431605295E-02 
586	 9.66386533187927E-02 
587	 9.72376291072531E-02 
588	 9.78161074163242E-02 
589	 9.84544626428397E-02 
590	 9.90777532202666E-02 
591	 0.099687442084181 
592	 0.100356048330369 
593	 0.100995750162675 
594	 0.101649822475021 
595	 0.102350301805287 
596	 0.103040189427369 
597	 0.10369010930266 
598	 0.104339166389684 
599	 0.105054019960014 
600	 0.105751395967902 
601	 0.106402279205566 
602	 0.107001151025213 
603	 0.107567281183611 
604	 0.1081835359225 
605	 0.108798499160812 
606	 0.109333095406862 
607	 0.10985282962186 
608	 0.110380729310094 
609	 0.110908696396282 
610	 0.111398085303428 
611	 0.111891081139564 
612	 0.112391402383652 
613	 0.112880478310658 
614	 0.113310146402635 
615	 0.113684178307575 
616	 0.114043822119293 
617	 0.114445762293498 
618	 0.11481462951063 
619	 0.115120879118022 
620	 0.115383865055971 
621	 0.115711754534858 
622	 0.116016538725871 
623	 0.116296748452746 
624	 0.116581052359913 
625	 0.116858242471468 
626	 0.117131167577283 
627	 0.117385594933407 
628	 0.117582522264039 
629	 0.117852988067753 
630	 0.118143752639774 
631	 0.118367671861117 
632	 0.118513907963151 
633	 0.118688466071648 
634	 0.118917220251444 
635	 0.11915490695617 
636	 0.119374793636919 
637	 0.119581800633773 
638	 0.119782348400363 
639	 0.119965760787469 
640	 0.120168385929742 
641	 0.120396556832347 
642	 0.120634339594376 
643	 0.120824699505178 
644	 0.121029861725557 
645	 0.121268539398501 
646	 0.121479372302135 
647	 0.121700089344511 
648	 0.121907462862123 
649	 0.122086456243922 
650	 0.122327092393574 
651	 0.122580481269524 
652	 0.122800041218508 
653	 0.122956065943891 
654	 0.123206647993809 
655	 0.123475401003045 
656	 0.123694586961791 
657	 0.123927151276434 
658	 0.124179440371969 
659	 0.124449413559621 
660	 0.124723452494217 
661	 0.124955029126059 
662	 0.125219645283529 
663	 0.125540610805096 
664	 0.125851317798708 
665	 0.126117440301085 
666	 0.126376294861362 
667	 0.126670339542923 
668	 0.126957320419115 
669	 0.127244110237092 
670	 0.12754674021575 
671	 0.127884727215898 
672	 0.128237925708343 
673	 0.128589322186925 
674	 0.128930908229763 
675	 0.129271454382578 
676	 0.12961857361766 
677	 0.129973432233026 
678	 0.130329639541378 
679	 0.13065111026869 
680	 0.131013852923395 
681	 0.131432448450967 
682	 0.131831147603048 
683	 0.132199025334454 
684	 0.13257445655397 
685	 0.132992415659297 
686	 0.133417543734401 
687	 0.133871312761951 
688	 0.134328807316868 
689	 0.134736512987951 
690	 0.135108874369242 
691	 0.135521779819032 
692	 0.136001740619976 
693	 0.136466358409178 
694	 0.136901417607386 
695	 0.137327212808996 
696	 0.137776874868969 
697	 0.138255144544187 
698	 0.138737394141816 
699	 0.13920177575382 
700	 0.139634002625981 
701	 0.140126106315327 
702	 0.140619687864669 
703	 0.141070984222443 
704	 0.141580473176102 
705	 0.142044863945006 
706	 0.142494909060167 
707	 0.143013882917669 
708	 0.143499627823571 
709	 0.143961531497372 
710	 0.144422598610271 
711	 0.14491023481047 
712	 0.145367239489871 
713	 0.145821771573042 
714	 0.146307068836744 
715	 0.146780434105951 
716	 0.147219501135015 
717	 0.147636306569676 
718	 0.148064286620403 
719	 0.148479599223775 
720	 0.148890435196626 
721	 0.149307829023435 
722	 0.149742839544135 
723	 0.15017672393594 
724	 0.150561426860076 
725	 0.150869783706827 
726	 0.151219510332358 
727	 0.151563574784734 
728	 0.151871298486021 
729	 0.152140265145998 
730	 0.152482574452573 
731	 0.152800144610723 
732	 0.153033671711948 
733	 0.153314786745898 
734	 0.153542363353771 
735	 0.153726634582938 
736	 0.153912187696081 
737	 0.15404760299705 
738	 0.15421383233254 
739	 0.154396525070716 
740	 0.154473494567302 
741	 0.154573027044 
742	 0.15467464747862 
743	 0.15473256642524 
744	 0.154713357825888 
745	 0.154722155745404 
746	 0.154751301409401 
747	 0.154742957167994 
748	 0.154721814366536 
749	 0.154674304851406 
750	 0.15460076142457 
751	 0.154521026923844 
752	 0.154425751611328 
753	 0.154298598700553 
754	 0.154142083687227 
755	 0.154020878946318 
756	 0.153864363379264 
757	 0.153671155513211 
758	 0.153476574661108 
759	 0.153295431040735 
760	 0.153080861143559 
761	 0.152842841223679 
762	 0.152666515071902 
763	 0.152414933704582 
764	 0.152128796492227 
765	 0.151868631248692 
766	 0.151623523179752 
767	 0.151371307343294 
768	 0.151085103570187 
769	 0.150753751434026 
770	 0.150479661692497 
771	 0.150212295061304 
772	 0.149913648222462 
773	 0.149580296364661 
774	 0.149291905485497 
775	 0.149001216293585 
776	 0.14867007782516 
777	 0.148369856084697 
778	 0.148049296136306 
779	 0.147723081104581 
780	 0.147423004918137 
781	 0.147085652678075 
782	 0.146770232698838 
783	 0.146482389830919 
784	 0.146164954100203 
785	 0.145849658150884 
786	 0.145514946619152 
787	 0.145159477018366 
788	 0.144852077950525 
789	 0.144555036139308 
790	 0.144235489359203 
791	 0.143884670396382 
792	 0.143611297493992 
793	 0.143327499656154 
794	 0.143009123108492 
795	 0.142697839639477 
796	 0.142412155014619 
797	 0.142114841914624 
798	 0.141802177558503 
799	 0.141547992630199 
800	 0.141300585914754 
801	 0.141026401867662 
802	 0.140717600270805 
803	 0.14043678852041 
804	 0.140172591860338 
805	 0.139920533850067 
806	 0.139677581579915 
807	 0.139415489884256 
808	 0.139141008297751 
809	 0.138885411538044 
810	 0.138701118187841 
811	 0.138482558316256 
812	 0.13822635668221 
813	 0.137964133740562 
814	 0.137750087284933 
815	 0.137550463265052 
816	 0.137345808725895 
817	 0.137130017912974 
818	 0.136936504202934 
819	 0.136745017060528 
820	 0.136537917779171 
821	 0.136309376854777 
822	 0.136125919816601 
823	 0.135955588238163 
824	 0.135771474958368 
825	 0.135579600698204 
826	 0.135472233408369 
827	 0.135371749985867 
828	 0.135197994213602 
829	 0.135021032764514 
830	 0.134837154133772 
831	 0.134685352651565 
832	 0.134600023149011 
833	 0.134478655891927 
834	 0.134315846860455 
835	 0.134147977637821 
836	 0.134036293075685 
837	 0.133925173634688 
838	 0.133828493625927 
839	 0.133748429256202 
840	 0.133649309341191 
841	 0.133565129057801 
842	 0.133480955289071 
843	 0.133385363229002 
844	 0.133323888897733 
845	 0.133242174930105 
846	 0.133157034819668 
847	 0.133103781817172 
848	 0.133013617022547 
849	 0.132941764777655 
850	 0.132915110039797 
851	 0.132922241847688 
852	 0.132902208073602 
853	 0.132848621859251 
854	 0.132780473778766 
855	 0.132737734491958 
856	 0.132735581362767 
857	 0.132729379251304 
858	 0.132688952649097 
859	 0.132654288410456 
860	 0.132667983077405 
861	 0.13270436244802 
862	 0.132724754337293 
863	 0.132768198958749 
864	 0.132771700917393 
865	 0.132745514560672 
866	 0.132740836298041 
867	 0.132727512164192 
868	 0.132752992449328 
869	 0.132815835746822 
870	 0.132863013755824 
871	 0.132932700633911 
872	 0.132980505893201 
873	 0.133002379611884 
874	 0.133076198378862 
875	 0.133145794869592 
876	 0.133208381633196 
877	 0.13327132988937 
878	 0.133328814704181 
879	 0.133438073470906 
880	 0.133535357135942 
881	 0.133566863401747 
882	 0.133707428429359 
883	 0.133822494274439 
884	 0.133908343219639 
885	 0.134032016395967 
886	 0.134182671890676 
887	 0.134311182710978 
888	 0.134408513018767 
889	 0.134506043754771 
890	 0.134637560442306 
891	 0.134773651686485 
892	 0.134912078050238 
893	 0.135090177262229 
894	 0.135218104118006 
895	 0.135340782315193 
896	 0.135504474314855 
897	 0.13570767025606 
898	 0.135888627293761 
899	 0.136038938487648 
900	 0.13618603569642 
901	 0.136408801824923 
902	 0.136595064790102 
903	 0.136768584669878 
904	 0.13697412448106 
905	 0.137137700279544 
906	 0.137359759164712 
907	 0.137620870241056 
908	 0.137859985157082 
909	 0.138143955636119 
910	 0.138374748809533 
911	 0.138589353146313 
912	 0.138885199560742 
913	 0.139090777763524 
914	 0.13928172671106 
915	 0.139515521946542 
916	 0.139799692532561 
917	 0.140024100322391 
918	 0.140312148578859 
919	 0.140666146048716 
920	 0.140930297084983 
921	 0.14124076195036 
922	 0.141566297775508 
923	 0.141870061901035 
924	 0.142153117504253 
925	 0.142496858937263 
926	 0.142857481849463 
927	 0.143187233894664 
928	 0.143485021200729 
929	 0.143779605416725 
930	 0.144113378142648 
931	 0.144492149723977 
932	 0.144834123426096 
933	 0.145272196940129 
934	 0.145701113752854 
935	 0.146022210692213 
936	 0.146357617360985 
937	 0.146720037824167 
938	 0.14713190548307 
939	 0.147590523207798 
940	 0.148028217889272 
941	 0.148409637698699 
942	 0.148790748415864 
943	 0.149230730715879 
944	 0.149640803280079 
945	 0.150069057320766 
946	 0.150502700265865 
947	 0.150919909434372 
948	 0.151389431572749 
949	 0.15188925939153 
950	 0.152389090068447 
951	 0.152865598940125 
952	 0.153334368806864 
953	 0.153828088345796 
954	 0.154316203190161 
955	 0.154770910901677 
956	 0.155388398400263 
957	 0.155893858495482 
958	 0.156288752968104 
959	 0.156748632991044 
960	 0.15726621666407 
961	 0.157858481542582 
962	 0.158457402169591 
963	 0.158979349404134 
964	 0.159578994928389 
965	 0.160150845851312 
966	 0.160729982567095 
967	 0.161408779351833 
968	 0.161957705790021 
969	 0.162502905848057 
970	 0.163084318239214 
971	 0.163653919520732 
972	 0.164133616052107 
973	 0.164733657432975 
974	 0.165433399671274 
975	 0.16607213277801 
976	 0.166758696377431 
977	 0.1673889854991 
978	 0.167947600607469 
979	 0.168500669341008 
980	 0.169138398617287 
981	 0.169854454812607 
982	 0.170546405797162 
983	 0.171117762394029 
984	 0.171777948305111 
985	 0.172470926094915 
986	 0.173127922825292 
987	 0.173727482145123 
988	 0.17446322354856 
989	 0.175143432080661 
990	 0.175769014916502 
991	 0.176444860303141 
992	 0.177220555782738 
993	 0.177725114434327 
994	 0.178240138770587 
995	 0.179116542879603 
996	 0.17968419285899 
997	 0.180420400492886 
998	 0.181229879169511 
999	 0.181885093075318 
1000	 0.182572104739164 
1001	 0.184802360586999 
1002	 0.185493585294366 
1003	 0.186159426647317 
1004	 0.186798877606062 
1005	 0.187447775557365 
1006	 0.188097355378056 
1007	 0.188712085161869 
1008	 0.189316461660725 
1009	 0.189963367114818 
1010	 0.190664427070313 
1011	 0.191321858141441 
1012	 0.191941020788679 
1013	 0.192594540254955 
1014	 0.193264513990603 
1015	 0.193899695167772 
1016	 0.194490465763651 
1017	 0.195102900599612 
1018	 0.19571778254373 
1019	 0.196326016264742 
1020	 0.196901982628145 
1021	 0.197511043549363 
1022	 0.198166504821837 
1023	 0.19874513527215 
1024	 0.199281966231577 
1025	 0.199882839940556 
1026	 0.200490578407883 
1027	 0.201070951232484 
1028	 0.20160238542464 
1029	 0.202126084801076 
1030	 0.202643012175025 
1031	 0.203153880493695 
1032	 0.203627323452901 
1033	 0.204182907226822 
1034	 0.204739138777973 
1035	 0.20525073060753 
1036	 0.205762604955988 
1037	 0.206261145385988 
1038	 0.206796416543002 
1039	 0.20738307610165 
1040	 0.207932991691028 
1041	 0.208443794350803 
1042	 0.208971553347986 
1043	 0.209449551147324 
1044	 0.209952116669197 
1045	 0.210452459234495 
1046	 0.21103941948984 
1047	 0.211566624042551 
1048	 0.212062361523142 
1049	 0.212588557847983 
1050	 0.213106178554304 
1051	 0.213621824926768 
1052	 0.214148467201903 
1053	 0.214666773923885 
1054	 0.2151286061659 
1055	 0.215608486099112 
1056	 0.216132830503703 
1057	 0.216639575402297 
1058	 0.217149761457185 
1059	 0.2176722392837 
1060	 0.218204453491274 
1061	 0.218704767823112 
1062	 0.219231611319188 
1063	 0.219723795898881 
1064	 0.22020407638972 
1065	 0.220676206518027 
1066	 0.221160881723949 
1067	 0.221666351574936 
1068	 0.222141199572315 
1069	 0.22266174753968 
1070	 0.223179631150317 
1071	 0.223693943260461 
1072	 0.224202297281286 
1073	 0.224755070602993 
1074	 0.225231339652352 
1075	 0.225660493512334 
1076	 0.226065998490088 
1077	 0.226485618225302 
1078	 0.226931050097255 
1079	 0.227388453647327 
1080	 0.22787299843265 
1081	 0.228353266751714 
1082	 0.228809142455452 
1083	 0.229291884960455 
1084	 0.229805273695466 
1085	 0.230290670658871 
1086	 0.230766962078553 
1087	 0.231248677049025 
1088	 0.231725826876396 
1089	 0.23218577404758 
1090	 0.232654587398597 
1091	 0.233119617719595 
1092	 0.233569747481311 
1093	 0.234049873395503 
1094	 0.234542563054419 
1095	 0.235036995939385 
1096	 0.235543033528783 
1097	 0.236035808922 
1098	 0.236536732087177 
1099	 0.237034518364767 
1100	 0.237549136678337 
1101	 0.238077370926432 
1102	 0.238599976670071 
1103	 0.239125959778618 
1104	 0.239663347922647 
1105	 0.240185753689251 
1106	 0.240733933870034 
1107	 0.241277634591056 
1108	 0.241821225274407 
1109	 0.242393140874843 
1110	 0.242942202618973 
1111	 0.243510011181573 
1112	 0.244109164636226 
1113	 0.244674468609761 
1114	 0.245200032282811 
1115	 0.245784154797112 
1116	 0.2463923044236 
1117	 0.246989160226935 
1118	 0.247610449794026 
1119	 0.248241284335164 
1120	 0.248842348764623 
1121	 0.249405537191986 
1122	 0.249981457940129 
1123	 0.250559322945286 
1124	 0.251150942538234 
1125	 0.251748395313792 
1126	 0.252345891071153 
1127	 0.252961711124997 
1128	 0.253564613423775 
1129	 0.254148560446597 
1130	 0.254739872547376 
1131	 0.255329478683477 
1132	 0.255927251759779 
1133	 0.256549208200968 
1134	 0.25714869970543 
1135	 0.257746043896085 
1136	 0.258328200245361 
1137	 0.258904312874581 
1138	 0.259447784666563 
1139	 0.260018219774188 
1140	 0.260594949051553 
1141	 0.261176774737986 
1142	 0.261787528753804 
1143	 0.262352856083582 
1144	 0.262899764666008 
1145	 0.263443837203198 
1146	 0.263951578997827 
1147	 0.264479028065865 
1148	 0.265030598203406 
1149	 0.26556091631951 
1150	 0.266079825224973 
1151	 0.266595317738014 
1152	 0.267107657006815 
1153	 0.26761540013014 
1154	 0.26816295831318 
1155	 0.268756344133362 
1156	 0.269297028322943 
1157	 0.269839830370963 
1158	 0.270373047153329 
1159	 0.270870809299529 
1160	 0.271386242625729 
1161	 0.271914171155906 
1162	 0.272438585366505 
1163	 0.272966667492281 
1164	 0.273481758724137 
1165	 0.273983117657402 
1166	 0.274510757488168 
1167	 0.275027926066705 
1168	 0.275494059506044 
1169	 0.275977883506067 
1170	 0.276455265483164 
1171	 0.276937537575411 
1172	 0.277425644161693 
1173	 0.277898548026134 
1174	 0.278364509816451 
1175	 0.278836886413144 
1176	 0.279302116333544 
1177	 0.279764393107209 
1178	 0.280236660255328 
1179	 0.280699823036064 
1180	 0.281147510679239 
1181	 0.281599526458237 
1182	 0.282058053591847 
1183	 0.282519145671532 
1184	 0.282946797309132 
1185	 0.283352455162954 
1186	 0.283778309607852 
1187	 0.284190218534585 
1188	 0.284608632934131 
1189	 0.285058971242348 
1190	 0.285466668910621 
1191	 0.285846089702529 
1192	 0.286229870277536 
1193	 0.286597188776203 
1194	 0.286969956937524 
1195	 0.287347502158738 
1196	 0.287714177974483 
1197	 0.288068779204678 
1198	 0.288430503624405 
1199	 0.288792063428301 
1200	 0.289149862808246 
1201	 0.289508957262943 
1202	 0.289881962160795 
1203	 0.290226368371388 
1204	 0.290554701286037 
1205	 0.290886275561338 
1206	 0.291211250533581 
1207	 0.291526002450386 
1208	 0.291837869310715 
1209	 0.2921432394902 
1210	 0.292431362053414 
1211	 0.292723891980879 
1212	 0.293021602498496 
1213	 0.293310132449631 
1214	 0.293587391148817 
1215	 0.29386931335589 
1216	 0.294150707965872 
1217	 0.294429949581332 
1218	 0.294708018245558 
1219	 0.294999981907863 
1220	 0.295257841897055 
1221	 0.295496050146754 
1222	 0.295739100613245 
1223	 0.295957334676798 
1224	 0.296195725373669 
1225	 0.296451364625147 
1226	 0.296694136407152 
1227	 0.296937873677396 
1228	 0.297175812315514 
1229	 0.297414549071072 
1230	 0.297638743724823 
1231	 0.297849417119516 
1232	 0.298062590658468 
1233	 0.298271133563803 
1234	 0.298465501164233 
1235	 0.298671762059766 
1236	 0.298889157187647 
1237	 0.299090260854141 
1238	 0.299297808744829 
1239	 0.29947668042203 
1240	 0.299622404957811 
1241	 0.299794393884464 
1242	 0.29995861323995 
1243	 0.300129584472721 
1244	 0.300323991560039 
1245	 0.300504234504931 
1246	 0.300674599972543 
1247	 0.300846878386244 
1248	 0.301028853185545 
1249	 0.301195155390938 
1250	 0.30134885353282 
1251	 0.301483261926295 
1252	 0.301628334904221 
1253	 0.301764864998495 
1254	 0.301898343731917 
1255	 0.302040877609395 
1256	 0.302165945044303 
1257	 0.302271992157872 
1258	 0.302382162361069 
1259	 0.302478034636601 
1260	 0.302595215708535 
1261	 0.302731117646112 
1262	 0.302845323171489 
1263	 0.302966401372408 
1264	 0.303078683468489 
1265	 0.30315776932537 
1266	 0.303255514138997 
1267	 0.303372324770626 
1268	 0.303480340170321 
1269	 0.303575015739913 
1270	 0.303663557226237 
1271	 0.303755889309118 
1272	 0.303828770585015 
1273	 0.303926859756216 
1274	 0.304038168321297 
1275	 0.304155921502701 
1276	 0.304284450526385 
1277	 0.304414173906475 
1278	 0.304560813457982 
1279	 0.304690439432098 
1280	 0.304824528820615 
1281	 0.304941317840658 
1282	 0.30504104889777 
1283	 0.305138406761046 
1284	 0.305226376372792 
1285	 0.305301558289943 
1286	 0.30538715416596 
1287	 0.305498168579485 
1288	 0.305596624408006 
1289	 0.305712455344948 
1290	 0.305794154149435 
1291	 0.305856699951422 
1292	 0.305921093455189 
1293	 0.305969074424408 
1294	 0.30602489647697 
1295	 0.306084833192503 
1296	 0.306138173342721 
1297	 0.306199284944734 
1298	 0.306231057668173 
1299	 0.306238383320766 
1300	 0.306257710676522 
1301	 0.306268564195907 
1302	 0.306271353469252 
1303	 0.306282947349074 
1304	 0.306281652669969 
1305	 0.306258994509963 
1306	 0.30622801908744 
1307	 0.306209595458945 
1308	 0.306203360704334 
1309	 0.306194206165683 
1310	 0.306197371278835 
1311	 0.306178331181539 
1312	 0.306150621417385 
1313	 0.306120323733147 
1314	 0.306068503182802 
1315	 0.306039899012359 
1316	 0.306028099316008 
1317	 0.306003538165943 
1318	 0.305967693630426 
1319	 0.305955368523324 
1320	 0.305951556458462 
1321	 0.305944337244686 
1322	 0.305953214751059 
1323	 0.305963600268428 
1324	 0.305950424307535 
1325	 0.305936047205026 
1326	 0.305934896343753 
1327	 0.305924561622841 
1328	 0.305923087756667 
1329	 0.305937506239461 
1330	 0.305952939201042 
1331	 0.305973742778242 
1332	 0.306002155815498 
1333	 0.306041252566268 
1334	 0.30607316516396 
1335	 0.306110310601349 
1336	 0.306144031556212 
1337	 0.306176785231397 
1338	 0.306201354106099 
1339	 0.306211323608509 
1340	 0.306237926865889 
1341	 0.306268540874465 
1342	 0.306303552568916 
1343	 0.306351181782931 
1344	 0.3063968163233 
1345	 0.306446566233784 
1346	 0.306489401632994 
1347	 0.306539581375556 
1348	 0.306615924723905 
1349	 0.306676902381493 
1350	 0.306727479340624 
1351	 0.306794112070285 
1352	 0.306869198224953 
1353	 0.30692499009652 
1354	 0.306995706927185 
1355	 0.30703616473661 
1356	 0.307042601316863 
1357	 0.307064055428981 
1358	 0.307077961185243 
1359	 0.307098158689267 
1360	 0.307122910474065 
1361	 0.307142528982231 
1362	 0.307176011395642 
1363	 0.307180357640942 
1364	 0.307174326437591 
1365	 0.307154733260838 
1366	 0.307121135641666 
1367	 0.30706754217972 
1368	 0.306994090359409 
1369	 0.306918357824704 
1370	 0.306823862235285 
1371	 0.306707212723457 
1372	 0.306587721834018 
1373	 0.306452669349915 
1374	 0.306292714132308 
1375	 0.306117902092331 
1376	 0.305908687241652 
1377	 0.305689395899472 
1378	 0.305408619227355 
1379	 0.305093562163487 
1380	 0.304729163304017 
1381	 0.304316355836266 
1382	 0.303853685489761 
1383	 0.303346160282838 
1384	 0.302796237739492 
1385	 0.30220755078099 
1386	 0.301567249959362 
1387	 0.300893555265668 
1388	 0.300157024257286 
1389	 0.29936889183381 
1390	 0.298520729524764 
1391	 0.297608660189356 
1392	 0.296641342156628 
1393	 0.29561913767346 
1394	 0.294557408930116 
1395	 0.293454584305813 
1396	 0.292336807441665 
1397	 0.29120701316936 
1398	 0.290046377840436 
1399	 0.288891604908149 
1400	 0.287712175491035 
1401	 0.286570936009749 
1402	 0.285426175551117 
1403	 0.284322696054231 
1404	 0.283243717471765 
1405	 0.282203576654482 
1406	 0.281192445019496 
1407	 0.280203922331737 
1408	 0.279222838222619 
1409	 0.278315727476895 
1410	 0.27741439186855 
1411	 0.27662401858667 
1412	 0.275911688219095 
1413	 0.275281791496783 
1414	 0.274742422894165 
1415	 0.274260606895043 
1416	 0.273846599395155 
1417	 0.273488564347842 
1418	 0.273163308596748 
1419	 0.272874873924281 
1420	 0.272611927615384 
1421	 0.272360812369995 
1422	 0.2721247680939 
1423	 0.271908034794218 
1424	 0.271689353747863 
1425	 0.2714761511323 
1426	 0.271282109131142 
1427	 0.271092912467771 
1428	 0.270916658509057 
1429	 0.270757576074167 
1430	 0.270607424115372 
1431	 0.270456582317668 
1432	 0.270339320027902 
1433	 0.270256314075182 
1434	 0.270166276519392 
1435	 0.270093971146487 
1436	 0.270019196331614 
1437	 0.269925412888593 
1438	 0.269866918097148 
1439	 0.269827186827476 
1440	 0.269804318814769 
1441	 0.269795606216867 
1442	 0.269788337243932 
1443	 0.269784359579428 
1444	 0.269789544807374 
1445	 0.269822523923655 
1446	 0.269874586889615 
1447	 0.269919397202177 
1448	 0.269961784863349 
1449	 0.269988757063581 
1450	 0.270013554878632 
1451	 0.270050538272156 
1452	 0.270095843467179 
1453	 0.270139515846136 
1454	 0.270190507871012 
1455	 0.27023660373038 
1456	 0.270266534122628 
1457	 0.27032808217763 
1458	 0.270397767779729 
1459	 0.270484118989103 
1460	 0.270599111063319 
1461	 0.270714276440864 
1462	 0.270823294001853 
1463	 0.270966451955791 
1464	 0.271129673013119 
1465	 0.271306708612867 
1466	 0.271506243906894 
1467	 0.271722155454698 
1468	 0.271948557394985 
1469	 0.272196961887529 
1470	 0.272473535252477 
1471	 0.272762982572191 
1472	 0.273049382036409 
1473	 0.273345230149306 
1474	 0.273640216553639 
1475	 0.273943121670374 
1476	 0.274263768949019 
1477	 0.274597828912381 
1478	 0.274945065204001 
1479	 0.275294327237903 
1480	 0.275638570509994 
1481	 0.275976820065664 
1482	 0.27632204588819 
1483	 0.276662674329521 
1484	 0.277016322502077 
1485	 0.277378248271967 
1486	 0.277748098881299 
1487	 0.278133872636944 
1488	 0.278495738185724 
1489	 0.278862555488166 
1490	 0.279211015414799 
1491	 0.279531866351603 
1492	 0.279868578668439 
1493	 0.280202314367256 
1494	 0.280543985904569 
1495	 0.280897700942659 
1496	 0.281235853894494 
1497	 0.281572785038848 
1498	 0.281906871858519 
1499	 0.282227953572958 
1500	 0.282555903955534 
1501	 0.282888513529274 
1502	 0.283214276402788 
1503	 0.283541908543382 
1504	 0.283866381206333 
1505	 0.284156862519182 
1506	 0.284435566416572 
1507	 0.284707177680468 
1508	 0.284969124480786 
1509	 0.285241113780428 
1510	 0.285528483965351 
1511	 0.285812081966036 
1512	 0.286078224817567 
1513	 0.286355106707213 
1514	 0.286640513524199 
1515	 0.286893370909357 
1516	 0.287148507069898 
1517	 0.287414127916099 
1518	 0.28767359652514 
1519	 0.287935049498114 
1520	 0.28822508701779 
1521	 0.288466123027356 
1522	 0.288675223257949 
1523	 0.288899208664832 
1524	 0.289099605478693 
1525	 0.289329914261283 
1526	 0.289585567520536 
1527	 0.289812683738062 
1528	 0.290040153513642 
1529	 0.290254907359356 
1530	 0.290447745900972 
1531	 0.290653898397322 
1532	 0.2908718101355 
1533	 0.291067631922091 
1534	 0.291248997370974 
1535	 0.29143575651244 
1536	 0.291602036488558 
1537	 0.291786998447435 
1538	 0.291999079946389 
1539	 0.292185557337827 
1540	 0.292370698297093 
1541	 0.292544565813393 
1542	 0.292690074097924 
1543	 0.292851150116755 
1544	 0.293015977341853 
1545	 0.293175920688498 
1546	 0.293341787055512 
1547	 0.293499340499874 
1548	 0.293648614874567 
1549	 0.293812682473609 
1550	 0.293978686730196 
1551	 0.294134047415977 
1552	 0.29429799141343 
1553	 0.294460976046816 
1554	 0.294610884263882 
1555	 0.294759976887579 
1556	 0.294886377479435 
1557	 0.295004066943341 
1558	 0.295117293390351 
1559	 0.29523139224817 
1560	 0.295352317934273 
1561	 0.29547617713449 
1562	 0.295601179042852 
1563	 0.295726216618155 
1564	 0.295861729345135 
1565	 0.296002774196165 
1566	 0.296147568550403 
1567	 0.296315861547907 
1568	 0.296446497097113 
1569	 0.296565240977216 
1570	 0.296672073129347 
1571	 0.296744401436689 
1572	 0.29684352687547 
1573	 0.296954169515316 
1574	 0.297053740596926 
1575	 0.297152959133768 
1576	 0.297257280649628 
1577	 0.297357354874198 
1578	 0.297454016561716 
1579	 0.297569388247143 
1580	 0.297650663239968 
1581	 0.297699547558511 
1582	 0.297769239365398 
1583	 0.297825030896617 
1584	 0.29789694840956 
1585	 0.297987750849004 
1586	 0.298078539259716 
1587	 0.298175926131563 
1588	 0.29826694229288 
1589	 0.298374010397147 
1590	 0.298451130000374 
1591	 0.298497031411328 
1592	 0.298564191733878 
1593	 0.298621279830003 
1594	 0.298689348322582 
1595	 0.298779180441255 
1596	 0.298860564219064 
1597	 0.298950662825924 
1598	 0.299018936715371 
1599	 0.299070031032458 
1600	 0.299126517311619 
1601	 0.299170219899624 
1602	 0.299215210607358 
1603	 0.299265805125749 
1604	 0.299315057435568 
1605	 0.299358784260511 
1606	 0.299403103940179 
1607	 0.299447948700927 
1608	 0.299495318888171 
1609	 0.29954872021589 
1610	 0.299600538384288 
1611	 0.29965375852228 
1612	 0.299714058309806 
1613	 0.299787207625851 
1614	 0.299847554102881 
1615	 0.2998903009832 
1616	 0.299948627645888 
1617	 0.299974790631194 
1618	 0.299976832614176 
1619	 0.30001285783562 
1620	 0.300040633832623 
1621	 0.30007684567488 
1622	 0.300129904751433 
1623	 0.300154690911145 
1624	 0.300168616857649 
1625	 0.300184547372564 
1626	 0.300179227506701 
1627	 0.300204903735029 
1628	 0.300252242881346 
1629	 0.300272801390366 
1630	 0.300297544829262 
1631	 0.300310067332243 
1632	 0.3002884972934 
1633	 0.300318405876375 
1634	 0.300377337653608 
1635	 0.30041000102806 
1636	 0.300455531703758 
1637	 0.30048894169518 
1638	 0.300507861743543 
1639	 0.300516709116444 
1640	 0.300525288757961 
1641	 0.300531406898658 
1642	 0.300512109984946 
1643	 0.300513426190422 
1644	 0.300534507929068 
1645	 0.300538439489828 
1646	 0.300536873925338 
1647	 0.300532600586318 
1648	 0.300516506585009 
1649	 0.300518643128339 
1650	 0.30052902839675 
1651	 0.300531551886629 
1652	 0.300547487457823 
1653	 0.300543851593697 
1654	 0.300516009627673 
1655	 0.300510950210396 
1656	 0.300515036337655 
1657	 0.300507751635134 
1658	 0.300505730212254 
1659	 0.300497704251036 
1660	 0.300477997240707 
1661	 0.300460493488098 
1662	 0.300456138407567 
1663	 0.300423824745715 
1664	 0.300361570269463 
1665	 0.300327301563767 
1666	 0.300286561592599 
1667	 0.300261427561031 
1668	 0.300260354146171 
1669	 0.300252888029348 
1670	 0.300239379259168 
1671	 0.300243052925103 
1672	 0.300266051178604 
1673	 0.300275077918208 
1674	 0.300293079598766 
1675	 0.300294947698856 
1676	 0.300281911493683 
1677	 0.300271852180756 
1678	 0.30025524907873 
1679	 0.300241193567642 
1680	 0.300236755430608 
1681	 0.300207159327414 
1682	 0.300166488727152 
1683	 0.30012040247817 
1684	 0.300041625361347 
1685	 0.299997780083231 
1686	 0.299969496449514 
1687	 0.299937999217685 
1688	 0.299927964453645 
1689	 0.299895546516207 
1690	 0.299842623074165 
1691	 0.299810806089535 
1692	 0.299780212071104 
1693	 0.299753570279351 
1694	 0.29974934174769 
1695	 0.299721492382561 
1696	 0.299678963817327 
1697	 0.299643203429352 
1698	 0.299604334487112 
1699	 0.299560025973122 
1700	 0.299522359916589 
1701	 0.299466219275369 
1702	 0.299385543328472 
1703	 0.299323569563247 
1704	 0.299261480184434 
1705	 0.299202396211725 
1706	 0.299159055249951 
1707	 0.299098008291926 
1708	 0.299011120898216 
1709	 0.298965562590318 
1710	 0.298935806096698 
1711	 0.298906067571165 
1712	 0.298919816553973 
1713	 0.2988746965077 
1714	 0.298781958566163 
1715	 0.29872934334823 
1716	 0.298672334901405 
1717	 0.298624370899417 
1718	 0.298618342839602 
1719	 0.298559470141744 
1720	 0.298471963625393 
1721	 0.298381067671306 
1722	 0.298268726090179 
1723	 0.298160412512032 
1724	 0.298040566501438 
1725	 0.297929717387502 
1726	 0.297815818572218 
1727	 0.29771539662471 
1728	 0.297626989405435 
1729	 0.297526476617314 
1730	 0.297437410727222 
1731	 0.297319363612664 
1732	 0.297188456276497 
1733	 0.297044803473894 
1734	 0.296874103637844 
1735	 0.296722682167996 
1736	 0.296563314919055 
1737	 0.296423046196892 
1738	 0.296292694424636 
1739	 0.296165157064648 
1740	 0.296053415726188 
1741	 0.295929020796284 
1742	 0.295811264609336 
1743	 0.295685458780073 
1744	 0.295550077907857 
1745	 0.295395271837646 
1746	 0.295226307207109 
1747	 0.295053168768061 
1748	 0.294908581550908 
1749	 0.294830835297755 
1750	 0.294716549433609 
1751	 0.294559386548406 
1752	 0.294393739404871 
1753	 0.294200368177826 
1754	 0.294044317787752 
1755	 0.293919034226574 
1756	 0.293801901119953 
1757	 0.293700810063989 
1758	 0.293567366081248 
1759	 0.293454250645515 
1760	 0.293362177198835 
1761	 0.293222359539688 
1762	 0.293083565105799 
1763	 0.292953400628652 
1764	 0.292808931252739 
1765	 0.29266692813138 
1766	 0.292531789654993 
1767	 0.292386103742005 
1768	 0.292242208850139 
1769	 0.292119147504189 
1770	 0.292000338575923 
1771	 0.291890730696796 
1772	 0.291766374728583 
1773	 0.291649649568888 
1774	 0.291557881719709 
1775	 0.291451290710037 
1776	 0.291351633223403 
1777	 0.291252088700474 
1778	 0.291139940312577 
1779	 0.291019348742388 
1780	 0.29090259322222 
1781	 0.29080175680415 
1782	 0.290709851778235 
1783	 0.29063656582312 
1784	 0.290571048597454 
1785	 0.290520686983284 
1786	 0.290469936108208 
1787	 0.29042290709443 
1788	 0.290385961759706 
1789	 0.290367669694024 
1790	 0.29031836652839 
1791	 0.290271291424436 
1792	 0.290217742204928 
1793	 0.29012400483076 
1794	 0.290062207236206 
1795	 0.290021049127469 
1796	 0.289955371365603 
1797	 0.289880554486059 
1798	 0.289819045617529 
1799	 0.289744276277577 
1800	 0.289716018097243 
1801	 0.286182640650932 
1802	 0.286154077233284 
1803	 0.286148259549537 
1804	 0.286135115082874 
1805	 0.28610781155596 
1806	 0.286072523404313 
1807	 0.286037563172176 
1808	 0.286031382688635 
1809	 0.286055187612655 
1810	 0.28606322612033 
1811	 0.286087975210547 
1812	 0.286103706157295 
1813	 0.286079901595401 
1814	 0.286067204791048 
1815	 0.286079175319576 
1816	 0.286071361808627 
1817	 0.286056310891074 
1818	 0.286050390868945 
1819	 0.286028469139679 
1820	 0.28598382183403 
1821	 0.285946894309021 
1822	 0.285914105464972 
1823	 0.285859912349622 
1824	 0.285794238324516 
1825	 0.285713859749757 
1826	 0.285622419375827 
1827	 0.285528947262146 
1828	 0.285437580829245 
1829	 0.285344070728526 
1830	 0.285250039039162 
1831	 0.285156096725046 
1832	 0.285063631080701 
1833	 0.284970283776916 
1834	 0.28485618335325 
1835	 0.284739404033303 
1836	 0.284617719469617 
1837	 0.28449070658214 
1838	 0.284381920094801 
1839	 0.284262162809372 
1840	 0.284146215492195 
1841	 0.284017290109727 
1842	 0.283885144045786 
1843	 0.283732623663685 
1844	 0.283567822623508 
1845	 0.283396192389242 
1846	 0.283205567620746 
1847	 0.282999602634686 
1848	 0.282781927243013 
1849	 0.282540139131132 
1850	 0.282279321662289 
1851	 0.281998010032847 
1852	 0.281700529217089 
1853	 0.281396007899918 
1854	 0.281083862633827 
1855	 0.280757247287575 
1856	 0.280410990721567 
1857	 0.280031173492639 
1858	 0.27962725554783 
1859	 0.279185601803287 
1860	 0.278695982062165 
1861	 0.278167805060562 
1862	 0.27760429420356 
1863	 0.27696645603116 
1864	 0.276268509333036 
1865	 0.275535524972382 
1866	 0.27471454437166 
1867	 0.273832025615606 
1868	 0.272906534782646 
1869	 0.271892440301835 
1870	 0.270802959477967 
1871	 0.26960689774053 
1872	 0.268322939859249 
1873	 0.266947606593605 
1874	 0.2654974493555 
1875	 0.263935933618612 
1876	 0.262332457167849 
1877	 0.260650474888072 
1878	 0.258809708697224 
1879	 0.256860213041091 
1880	 0.254788785967449 
1881	 0.252540335561871 
1882	 0.25025229150827 
1883	 0.247887987388052 
1884	 0.245386599453497 
1885	 0.242809991090087 
1886	 0.240143936453709 
1887	 0.237314759615353 
1888	 0.234407175551677 
1889	 0.231415154955245 
1890	 0.228353094839152 
1891	 0.225354272627353 
1892	 0.222311740051315 
1893	 0.219340290769398 
1894	 0.216402989797615 
1895	 0.213528515315154 
1896	 0.210622817018825 
1897	 0.207816313352116 
1898	 0.20508027135817 
1899	 0.202412694631943 
1900	 0.199901997783629 
1901	 0.197469173287373 
1902	 0.195161642142367 
1903	 0.192989036242977 
1904	 0.190913471539342 
1905	 0.188923833019531 
1906	 0.187099282443216 
1907	 0.185380766723776 
1908	 0.183778573029051 
1909	 0.182345461320163 
1910	 0.181008593125102 
1911	 0.179768528458172 
1912	 0.178635031784431 
1913	 0.177564032543066 
1914	 0.176548794474434 
1915	 0.175637211586142 
1916	 0.174826793768459 
1917	 0.174082664610822 
1918	 0.173392899076881 
1919	 0.172784986050367 
1920	 0.172233021367338 
1921	 0.171729098381461 
1922	 0.171302505989459 
1923	 0.170959622581432 
1924	 0.170677012432127 
1925	 0.170470797502256 
1926	 0.170306808253898 
1927	 0.170213831845981 
1928	 0.170158049408675 
1929	 0.170133375336153 
1930	 0.170139394640435 
1931	 0.170182822286264 
1932	 0.17027003787215 
1933	 0.170396816903597 
1934	 0.170571910492631 
1935	 0.170776560687185 
1936	 0.171022726277832 
1937	 0.171296324407802 
1938	 0.171605800940061 
1939	 0.171939239589912 
1940	 0.172305409282585 
1941	 0.172693536737353 
1942	 0.173121909003146 
1943	 0.173573731754702 
1944	 0.174022449047711 
1945	 0.174492362430243 
1946	 0.174973572906343 
1947	 0.175448878177332 
1948	 0.175955080934269 
1949	 0.176491510248508 
1950	 0.17703928337058 
1951	 0.177598948021895 
1952	 0.17817955007458 
1953	 0.178790172227874 
1954	 0.179398886456644 
1955	 0.180013266700548 
1956	 0.180619273810507 
1957	 0.181229507294415 
1958	 0.181834191252846 
1959	 0.182449594869532 
1960	 0.183059589024651 
1961	 0.183693219808317 
1962	 0.184333979465209 
1963	 0.184997783998056 
1964	 0.185688202321312 
1965	 0.186392927438425 
1966	 0.18709597458686 
1967	 0.187774585403395 
1968	 0.188473346859155 
1969	 0.189166120791329 
1970	 0.189874914171129 
1971	 0.190613320733462 
1972	 0.191329285135986 
1973	 0.192039445137486 
1974	 0.192750094979397 
1975	 0.19345903305374 
1976	 0.194157275764244 
1977	 0.194863825481922 
1978	 0.195570450589065 
1979	 0.196278478818744 
1980	 0.196994125099648 
1981	 0.197710404777594 
1982	 0.198428905142904 
1983	 0.199151058258032 
1984	 0.199877843171639 
1985	 0.200607181130987 
1986	 0.201352074626607 
1987	 0.202076863992238 
1988	 0.202797322210554 
1989	 0.203510546654388 
1990	 0.204202776041766 
1991	 0.204899824284458 
1992	 0.205596078825047 
1993	 0.2062855174948 
1994	 0.206984292241359 
1995	 0.207688076202373 
1996	 0.208389480291856 
1997	 0.209105878868685 
1998	 0.209804556113568 
1999	 0.210491816825111 
2000	 0.211177233388624 
2001	 0.211858827438181 
2002	 0.212529665223457 
2003	 0.213196046908016 
2004	 0.213865542209115 
2005	 0.214511073675388 
2006	 0.21512992921356 
2007	 0.215768760444654 
2008	 0.216400262944002 
2009	 0.217034155303638 
2010	 0.217681194365726 
2011	 0.218320705195032 
2012	 0.218949843554593 
2013	 0.219586212443639 
2014	 0.220238409475387 
2015	 0.220871841203993 
2016	 0.221498109872022 
2017	 0.222105178558555 
2018	 0.222719834900197 
2019	 0.22333010031702 
2020	 0.223926766198188 
2021	 0.224522361601982 
2022	 0.225112309585514 
2023	 0.225688790143202 
2024	 0.226258762256725 
2025	 0.226823540949719 
2026	 0.227384730418084 
2027	 0.22793021069897 
2028	 0.22847557072337 
2029	 0.22903235688643 
2030	 0.22961050602161 
2031	 0.230151841424285 
2032	 0.23067912387695 
2033	 0.231210889617951 
2034	 0.23172453746121 
2035	 0.232240685114071 
2036	 0.232778958152441 
2037	 0.233283412161329 
2038	 0.23376091650374 
2039	 0.234238187760698 
2040	 0.234704109839889 
2041	 0.23515860207422 
2042	 0.235600171490489 
2043	 0.236051748421791 
2044	 0.236499860535736 
2045	 0.236932774813556 
2046	 0.237388963582891 
2047	 0.237867890423425 
2048	 0.238324464708552 
2049	 0.238798873294131 
2050	 0.23923874466617 
2051	 0.23964175169529 
2052	 0.240056913454651 
2053	 0.240458812774415 
2054	 0.240861353641811 
2055	 0.241259001538059 
2056	 0.241676059372188 
2057	 0.242073148840874 
2058	 0.242455849984702 
2059	 0.242852556596064 
2060	 0.243253337050896 
2061	 0.243645132378832 
2062	 0.244042023597288 
2063	 0.244431585989026 
2064	 0.244814079968834 
2065	 0.245188760115108 
2066	 0.245560311860892 
2067	 0.245926428114077 
2068	 0.246276699945521 
2069	 0.246633979730929 
2070	 0.246985325456323 
2071	 0.24733243205631 
2072	 0.247685925322735 
2073	 0.248041104738024 
2074	 0.248390126118852 
2075	 0.248746139390995 
2076	 0.249088965892669 
2077	 0.24940702774156 
2078	 0.249751998147768 
2079	 0.250122158135485 
2080	 0.250461578770223 
2081	 0.250800537467127 
2082	 0.251130335632433 
2083	 0.25142229666247 
2084	 0.251737333989718 
2085	 0.25204648888503 
2086	 0.252362580665994 
2087	 0.252673103774804 
2088	 0.252979942655602 
2089	 0.253284026878416 
2090	 0.253579396336898 
2091	 0.253892539021487 
2092	 0.254220056369357 
2093	 0.25452947027122 
2094	 0.254856538245883 
2095	 0.255154159851822 
2096	 0.255402723788242 
2097	 0.255682643255107 
2098	 0.255967197176601 
2099	 0.256255582338154 
2100	 0.256542010223117 
2101	 0.256851524441404 
2102	 0.257127613726996 
2103	 0.257372623256123 
2104	 0.257647513111326 
2105	 0.257918001612797 
2106	 0.25820508381257 
2107	 0.258517892397232 
2108	 0.258819825261557 
2109	 0.259130619310307 
2110	 0.259428785335577 
2111	 0.259715203924787 
2112	 0.260008852952974 
2113	 0.260303485283946 
2114	 0.260589655531282 
2115	 0.260882300558984 
2116	 0.261187419125827 
2117	 0.261471262876668 
2118	 0.261757379306588 
2119	 0.26201219006124 
2120	 0.262231064235877 
2121	 0.262478310638028 
2122	 0.262715275885027 
2123	 0.262959048241976 
2124	 0.263229378153064 
2125	 0.263479007013243 
2126	 0.263722774999214 
2127	 0.263951600463813 
2128	 0.264162029314892 
2129	 0.264378409216892 
2130	 0.264593675967634 
2131	 0.264797098215436 
2132	 0.264978945419068 
2133	 0.265163551630432 
2134	 0.265315900436368 
2135	 0.265437158981056 
2136	 0.265543202256038 
2137	 0.265629705143638 
2138	 0.265706500939144 
2139	 0.265746720709131 
2140	 0.265805199189154 
2141	 0.265876029609319 
2142	 0.265924183941425 
2143	 0.265972987573758 
2144	 0.26599928312175 
2145	 0.265994017604683 
2146	 0.26599102598866 
2147	 0.265970464750126 
2148	 0.265960863217551 
2149	 0.265936910434865 
2150	 0.265915045646336 
2151	 0.265865193480017 
2152	 0.265804411957014 
2153	 0.265722058878678 
2154	 0.265611055288264 
2155	 0.265505032904567 
2156	 0.265393955639553 
2157	 0.265261429927367 
2158	 0.26513167318122 
2159	 0.264963647130264 
2160	 0.264738749136411 
2161	 0.264542800090026 
2162	 0.264332005309854 
2163	 0.264130443441651 
2164	 0.263950301586808 
2165	 0.263770292567898 
2166	 0.263570154547931 
2167	 0.2633545808439 
2168	 0.263150309810626 
2169	 0.262932411452412 
2170	 0.262735855383018 
2171	 0.262571548170542 
2172	 0.262362453576156 
2173	 0.262150127796501 
2174	 0.261918953823022 
2175	 0.261642043159875 
2176	 0.261388086225057 
2177	 0.261163968331623 
2178	 0.260886014933784 
2179	 0.260582401024337 
2180	 0.26027620073661 
2181	 0.259908456261821 
2182	 0.25957651531291 
2183	 0.259275034230952 
2184	 0.258960479612317 
2185	 0.258645920213407 
2186	 0.258340320439506 
2187	 0.25802635322345 
2188	 0.257688199691309 
2189	 0.257387842387354 
2190	 0.257096032500089 
2191	 0.256825606732402 
2192	 0.256561925686876 
2193	 0.256346476115376 
2194	 0.256173133391392 
2195	 0.255997830585352 
2196	 0.255866622305454 
2197	 0.255722710419411 
2198	 0.255570077129764 
2199	 0.255428789438945 
2200	 0.255291052022932 
2201	 0.255171937930484 
2202	 0.255051981005392 
2203	 0.254954282523681 
2204	 0.254897729265758 
2205	 0.254866252785134 
2206	 0.254867951537896 
2207	 0.254919665380885 
2208	 0.254966217634117 
2209	 0.255031699329878 
2210	 0.255115939208345 
2211	 0.255217344235871 
2212	 0.255326182565733 
2213	 0.255482565926033 
2214	 0.255592218075338 
2215	 0.25568256786475 
2216	 0.255778285752057 
2217	 0.255851224527141 
2218	 0.255931252500423 
2219	 0.25604565538176 
2220	 0.256114568486044 
2221	 0.256163225910208 
2222	 0.256190125513166 
2223	 0.256174937292142 
2224	 0.256169363587422 
2225	 0.25616858715388 
2226	 0.256175476339175 
2227	 0.256146108851268 
2228	 0.256102611317728 
2229	 0.256059433981358 
2230	 0.255988295561144 
2231	 0.255928848535729 
2232	 0.255889430496543 
2233	 0.255829633612633 
2234	 0.255752696354216 
2235	 0.255670596335518 
2236	 0.255590070963581 
2237	 0.255485753537061 
2238	 0.255350130713844 
2239	 0.255232859163436 
2240	 0.255115297363059 
2241	 0.254990654797087 
2242	 0.254851468280449 
2243	 0.254738511225326 
2244	 0.254629553563705 
2245	 0.254530379348098 
2246	 0.254436512078332 
2247	 0.254374189875751 
2248	 0.254277016657044 
2249	 0.254156888964958 
2250	 0.254048233391804 
2251	 0.253931726212883 
2252	 0.253829242882766 
2253	 0.253731190250577 
2254	 0.253636907533378 
2255	 0.253558332133832 
2256	 0.25347188671334 
2257	 0.253373817898041 
2258	 0.253293048295819 
2259	 0.253213167247405 
2260	 0.253144962243872 
2261	 0.253099624349621 
2262	 0.253049127205484 
2263	 0.252997732597433 
2264	 0.252955928919067 
2265	 0.252929015210798 
2266	 0.252883234510967 
2267	 0.252837094147658 
2268	 0.252792563781976 
2269	 0.252748541279586 
2270	 0.252676914070165 
2271	 0.252607599203586 
2272	 0.252546869934991 
2273	 0.252456416684914 
2274	 0.252366790606723 
2275	 0.252297119152432 
2276	 0.252237923172904 
2277	 0.252185104397931 
2278	 0.252153265288342 
2279	 0.252099898515621 
2280	 0.252047338656988 
2281	 0.251982406261086 
2282	 0.25189114247605 
2283	 0.251828961065979 
2284	 0.251787544197163 
2285	 0.251720630459384 
2286	 0.251645015359702 
2287	 0.251585629030065 
2288	 0.251519503755632 
2289	 0.251455080320361 
2290	 0.251407362039736 
2291	 0.251353496355999 
2292	 0.251298345849657 
2293	 0.25122613549157 
2294	 0.25115405853284 
2295	 0.25107513719017 
2296	 0.250983501505607 
2297	 0.25087894896893 
2298	 0.250748941178988 
2299	 0.250627272925272 
2300	 0.250470954334147 
2301	 0.250290636958434 
2302	 0.250190990909211 
2303	 0.250082924216014 
2304	 0.249964162050924 
2305	 0.249899707163706 
2306	 0.24976409983667 
2307	 0.249568326127598 
2308	 0.249405340929796 
2309	 0.249238580883178 
2310	 0.249061676111955 
2311	 0.248889377238319 
2312	 0.248703528162234 
2313	 0.248484720847738 
2314	 0.248291939191481 
2315	 0.248104665322783 
2316	 0.247937424222127 
2317	 0.247791383032329 
2318	 0.247635558502704 
2319	 0.247500319047464 
2320	 0.247344583039104 
2321	 0.2471893720051 
2322	 0.247006359791492 
2323	 0.246783634711431 
2324	 0.246569173425141 
2325	 0.246347193814533 
2326	 0.246127886925682 
2327	 0.2459086567474 
2328	 0.245693604290271 
2329	 0.245484313854248 
2330	 0.245290476677615 
2331	 0.245101095023511 
2332	 0.24493476129561 
2333	 0.244764511003706 
2334	 0.244518034037639 
2335	 0.24425051939646 
2336	 0.244015671698759 
2337	 0.243813838898168 
2338	 0.243588216445364 
2339	 0.243371077744837 
2340	 0.24317351922202 
2341	 0.242945917603908 
2342	 0.242766411720276 
2343	 0.242572246595421 
2344	 0.242310293739972 
2345	 0.242015409050032 
2346	 0.24163403822607 
2347	 0.241288930890912 
2348	 0.240917010420279 
2349	 0.240592988566635 
2350	 0.240308502746497 
2351	 0.239995950107746 
2352	 0.239670761688325 
2353	 0.239388579742237 
2354	 0.23913509292387 
2355	 0.23884354673639 
2356	 0.238581249501052 
2357	 0.238266010634651 
2358	 0.237870374905074 
2359	 0.237514179962093 
2360	 0.237178969946446 
2361	 0.236828056359107 
2362	 0.236471534208136 
2363	 0.236117623381745 
2364	 0.235734363164735 
2365	 0.235385431781621 
2366	 0.235061633244567 
2367	 0.23474612084394 
2368	 0.234463192008729 
2369	 0.234150348739475 
2370	 0.233859074441249 
2371	 0.233507219929773 
2372	 0.233081875481784 
2373	 0.232683226749434 
2374	 0.232261903402198 
2375	 0.231813985093262 
2376	 0.231417959989135 
2377	 0.231084795660698 
2378	 0.2307470287231 
2379	 0.230358657447819 
2380	 0.229953375850628 
2381	 0.229522766704303 
2382	 0.229091933846182 
2383	 0.22870142665118 
2384	 0.22830841359901 
2385	 0.227811690714529 
2386	 0.227262919163369 
2387	 0.226784249136452 
2388	 0.22630549235737 
2389	 0.225867709711235 
2390	 0.22547745067202 
2391	 0.224987394627072 
2392	 0.224510134210412 
2393	 0.224099874846077 
2394	 0.223652949213177 
2395	 0.223252682510936 
2396	 0.222866878628973 
2397	 0.222385824861054 
2398	 0.221905220924174 
2399	 0.221428658491284 
2400	 0.22087891956608 
2401	 0.220347571255424 
2402	 0.21989842619923 
2403	 0.219417167842952 
2404	 0.218886567398274 
2405	 0.218373569863599 
2406	 0.217845355003711 
2407	 0.217397632496377 
2408	 0.216948486499738 
2409	 0.216477753018297 
2410	 0.216132052704833 
2411	 0.215684187397761 
2412	 0.215224811275538 
2413	 0.214823143338051 
2414	 0.214269731430558 
2415	 0.21367262783362 
2416	 0.213125007378543 
2417	 0.212585779019955 
2418	 0.212096538135116 
2419	 0.211706374749565 
2420	 0.211166373978337 
2421	 0.210559454536166 
2422	 0.209971153021053 
2423	 0.209251822844318 
2424	 0.208732147657345 
2425	 0.208346248026671 
2426	 0.207947007196441 
2427	 0.207697828117295 
2428	 0.207220809949633 
2429	 0.206615372164448 
2430	 0.206089577119776 
2431	 0.20545363139369 
2432	 0.204905287800948 
2433	 0.204475204474997 
2434	 0.204017091780909 
2435	 0.203537180694109 
2436	 0.20308038878764 
2437	 0.202669445860552 
2438	 0.202195240810683 
2439	 0.20173039514971 
2440	 0.2012341233204 
2441	 0.200658271399293 
2442	 0.20016747326326 
2443	 0.199680544231181 
2444	 0.199173136427014 
2445	 0.198722555811506 
2446	 0.198216964650512 
2447	 0.197658963924583 
2448	 0.197181387509759 
2449	 0.196745744984392 
2450	 0.196237499220521 
2451	 0.195752338844273 
2452	 0.195192980196501 
2453	 0.194480188148902 
2454	 0.193979939795301 
2455	 0.193604986392069 
2456	 0.193115783460218 
2457	 0.19269626347983 
2458	 0.192174920445488 
2459	 0.1914766806462 
2460	 0.190897766226209 
2461	 0.190352419395217 
2462	 0.189869857666312 
2463	 0.189444416636106 
2464	 0.189026930604567 
2465	 0.188706885029126 
2466	 0.188284405083278 
2467	 0.187864693338018 
2468	 0.187383915111136 
2469	 0.186755595439681 
2470	 0.186255572052462 
2471	 0.185766739350481 
2472	 0.185251595547587 
2473	 0.184809554416356 
2474	 0.184414321743395 
2475	 0.183787004412635 
2476	 0.183174376250726 
2477	 0.182662724893114 
2478	 0.182186889220229 
2479	 0.181950863958721 
2480	 0.181744858498894 
2481	 0.181401342901119 
2482	 0.180989772034378 
2483	 0.180470638425641 
2484	 0.179864236188569 
2485	 0.179411566356119 
2486	 0.179108781994328 
2487	 0.178764017590849 
2488	 0.178417284331915 
2489	 0.178112157229387 
2490	 0.177609355558813 
2491	 0.176973971423092 
2492	 0.176575399697483 
2493	 0.176280901209122 
2494	 0.176008703074426 
2495	 0.17580253783944 
2496	 0.175487846458874 
2497	 0.175050349381211 
2498	 0.174425635526441 
2499	 0.173976451122385 
2500	 0.173874578841677 
