Wavelength	MM400007.asd
350	 0.058249012018167 
351	 5.57316075987263E-02 
352	 4.55614610885807E-02 
353	 4.17136672421363E-02 
354	 4.22604058583287E-02 
355	 4.05148492198538E-02 
356	 3.98549287711713E-02 
357	 4.40493027472905E-02 
358	 4.90267772380559E-02 
359	 4.76705455876271E-02 
360	 4.36283296652406E-02 
361	 4.59605938264569E-02 
362	 4.32993148099244E-02 
363	 4.07417861806052E-02 
364	 4.16145061137865E-02 
365	 4.37993695171291E-02 
366	 4.45212662622009E-02 
367	 4.27780042462134E-02 
368	 0.039933330186616 
369	 4.39742047744573E-02 
370	 4.30738045249223E-02 
371	 3.97727192419398E-02 
372	 4.50395874348489E-02 
373	 4.40514066868887E-02 
374	 4.22309977997831E-02 
375	 4.35475525936399E-02 
376	 4.50190599360765E-02 
377	 0.043459145346242 
378	 4.25792085997334E-02 
379	 4.58195714474734E-02 
380	 4.62475904577551E-02 
381	 4.47243306544586E-02 
382	 4.37684826113504E-02 
383	 0.046305244427394 
384	 4.66884616197653E-02 
385	 4.42361723778182E-02 
386	 4.14534836788452E-02 
387	 4.55487228094108E-02 
388	 4.74157523670596E-02 
389	 4.64254872670768E-02 
390	 4.51112966973602E-02 
391	 4.64012956752358E-02 
392	 4.78021203364841E-02 
393	 4.83353593024554E-02 
394	 4.85269823447022E-02 
395	 4.73539304765588E-02 
396	 4.71641639832827E-02 
397	 4.89120149224094E-02 
398	 4.97417117234998E-02 
399	 4.90590675425696E-02 
400	 4.84801822772235E-02 
401	 4.97100981131702E-02 
402	 4.96427489734974E-02 
403	 4.96316696195653E-02 
404	 0.050015553461937 
405	 4.98768210790699E-02 
406	 5.04468454959791E-02 
407	 5.07901173296067E-02 
408	 5.01307189622523E-02 
409	 4.89353646318122E-02 
410	 4.88445395078771E-02 
411	 4.95860983143925E-02 
412	 5.00484631572256E-02 
413	 5.05903427252684E-02 
414	 5.06193223626679E-02 
415	 5.01012509034799E-02 
416	 4.97436455280591E-02 
417	 5.01412672799437E-02 
418	 5.06265595039614E-02 
419	 5.06253752371889E-02 
420	 5.11305677786666E-02 
421	 5.07960999556543E-02 
422	 5.00786903932944E-02 
423	 5.04323866503403E-02 
424	 5.05744791185213E-02 
425	 5.06183494275345E-02 
426	 5.06595437277318E-02 
427	 5.03820559962726E-02 
428	 5.03999120424172E-02 
429	 5.05015814831901E-02 
430	 5.03464536095008E-02 
431	 5.04460505404227E-02 
432	 5.01731899154445E-02 
433	 4.97337619432443E-02 
434	 5.01091353524724E-02 
435	 5.04104274263972E-02 
436	 5.03316561841308E-02 
437	 4.99555168920335E-02 
438	 5.00318274789797E-02 
439	 5.01342411143076E-02 
440	 0.050172186752319 
441	 5.02198417381496E-02 
442	 5.02645464710566E-02 
443	 5.03321569682468E-02 
444	 5.03889861103545E-02 
445	 5.03016816146252E-02 
446	 0.050303806792443 
447	 5.04559766244312E-02 
448	 5.06647232190284E-02 
449	 5.04070031647919E-02 
450	 5.04285908123305E-02 
451	 5.07299353207923E-02 
452	 5.06811593160054E-02 
453	 0.050655542507253 
454	 5.05953074747166E-02 
455	 5.04949783481615E-02 
456	 5.06713890537685E-02 
457	 5.07748303412372E-02 
458	 5.07214727060071E-02 
459	 0.050601833404565 
460	 5.08170671666151E-02 
461	 5.08662823751978E-02 
462	 5.06356265222302E-02 
463	 5.06552320777112E-02 
464	 5.07761425590581E-02 
465	 5.08687602272199E-02 
466	 5.08802865568917E-02 
467	 5.11050334492846E-02 
468	 5.11706294362191E-02 
469	 5.10262432245514E-02 
470	 5.09039618517887E-02 
471	 0.051005416982982 
472	 5.10633940237457E-02 
473	 5.09522602288552E-02 
474	 5.11047244345218E-02 
475	 5.10214376965025E-02 
476	 5.09222374834122E-02 
477	 5.12073721862112E-02 
478	 5.11194946264019E-02 
479	 5.10660090974633E-02 
480	 5.11883805620232E-02 
481	 5.11188308414135E-02 
482	 5.12339463914506E-02 
483	 0.051359383533185 
484	 5.12841041212773E-02 
485	 5.12969371089116E-02 
486	 5.11919031720325E-02 
487	 5.10201567240186E-02 
488	 5.10408124791036E-02 
489	 5.11501437835525E-02 
490	 5.12600728976295E-02 
491	 0.051291090453523 
492	 5.11610419837511E-02 
493	 5.10850298356148E-02 
494	 5.10534937664324E-02 
495	 5.09887223670722E-02 
496	 5.12282812860824E-02 
497	 5.12410176564744E-02 
498	 0.050977801266481 
499	 5.12200685333216E-02 
500	 5.13363287524917E-02 
501	 5.12727441761668E-02 
502	 5.11768651871789E-02 
503	 5.12907487364395E-02 
504	 5.14057375509564E-02 
505	 5.14415262839363E-02 
506	 5.14482206706898E-02 
507	 5.13259608023554E-02 
508	 0.051249459863873 
509	 5.13374774632813E-02 
510	 5.14360396075211E-02 
511	 5.15215990540959E-02 
512	 5.15332442909604E-02 
513	 5.14193063688785E-02 
514	 5.13210740266719E-02 
515	 5.13792575131493E-02 
516	 5.15648426689536E-02 
517	 5.15711399532374E-02 
518	 5.16118906676353E-02 
519	 5.16315913923115E-02 
520	 5.15446548851692E-02 
521	 0.051553015744219 
522	 5.16157737652427E-02 
523	 5.16656562028672E-02 
524	 5.16264905609881E-02 
525	 5.15719925548503E-02 
526	 5.15413692495944E-02 
527	 5.15635465265763E-02 
528	 5.16806363998682E-02 
529	 5.17239636724918E-02 
530	 5.17011694406791E-02 
531	 0.05173415810112 
532	 5.18000334943992E-02 
533	 5.18790100770377E-02 
534	 5.19436013535458E-02 
535	 5.19415545923152E-02 
536	 5.19835933590831E-02 
537	 5.20793116588188E-02 
538	 5.21827732893622E-02 
539	 0.052191406409394 
540	 5.21688600555512E-02 
541	 5.21795561996278E-02 
542	 5.22719771905186E-02 
543	 5.22843598639839E-02 
544	 0.052326311722392 
545	 0.052501400856117 
546	 5.25823103379431E-02 
547	 5.26185069196138E-02 
548	 5.26537191817509E-02 
549	 5.27164619700386E-02 
550	 5.27446902420503E-02 
551	 5.28182460776909E-02 
552	 5.29782569263184E-02 
553	 5.31115530545421E-02 
554	 5.31737881420916E-02 
555	 5.32462941079598E-02 
556	 5.34497468967579E-02 
557	 5.35691391714327E-02 
558	 5.37162572957878E-02 
559	 5.39391401669372E-02 
560	 5.41117790643507E-02 
561	 5.42599143375243E-02 
562	 5.44406147560006E-02 
563	 5.46931806175651E-02 
564	 5.48818926755275E-02 
565	 5.50783957248697E-02 
566	 5.53006883824855E-02 
567	 5.54953894420953E-02 
568	 5.58450222061865E-02 
569	 5.62146299879449E-02 
570	 5.64696112190005E-02 
571	 5.67365799127696E-02 
572	 5.70813506662189E-02 
573	 5.74621077346977E-02 
574	 5.77685687309528E-02 
575	 5.80803555180066E-02 
576	 5.84202550473767E-02 
577	 5.87813186871566E-02 
578	 5.90970585405014E-02 
579	 0.059526291835496 
580	 6.00350891077593E-02 
581	 6.05186047867855E-02 
582	 6.10280156777951E-02 
583	 6.15856607498571E-02 
584	 6.21587604231209E-02 
585	 6.26393022655808E-02 
586	 6.31536019685906E-02 
587	 6.36830681679425E-02 
588	 6.41890864771153E-02 
589	 6.47465134599646E-02 
590	 6.52977105572777E-02 
591	 6.58298023118452E-02 
592	 6.63754011809602E-02 
593	 6.69179530480907E-02 
594	 6.74702229322421E-02 
595	 6.80424908235342E-02 
596	 6.86304729328917E-02 
597	 0.069215961884029 
598	 6.97910991440372E-02 
599	 7.03578774649152E-02 
600	 7.09259605081246E-02 
601	 7.14947253679807E-02 
602	 7.20428212788823E-02 
603	 7.25107982682857E-02 
604	 7.30147634083717E-02 
605	 7.35176959873812E-02 
606	 7.39527566185617E-02 
607	 7.44140484542871E-02 
608	 7.48596958262182E-02 
609	 7.52825915528762E-02 
610	 7.57236145170175E-02 
611	 7.60939620042361E-02 
612	 7.64742415308381E-02 
613	 7.69177935900576E-02 
614	 7.72533133984491E-02 
615	 7.75377212809402E-02 
616	 7.78096439023536E-02 
617	 7.80938685172595E-02 
618	 0.078425069662659 
619	 7.87213444488374E-02 
620	 7.89367047871329E-02 
621	 7.91255233713462E-02 
622	 7.93715038352607E-02 
623	 7.96131785660115E-02 
624	 7.97566984025596E-02 
625	 7.99465823612762E-02 
626	 8.01762930270496E-02 
627	 8.04076052100671E-02 
628	 0.08057826544093 
629	 8.07427528385664E-02 
630	 8.09342463760055E-02 
631	 8.11454606015882E-02 
632	 8.12275836199072E-02 
633	 8.13684137419088E-02 
634	 8.15766739106235E-02 
635	 8.17162051613999E-02 
636	 8.18889139036143E-02 
637	 0.082055686378084 
638	 0.082189586708995 
639	 8.23490593181697E-02 
640	 8.25329239044128E-02 
641	 8.27157983457466E-02 
642	 8.28683054342386E-02 
643	 8.30410625736203E-02 
644	 8.32228311676904E-02 
645	 8.33992447365842E-02 
646	 8.35599257967128E-02 
647	 8.37139410072664E-02 
648	 8.38794205846494E-02 
649	 8.40730794635846E-02 
650	 8.42999902723803E-02 
651	 8.45072124310989E-02 
652	 8.46757809795285E-02 
653	 0.08482401011888 
654	 8.50471430440917E-02 
655	 8.52865305371045E-02 
656	 8.54886200157292E-02 
657	 8.56834760885511E-02 
658	 8.59033786900372E-02 
659	 8.61244170681347E-02 
660	 8.63083228312779E-02 
661	 8.65403147667695E-02 
662	 0.086811140332601 
663	 8.70943692981403E-02 
664	 0.087354414004886 
665	 0.087578972553406 
666	 8.78253059596703E-02 
667	 8.81347966371876E-02 
668	 8.83899928743141E-02 
669	 8.86702261296882E-02 
670	 8.89900119813098E-02 
671	 8.93043472282748E-02 
672	 8.95949267889697E-02 
673	 8.98827569560318E-02 
674	 0.090190052193107 
675	 9.05255300427595E-02 
676	 9.08566899204684E-02 
677	 9.11742077216184E-02 
678	 0.091484942296011 
679	 9.18192534217044E-02 
680	 9.21877302225874E-02 
681	 9.25801411599904E-02 
682	 9.29633185917101E-02 
683	 9.33435913927227E-02 
684	 9.36921448007816E-02 
685	 9.40133372461329E-02 
686	 9.44577129905011E-02 
687	 9.49022453003177E-02 
688	 0.095308712968493 
689	 9.57044191783985E-02 
690	 9.60854436167413E-02 
691	 0.096503796198377 
692	 9.69718919218897E-02 
693	 9.74115139633993E-02 
694	 9.78515096886611E-02 
695	 9.83012422317796E-02 
696	 9.87598590734591E-02 
697	 9.91997359763751E-02 
698	 0.099650552428372 
699	 0.100120477220167 
700	 0.100590268894243 
701	 0.101027139265622 
702	 0.101509211749373 
703	 0.102059712452759 
704	 0.102474919101186 
705	 0.102954645408239 
706	 0.103484552640934 
707	 0.103948977914544 
708	 0.104405633456322 
709	 0.104892070028135 
710	 0.105403559951291 
711	 0.10587902479383 
712	 0.106374956785677 
713	 0.10688123316446 
714	 0.107372369019283 
715	 0.107837411157637 
716	 0.108271970631841 
717	 0.108710589857018 
718	 0.109204441500232 
719	 0.109664236479739 
720	 0.110108176586519 
721	 0.110547240827069 
722	 0.110942402975995 
723	 0.111389144773577 
724	 0.11183671752225 
725	 0.112207645569945 
726	 0.11256784880742 
727	 0.112919093110725 
728	 0.113257680271951 
729	 0.113577439737822 
730	 0.113890964641999 
731	 0.114195262169922 
732	 0.11448769857138 
733	 0.114776891458654 
734	 0.115034825353177 
735	 0.115249336294455 
736	 0.115421224309277 
737	 0.115571597183709 
738	 0.115737665527757 
739	 0.115915956114705 
740	 0.116058777538987 
741	 0.116182700355959 
742	 0.116268912499745 
743	 0.116311234930348 
744	 0.116354379919826 
745	 0.116373766473457 
746	 0.116378863791834 
747	 0.116386644266804 
748	 0.116351315472123 
749	 0.116288984501107 
750	 0.116214907647705 
751	 0.116135906692913 
752	 0.116064494692848 
753	 0.115951712192926 
754	 0.115777318351424 
755	 0.11564740778679 
756	 0.115482893876474 
757	 0.115294244047598 
758	 0.115127892322188 
759	 0.114932430495665 
760	 0.114705428419992 
761	 0.114467817812042 
762	 0.114261672823781 
763	 0.11401670732047 
764	 0.113761551352204 
765	 0.113520811096674 
766	 0.113231537904367 
767	 0.112965764101901 
768	 0.112705393045467 
769	 0.112398778995099 
770	 0.112114718856789 
771	 0.111816410006958 
772	 0.11149194104527 
773	 0.111169778356699 
774	 0.110866923683904 
775	 0.110554519913166 
776	 0.110215642615256 
777	 0.109894668064135 
778	 0.109579793226904 
779	 0.109276032348739 
780	 0.108983766157162 
781	 0.108632140177013 
782	 0.108304090935196 
783	 0.108010504465625 
784	 0.107678017196448 
785	 0.107355809993698 
786	 0.107039514876013 
787	 0.106720843558426 
788	 0.106405993960265 
789	 0.106092661112515 
790	 0.105776279969185 
791	 0.105458224186358 
792	 0.105177607559494 
793	 0.104880585677082 
794	 0.104558871847795 
795	 0.104248782467472 
796	 0.103961107090996 
797	 0.103687823773729 
798	 0.103412809715379 
799	 0.10311041771612 
800	 0.10284078177492 
801	 0.102570420759607 
802	 0.102267064241562 
803	 0.102022330567637 
804	 0.101769550280584 
805	 0.101492599469454 
806	 0.101212445015481 
807	 0.100945498369614 
808	 0.100689734774254 
809	 0.10045554627638 
810	 0.100269750256606 
811	 0.100053199898425 
812	 9.98273768293213E-02 
813	 0.099617026789626 
814	 9.93867850115426E-02 
815	 9.91711122374892E-02 
816	 9.89761609184541E-02 
817	 9.87902938115255E-02 
818	 9.85783373668766E-02 
819	 9.83811049283023E-02 
820	 9.82020363635296E-02 
821	 9.80133915992637E-02 
822	 9.78642824829415E-02 
823	 0.097707802390828 
824	 9.75158173857744E-02 
825	 9.73126954285474E-02 
826	 9.71809803118736E-02 
827	 9.70795723323446E-02 
828	 9.69460737985276E-02 
829	 0.096772628123432 
830	 9.65910281632757E-02 
831	 9.64540519905195E-02 
832	 9.63955364728534E-02 
833	 9.62974112399344E-02 
834	 9.61403002888231E-02 
835	 9.59690976905593E-02 
836	 9.58725248493784E-02 
837	 9.57887101244062E-02 
838	 9.57109259700134E-02 
839	 9.56319789368974E-02 
840	 9.55296200917894E-02 
841	 9.54579713499915E-02 
842	 9.53836377928717E-02 
843	 9.52847592062603E-02 
844	 9.52594144094358E-02 
845	 9.52170996575872E-02 
846	 9.51306828695521E-02 
847	 9.50213477406346E-02 
848	 9.49813183434897E-02 
849	 9.49440536431293E-02 
850	 9.48983307436744E-02 
851	 9.48815869087702E-02 
852	 9.48222151120464E-02 
853	 9.47822024724886E-02 
854	 9.47877094740076E-02 
855	 9.47862225378031E-02 
856	 9.47512159465819E-02 
857	 9.47434539428283E-02 
858	 9.47925125844664E-02 
859	 9.47959272914021E-02 
860	 9.47729984074445E-02 
861	 9.47715611909986E-02 
862	 9.48242295559634E-02 
863	 9.48442752569783E-02 
864	 9.48702218476073E-02 
865	 9.49012728713953E-02 
866	 9.49137387792501E-02 
867	 9.49143067536765E-02 
868	 0.094939070692603 
869	 9.49963514042988E-02 
870	 9.50627461810932E-02 
871	 9.51264436276505E-02 
872	 9.51911927303971E-02 
873	 9.52609961416393E-02 
874	 9.53343896530086E-02 
875	 0.09542916270043 
876	 9.55145062161116E-02 
877	 9.55686534747293E-02 
878	 9.56188787990356E-02 
879	 0.095723332575679 
880	 9.58522310140126E-02 
881	 9.59524407275414E-02 
882	 9.60258964941018E-02 
883	 0.096116485872198 
884	 9.62389025339162E-02 
885	 9.63818646542074E-02 
886	 9.65046973525261E-02 
887	 9.66310222368651E-02 
888	 9.67584587188161E-02 
889	 9.68662902124427E-02 
890	 9.70169968502914E-02 
891	 9.71882019127696E-02 
892	 9.73614180218282E-02 
893	 9.75362166889556E-02 
894	 9.76614351410554E-02 
895	 9.77902664581727E-02 
896	 9.79675560966548E-02 
897	 9.81843635716294E-02 
898	 9.83800012716617E-02 
899	 9.85593102556448E-02 
900	 9.87476194155252E-02 
901	 9.89741143623681E-02 
902	 9.91567947861645E-02 
903	 9.93200628562112E-02 
904	 9.95172452940869E-02 
905	 9.97564378892248E-02 
906	 9.99722175831443E-02 
907	 0.10017157964341 
908	 0.100399848373684 
909	 0.100690941267568 
910	 0.100972080529806 
911	 0.101215277588816 
912	 0.101440005972619 
913	 0.101723154698162 
914	 0.10199754914092 
915	 0.102248295082218 
916	 0.102519061862244 
917	 0.102816927798607 
918	 0.1031526676242 
919	 0.103472562323896 
920	 0.103672416710753 
921	 0.103972660479977 
922	 0.104314121951514 
923	 0.104637946328496 
924	 0.104962452969248 
925	 0.105305019026569 
926	 0.105673712237973 
927	 0.106052958183492 
928	 0.106391360571811 
929	 0.106724484039516 
930	 0.107100786703406 
931	 0.107529860428193 
932	 0.107931831443522 
933	 0.10832144100237 
934	 0.108714009589556 
935	 0.109124437458296 
936	 0.109567065623159 
937	 0.109931759396881 
938	 0.110298895195041 
939	 0.110764586057272 
940	 0.11124160571194 
941	 0.111724176993356 
942	 0.112163728485363 
943	 0.112547751112972 
944	 0.113054339037702 
945	 0.113472150297333 
946	 0.113916540306756 
947	 0.11454551523902 
948	 0.115004928569778 
949	 0.115462392375743 
950	 0.115948159681968 
951	 0.116432837550816 
952	 0.117002786650411 
953	 0.117583342082671 
954	 0.118136450090168 
955	 0.118664503342274 
956	 0.119215974591658 
957	 0.119833109035458 
958	 0.120435109443868 
959	 0.120926390825288 
960	 0.121566229104711 
961	 0.122137638808257 
962	 0.122689753016182 
963	 0.123390551447151 
964	 0.123918619631854 
965	 0.124524341110382 
966	 0.125191546998261 
967	 0.125747712817956 
968	 0.126374444812492 
969	 0.127069126052454 
970	 0.127791758825615 
971	 0.12848224153895 
972	 0.129094040690329 
973	 0.129693069810932 
974	 0.130308196282617 
975	 0.130956346169718 
976	 0.131805821522007 
977	 0.132483906120256 
978	 0.133053618939926 
979	 0.133817463696225 
980	 0.134551533443195 
981	 0.135217674128121 
982	 0.13586785044053 
983	 0.136601069144931 
984	 0.137488821848073 
985	 0.138172192957062 
986	 0.138770652104984 
987	 0.139579692441207 
988	 0.140221885094419 
989	 0.14098088805794 
990	 0.141757399429727 
991	 0.142364761242258 
992	 0.143240312536124 
993	 0.143947588418954 
994	 0.144593292143464 
995	 0.145407007941625 
996	 0.1459708469305 
997	 0.146697962774729 
998	 0.147582172779382 
999	 0.14844257880788 
1000	 0.149185381062777 
1001	 0.150561884101686 
1002	 0.151317788607141 
1003	 0.152050705815788 
1004	 0.152779487807476 
1005	 0.153528250470896 
1006	 0.154254531186302 
1007	 0.154957576448224 
1008	 0.15565744171915 
1009	 0.156342483994015 
1010	 0.156998049094648 
1011	 0.157637446796413 
1012	 0.15831711851806 
1013	 0.159032839701118 
1014	 0.159716636067531 
1015	 0.160357598392366 
1016	 0.161010165241803 
1017	 0.161666210011018 
1018	 0.162314433920069 
1019	 0.162943596364721 
1020	 0.163592621673762 
1021	 0.164216597974096 
1022	 0.164850096582046 
1023	 0.16551121363511 
1024	 0.166113946279173 
1025	 0.166718166502053 
1026	 0.167317603297083 
1027	 0.167875326463757 
1028	 0.168435911520535 
1029	 0.168974007877054 
1030	 0.169493690089338 
1031	 0.17003126876957 
1032	 0.170563833137813 
1033	 0.17110423956398 
1034	 0.171663094331242 
1035	 0.172187133129638 
1036	 0.172642775798227 
1037	 0.173166119358257 
1038	 0.173726260032983 
1039	 0.174236127841668 
1040	 0.174758426002006 
1041	 0.175256859650876 
1042	 0.175729672073746 
1043	 0.176256499206866 
1044	 0.176786600777334 
1045	 0.177358002211867 
1046	 0.177896755939607 
1047	 0.178432430651049 
1048	 0.178970544622599 
1049	 0.179415459407568 
1050	 0.179872947862575 
1051	 0.180374318316959 
1052	 0.18081355625655 
1053	 0.181356045273746 
1054	 0.181928199734509 
1055	 0.18240375711611 
1056	 0.182889824981312 
1057	 0.183365646282261 
1058	 0.183776729655849 
1059	 0.184249450011878 
1060	 0.184746858914866 
1061	 0.185267734013748 
1062	 0.185800444572058 
1063	 0.186314976132907 
1064	 0.18682681749334 
1065	 0.187282880735342 
1066	 0.187696171863881 
1067	 0.188173079429387 
1068	 0.188609165630861 
1069	 0.18902425653343 
1070	 0.189486294752731 
1071	 0.189972736054996 
1072	 0.190439865177194 
1073	 0.190937220129326 
1074	 0.191422154824898 
1075	 0.191921966815448 
1076	 0.192339440665712 
1077	 0.192732803983468 
1078	 0.193110775650863 
1079	 0.193466051773763 
1080	 0.193855748398491 
1081	 0.194300096000589 
1082	 0.19477336158986 
1083	 0.19520360420619 
1084	 0.195604439189171 
1085	 0.196035989516184 
1086	 0.196456847170511 
1087	 0.196879414374461 
1088	 0.197315598860627 
1089	 0.197780300007029 
1090	 0.198162232508918 
1091	 0.198538133513378 
1092	 0.198933681905123 
1093	 0.199313189390555 
1094	 0.199762216366147 
1095	 0.200207700682041 
1096	 0.200627600114535 
1097	 0.201064186069616 
1098	 0.201487756041133 
1099	 0.201874938269949 
1100	 0.202310717204873 
1101	 0.202780566704735 
1102	 0.203227160273792 
1103	 0.20369152925463 
1104	 0.204131249639217 
1105	 0.204538044730721 
1106	 0.204972086092753 
1107	 0.205390096056213 
1108	 0.205827442795509 
1109	 0.206300634616 
1110	 0.206718000932468 
1111	 0.207160009785695 
1112	 0.207606582774039 
1113	 0.208056946795466 
1114	 0.208507009846039 
1115	 0.208976696806149 
1116	 0.209463821157469 
1117	 0.209942880803475 
1118	 0.210431515743069 
1119	 0.210906641729487 
1120	 0.21140159018031 
1121	 0.211871426014588 
1122	 0.212343380155277 
1123	 0.212840366440097 
1124	 0.213309093208763 
1125	 0.213754385639056 
1126	 0.214219974598723 
1127	 0.214684795569393 
1128	 0.215146435662076 
1129	 0.215620994255647 
1130	 0.216080908648561 
1131	 0.216521074556991 
1132	 0.216977518187142 
1133	 0.217443412636584 
1134	 0.217900106433663 
1135	 0.218359344759259 
1136	 0.218814767211515 
1137	 0.219280619834412 
1138	 0.219712311060465 
1139	 0.220138431458414 
1140	 0.220558765996338 
1141	 0.220978379314597 
1142	 0.221376195218667 
1143	 0.221787967543664 
1144	 0.222226688205164 
1145	 0.222622076334867 
1146	 0.22298441790081 
1147	 0.2233644153319 
1148	 0.223734433152981 
1149	 0.224104706842794 
1150	 0.224472293005042 
1151	 0.224865640822169 
1152	 0.225251557981404 
1153	 0.225600727701721 
1154	 0.225968539326717 
1155	 0.226352875699725 
1156	 0.22670746200578 
1157	 0.227043358291716 
1158	 0.227390647047893 
1159	 0.227728853158719 
1160	 0.228067485815852 
1161	 0.228421831050497 
1162	 0.22875776573131 
1163	 0.229087573237237 
1164	 0.229404157061024 
1165	 0.22971397144138 
1166	 0.229999248689262 
1167	 0.230297134175973 
1168	 0.230598817345369 
1169	 0.230901711019449 
1170	 0.231216718022321 
1171	 0.231520395665888 
1172	 0.231820453591808 
1173	 0.232114778423201 
1174	 0.232417490273804 
1175	 0.232695981217865 
1176	 0.232952995004503 
1177	 0.23321607326443 
1178	 0.233467926313921 
1179	 0.233721038164 
1180	 0.233971473220588 
1181	 0.234228284355735 
1182	 0.23449568795593 
1183	 0.234749113995188 
1184	 0.234990154118761 
1185	 0.235234214153432 
1186	 0.235460999222118 
1187	 0.235654575299664 
1188	 0.235878600150342 
1189	 0.236121133509244 
1190	 0.23633823501552 
1191	 0.236551435756501 
1192	 0.236763392656832 
1193	 0.236952309374966 
1194	 0.23715821429821 
1195	 0.23738030187579 
1196	 0.23759492895942 
1197	 0.237821632274725 
1198	 0.238026964555466 
1199	 0.238221902422831 
1200	 0.238407892517827 
1201	 0.238592090888374 
1202	 0.238758843206301 
1203	 0.238936385287158 
1204	 0.239116477160293 
1205	 0.239298049866805 
1206	 0.239484150260581 
1207	 0.239660303061543 
1208	 0.239835151698701 
1209	 0.24000862272273 
1210	 0.240180740224136 
1211	 0.240341686517485 
1212	 0.240488715841716 
1213	 0.240649412770939 
1214	 0.240819616640743 
1215	 0.240971041834642 
1216	 0.241117867526073 
1217	 0.241277329267202 
1218	 0.241408341120271 
1219	 0.241506843543845 
1220	 0.24162488737939 
1221	 0.241743171732576 
1222	 0.241860412866799 
1223	 0.241974244845603 
1224	 0.242096283652832 
1225	 0.242229313939532 
1226	 0.242347463440103 
1227	 0.242462940508282 
1228	 0.242578643121996 
1229	 0.242676920410193 
1230	 0.242788394503426 
1231	 0.242923134494836 
1232	 0.24303885784943 
1233	 0.243148100068972 
1234	 0.243251402087338 
1235	 0.243358283881645 
1236	 0.243454685984653 
1237	 0.243557056353644 
1238	 0.243677310304772 
1239	 0.243769528151283 
1240	 0.243841813976994 
1241	 0.243923138578972 
1242	 0.24398185076986 
1243	 0.244069000737793 
1244	 0.244177992015236 
1245	 0.244280300109532 
1246	 0.244405243647948 
1247	 0.24450845296208 
1248	 0.244608911205078 
1249	 0.244689264901333 
1250	 0.244748782542729 
1251	 0.244802805400851 
1252	 0.244865428539437 
1253	 0.244920532246957 
1254	 0.244978683568186 
1255	 0.245047955000558 
1256	 0.245106936403827 
1257	 0.245159327994268 
1258	 0.245206989648964 
1259	 0.245247098321604 
1260	 0.245293594712781 
1261	 0.245327752928565 
1262	 0.245379564606666 
1263	 0.245451998723011 
1264	 0.245515043907937 
1265	 0.245586153758908 
1266	 0.245647130484468 
1267	 0.245694580170924 
1268	 0.245748031667032 
1269	 0.245806363728213 
1270	 0.245865052066143 
1271	 0.245928749774826 
1272	 0.245994500424851 
1273	 0.246071749094516 
1274	 0.246156739870377 
1275	 0.246237774475363 
1276	 0.246322649521983 
1277	 0.246417991281851 
1278	 0.246517953446813 
1279	 0.246614585227855 
1280	 0.246730776834231 
1281	 0.246829680242233 
1282	 0.24691149289187 
1283	 0.246995773783986 
1284	 0.247076940677435 
1285	 0.247153399013581 
1286	 0.247237964334181 
1287	 0.24733024509802 
1288	 0.24741218868949 
1289	 0.247503258419549 
1290	 0.247567256542902 
1291	 0.247609342969541 
1292	 0.247663945518735 
1293	 0.247713361635542 
1294	 0.247760232212476 
1295	 0.247820333963586 
1296	 0.24785103536814 
1297	 0.247866423553744 
1298	 0.24787047120024 
1299	 0.247850515832525 
1300	 0.247835164357642 
1301	 0.247806356347862 
1302	 0.247784543173628 
1303	 0.247751937739024 
1304	 0.247744433701896 
1305	 0.247761987539848 
1306	 0.247738739754707 
1307	 0.24772013856664 
1308	 0.247709323710201 
1309	 0.247698820524415 
1310	 0.24768510839423 
1311	 0.247666629842308 
1312	 0.24765769675402 
1313	 0.247632316259921 
1314	 0.247580587666528 
1315	 0.247552463593968 
1316	 0.247531155883186 
1317	 0.247511078194517 
1318	 0.247489875963021 
1319	 0.247482967288451 
1320	 0.24748950582267 
1321	 0.247494059918529 
1322	 0.247501032333111 
1323	 0.24752061315427 
1324	 0.247557899916402 
1325	 0.247576139358663 
1326	 0.247605246539282 
1327	 0.24763793041399 
1328	 0.247653494282931 
1329	 0.247684371336009 
1330	 0.247727689437695 
1331	 0.247784503897919 
1332	 0.247846818224595 
1333	 0.247921005135451 
1334	 0.247995679829817 
1335	 0.248080311785783 
1336	 0.24815690570038 
1337	 0.248234129540652 
1338	 0.248310687758348 
1339	 0.248382983915151 
1340	 0.248460663771596 
1341	 0.24854096871081 
1342	 0.248622009534325 
1343	 0.248702879282134 
1344	 0.248787317208148 
1345	 0.24887856554132 
1346	 0.248953317669742 
1347	 0.249029300346372 
1348	 0.24911755282721 
1349	 0.24921294287507 
1350	 0.249310459744652 
1351	 0.249411201569665 
1352	 0.24952199332399 
1353	 0.249624619331508 
1354	 0.24972662306967 
1355	 0.249828123518548 
1356	 0.249938706225124 
1357	 0.250026176795699 
1358	 0.250092667509113 
1359	 0.250176927578313 
1360	 0.25026072842455 
1361	 0.250335199699122 
1362	 0.250418644667415 
1363	 0.250492238604672 
1364	 0.250550616787248 
1365	 0.250608003531037 
1366	 0.250664370872526 
1367	 0.250726404063089 
1368	 0.250762197499365 
1369	 0.250786968201651 
1370	 0.250828099656265 
1371	 0.250852136957619 
1372	 0.250873894387643 
1373	 0.250901625148696 
1374	 0.250912979114696 
1375	 0.250909029132667 
1376	 0.25090414359818 
1377	 0.25090829521063 
1378	 0.250874472579206 
1379	 0.250823128849632 
1380	 0.250752832226274 
1381	 0.250655112462677 
1382	 0.250547737884984 
1383	 0.250429593924752 
1384	 0.250291124171388 
1385	 0.250132565928431 
1386	 0.24996245047417 
1387	 0.2497744311347 
1388	 0.249581196635845 
1389	 0.249386682521522 
1390	 0.249166010782551 
1391	 0.248929760557439 
1392	 0.248669650419602 
1393	 0.248381889726999 
1394	 0.248086558265035 
1395	 0.247763515388891 
1396	 0.247420259691116 
1397	 0.247068844737754 
1398	 0.246695717852549 
1399	 0.246317349677418 
1400	 0.245920913388192 
1401	 0.245544599356747 
1402	 0.245169223377922 
1403	 0.244788617891795 
1404	 0.244415004750948 
1405	 0.244041376236366 
1406	 0.243658689031575 
1407	 0.243277935947245 
1408	 0.24289276995605 
1409	 0.242528711847499 
1410	 0.24215318764007 
1411	 0.241816728381155 
1412	 0.241502240723975 
1413	 0.241222170165154 
1414	 0.240974788683918 
1415	 0.240740117502323 
1416	 0.240520343358539 
1417	 0.24031217628642 
1418	 0.240109068897563 
1419	 0.239909179167674 
1420	 0.239724828615139 
1421	 0.23955934335039 
1422	 0.239400040904618 
1423	 0.239256692358943 
1424	 0.239120317573385 
1425	 0.238992515615205 
1426	 0.238883041866852 
1427	 0.238786105734116 
1428	 0.23869906874913 
1429	 0.238630974806001 
1430	 0.238566649386645 
1431	 0.238511969879452 
1432	 0.238457847288027 
1433	 0.23840509181612 
1434	 0.238371047906656 
1435	 0.238344135411272 
1436	 0.238325972517197 
1437	 0.238330731896395 
1438	 0.238328437242783 
1439	 0.23832652543091 
1440	 0.238327484498168 
1441	 0.238323108562279 
1442	 0.238338177893024 
1443	 0.238369923059491 
1444	 0.238387029806959 
1445	 0.238419747652225 
1446	 0.238463991764016 
1447	 0.238488638382361 
1448	 0.238516949522482 
1449	 0.238535529220051 
1450	 0.238535807262875 
1451	 0.238551135150394 
1452	 0.238564629736407 
1453	 0.238589451420273 
1454	 0.238622478258034 
1455	 0.238658991413563 
1456	 0.238699929447992 
1457	 0.238744109475692 
1458	 0.238799273616775 
1459	 0.238849420305806 
1460	 0.238897233871697 
1461	 0.238950636592253 
1462	 0.238997265108107 
1463	 0.239060890545571 
1464	 0.239140058428471 
1465	 0.239216417842546 
1466	 0.239300430336485 
1467	 0.23938819870474 
1468	 0.239468042014615 
1469	 0.239564797081094 
1470	 0.239678106375521 
1471	 0.239786036071246 
1472	 0.239911164139458 
1473	 0.240057611157786 
1474	 0.240193261546045 
1475	 0.240337597991386 
1476	 0.240480564834996 
1477	 0.240611562683126 
1478	 0.240758762487636 
1479	 0.240898943973094 
1480	 0.241024987479178 
1481	 0.241148046501049 
1482	 0.241269340535407 
1483	 0.241374557692246 
1484	 0.24150539515914 
1485	 0.241644994295431 
1486	 0.241786215583271 
1487	 0.241941779730737 
1488	 0.242088345021157 
1489	 0.242236576763998 
1490	 0.242380425236192 
1491	 0.242519785338587 
1492	 0.242659775474121 
1493	 0.242797883979305 
1494	 0.242936902660137 
1495	 0.24307786343082 
1496	 0.243213379715726 
1497	 0.243351624666632 
1498	 0.243479851056175 
1499	 0.243602408294001 
1500	 0.243721188333995 
1501	 0.243824804196481 
1502	 0.243930588596677 
1503	 0.244031395896547 
1504	 0.244139384911275 
1505	 0.244248888453533 
1506	 0.244381844055816 
1507	 0.244514166528999 
1508	 0.244643185687033 
1509	 0.244754911705821 
1510	 0.244865810896501 
1511	 0.244999459369498 
1512	 0.245120340168438 
1513	 0.245238770410703 
1514	 0.245361936877723 
1515	 0.24546484479013 
1516	 0.245570709762792 
1517	 0.245681718627805 
1518	 0.245808918469129 
1519	 0.2459147323665 
1520	 0.246011744834944 
1521	 0.246100335292261 
1522	 0.246176027365505 
1523	 0.246255288856766 
1524	 0.246331389114825 
1525	 0.246405618519077 
1526	 0.24647585896038 
1527	 0.246550529428803 
1528	 0.246620685560371 
1529	 0.246696399373332 
1530	 0.246779598307387 
1531	 0.246859898749107 
1532	 0.246937619918338 
1533	 0.247022615045288 
1534	 0.247110947962564 
1535	 0.247202981893355 
1536	 0.24730019294983 
1537	 0.247394598135475 
1538	 0.247500787794519 
1539	 0.247587836235035 
1540	 0.247669398003474 
1541	 0.247742674837632 
1542	 0.247797129641935 
1543	 0.247853812058416 
1544	 0.247898658445663 
1545	 0.247955120530274 
1546	 0.248015785538364 
1547	 0.248074205844471 
1548	 0.248153300788811 
1549	 0.248244364862366 
1550	 0.248316155322763 
1551	 0.248381978064518 
1552	 0.248441249617696 
1553	 0.248481575339618 
1554	 0.24853169496796 
1555	 0.248594326666868 
1556	 0.248654811974496 
1557	 0.248714999836482 
1558	 0.24876425896013 
1559	 0.248814852440831 
1560	 0.248863461112854 
1561	 0.248903576146458 
1562	 0.248948795513362 
1563	 0.248999634348051 
1564	 0.249044858387532 
1565	 0.24907963778506 
1566	 0.2491325691608 
1567	 0.249195264116883 
1568	 0.249248648199778 
1569	 0.249313651407011 
1570	 0.249360407998695 
1571	 0.249391717591749 
1572	 0.249433382702874 
1573	 0.249462026130865 
1574	 0.249518186811232 
1575	 0.249598739528146 
1576	 0.249652068471616 
1577	 0.249717837682665 
1578	 0.249760409820738 
1579	 0.249773687486533 
1580	 0.249795040855171 
1581	 0.249811081828154 
1582	 0.249829265327075 
1583	 0.249836217031424 
1584	 0.249858259651287 
1585	 0.249882775885874 
1586	 0.249923389793653 
1587	 0.249985692565123 
1588	 0.250038448607238 
1589	 0.250106824008615 
1590	 0.250153754807714 
1591	 0.250181599216556 
1592	 0.25021714009386 
1593	 0.250246072371882 
1594	 0.250278411689591 
1595	 0.250314450325637 
1596	 0.250351013998216 
1597	 0.250390314847455 
1598	 0.250424191254194 
1599	 0.250464849198786 
1600	 0.250490769103872 
1601	 0.250491359886056 
1602	 0.25051136415426 
1603	 0.25053823845345 
1604	 0.250559401031179 
1605	 0.250590387466583 
1606	 0.250618447508785 
1607	 0.250637447229669 
1608	 0.250657027379972 
1609	 0.250683570663606 
1610	 0.25070547374747 
1611	 0.250738064439055 
1612	 0.250770011395496 
1613	 0.250792252023408 
1614	 0.250832896326532 
1615	 0.250871271349384 
1616	 0.250891569504939 
1617	 0.250912138383317 
1618	 0.250928166193302 
1619	 0.250929913270628 
1620	 0.25092819552353 
1621	 0.2509430393378 
1622	 0.250963535133636 
1623	 0.250996571840093 
1624	 0.251049202123617 
1625	 0.251076279657885 
1626	 0.251105173871505 
1627	 0.251121385567025 
1628	 0.25111835142903 
1629	 0.251122592460742 
1630	 0.251131684751955 
1631	 0.251125456074398 
1632	 0.251104597517405 
1633	 0.251096154051663 
1634	 0.251085102059866 
1635	 0.251075400496777 
1636	 0.251063758065495 
1637	 0.251074278313989 
1638	 0.25109464327448 
1639	 0.251109321133766 
1640	 0.25114492875373 
1641	 0.251161526794014 
1642	 0.251156444795716 
1643	 0.251171757229149 
1644	 0.251194348042353 
1645	 0.251216584914025 
1646	 0.251246425864937 
1647	 0.251270266870964 
1648	 0.251295802370504 
1649	 0.251313835908502 
1650	 0.251327669159022 
1651	 0.251338764494443 
1652	 0.251332888985445 
1653	 0.251356270837888 
1654	 0.251393805596702 
1655	 0.251425118835342 
1656	 0.251482535007137 
1657	 0.251505367398018 
1658	 0.251503350725903 
1659	 0.251511671731131 
1660	 0.251518296496544 
1661	 0.251509040249972 
1662	 0.251495082574407 
1663	 0.251474795048174 
1664	 0.251424008273814 
1665	 0.251406105644097 
1666	 0.251406033557797 
1667	 0.251398431536416 
1668	 0.251395703481734 
1669	 0.251401820779388 
1670	 0.251408342069375 
1671	 0.251419529259872 
1672	 0.251460690192765 
1673	 0.251460723496753 
1674	 0.251439339817926 
1675	 0.251419226199185 
1676	 0.251375497712306 
1677	 0.251343614837944 
1678	 0.251313780382427 
1679	 0.251289090114743 
1680	 0.251266618170046 
1681	 0.251243339502602 
1682	 0.251213495501078 
1683	 0.251209518387466 
1684	 0.251214042193089 
1685	 0.251227979061698 
1686	 0.251276374910963 
1687	 0.251299703914096 
1688	 0.251314122017529 
1689	 0.25132800886905 
1690	 0.251337435194804 
1691	 0.251343260558611 
1692	 0.251344370042703 
1693	 0.25134666929025 
1694	 0.251340156966624 
1695	 0.251345900673807 
1696	 0.251370495633622 
1697	 0.25136619566229 
1698	 0.251347518652315 
1699	 0.251341827573863 
1700	 0.251330163572004 
1701	 0.251309652679899 
1702	 0.251299504146666 
1703	 0.251274102284601 
1704	 0.251223291800072 
1705	 0.25118232542621 
1706	 0.251147656270117 
1707	 0.251109505464526 
1708	 0.251058952666252 
1709	 0.251024831389913 
1710	 0.250993262644401 
1711	 0.250975665281968 
1712	 0.250963155211282 
1713	 0.250971640038546 
1714	 0.251015384580734 
1715	 0.251025160727397 
1716	 0.251052855369549 
1717	 0.251035354637793 
1718	 0.250962302878217 
1719	 0.250924272385672 
1720	 0.250879250088317 
1721	 0.250841300279487 
1722	 0.250824544897199 
1723	 0.250796126842668 
1724	 0.250753818312163 
1725	 0.250728156531628 
1726	 0.250713234120973 
1727	 0.25068642963997 
1728	 0.25066926537411 
1729	 0.250629468797412 
1730	 0.250572446122705 
1731	 0.250518341378562 
1732	 0.250448445563697 
1733	 0.250392937731807 
1734	 0.25034551732879 
1735	 0.250291731766219 
1736	 0.250234588566985 
1737	 0.250192131046486 
1738	 0.250152598916401 
1739	 0.250119973643249 
1740	 0.250112926979561 
1741	 0.250063586089803 
1742	 0.250000432786265 
1743	 0.249921569337439 
1744	 0.249814865134098 
1745	 0.249723455940352 
1746	 0.249623656283046 
1747	 0.249539943538142 
1748	 0.249455560403004 
1749	 0.249375507695063 
1750	 0.249306848545046 
1751	 0.249247897250454 
1752	 0.249201208355189 
1753	 0.249140446602992 
1754	 0.24905812973109 
1755	 0.248986437471952 
1756	 0.24891989704747 
1757	 0.248863069104863 
1758	 0.248834582042555 
1759	 0.248781668557581 
1760	 0.248708096219034 
1761	 0.248661252483332 
1762	 0.248628662963169 
1763	 0.248582147341977 
1764	 0.248528098721241 
1765	 0.248474819418874 
1766	 0.248403614935818 
1767	 0.248347905906601 
1768	 0.248330630023887 
1769	 0.248299872147108 
1770	 0.248255320160225 
1771	 0.248226801828525 
1772	 0.248186459927181 
1773	 0.248139366230641 
1774	 0.248110341410068 
1775	 0.248068449675198 
1776	 0.247999745337327 
1777	 0.247948847144457 
1778	 0.247929522020856 
1779	 0.247913510862448 
1780	 0.247907499082622 
1781	 0.247898725141662 
1782	 0.247858305077216 
1783	 0.247838177091585 
1784	 0.247804109941296 
1785	 0.247758318515936 
1786	 0.24772020598174 
1787	 0.247656937097469 
1788	 0.247619406361516 
1789	 0.247599648689274 
1790	 0.247589763406501 
1791	 0.247613605414259 
1792	 0.247612570035681 
1793	 0.247602920165267 
1794	 0.247613580693594 
1795	 0.247629978763455 
1796	 0.247616530944844 
1797	 0.247593438695229 
1798	 0.247576341625633 
1799	 0.247531631620375 
1800	 0.247517028288015 
1801	 0.24397029600946 
1802	 0.243987625384171 
1803	 0.244019661767143 
1804	 0.2440932150945 
1805	 0.244138582571437 
1806	 0.244151852183172 
1807	 0.24414299468932 
1808	 0.244151890490695 
1809	 0.244134210611007 
1810	 0.244134250529843 
1811	 0.244145530768397 
1812	 0.244197147510293 
1813	 0.244189702165751 
1814	 0.244173546819564 
1815	 0.24418847992453 
1816	 0.244166978614838 
1817	 0.244182336668493 
1818	 0.244238590607406 
1819	 0.244265910747459 
1820	 0.244290912898583 
1821	 0.244321983664311 
1822	 0.24433007250944 
1823	 0.244298416378966 
1824	 0.244275890719814 
1825	 0.244257835857006 
1826	 0.244255134862421 
1827	 0.244262021965201 
1828	 0.244257893558634 
1829	 0.244252885964497 
1830	 0.244251470340446 
1831	 0.244237694081119 
1832	 0.244241453049562 
1833	 0.244275577273203 
1834	 0.244284224748796 
1835	 0.244306989111137 
1836	 0.244311761583581 
1837	 0.244262465645937 
1838	 0.244233260944995 
1839	 0.244193274451585 
1840	 0.244136336720166 
1841	 0.244077509724816 
1842	 0.244045757412684 
1843	 0.244006162003657 
1844	 0.24396820384385 
1845	 0.243912846234568 
1846	 0.243851297821542 
1847	 0.243771882638231 
1848	 0.243674196552598 
1849	 0.243589618137109 
1850	 0.243494192036306 
1851	 0.243382801106712 
1852	 0.243280762985147 
1853	 0.243185444215902 
1854	 0.243064851258552 
1855	 0.242952291709475 
1856	 0.242841324621356 
1857	 0.242738320491163 
1858	 0.242622956896768 
1859	 0.242490275270497 
1860	 0.242343366352851 
1861	 0.242180577061248 
1862	 0.241991831587096 
1863	 0.24179034857208 
1864	 0.241564069702053 
1865	 0.241305642495767 
1866	 0.240997767568407 
1867	 0.240660658431116 
1868	 0.240306762205582 
1869	 0.239934359219182 
1870	 0.239543928064925 
1871	 0.239102887636833 
1872	 0.238633718804151 
1873	 0.238123084294433 
1874	 0.237564143179027 
1875	 0.236944257870762 
1876	 0.236296380092202 
1877	 0.23563049803848 
1878	 0.234897918166578 
1879	 0.234120390962353 
1880	 0.233297768655352 
1881	 0.232422915052328 
1882	 0.23149356315131 
1883	 0.230523709542791 
1884	 0.229493976554248 
1885	 0.2283832305459 
1886	 0.227224656328586 
1887	 0.225984978882029 
1888	 0.224688019155214 
1889	 0.223367481242906 
1890	 0.222000967205339 
1891	 0.22061842277899 
1892	 0.219207436266045 
1893	 0.217771643027102 
1894	 0.216295752017945 
1895	 0.214814367437093 
1896	 0.213330035607824 
1897	 0.211850916314144 
1898	 0.210379779334281 
1899	 0.208927211526816 
1900	 0.207485968114554 
1901	 0.206062719140176 
1902	 0.204702674506718 
1903	 0.203385690339641 
1904	 0.20212631309839 
1905	 0.200919759790048 
1906	 0.199769048273313 
1907	 0.198665269852041 
1908	 0.197629394404336 
1909	 0.196642203668059 
1910	 0.195712085111122 
1911	 0.194858720891004 
1912	 0.194069233410502 
1913	 0.193329936529196 
1914	 0.192662711563818 
1915	 0.192030477767127 
1916	 0.191452325135722 
1917	 0.190898207841481 
1918	 0.190393380464861 
1919	 0.189933125891069 
1920	 0.189511683986197 
1921	 0.189140148356655 
1922	 0.188829374175498 
1923	 0.188546779197135 
1924	 0.188307459826325 
1925	 0.188134977441937 
1926	 0.187970229210851 
1927	 0.187827091713231 
1928	 0.187718689487229 
1929	 0.187638507138311 
1930	 0.187572203808001 
1931	 0.187559598772979 
1932	 0.187575711120736 
1933	 0.187630689637164 
1934	 0.187704987606509 
1935	 0.187788174108667 
1936	 0.187879161548641 
1937	 0.188006871544082 
1938	 0.188158434755661 
1939	 0.188324576540732 
1940	 0.188522492972066 
1941	 0.188737585948888 
1942	 0.18893797254217 
1943	 0.18915053119717 
1944	 0.189372397940929 
1945	 0.189596381721259 
1946	 0.189836915162084 
1947	 0.19008876478574 
1948	 0.19035304903034 
1949	 0.19063668421995 
1950	 0.190921035949189 
1951	 0.191213173783725 
1952	 0.191517140506401 
1953	 0.191827002071996 
1954	 0.192125507533263 
1955	 0.192440863044428 
1956	 0.192772677461057 
1957	 0.193105072968343 
1958	 0.193430796870508 
1959	 0.193795768606924 
1960	 0.194197995720025 
1961	 0.194574448273121 
1962	 0.194973553518263 
1963	 0.195360970360663 
1964	 0.195735598443836 
1965	 0.196083377660752 
1966	 0.196475608474031 
1967	 0.196852268803474 
1968	 0.197233253538573 
1969	 0.197610303207 
1970	 0.198009062507029 
1971	 0.198424508855113 
1972	 0.198825871133556 
1973	 0.199230688870394 
1974	 0.19963967306024 
1975	 0.200043425658119 
1976	 0.200446540868767 
1977	 0.200867881978837 
1978	 0.201273530290248 
1979	 0.201659503237706 
1980	 0.20206310598059 
1981	 0.202476795503386 
1982	 0.202898543220467 
1983	 0.203320614039931 
1984	 0.203763436081437 
1985	 0.204188641218612 
1986	 0.204614922482921 
1987	 0.205028440525444 
1988	 0.205425170484182 
1989	 0.205831106728744 
1990	 0.206235327923581 
1991	 0.206614698253187 
1992	 0.207004026840293 
1993	 0.207390309909732 
1994	 0.207787746324549 
1995	 0.208191474627966 
1996	 0.208589913404886 
1997	 0.209002181457855 
1998	 0.209400551558795 
1999	 0.209783187850577 
2000	 0.210166424290078 
2001	 0.210540897856513 
2002	 0.210931105384236 
2003	 0.211310075304789 
2004	 0.211696201710473 
2005	 0.212065984068875 
2006	 0.212429668548915 
2007	 0.212790336152296 
2008	 0.213133061748094 
2009	 0.213487652608909 
2010	 0.213843238639047 
2011	 0.214209220527459 
2012	 0.214580046981424 
2013	 0.214956744562706 
2014	 0.215355607808575 
2015	 0.215737772089955 
2016	 0.216121895041389 
2017	 0.216484162301419 
2018	 0.216833062988701 
2019	 0.217161962858958 
2020	 0.21749408521931 
2021	 0.217808398595387 
2022	 0.218128628983089 
2023	 0.218457684475874 
2024	 0.218767742306737 
2025	 0.219052075782375 
2026	 0.219360288570577 
2027	 0.219671150164831 
2028	 0.21997973872981 
2029	 0.220298027866136 
2030	 0.220644243734501 
2031	 0.220957539652908 
2032	 0.221259833518272 
2033	 0.221554477332942 
2034	 0.221836002205337 
2035	 0.222116277563474 
2036	 0.222384550780404 
2037	 0.222659093735821 
2038	 0.222930516542465 
2039	 0.223203154038171 
2040	 0.223481042526531 
2041	 0.223758789380888 
2042	 0.224017037115727 
2043	 0.224271307723374 
2044	 0.224519484626748 
2045	 0.224747868372681 
2046	 0.224992580513077 
2047	 0.225242397251899 
2048	 0.225490291782419 
2049	 0.225749096457717 
2050	 0.225991809545334 
2051	 0.226230650174346 
2052	 0.226460980624059 
2053	 0.226673583272515 
2054	 0.226892303898714 
2055	 0.227119091567145 
2056	 0.227318936346897 
2057	 0.22753715462727 
2058	 0.227763392320518 
2059	 0.227980313166756 
2060	 0.228200813356242 
2061	 0.22841074250534 
2062	 0.228591331266488 
2063	 0.228813168355897 
2064	 0.229061292914562 
2065	 0.229290220184827 
2066	 0.229554413171603 
2067	 0.229778439277209 
2068	 0.22997680847024 
2069	 0.230153506679155 
2070	 0.230322455924824 
2071	 0.230463917182951 
2072	 0.230634062703235 
2073	 0.230795717002181 
2074	 0.230975957627085 
2075	 0.231184674676745 
2076	 0.231372490620665 
2077	 0.231557012956671 
2078	 0.231739742794452 
2079	 0.231909833530602 
2080	 0.232093733128887 
2081	 0.232291552744429 
2082	 0.232475756482665 
2083	 0.232664237454827 
2084	 0.23284533594872 
2085	 0.233015314460992 
2086	 0.233171845432374 
2087	 0.233326719105717 
2088	 0.233462756248601 
2089	 0.233626370343926 
2090	 0.233794192229365 
2091	 0.233967085759485 
2092	 0.23416234677665 
2093	 0.234347294757426 
2094	 0.234534059788139 
2095	 0.234709108140661 
2096	 0.234874121307807 
2097	 0.235047141820822 
2098	 0.235216394960375 
2099	 0.235383259871222 
2100	 0.235552450904242 
2101	 0.235737733366341 
2102	 0.235898648122543 
2103	 0.236044289811733 
2104	 0.236193218721804 
2105	 0.23631835931248 
2106	 0.236477977864298 
2107	 0.236653540433576 
2108	 0.236829866025448 
2109	 0.237029859212921 
2110	 0.237220324215185 
2111	 0.237402360765282 
2112	 0.237590291274892 
2113	 0.237780964064285 
2114	 0.23798116855239 
2115	 0.238169063309085 
2116	 0.238354737226153 
2117	 0.238543951451561 
2118	 0.238726735166509 
2119	 0.238917256314254 
2120	 0.239118864179731 
2121	 0.239309152451009 
2122	 0.239493378968347 
2123	 0.239680499211729 
2124	 0.239879154310606 
2125	 0.24005280717568 
2126	 0.240222150330808 
2127	 0.240377004188764 
2128	 0.240500315776512 
2129	 0.240629101444116 
2130	 0.240753772455756 
2131	 0.24088043111426 
2132	 0.240989743319122 
2133	 0.241090547461083 
2134	 0.241189987689832 
2135	 0.241293692699297 
2136	 0.241356448105395 
2137	 0.241406933960312 
2138	 0.24143622295279 
2139	 0.241403895383339 
2140	 0.241413026518995 
2141	 0.241433520267993 
2142	 0.241449624404103 
2143	 0.24149895196119 
2144	 0.241504346635405 
2145	 0.241477538587109 
2146	 0.241455740649803 
2147	 0.241412733583147 
2148	 0.241370942525821 
2149	 0.241312256811844 
2150	 0.241248916742097 
2151	 0.24118242487177 
2152	 0.241104572072724 
2153	 0.241011616854517 
2154	 0.240925360586935 
2155	 0.24081360255985 
2156	 0.240659613551108 
2157	 0.2405268944544 
2158	 0.240393217257562 
2159	 0.240258288678964 
2160	 0.240121384665153 
2161	 0.23999131405706 
2162	 0.239866103867608 
2163	 0.239737270384887 
2164	 0.239625413046066 
2165	 0.239493404606073 
2166	 0.239345109691113 
2167	 0.239181174379402 
2168	 0.239016075827759 
2169	 0.238825936800128 
2170	 0.238660874160635 
2171	 0.238501271060551 
2172	 0.238346649787733 
2173	 0.23820202835773 
2174	 0.238055013762767 
2175	 0.237915002782478 
2176	 0.237767805333668 
2177	 0.237614338239739 
2178	 0.237469923485851 
2179	 0.23731999266898 
2180	 0.237181832113608 
2181	 0.237085151571842 
2182	 0.236943144568708 
2183	 0.236777915076681 
2184	 0.236604417582033 
2185	 0.236440537769744 
2186	 0.236244633463342 
2187	 0.236086344136283 
2188	 0.235956643755231 
2189	 0.23582083058466 
2190	 0.235691252481668 
2191	 0.235554488350168 
2192	 0.235415116399517 
2193	 0.235293225938909 
2194	 0.235156600606519 
2195	 0.235058065450713 
2196	 0.235008707024904 
2197	 0.234935562344383 
2198	 0.234866407353838 
2199	 0.234803243778511 
2200	 0.234730395400277 
2201	 0.234668196120626 
2202	 0.2346320333193 
2203	 0.234579421617859 
2204	 0.234525420526923 
2205	 0.234458038621891 
2206	 0.234424078596443 
2207	 0.234394075731649 
2208	 0.234380555526901 
2209	 0.23440500055422 
2210	 0.234401445899978 
2211	 0.234375632948218 
2212	 0.234391819633214 
2213	 0.234438549765941 
2214	 0.234453232970432 
2215	 0.234487778515477 
2216	 0.234499179590478 
2217	 0.23446754738382 
2218	 0.234450518911499 
2219	 0.234430331950504 
2220	 0.234421287062277 
2221	 0.234404852941889 
2222	 0.23441902325305 
2223	 0.234406039002536 
2224	 0.234399264526934 
2225	 0.234392356505936 
2226	 0.234375789463247 
2227	 0.234355746455832 
2228	 0.234352039896285 
2229	 0.234317691053112 
2230	 0.234250867342366 
2231	 0.234193200061426 
2232	 0.23411866414668 
2233	 0.23407786568994 
2234	 0.234044250003051 
2235	 0.234023224734458 
2236	 0.234037130140903 
2237	 0.234029034895693 
2238	 0.234024089225009 
2239	 0.2340041579729 
2240	 0.233969198687074 
2241	 0.23393741735374 
2242	 0.23389665250462 
2243	 0.233856165306361 
2244	 0.233812094058899 
2245	 0.233782228610883 
2246	 0.23373381120581 
2247	 0.233678980262067 
2248	 0.233626178338774 
2249	 0.233561961379143 
2250	 0.233527939350866 
2251	 0.233510961693737 
2252	 0.233475661635908 
2253	 0.233448848121743 
2254	 0.233421334998405 
2255	 0.233379460322616 
2256	 0.233347559068069 
2257	 0.233334588606693 
2258	 0.233307460387035 
2259	 0.233260258488601 
2260	 0.233233411501826 
2261	 0.233216025631291 
2262	 0.233203398451349 
2263	 0.233201668828769 
2264	 0.233197808399859 
2265	 0.233207385643392 
2266	 0.233197052102902 
2267	 0.233171058163679 
2268	 0.23315692835294 
2269	 0.233142642197818 
2270	 0.233113385773972 
2271	 0.23310876036325 
2272	 0.233113580286133 
2273	 0.233130902405004 
2274	 0.233163808771723 
2275	 0.233187967713877 
2276	 0.233231194834573 
2277	 0.233247924645368 
2278	 0.233241721021068 
2279	 0.233254215641055 
2280	 0.233259194724618 
2281	 0.233278140416771 
2282	 0.233306781321039 
2283	 0.233349520621239 
2284	 0.233411511667547 
2285	 0.233460991359796 
2286	 0.233531677513654 
2287	 0.233564534528189 
2288	 0.233575333292378 
2289	 0.23358542869282 
2290	 0.233571597385707 
2291	 0.233565001605883 
2292	 0.233553983927213 
2293	 0.233537682192821 
2294	 0.233513736028594 
2295	 0.233496833631323 
2296	 0.233473348370397 
2297	 0.233468912042329 
2298	 0.23346635425435 
2299	 0.23349663405729 
2300	 0.233495572669786 
2301	 0.233482044993563 
2302	 0.233462935575031 
2303	 0.233420175264965 
2304	 0.233403524324842 
2305	 0.23337130620154 
2306	 0.233333558654384 
2307	 0.233283316088338 
2308	 0.233257128040948 
2309	 0.233239548134243 
2310	 0.233207076254139 
2311	 0.23318820678081 
2312	 0.233144502622249 
2313	 0.233064909655029 
2314	 0.233010253525742 
2315	 0.232983369152067 
2316	 0.232908435596988 
2317	 0.232781237359493 
2318	 0.232725527915734 
2319	 0.232672507562396 
2320	 0.232639358138105 
2321	 0.232689938128076 
2322	 0.23268584685791 
2323	 0.232643586415652 
2324	 0.232614088143244 
2325	 0.232585188915632 
2326	 0.232539698487153 
2327	 0.232474698132657 
2328	 0.232426329128954 
2329	 0.232416280114411 
2330	 0.232414405266835 
2331	 0.23238284847534 
2332	 0.232356281473799 
2333	 0.23227349169756 
2334	 0.232175680936821 
2335	 0.232099995231311 
2336	 0.232035467472967 
2337	 0.231987619699697 
2338	 0.231918550051899 
2339	 0.2318723234463 
2340	 0.231838693739507 
2341	 0.231765881109349 
2342	 0.231709040810621 
2343	 0.231622929408209 
2344	 0.231490895386626 
2345	 0.231384439083569 
2346	 0.231263755796468 
2347	 0.231138069470979 
2348	 0.231045243825752 
2349	 0.230916163870702 
2350	 0.230736340988823 
2351	 0.230612576650384 
2352	 0.230505955740798 
2353	 0.230368400709791 
2354	 0.230269087676234 
2355	 0.23010310963921 
2356	 0.2298714622786 
2357	 0.229670327622418 
2358	 0.229416555093493 
2359	 0.229234225672802 
2360	 0.229105734150828 
2361	 0.228965981089333 
2362	 0.228870387964533 
2363	 0.228753225920827 
2364	 0.228620606156918 
2365	 0.228484273438984 
2366	 0.228357495951496 
2367	 0.228215796918719 
2368	 0.228061193923884 
2369	 0.227885428393502 
2370	 0.227702675470884 
2371	 0.227480101297526 
2372	 0.227233620644627 
2373	 0.227052736127341 
2374	 0.226829755802074 
2375	 0.226627207495801 
2376	 0.226464699502622 
2377	 0.226263904291853 
2378	 0.226084990612004 
2379	 0.225877442878153 
2380	 0.225704280021482 
2381	 0.225588950197267 
2382	 0.225423816664055 
2383	 0.225284794942802 
2384	 0.225095001613615 
2385	 0.224806793030441 
2386	 0.224535853113331 
2387	 0.224262144826198 
2388	 0.224015222270685 
2389	 0.223786461527418 
2390	 0.223540839824773 
2391	 0.223321475475892 
2392	 0.223057252607089 
2393	 0.222783693813842 
2394	 0.222559140211468 
2395	 0.22234344925014 
2396	 0.222107769081729 
2397	 0.221837409596319 
2398	 0.221606694687994 
2399	 0.22135658140152 
2400	 0.221108910189568 
2401	 0.220904250148726 
2402	 0.220662700055614 
2403	 0.220463743613585 
2404	 0.220275466713665 
2405	 0.220045629204091 
2406	 0.219766619759152 
2407	 0.219429851736015 
2408	 0.219049340637897 
2409	 0.218645054359333 
2410	 0.218385882044691 
2411	 0.218163847646252 
2412	 0.217997068251141 
2413	 0.217897150793961 
2414	 0.2175915019231 
2415	 0.217246241256219 
2416	 0.216857920356832 
2417	 0.216246668772304 
2418	 0.215883021573304 
2419	 0.215633753062321 
2420	 0.215405018646448 
2421	 0.215356216976275 
2422	 0.215167286613768 
2423	 0.214888643546088 
2424	 0.214680337145008 
2425	 0.214472547270258 
2426	 0.214254119062799 
2427	 0.214129356131379 
2428	 0.213869085066074 
2429	 0.213491709053657 
2430	 0.213175125143447 
2431	 0.212830510471642 
2432	 0.212474248449429 
2433	 0.212106279702238 
2434	 0.211768767614558 
2435	 0.211408136011892 
2436	 0.21109819189268 
2437	 0.210849460733856 
2438	 0.21060523367669 
2439	 0.210400503974065 
2440	 0.21018460594969 
2441	 0.209992305664506 
2442	 0.209726270535805 
2443	 0.209417201319922 
2444	 0.209111475743324 
2445	 0.208763692550835 
2446	 0.208481233441207 
2447	 0.208203961267445 
2448	 0.207902094872714 
2449	 0.20765048200768 
2450	 0.207339449435809 
2451	 0.207003396527799 
2452	 0.206679336853356 
2453	 0.206331697366413 
2454	 0.206013461615589 
2455	 0.205671825882511 
2456	 0.205364974071612 
2457	 0.205061377071695 
2458	 0.204713566210608 
2459	 0.204369022318156 
2460	 0.204087866511981 
2461	 0.203915817079577 
2462	 0.203646857311334 
2463	 0.203318379929522 
2464	 0.203029155353614 
2465	 0.202628936905266 
2466	 0.202295184768306 
2467	 0.202155607183005 
2468	 0.201836228209869 
2469	 0.201357127329325 
2470	 0.201120773022828 
2471	 0.200849507889376 
2472	 0.200761147938341 
2473	 0.200595827739801 
2474	 0.200344186636611 
2475	 0.200089657519585 
2476	 0.19978978339252 
2477	 0.199545911844519 
2478	 0.199244510522875 
2479	 0.19894538275178 
2480	 0.198639428682177 
2481	 0.198231171128581 
2482	 0.197925764628837 
2483	 0.197684065252134 
2484	 0.197354720897296 
2485	 0.197161139035543 
2486	 0.197115231569855 
2487	 0.196914131120062 
2488	 0.196629275430774 
2489	 0.196390318859883 
2490	 0.196063690211081 
2491	 0.195754949293336 
2492	 0.19573739606673 
2493	 0.195742858846899 
2494	 0.195513938939479 
2495	 0.195234680179743 
2496	 0.194872027386201 
2497	 0.194431077338881 
2498	 0.194110353217696 
2499	 0.194091537308025 
2500	 0.194184099020946 
