Wavelength	MM400000.asd
350	 0.040730747883895 
351	 4.97419308388281E-02 
352	 4.51568460379778E-02 
353	 3.11817611960268E-02 
354	 3.34326998872009E-02 
355	 4.12243419932664E-02 
356	 4.60973718132756E-02 
357	 4.41236493286029E-02 
358	 4.45930978310028E-02 
359	 4.22534780129978E-02 
360	 3.97145675321396E-02 
361	 4.34723523934815E-02 
362	 4.20664602389273E-02 
363	 4.12837559886404E-02 
364	 0.043279370723609 
365	 4.12449279115466E-02 
366	 4.19003209515956E-02 
367	 4.23486155890006E-02 
368	 3.97178364351894E-02 
369	 4.19188015419109E-02 
370	 4.19515585713431E-02 
371	 4.07648311259894E-02 
372	 4.40957604829006E-02 
373	 4.41166334656502E-02 
374	 4.31822840429426E-02 
375	 4.34871088093425E-02 
376	 4.46789309161399E-02 
377	 4.41135507484413E-02 
378	 4.33906699169763E-02 
379	 4.46021042096584E-02 
380	 4.64943551229851E-02 
381	 4.46625608889833E-02 
382	 0.041341598183833 
383	 4.31812628172039E-02 
384	 0.045592081015923 
385	 4.46139691890379E-02 
386	 0.04096542852167 
387	 4.38182013622411E-02 
388	 4.66819382958223E-02 
389	 4.68887383629195E-02 
390	 4.42066483929926E-02 
391	 4.32591685699629E-02 
392	 4.35008229720969E-02 
393	 4.49120958217723E-02 
394	 4.78722097843329E-02 
395	 4.80932643439247E-02 
396	 4.72242830598103E-02 
397	 4.72070003489246E-02 
398	 4.85310544618763E-02 
399	 4.86060682396874E-02 
400	 4.87216402965962E-02 
401	 5.05944689394184E-02 
402	 4.96703029990674E-02 
403	 4.87131438469013E-02 
404	 4.88929570849063E-02 
405	 4.92900928148677E-02 
406	 4.94789111667644E-02 
407	 0.049711735414563 
408	 5.00244915568723E-02 
409	 4.93754307301392E-02 
410	 4.93387562644732E-02 
411	 4.97479377772217E-02 
412	 4.97390136678002E-02 
413	 4.99274013344827E-02 
414	 5.00422552362478E-02 
415	 5.01301955225398E-02 
416	 5.07566290139128E-02 
417	 5.02977756281775E-02 
418	 5.00626676258397E-02 
419	 5.10607243439161E-02 
420	 5.08518145738467E-02 
421	 5.04323950291945E-02 
422	 5.05114284064418E-02 
423	 5.13619440962999E-02 
424	 5.10764937526353E-02 
425	 5.04737909793507E-02 
426	 5.01903352112163E-02 
427	 4.98407567787766E-02 
428	 4.97761541947851E-02 
429	 0.049783252242668 
430	 4.96216437648389E-02 
431	 4.98795757761279E-02 
432	 5.01177818282731E-02 
433	 5.01369412922973E-02 
434	 5.00261790236466E-02 
435	 5.01221047783591E-02 
436	 5.03734407582132E-02 
437	 5.05155720808042E-02 
438	 4.98521458100754E-02 
439	 0.049707915200228 
440	 5.00496099998592E-02 
441	 5.01686600221844E-02 
442	 4.99984190136255E-02 
443	 4.99534080767488E-02 
444	 0.050159431241209 
445	 5.02543175330433E-02 
446	 5.00994043525083E-02 
447	 4.99932121327493E-02 
448	 5.02270730527232E-02 
449	 5.04711573939089E-02 
450	 0.050703188861392 
451	 5.08456183868172E-02 
452	 5.07849752181933E-02 
453	 5.07207810697359E-02 
454	 5.05723243787957E-02 
455	 5.03779161345144E-02 
456	 5.06384484631467E-02 
457	 5.06435684698596E-02 
458	 5.04208364549681E-02 
459	 5.03308937300749E-02 
460	 5.04239440411204E-02 
461	 5.05500798131631E-02 
462	 5.06369081282099E-02 
463	 5.07476189782525E-02 
464	 5.10085711132885E-02 
465	 5.10843895359533E-02 
466	 5.07623482091747E-02 
467	 5.08322556953348E-02 
468	 5.08260939173451E-02 
469	 5.06757743804517E-02 
470	 0.0506525226799 
471	 5.06957193665069E-02 
472	 5.07704804835554E-02 
473	 5.08410894634668E-02 
474	 5.08657920824066E-02 
475	 5.08864030806266E-02 
476	 0.050913906522764 
477	 5.09438788641109E-02 
478	 5.09768125205159E-02 
479	 5.09167394670309E-02 
480	 5.08108014301925E-02 
481	 5.09113943781348E-02 
482	 5.09879949617678E-02 
483	 5.10085708602474E-02 
484	 5.10063182291171E-02 
485	 5.10456499631671E-02 
486	 0.051042591327209 
487	 5.09641919115613E-02 
488	 0.050833923939963 
489	 5.08156616866771E-02 
490	 5.08782094497178E-02 
491	 5.09626251615551E-02 
492	 5.10516566979594E-02 
493	 5.10701412437152E-02 
494	 5.10172388021559E-02 
495	 5.09529437490251E-02 
496	 5.10850501824674E-02 
497	 5.11062221939186E-02 
498	 5.09857596580116E-02 
499	 5.11806661574272E-02 
500	 5.11819714683261E-02 
501	 5.10766750423276E-02 
502	 5.10972686093114E-02 
503	 5.13122265018183E-02 
504	 5.13792992788582E-02 
505	 5.12759776492421E-02 
506	 5.12746729339144E-02 
507	 5.13066455703292E-02 
508	 5.12905093817193E-02 
509	 5.12048587805661E-02 
510	 5.11908568960483E-02 
511	 0.051274159223738 
512	 5.13354857235892E-02 
513	 5.12214602056804E-02 
514	 5.12458256670471E-02 
515	 5.13063605668209E-02 
516	 5.13425398696088E-02 
517	 5.14588738045335E-02 
518	 5.14692079974241E-02 
519	 5.13923691160332E-02 
520	 5.13272270398083E-02 
521	 5.13846716772317E-02 
522	 5.14405000547467E-02 
523	 5.14625090939654E-02 
524	 5.15275138148428E-02 
525	 5.15683624936946E-02 
526	 5.15261809950269E-02 
527	 5.14222160425792E-02 
528	 5.15165797483414E-02 
529	 5.16303086864347E-02 
530	 5.16769252436322E-02 
531	 5.16474875932185E-02 
532	 0.051656900035952 
533	 5.16998675959233E-02 
534	 5.17528945556088E-02 
535	 5.17904958580711E-02 
536	 5.18905099286734E-02 
537	 5.19755812670238E-02 
538	 5.19480026709463E-02 
539	 5.20231600996779E-02 
540	 5.20771875507177E-02 
541	 5.20728103404624E-02 
542	 5.21205497995939E-02 
543	 5.22269283044144E-02 
544	 5.23159947431204E-02 
545	 5.23323725328528E-02 
546	 5.24072202437694E-02 
547	 5.24674476142704E-02 
548	 5.25201046717718E-02 
549	 5.26345896914688E-02 
550	 5.26210644484771E-02 
551	 5.26426064117567E-02 
552	 5.28096357573549E-02 
553	 5.29356675898798E-02 
554	 5.30271314832875E-02 
555	 5.31125991058269E-02 
556	 5.32372020494767E-02 
557	 5.34363321060331E-02 
558	 5.36038607588252E-02 
559	 5.37188779870983E-02 
560	 0.053942090555624 
561	 0.054100317940681 
562	 0.054254548804989 
563	 5.45086180091439E-02 
564	 5.47342459914005E-02 
565	 5.49609339945642E-02 
566	 5.51830610838559E-02 
567	 0.05534873430385 
568	 5.56650786373296E-02 
569	 5.60304919315787E-02 
570	 0.056324158938046 
571	 5.66340516149396E-02 
572	 5.69222505297036E-02 
573	 5.72207277150395E-02 
574	 5.75973144230005E-02 
575	 5.78939464891692E-02 
576	 5.82261060438545E-02 
577	 5.86466871329388E-02 
578	 0.05896525583257 
579	 5.93681027846837E-02 
580	 5.98549358288226E-02 
581	 0.060353980047844 
582	 6.08977286051647E-02 
583	 6.14581800294364E-02 
584	 6.20076413966473E-02 
585	 6.25252753285771E-02 
586	 6.30692427624531E-02 
587	 6.36163876398567E-02 
588	 6.41364347917095E-02 
589	 0.064684337318507 
590	 6.52327244816072E-02 
591	 6.57671137003081E-02 
592	 0.066290767509408 
593	 6.68398854302829E-02 
594	 6.74027736154399E-02 
595	 6.79616299959972E-02 
596	 6.85065913078784E-02 
597	 6.91169560423483E-02 
598	 6.97368541510589E-02 
599	 7.02600146562009E-02 
600	 7.08362730526225E-02 
601	 7.14118898723487E-02 
602	 7.19308619214036E-02 
603	 7.23709066311495E-02 
604	 0.072839857535152 
605	 7.33557095728417E-02 
606	 7.38839018543641E-02 
607	 7.43140734624868E-02 
608	 0.074726935602081 
609	 7.51491024389351E-02 
610	 7.55337227633018E-02 
611	 7.59239569953431E-02 
612	 7.63386753578871E-02 
613	 7.67598762426386E-02 
614	 7.70738904026642E-02 
615	 7.73785700556308E-02 
616	 7.76937536705823E-02 
617	 7.79825015967448E-02 
618	 7.82487666796022E-02 
619	 7.84946080516675E-02 
620	 7.87227641247543E-02 
621	 7.89275200231639E-02 
622	 7.91839977668157E-02 
623	 0.079440857314281 
624	 7.96139220814986E-02 
625	 7.97893059662668E-02 
626	 7.99532374513988E-02 
627	 8.01201007636823E-02 
628	 8.03516607040543E-02 
629	 8.05604892059349E-02 
630	 8.07465404139524E-02 
631	 8.09248265862163E-02 
632	 8.10625896020068E-02 
633	 8.12026092209798E-02 
634	 8.13634728800437E-02 
635	 8.15388916020904E-02 
636	 8.16815763805232E-02 
637	 8.18286781039348E-02 
638	 8.19959542000368E-02 
639	 8.20985220982541E-02 
640	 8.22850977774506E-02 
641	 8.25127426277143E-02 
642	 8.26656076795778E-02 
643	 8.28330098227885E-02 
644	 8.29809155850902E-02 
645	 8.31198660845855E-02 
646	 8.33424407861229E-02 
647	 8.35026326928542E-02 
648	 8.36519230397416E-02 
649	 8.38636150853968E-02 
650	 0.084042210296673 
651	 8.42179332073119E-02 
652	 0.084404790238365 
653	 8.46001691837468E-02 
654	 8.48078567704083E-02 
655	 8.50248851660029E-02 
656	 8.52387500856876E-02 
657	 8.54090731616582E-02 
658	 8.56096101783889E-02 
659	 8.58529245235796E-02 
660	 0.086115196239432 
661	 8.63574861877874E-02 
662	 0.086585384979561 
663	 8.68175855550638E-02 
664	 8.70852933077498E-02 
665	 0.087305893054537 
666	 8.75366575283061E-02 
667	 8.78396145566145E-02 
668	 8.81170345690985E-02 
669	 0.088406291052237 
670	 8.87178973148717E-02 
671	 8.90345504580215E-02 
672	 8.93162916287009E-02 
673	 8.96152214536138E-02 
674	 8.99542933779365E-02 
675	 9.02464943431589E-02 
676	 9.05517345212095E-02 
677	 9.08655775534608E-02 
678	 9.11681954467867E-02 
679	 9.15326523177775E-02 
680	 9.19047458963934E-02 
681	 9.22735455281481E-02 
682	 0.092699461855384 
683	 9.30454880128836E-02 
684	 9.33741382397268E-02 
685	 0.09377184262135 
686	 9.42140089323254E-02 
687	 9.46210702771816E-02 
688	 9.50036966121146E-02 
689	 9.54310072437301E-02 
690	 0.095828844269574 
691	 9.62205248323162E-02 
692	 9.66398374120866E-02 
693	 9.71200274838976E-02 
694	 9.75653731411492E-02 
695	 9.80039838323398E-02 
696	 9.84879362629462E-02 
697	 9.89232005406958E-02 
698	 9.93785039968407E-02 
699	 9.98571813873946E-02 
700	 0.100287168451278 
701	 0.100748517078933 
702	 0.101257189437071 
703	 0.101785929471258 
704	 0.102224139121902 
705	 0.102713517419491 
706	 0.103240082938573 
707	 0.103714462875615 
708	 0.104164427858403 
709	 0.104657971982137 
710	 0.105190336496067 
711	 0.105648141367688 
712	 0.106123272985764 
713	 0.106631529591512 
714	 0.107149518051535 
715	 0.107585648111388 
716	 0.108029911366648 
717	 0.108508317870365 
718	 0.108992586034976 
719	 0.109448484044216 
720	 0.10990285866317 
721	 0.110351650554824 
722	 0.110703926896381 
723	 0.11114269223029 
724	 0.111598969300495 
725	 0.111952141856621 
726	 0.112299574234 
727	 0.112649536173573 
728	 0.113001821994011 
729	 0.113348683335994 
730	 0.113638577276936 
731	 0.113928395527056 
732	 0.114247805323489 
733	 0.114512866466497 
734	 0.114770232279342 
735	 0.115014611653112 
736	 0.11522090906585 
737	 0.115372055344566 
738	 0.115531937390785 
739	 0.115700959212975 
740	 0.115806174332676 
741	 0.115893968850136 
742	 0.11597389808122 
743	 0.116044618629762 
744	 0.116098946845464 
745	 0.116119125416605 
746	 0.116117751240048 
747	 0.11611683210006 
748	 0.116090276711692 
749	 0.116033049689017 
750	 0.115950644225126 
751	 0.115858627546092 
752	 0.115779054641788 
753	 0.115672677745134 
754	 0.115517961640799 
755	 0.115391097796792 
756	 0.115225653709254 
757	 0.115034967935361 
758	 0.114866597189962 
759	 0.114695331637615 
760	 0.114480754742694 
761	 0.114227668515247 
762	 0.113997203663653 
763	 0.113761833511846 
764	 0.113517225948189 
765	 0.113263087573775 
766	 0.112998656994189 
767	 0.112711654572322 
768	 0.112413949908892 
769	 0.11212721388964 
770	 0.111850498956463 
771	 0.111543539268493 
772	 0.111208055392817 
773	 0.110898264805472 
774	 0.11061535879174 
775	 0.110300633882565 
776	 0.109931443609548 
777	 0.10962211040431 
778	 0.109292854488254 
779	 0.10896674775997 
780	 0.108689029146827 
781	 0.1083319226042 
782	 0.108012961736807 
783	 0.107735139446786 
784	 0.107370880648457 
785	 0.107068961532915 
786	 0.106778776853006 
787	 0.1064510422764 
788	 0.106132647677482 
789	 0.105816709779478 
790	 0.105496422703831 
791	 0.105170681038663 
792	 0.104877594001176 
793	 0.104562009904693 
794	 0.104226667939472 
795	 0.103926423406401 
796	 0.103648212564508 
797	 0.103377679645324 
798	 0.103102317222229 
799	 0.10281226477877 
800	 0.102562083373971 
801	 0.102303251317088 
802	 0.101989605525866 
803	 0.101708444118741 
804	 0.101467259791775 
805	 0.10123070565488 
806	 0.100946710886002 
807	 0.100661253803091 
808	 0.100401837103026 
809	 0.100180164517434 
810	 9.99882527729657E-02 
811	 9.97727169837152E-02 
812	 9.95321411523669E-02 
813	 9.92891095229894E-02 
814	 9.90934964503263E-02 
815	 9.88897295677168E-02 
816	 9.86808102351257E-02 
817	 9.84857900736378E-02 
818	 9.82624426511523E-02 
819	 9.80916383013356E-02 
820	 9.79462156530586E-02 
821	 9.77181535005267E-02 
822	 9.75520500326738E-02 
823	 9.73999994786898E-02 
824	 9.72193762295713E-02 
825	 9.70236191855864E-02 
826	 9.68803685192865E-02 
827	 9.67730897566014E-02 
828	 9.66532496914315E-02 
829	 9.64519719630026E-02 
830	 9.62795430862292E-02 
831	 9.61504961361183E-02 
832	 9.60325372019442E-02 
833	 9.59446562898498E-02 
834	 9.58281677251201E-02 
835	 9.56829909083984E-02 
836	 9.55668497145344E-02 
837	 9.54708152850939E-02 
838	 9.53945049968804E-02 
839	 9.53254126387281E-02 
840	 9.52308343825833E-02 
841	 9.51546974125784E-02 
842	 9.50673621057227E-02 
843	 9.49560971629788E-02 
844	 0.094929940441806 
845	 0.09488012518513 
846	 9.47920450251071E-02 
847	 9.47050595940491E-02 
848	 9.46748647987772E-02 
849	 9.46486554633085E-02 
850	 9.46159646540315E-02 
851	 9.46029234047754E-02 
852	 9.45507364519596E-02 
853	 0.094498184874216 
854	 9.44805976658862E-02 
855	 9.45053439769397E-02 
856	 0.094471199744182 
857	 9.44540055286908E-02 
858	 9.45057923372609E-02 
859	 9.45065617324655E-02 
860	 9.45071632364068E-02 
861	 9.45176918368531E-02 
862	 9.45363512001041E-02 
863	 9.45701302088371E-02 
864	 9.45867416395264E-02 
865	 9.45865460557456E-02 
866	 9.45955779108671E-02 
867	 9.46565610793036E-02 
868	 9.46947411832335E-02 
869	 9.47097724422504E-02 
870	 9.47809765292873E-02 
871	 9.48545508539027E-02 
872	 9.49186045815558E-02 
873	 9.49754798818118E-02 
874	 0.095038719855783 
875	 0.095133053098378 
876	 9.52154995739983E-02 
877	 9.52619026463368E-02 
878	 9.53406513810572E-02 
879	 9.54391556923581E-02 
880	 9.55357534795006E-02 
881	 9.56197889299738E-02 
882	 9.57461550489899E-02 
883	 9.58645875614603E-02 
884	 9.59824365475361E-02 
885	 9.61305575130477E-02 
886	 0.096269792914128 
887	 9.63634433009661E-02 
888	 9.64514207157036E-02 
889	 9.66197830890369E-02 
890	 9.67478615819135E-02 
891	 0.096895266650745 
892	 9.70839200220709E-02 
893	 0.097258377087569 
894	 9.73438029308787E-02 
895	 9.74447043759661E-02 
896	 9.76366083906133E-02 
897	 9.78761812374999E-02 
898	 9.80868025247802E-02 
899	 9.82444323938028E-02 
900	 9.83785711976412E-02 
901	 9.86061375145197E-02 
902	 9.88421226916303E-02 
903	 9.90465677186732E-02 
904	 9.92157553774636E-02 
905	 9.94143147390643E-02 
906	 9.96102620501083E-02 
907	 9.98128379858314E-02 
908	 0.100056283466369 
909	 0.100401591205774 
910	 0.100665671124375 
911	 0.100881159494821 
912	 0.101196436823692 
913	 0.101433295675238 
914	 0.101702438189527 
915	 0.101988119369345 
916	 0.102175118169257 
917	 0.102498279471247 
918	 0.102866473951779 
919	 0.10318362213431 
920	 0.103415636585722 
921	 0.103746065137702 
922	 0.104058252043582 
923	 0.104327930930638 
924	 0.104730815436562 
925	 0.105069839616594 
926	 0.105406993330029 
927	 0.105778707091741 
928	 0.106073103917378 
929	 0.106438245165727 
930	 0.106854094327077 
931	 0.107270383594945 
932	 0.107677803118144 
933	 0.10807501222336 
934	 0.108455840552503 
935	 0.108831839261335 
936	 0.109267114525996 
937	 0.10967149289325 
938	 0.110065886207676 
939	 0.110499763362679 
940	 0.110980644652968 
941	 0.111455205202792 
942	 0.11192890621723 
943	 0.112413955420806 
944	 0.112843148162633 
945	 0.113280974509204 
946	 0.113750146220458 
947	 0.114243197192855 
948	 0.114728291293154 
949	 0.115237222059546 
950	 0.115745175002124 
951	 0.116232835742995 
952	 0.116859225940709 
953	 0.117413243311414 
954	 0.117901493543457 
955	 0.118453556965838 
956	 0.119070233991013 
957	 0.11965660073661 
958	 0.120171867343531 
959	 0.120651606874668 
960	 0.121300368745003 
961	 0.121906269451363 
962	 0.122454532076548 
963	 0.123062588234057 
964	 0.123697195124888 
965	 0.124327014561752 
966	 0.124931849374621 
967	 0.125516575155605 
968	 0.126153370008886 
969	 0.126793292888824 
970	 0.127444214689583 
971	 0.128140690689794 
972	 0.128814518695894 
973	 0.129485443908751 
974	 0.13013232854254 
975	 0.130736618953923 
976	 0.13146280583669 
977	 0.132270960857812 
978	 0.133054221794933 
979	 0.13370857157028 
980	 0.134320231843754 
981	 0.134929921417915 
982	 0.13562582528795 
983	 0.136467110821734 
984	 0.137249351348486 
985	 0.137985739930113 
986	 0.138668974884801 
987	 0.139309393787498 
988	 0.140066835934564 
989	 0.140860238445365 
990	 0.141593651055289 
991	 0.142226715383105 
992	 0.142932980405878 
993	 0.143716351528346 
994	 0.144567154475654 
995	 0.145407575051187 
996	 0.145933800465648 
997	 0.14661926231006 
998	 0.147435684465081 
999	 0.148199471515837 
1000	 0.149010390276698 
1001	 0.150616451545127 
1002	 0.151321877815146 
1003	 0.152092334788485 
1004	 0.152823814638479 
1005	 0.153530491170094 
1006	 0.154231113339631 
1007	 0.154915623599015 
1008	 0.155606518607614 
1009	 0.15627510239219 
1010	 0.157009763412851 
1011	 0.157750833719479 
1012	 0.158459974482085 
1013	 0.159122059229467 
1014	 0.159706214835851 
1015	 0.160293827271646 
1016	 0.160883732435657 
1017	 0.161495012768988 
1018	 0.162134896622709 
1019	 0.16281364585063 
1020	 0.163410140835051 
1021	 0.164034966150326 
1022	 0.164717779842311 
1023	 0.165339223059274 
1024	 0.165987663331758 
1025	 0.166615286265206 
1026	 0.167170792579992 
1027	 0.167783636274987 
1028	 0.168401434082558 
1029	 0.168941283856255 
1030	 0.169448720981668 
1031	 0.169965256865587 
1032	 0.170450745844156 
1033	 0.170933863310441 
1034	 0.171465010154098 
1035	 0.172021200544703 
1036	 0.172561471270695 
1037	 0.173062970721311 
1038	 0.173570991182517 
1039	 0.174122687323615 
1040	 0.174643526993489 
1041	 0.175180169670164 
1042	 0.17573175218042 
1043	 0.176242290607007 
1044	 0.176742341446109 
1045	 0.177220306415888 
1046	 0.177710973793482 
1047	 0.178240315302803 
1048	 0.178776459045563 
1049	 0.179292539899791 
1050	 0.179833141169388 
1051	 0.180352348779266 
1052	 0.180803320357956 
1053	 0.181306704156537 
1054	 0.181837984774319 
1055	 0.182334713483158 
1056	 0.182849432552903 
1057	 0.183323641064935 
1058	 0.183734937964184 
1059	 0.18420247294701 
1060	 0.184678239764853 
1061	 0.185142657412578 
1062	 0.185638408060383 
1063	 0.186130499991622 
1064	 0.18656639752571 
1065	 0.187013241500897 
1066	 0.187516085463756 
1067	 0.187998998391114 
1068	 0.188463374837236 
1069	 0.188956187998878 
1070	 0.189414239942197 
1071	 0.189804413848028 
1072	 0.19025150947198 
1073	 0.190744898262392 
1074	 0.191183195449013 
1075	 0.191603850656381 
1076	 0.192024412163461 
1077	 0.19243125605923 
1078	 0.192827360371941 
1079	 0.193240695790224 
1080	 0.193706288617453 
1081	 0.194168236874746 
1082	 0.194580526547234 
1083	 0.195013611351566 
1084	 0.19545286109752 
1085	 0.195881102578387 
1086	 0.196313213182074 
1087	 0.196734687543338 
1088	 0.197143736558486 
1089	 0.19754153568686 
1090	 0.197962847381891 
1091	 0.198398263853836 
1092	 0.198839249767713 
1093	 0.199274060889927 
1094	 0.199715464682304 
1095	 0.200148845916835 
1096	 0.200564161508964 
1097	 0.200985034223436 
1098	 0.201403849840369 
1099	 0.201805580836441 
1100	 0.202221215917577 
1101	 0.20263345255101 
1102	 0.203067820249927 
1103	 0.203525024197138 
1104	 0.203966557742495 
1105	 0.204392990970336 
1106	 0.204857224176647 
1107	 0.205305963867627 
1108	 0.205717251193569 
1109	 0.20615437490198 
1110	 0.206615631766606 
1111	 0.207077321873689 
1112	 0.207555652132198 
1113	 0.208010913017239 
1114	 0.208460372634363 
1115	 0.208918998014748 
1116	 0.209365384584469 
1117	 0.209820263049103 
1118	 0.210292388523648 
1119	 0.210755872511659 
1120	 0.211219513782674 
1121	 0.211677736587778 
1122	 0.212141924865893 
1123	 0.212620115472908 
1124	 0.213088669043915 
1125	 0.21355623451452 
1126	 0.214014187643766 
1127	 0.214452641138338 
1128	 0.21491892525587 
1129	 0.215413913582263 
1130	 0.215866404206417 
1131	 0.216306800243411 
1132	 0.216760784220289 
1133	 0.217180044802649 
1134	 0.217618135711912 
1135	 0.218083960996212 
1136	 0.218557687968898 
1137	 0.219003907343586 
1138	 0.219436303102846 
1139	 0.219855148056157 
1140	 0.22025357432565 
1141	 0.22066224336866 
1142	 0.221057469757288 
1143	 0.221470403216811 
1144	 0.221905339881201 
1145	 0.22230891618953 
1146	 0.222709191906681 
1147	 0.223094580758606 
1148	 0.223443119671295 
1149	 0.223820117478396 
1150	 0.224205586443435 
1151	 0.224593465081707 
1152	 0.224990874014951 
1153	 0.225366914592128 
1154	 0.225730949175992 
1155	 0.226080832145831 
1156	 0.226421764475527 
1157	 0.226738526168696 
1158	 0.227079479867975 
1159	 0.227427816420175 
1160	 0.227766645346099 
1161	 0.228120705963635 
1162	 0.228454432143517 
1163	 0.228762501789195 
1164	 0.229081434393864 
1165	 0.229402110175162 
1166	 0.229724795460562 
1167	 0.230030066124265 
1168	 0.230326639917077 
1169	 0.230614858931445 
1170	 0.230877283690333 
1171	 0.23116196435688 
1172	 0.231456987404801 
1173	 0.231741904375807 
1174	 0.232038996535312 
1175	 0.232309156928869 
1176	 0.232556742084425 
1177	 0.232813359166952 
1178	 0.233053648995292 
1179	 0.23330825280388 
1180	 0.233572871573074 
1181	 0.233837488122248 
1182	 0.23411139632601 
1183	 0.234383774570801 
1184	 0.234635970639511 
1185	 0.234888164650328 
1186	 0.235118831135282 
1187	 0.23531968683113 
1188	 0.235537257506296 
1189	 0.235755473315036 
1190	 0.2359643621549 
1191	 0.2361701836995 
1192	 0.236377664419339 
1193	 0.236575843065091 
1194	 0.236778223479866 
1195	 0.236980466523145 
1196	 0.237190797715158 
1197	 0.237418036272816 
1198	 0.237623929955732 
1199	 0.2378234553718 
1200	 0.238025106408159 
1201	 0.238218469124256 
1202	 0.238389830434837 
1203	 0.238577486230524 
1204	 0.238787692528235 
1205	 0.238959552598702 
1206	 0.239108562897723 
1207	 0.239269561872656 
1208	 0.239414718632751 
1209	 0.239566855324321 
1210	 0.23973097704337 
1211	 0.239888888118004 
1212	 0.240039316533043 
1213	 0.240190568764984 
1214	 0.240353372041255 
1215	 0.240500973413215 
1216	 0.240640523409982 
1217	 0.240768521581861 
1218	 0.240903794684206 
1219	 0.241034897573279 
1220	 0.241162184740819 
1221	 0.241291160990864 
1222	 0.241417630673367 
1223	 0.241536998642792 
1224	 0.241656644483752 
1225	 0.241779344206233 
1226	 0.241898296208613 
1227	 0.24201599523377 
1228	 0.242125989797915 
1229	 0.242221522349695 
1230	 0.242333101635454 
1231	 0.242450104921789 
1232	 0.24256225559016 
1233	 0.242677208233137 
1234	 0.242809722931914 
1235	 0.242918914235764 
1236	 0.243016092724564 
1237	 0.243110302737464 
1238	 0.24319470979794 
1239	 0.243284386222749 
1240	 0.243375330754999 
1241	 0.243455749527803 
1242	 0.243524520147152 
1243	 0.243607865005517 
1244	 0.24368590611689 
1245	 0.24377190604279 
1246	 0.243886154197043 
1247	 0.243979054686359 
1248	 0.244070332185781 
1249	 0.244138523267134 
1250	 0.244203561228321 
1251	 0.244288336016134 
1252	 0.244362932006411 
1253	 0.244441508439452 
1254	 0.24451139396809 
1255	 0.244580431120348 
1256	 0.244634969622244 
1257	 0.244672851317225 
1258	 0.244726951773736 
1259	 0.244777611702273 
1260	 0.244830090543102 
1261	 0.244892407257105 
1262	 0.244951242081447 
1263	 0.245005492390611 
1264	 0.245062221549418 
1265	 0.245133100260958 
1266	 0.245187531415749 
1267	 0.245228333542368 
1268	 0.245265113017633 
1269	 0.245319031847496 
1270	 0.245373005909839 
1271	 0.245429981578323 
1272	 0.245498662382831 
1273	 0.245568989478329 
1274	 0.245623643589314 
1275	 0.245710168175777 
1276	 0.245830173239425 
1277	 0.245932299000479 
1278	 0.246047674776793 
1279	 0.246148902936817 
1280	 0.24623652937758 
1281	 0.246325504902738 
1282	 0.246407259695033 
1283	 0.246495556818592 
1284	 0.246583202395489 
1285	 0.246672005562083 
1286	 0.246785024714729 
1287	 0.246885950767348 
1288	 0.246975167605337 
1289	 0.247073117502094 
1290	 0.247139808460497 
1291	 0.247181248784671 
1292	 0.247217722092525 
1293	 0.247230917113246 
1294	 0.247254871314134 
1295	 0.2472746931761 
1296	 0.247292144734205 
1297	 0.247316706835335 
1298	 0.247327313772918 
1299	 0.247329815531311 
1300	 0.247323068483863 
1301	 0.247297501448214 
1302	 0.247282486501879 
1303	 0.247262957252344 
1304	 0.247245851362527 
1305	 0.247247053778591 
1306	 0.247240069829137 
1307	 0.247214259239362 
1308	 0.247192553819757 
1309	 0.24717569949419 
1310	 0.247153052319122 
1311	 0.247138751376638 
1312	 0.247136868287147 
1313	 0.247129282413891 
1314	 0.247119129136161 
1315	 0.247106949171548 
1316	 0.247094224410038 
1317	 0.247084543973822 
1318	 0.247073536154646 
1319	 0.247064779931839 
1320	 0.247047776920521 
1321	 0.247052024893475 
1322	 0.247070203398927 
1323	 0.247084899643418 
1324	 0.247103871341443 
1325	 0.247139612888734 
1326	 0.247157401657812 
1327	 0.247177102785459 
1328	 0.247216198929276 
1329	 0.24725320271797 
1330	 0.247307403602772 
1331	 0.247370556648859 
1332	 0.247446810660544 
1333	 0.247549077997673 
1334	 0.247630712750791 
1335	 0.247713233546654 
1336	 0.247793187341118 
1337	 0.24785355063742 
1338	 0.247934218425189 
1339	 0.248037710585773 
1340	 0.248117913562653 
1341	 0.248197594240688 
1342	 0.248274785347102 
1343	 0.248328734217481 
1344	 0.248401098502209 
1345	 0.248491502988943 
1346	 0.248564097176696 
1347	 0.248656328774717 
1348	 0.248741927816527 
1349	 0.248823325087664 
1350	 0.248921318175641 
1351	 0.249023101590516 
1352	 0.249136140477579 
1353	 0.249236711145651 
1354	 0.249338064137998 
1355	 0.249441464419748 
1356	 0.249543418915406 
1357	 0.249635639632436 
1358	 0.249731998204462 
1359	 0.249821865925727 
1360	 0.249896818021612 
1361	 0.249970981337389 
1362	 0.25004892536658 
1363	 0.250118836942736 
1364	 0.250173991643246 
1365	 0.25023684598926 
1366	 0.250311997296072 
1367	 0.250369454269921 
1368	 0.250405793380705 
1369	 0.250448089487136 
1370	 0.250474855435766 
1371	 0.250488688099699 
1372	 0.250498135633233 
1373	 0.250499696927219 
1374	 0.250508772761089 
1375	 0.250517053878143 
1376	 0.250509769354653 
1377	 0.250516980003126 
1378	 0.250487961735043 
1379	 0.250428723655062 
1380	 0.250364113968253 
1381	 0.250285913024003 
1382	 0.250193326104374 
1383	 0.250087503111888 
1384	 0.24996967277762 
1385	 0.249845975475383 
1386	 0.249700821991663 
1387	 0.249536637640835 
1388	 0.249358253719703 
1389	 0.249166557441446 
1390	 0.248950196881362 
1391	 0.248725512515699 
1392	 0.248493835342594 
1393	 0.248233318514144 
1394	 0.247966747596943 
1395	 0.247667415955061 
1396	 0.247337279210534 
1397	 0.247001676224465 
1398	 0.246638513943356 
1399	 0.246283071335666 
1400	 0.245923034121855 
1401	 0.245558706241595 
1402	 0.245183174367905 
1403	 0.244820439042032 
1404	 0.244454589943888 
1405	 0.244099272609201 
1406	 0.243768306914842 
1407	 0.243411385138046 
1408	 0.243033621974793 
1409	 0.242675467719108 
1410	 0.242298940957596 
1411	 0.241958111020718 
1412	 0.241630740331839 
1413	 0.241338645599478 
1414	 0.241081740056107 
1415	 0.240843118299857 
1416	 0.240631208915322 
1417	 0.240431742414609 
1418	 0.240245794063464 
1419	 0.240068046758655 
1420	 0.239898977822788 
1421	 0.239748524384652 
1422	 0.239593611849895 
1423	 0.239440336584728 
1424	 0.239304192895434 
1425	 0.23917559591181 
1426	 0.239066478251915 
1427	 0.238974591351298 
1428	 0.238890817230898 
1429	 0.238826804614558 
1430	 0.238761012061434 
1431	 0.238697072310313 
1432	 0.238648823889941 
1433	 0.238606505516173 
1434	 0.23857408468056 
1435	 0.238561942187976 
1436	 0.238543160793277 
1437	 0.238526297513707 
1438	 0.238518915375284 
1439	 0.23851886334022 
1440	 0.238514616155902 
1441	 0.238509031672758 
1442	 0.238511364707195 
1443	 0.238534316773928 
1444	 0.23855415479506 
1445	 0.238595172288121 
1446	 0.238647004544772 
1447	 0.238679745460556 
1448	 0.238709236994353 
1449	 0.238726363860782 
1450	 0.238739863935703 
1451	 0.238769082379418 
1452	 0.238801617788427 
1453	 0.238836125159924 
1454	 0.23888509083606 
1455	 0.238926157495494 
1456	 0.238961640730318 
1457	 0.23900075537934 
1458	 0.239042605285991 
1459	 0.23908507774321 
1460	 0.239126513867427 
1461	 0.239167735251594 
1462	 0.239207257087335 
1463	 0.239256370427693 
1464	 0.239300598869168 
1465	 0.239362250729486 
1466	 0.239448226498985 
1467	 0.239522741842475 
1468	 0.239583742803494 
1469	 0.239674398356711 
1470	 0.239780430794689 
1471	 0.239883046033443 
1472	 0.239999379092252 
1473	 0.240142944627411 
1474	 0.240275258483558 
1475	 0.240407658674012 
1476	 0.240554358563467 
1477	 0.240679154853885 
1478	 0.240793770566431 
1479	 0.240909128386415 
1480	 0.241028140890417 
1481	 0.241168210486879 
1482	 0.241301777174411 
1483	 0.241446878657741 
1484	 0.241575872739546 
1485	 0.241690592401552 
1486	 0.241816742809745 
1487	 0.241946798533227 
1488	 0.242073142989926 
1489	 0.242203477002686 
1490	 0.242332699846447 
1491	 0.242454348506744 
1492	 0.242578919475216 
1493	 0.242708221831727 
1494	 0.24283968679909 
1495	 0.242976164995136 
1496	 0.243098823617763 
1497	 0.243214972248983 
1498	 0.243333421641275 
1499	 0.243441542400038 
1500	 0.243560712317819 
1501	 0.243692884238819 
1502	 0.243816578450629 
1503	 0.243943593574519 
1504	 0.244052795226925 
1505	 0.244172387823809 
1506	 0.244293196954336 
1507	 0.244408307529301 
1508	 0.244534393120744 
1509	 0.244636714054651 
1510	 0.244724631116463 
1511	 0.244832463237629 
1512	 0.244936131354027 
1513	 0.245051648136399 
1514	 0.245191041831461 
1515	 0.245310131278414 
1516	 0.245418682646191 
1517	 0.245520860493714 
1518	 0.245610292482249 
1519	 0.245703526892732 
1520	 0.245792443437306 
1521	 0.245877201344094 
1522	 0.245962577728131 
1523	 0.2460432766832 
1524	 0.246106967263359 
1525	 0.246197392977957 
1526	 0.246301537656268 
1527	 0.24639499789399 
1528	 0.24651007583223 
1529	 0.246595878824747 
1530	 0.246658671596886 
1531	 0.246723899381196 
1532	 0.246770396123018 
1533	 0.246831960341312 
1534	 0.246892643289969 
1535	 0.246966380672227 
1536	 0.2470603918077 
1537	 0.247141310404993 
1538	 0.247223778900767 
1539	 0.247303886969914 
1540	 0.247373831644829 
1541	 0.247450049115897 
1542	 0.247537313834992 
1543	 0.247610459399434 
1544	 0.247675401719362 
1545	 0.247741192209125 
1546	 0.247794676966111 
1547	 0.247857397991887 
1548	 0.247930222802836 
1549	 0.24800265533242 
1550	 0.248078892608554 
1551	 0.248141758021108 
1552	 0.248189832872753 
1553	 0.248242000273877 
1554	 0.248281677746882 
1555	 0.248322217605419 
1556	 0.248377744806191 
1557	 0.24843665450515 
1558	 0.248502671852375 
1559	 0.248565068310933 
1560	 0.248612635674198 
1561	 0.248646583203827 
1562	 0.248687173381666 
1563	 0.24871562976592 
1564	 0.248759640442675 
1565	 0.248813783444038 
1566	 0.2488667272493 
1567	 0.24892591068975 
1568	 0.248981218449225 
1569	 0.24903386991396 
1570	 0.249090987054829 
1571	 0.249153968741965 
1572	 0.249207613270075 
1573	 0.249269227579159 
1574	 0.249307053845866 
1575	 0.249318236069167 
1576	 0.249348076937168 
1577	 0.249376208341346 
1578	 0.249403728280678 
1579	 0.24944629303442 
1580	 0.249468191669963 
1581	 0.249467781905743 
1582	 0.249483692692472 
1583	 0.24949519690149 
1584	 0.249516091469108 
1585	 0.249544197141616 
1586	 0.249581701078142 
1587	 0.249630365344514 
1588	 0.249679537797419 
1589	 0.249745890383934 
1590	 0.249791404812791 
1591	 0.249823296417181 
1592	 0.249861686305031 
1593	 0.24988820608203 
1594	 0.249928463000715 
1595	 0.249982958854484 
1596	 0.250028334975536 
1597	 0.250083608899748 
1598	 0.250123209840503 
1599	 0.25015156200228 
1600	 0.250177483966461 
1601	 0.250186351417205 
1602	 0.250204419957664 
1603	 0.250224390635318 
1604	 0.250245901693542 
1605	 0.250267039501525 
1606	 0.250295453816649 
1607	 0.250336419306129 
1608	 0.250365592830438 
1609	 0.250385817475994 
1610	 0.250418782472523 
1611	 0.25045405210945 
1612	 0.250476565529056 
1613	 0.250512899331792 
1614	 0.250558012073711 
1615	 0.250582822739838 
1616	 0.250600223469588 
1617	 0.250601279328203 
1618	 0.250603440739274 
1619	 0.250611330872461 
1620	 0.250610631624414 
1621	 0.250627315969621 
1622	 0.250658737404056 
1623	 0.250684006607504 
1624	 0.25071472479738 
1625	 0.250738014391973 
1626	 0.250762624884187 
1627	 0.250773351092865 
1628	 0.250777995679513 
1629	 0.250776875539072 
1630	 0.250765448704048 
1631	 0.25075235304338 
1632	 0.250725351839004 
1633	 0.250721369907508 
1634	 0.250721525040922 
1635	 0.250729494746743 
1636	 0.250754936913809 
1637	 0.250774583028123 
1638	 0.250798500159074 
1639	 0.250809985102172 
1640	 0.250820229201887 
1641	 0.250828154130585 
1642	 0.250819515778956 
1643	 0.250830173284563 
1644	 0.250854746271718 
1645	 0.250868884737305 
1646	 0.250891407986592 
1647	 0.250893743980004 
1648	 0.250871949702345 
1649	 0.250879295999665 
1650	 0.250892264879828 
1651	 0.250901724802705 
1652	 0.250927565763176 
1653	 0.250944174609547 
1654	 0.250945735095303 
1655	 0.250959548482451 
1656	 0.250981281691391 
1657	 0.25100620579353 
1658	 0.251042708308223 
1659	 0.251056469050154 
1660	 0.251068779051389 
1661	 0.251071834512307 
1662	 0.251052046918152 
1663	 0.251041075377464 
1664	 0.251028356726337 
1665	 0.251024020708678 
1666	 0.251020652842275 
1667	 0.251017737564137 
1668	 0.251021273727766 
1669	 0.251027166668687 
1670	 0.251032784924886 
1671	 0.251037175841232 
1672	 0.251053388382517 
1673	 0.2510536123307 
1674	 0.25104388540822 
1675	 0.251030903244512 
1676	 0.25100408336583 
1677	 0.250991017506883 
1678	 0.25098197592573 
1679	 0.250968996871777 
1680	 0.250967776590871 
1681	 0.250948818585292 
1682	 0.250907150860183 
1683	 0.250887476993607 
1684	 0.250856682782691 
1685	 0.250863895551409 
1686	 0.25090312309568 
1687	 0.250935361235466 
1688	 0.250993671281913 
1689	 0.251032548194444 
1690	 0.251067984358526 
1691	 0.251092850608654 
1692	 0.251109557394718 
1693	 0.251121666448142 
1694	 0.251120158370196 
1695	 0.251125895866976 
1696	 0.251130232474851 
1697	 0.251136092769618 
1698	 0.251156009275472 
1699	 0.25114432703533 
1700	 0.251124480503968 
1701	 0.251089176606525 
1702	 0.251016075502964 
1703	 0.250968833730225 
1704	 0.250927667328908 
1705	 0.25087997629839 
1706	 0.250833584076922 
1707	 0.250791923946501 
1708	 0.250736453751855 
1709	 0.250708410393329 
1710	 0.250703677754509 
1711	 0.250691595408326 
1712	 0.250696839940429 
1713	 0.250683851584682 
1714	 0.250655625566982 
1715	 0.250643410410913 
1716	 0.250634226715488 
1717	 0.250619105485026 
1718	 0.250617017699284 
1719	 0.250591636647851 
1720	 0.250551557369066 
1721	 0.250508216146897 
1722	 0.250442972596926 
1723	 0.250409045004397 
1724	 0.250381631456183 
1725	 0.250355938855167 
1726	 0.250356380514754 
1727	 0.250330854948834 
1728	 0.250292498608887 
1729	 0.250253013744726 
1730	 0.250203556916715 
1731	 0.250161988857704 
1732	 0.250117678928734 
1733	 0.250076071966318 
1734	 0.250040447782317 
1735	 0.250003052443913 
1736	 0.24996546633509 
1737	 0.249925779864686 
1738	 0.249894250555271 
1739	 0.249838527528116 
1740	 0.24976779431325 
1741	 0.24970105577287 
1742	 0.249622555335175 
1743	 0.249547151347674 
1744	 0.249472653101902 
1745	 0.249400164526832 
1746	 0.249322629128046 
1747	 0.249246109601721 
1748	 0.249184398304363 
1749	 0.249086329514555 
1750	 0.249011674093724 
1751	 0.248971087874439 
1752	 0.248906100900626 
1753	 0.248861847955715 
1754	 0.248805531259131 
1755	 0.248708412903534 
1756	 0.248642202897206 
1757	 0.248582630923117 
1758	 0.248510189476767 
1759	 0.248455715346876 
1760	 0.248382650131082 
1761	 0.248311997475607 
1762	 0.248275072602237 
1763	 0.248229907990588 
1764	 0.248174924633843 
1765	 0.248107979420065 
1766	 0.248030108807521 
1767	 0.247973472842441 
1768	 0.24794411758771 
1769	 0.247924500708792 
1770	 0.247901768499937 
1771	 0.247875782052823 
1772	 0.247824759255005 
1773	 0.247768493499453 
1774	 0.247746199945894 
1775	 0.247723009012734 
1776	 0.247694686649264 
1777	 0.247675515442118 
1778	 0.247640693383105 
1779	 0.247581965007867 
1780	 0.247534781670275 
1781	 0.247531699056934 
1782	 0.247504836073093 
1783	 0.247488615755966 
1784	 0.247463022301514 
1785	 0.247376992577137 
1786	 0.247345051805328 
1787	 0.247357300337016 
1788	 0.247343281655938 
1789	 0.247344605388896 
1790	 0.247350982111197 
1791	 0.24734253214459 
1792	 0.247335882385916 
1793	 0.24735132624196 
1794	 0.247336182739224 
1795	 0.24729695460417 
1796	 0.247266442661899 
1797	 0.247217621241496 
1798	 0.247196313389553 
1799	 0.24718670663713 
1800	 0.247176562670132 
1801	 0.243621256566633 
1802	 0.243647677072813 
1803	 0.243645576586852 
1804	 0.243673368840608 
1805	 0.243710128757042 
1806	 0.243754995946637 
1807	 0.243780355121442 
1808	 0.243799425311671 
1809	 0.243813960946808 
1810	 0.243816482774625 
1811	 0.24378430683068 
1812	 0.24379809222046 
1813	 0.243835447318962 
1814	 0.243827557779767 
1815	 0.243837777828659 
1816	 0.243877773085434 
1817	 0.243904865007571 
1818	 0.24392479112394 
1819	 0.243945341108519 
1820	 0.243980840363911 
1821	 0.243989303905228 
1822	 0.243987015851685 
1823	 0.243981563426187 
1824	 0.243980266685398 
1825	 0.243972588001332 
1826	 0.243958284251404 
1827	 0.243945620958947 
1828	 0.243935473868194 
1829	 0.243928339381887 
1830	 0.243918619173125 
1831	 0.243904281193051 
1832	 0.243895232454067 
1833	 0.243905531606335 
1834	 0.243925715549479 
1835	 0.243934765747056 
1836	 0.243949436893139 
1837	 0.243959627456267 
1838	 0.243926411438942 
1839	 0.243896777641858 
1840	 0.243861539729378 
1841	 0.243832103778487 
1842	 0.243786626969967 
1843	 0.243738550254752 
1844	 0.243690018738492 
1845	 0.243632563094684 
1846	 0.243565295483525 
1847	 0.24350651464051 
1848	 0.243447825402488 
1849	 0.243377456969424 
1850	 0.243289034735863 
1851	 0.243188039188931 
1852	 0.243065381118625 
1853	 0.24292090072384 
1854	 0.242788307879008 
1855	 0.242666751326304 
1856	 0.242552114154249 
1857	 0.242466683458086 
1858	 0.242364450681529 
1859	 0.242238354430012 
1860	 0.242099934874501 
1861	 0.241948583685036 
1862	 0.241782713976002 
1863	 0.241601060985638 
1864	 0.241384988896046 
1865	 0.241134054544959 
1866	 0.240839584306581 
1867	 0.240516021070832 
1868	 0.240181618983175 
1869	 0.239841682098732 
1870	 0.239470345488229 
1871	 0.239052990378519 
1872	 0.238595370091434 
1873	 0.238124777928753 
1874	 0.237607862922214 
1875	 0.237037773579808 
1876	 0.236456437565908 
1877	 0.23582062892818 
1878	 0.235136448471014 
1879	 0.234436335006281 
1880	 0.233665522421075 
1881	 0.232832308654219 
1882	 0.231963810927292 
1883	 0.231052774371693 
1884	 0.23006776706678 
1885	 0.229042641757709 
1886	 0.227966174578756 
1887	 0.226802962663869 
1888	 0.225583229036551 
1889	 0.224312295139078 
1890	 0.22299340249986 
1891	 0.221659942333 
1892	 0.220271961866414 
1893	 0.2188890082381 
1894	 0.217486544428054 
1895	 0.216081822983465 
1896	 0.214651976309664 
1897	 0.213238499128761 
1898	 0.211803138029881 
1899	 0.210361323771282 
1900	 0.208972644284092 
1901	 0.207584652690282 
1902	 0.206257708247942 
1903	 0.204998271343574 
1904	 0.203763746120959 
1905	 0.202555787930001 
1906	 0.201397838177114 
1907	 0.200291349406557 
1908	 0.199232775828836 
1909	 0.198252802577715 
1910	 0.197343853146117 
1911	 0.196517312432723 
1912	 0.195754172254116 
1913	 0.195022553299166 
1914	 0.194350301764669 
1915	 0.19371368984963 
1916	 0.193110198069346 
1917	 0.192545127433943 
1918	 0.192059045935641 
1919	 0.191601906992945 
1920	 0.191185970944868 
1921	 0.190804119796436 
1922	 0.19045608505221 
1923	 0.19015255919758 
1924	 0.189891017340306 
1925	 0.189687564389324 
1926	 0.189514974945878 
1927	 0.189382709625638 
1928	 0.189268821704866 
1929	 0.189208072816689 
1930	 0.189161113371093 
1931	 0.189128991643988 
1932	 0.189139934629349 
1933	 0.189166997421689 
1934	 0.189191818456639 
1935	 0.189248342568689 
1936	 0.189322039295181 
1937	 0.189424828796917 
1938	 0.189549209610431 
1939	 0.189705450269538 
1940	 0.189902137709928 
1941	 0.190105653190121 
1942	 0.190316755577634 
1943	 0.190547147219022 
1944	 0.190761608175345 
1945	 0.190964240841724 
1946	 0.191190847608937 
1947	 0.191423377787394 
1948	 0.191673229954104 
1949	 0.191946386321832 
1950	 0.192221396048714 
1951	 0.192507394889975 
1952	 0.192788774183003 
1953	 0.193101168131721 
1954	 0.193417618709138 
1955	 0.193740910707746 
1956	 0.194083833612445 
1957	 0.194425103194672 
1958	 0.194772130706818 
1959	 0.195112312863668 
1960	 0.195454596746671 
1961	 0.195800091759195 
1962	 0.19612904185025 
1963	 0.196483764386893 
1964	 0.196857650277729 
1965	 0.197235983935694 
1966	 0.197626822612704 
1967	 0.198011216894562 
1968	 0.198391917916265 
1969	 0.198767699237972 
1970	 0.199148920403295 
1971	 0.199526269216937 
1972	 0.199911296015053 
1973	 0.20031236952093 
1974	 0.200697655902173 
1975	 0.201078290661748 
1976	 0.201456026403452 
1977	 0.201837763603411 
1978	 0.202208224360771 
1979	 0.202579842271271 
1980	 0.202978353914192 
1981	 0.20338132328534 
1982	 0.203792027584376 
1983	 0.204199514786021 
1984	 0.20462549359389 
1985	 0.205042699580841 
1986	 0.205464581943966 
1987	 0.205867339101346 
1988	 0.206278930485897 
1989	 0.206651203904318 
1990	 0.207002252323527 
1991	 0.207354929917462 
1992	 0.207722981478795 
1993	 0.208088680113211 
1994	 0.208471057387241 
1995	 0.208876683313615 
1996	 0.209266807212856 
1997	 0.209662770838732 
1998	 0.210053704417837 
1999	 0.21043218093842 
2000	 0.210821243074012 
2001	 0.211221985311658 
2002	 0.211607525597053 
2003	 0.212004572861646 
2004	 0.212396865350185 
2005	 0.212765531084512 
2006	 0.213108565884231 
2007	 0.213469376351909 
2008	 0.213812321366913 
2009	 0.214176156936078 
2010	 0.214567882383581 
2011	 0.21494414210847 
2012	 0.215331275122532 
2013	 0.215695131297074 
2014	 0.216050896427362 
2015	 0.216380653273554 
2016	 0.216718470052391 
2017	 0.21704654219636 
2018	 0.217376899405951 
2019	 0.217717698864549 
2020	 0.218036716495369 
2021	 0.218340819385515 
2022	 0.218646474938098 
2023	 0.218941403978179 
2024	 0.21924035894951 
2025	 0.21952863849204 
2026	 0.219830653804956 
2027	 0.22014193619329 
2028	 0.220447433667302 
2029	 0.220761111276323 
2030	 0.221099580026354 
2031	 0.221398263266216 
2032	 0.22168476921451 
2033	 0.221964345597475 
2034	 0.222214981701971 
2035	 0.22248164906571 
2036	 0.222742454239747 
2037	 0.223014831986339 
2038	 0.223317296364453 
2039	 0.223581072159968 
2040	 0.223825153473408 
2041	 0.22408349279615 
2042	 0.224301667537172 
2043	 0.224516139482102 
2044	 0.224731623147193 
2045	 0.224945092267622 
2046	 0.225162889230359 
2047	 0.225364352030012 
2048	 0.225594558602579 
2049	 0.225854741738092 
2050	 0.226096219808515 
2051	 0.226350613329558 
2052	 0.226588103361753 
2053	 0.226813022661468 
2054	 0.22702972650306 
2055	 0.227232994429446 
2056	 0.227438773476582 
2057	 0.227640044765641 
2058	 0.227835261759562 
2059	 0.228024246669845 
2060	 0.228197352273432 
2061	 0.228397249347998 
2062	 0.22859170947356 
2063	 0.228806993515098 
2064	 0.229068637372669 
2065	 0.229297115394435 
2066	 0.229518179193079 
2067	 0.229736523372926 
2068	 0.229958254150505 
2069	 0.230146401816713 
2070	 0.230339837287119 
2071	 0.230531154563359 
2072	 0.230719077625899 
2073	 0.230888309651603 
2074	 0.231077650802692 
2075	 0.231280785028314 
2076	 0.2314700763851 
2077	 0.231657939539506 
2078	 0.231846756709986 
2079	 0.232038657415643 
2080	 0.232215347928884 
2081	 0.232388495088916 
2082	 0.232557244957395 
2083	 0.232707697426723 
2084	 0.232854652912392 
2085	 0.233021568824709 
2086	 0.233198330368667 
2087	 0.233371985361979 
2088	 0.233554853036797 
2089	 0.233735828152325 
2090	 0.233911695184277 
2091	 0.234096132961635 
2092	 0.234296017290505 
2093	 0.234481259760054 
2094	 0.234662139814883 
2095	 0.234844240534664 
2096	 0.235017039947099 
2097	 0.235193993240435 
2098	 0.235379660718759 
2099	 0.235561671688338 
2100	 0.235726113921894 
2101	 0.23588163738035 
2102	 0.236036722332682 
2103	 0.23617373068111 
2104	 0.236324012382444 
2105	 0.23646376890564 
2106	 0.236637185138999 
2107	 0.236840193941365 
2108	 0.23702256086666 
2109	 0.23722807802986 
2110	 0.237414055578947 
2111	 0.237549592942221 
2112	 0.237728470785205 
2113	 0.237934427677306 
2114	 0.238139313146532 
2115	 0.238337210407174 
2116	 0.238561200650179 
2117	 0.238743765501351 
2118	 0.238894891325117 
2119	 0.239060194452529 
2120	 0.23921245614669 
2121	 0.239378296723469 
2122	 0.239548136346863 
2123	 0.239722237414813 
2124	 0.239913709132323 
2125	 0.240084274155924 
2126	 0.240246035948535 
2127	 0.240409603714833 
2128	 0.2405682188289 
2129	 0.240717873325028 
2130	 0.240882558827775 
2131	 0.241015584072729 
2132	 0.241136665667642 
2133	 0.2412439393369 
2134	 0.241327747544404 
2135	 0.241398018645089 
2136	 0.241438318259562 
2137	 0.241440947950313 
2138	 0.241447181449477 
2139	 0.241422574021874 
2140	 0.241414260976164 
2141	 0.241409953115954 
2142	 0.241401563236141 
2143	 0.241398475959545 
2144	 0.241384600034731 
2145	 0.241373795695872 
2146	 0.241342745358335 
2147	 0.241282117989202 
2148	 0.241243037674264 
2149	 0.241180797520493 
2150	 0.241104128840046 
2151	 0.241017230498759 
2152	 0.240919308729477 
2153	 0.240817936315306 
2154	 0.240703501794166 
2155	 0.240587638537617 
2156	 0.240471546597562 
2157	 0.240347483174207 
2158	 0.240209195304937 
2159	 0.240074672409372 
2160	 0.239940909902299 
2161	 0.239801801356639 
2162	 0.23965114684955 
2163	 0.239512162469907 
2164	 0.239376040387775 
2165	 0.239239000188448 
2166	 0.239109984196735 
2167	 0.238993806953564 
2168	 0.238869910125032 
2169	 0.238751898982783 
2170	 0.238616399048171 
2171	 0.238484646646522 
2172	 0.238323336850696 
2173	 0.238125268984873 
2174	 0.237954750335945 
2175	 0.237761768619273 
2176	 0.237603710375325 
2177	 0.237486163686643 
2178	 0.237347360755415 
2179	 0.237225247317596 
2180	 0.237085395900666 
2181	 0.236926868944132 
2182	 0.236767966053914 
2183	 0.236595742937246 
2184	 0.236422676821754 
2185	 0.236271833103993 
2186	 0.236131239107709 
2187	 0.235990082225305 
2188	 0.235868261055844 
2189	 0.235729086023377 
2190	 0.235578214795561 
2191	 0.235434656813141 
2192	 0.235274562386498 
2193	 0.235155496069351 
2194	 0.235057344300171 
2195	 0.234958027044095 
2196	 0.234885123031849 
2197	 0.234810158049757 
2198	 0.234731281532748 
2199	 0.234662158893953 
2200	 0.234621765049404 
2201	 0.234560101132504 
2202	 0.234484918964528 
2203	 0.234409102068412 
2204	 0.234342175012117 
2205	 0.234259110571361 
2206	 0.234214741626286 
2207	 0.234184211097145 
2208	 0.234181481549714 
2209	 0.234229412005298 
2210	 0.23422940712946 
2211	 0.234226323217817 
2212	 0.234231601823439 
2213	 0.234204419298555 
2214	 0.234209681585949 
2215	 0.234257193973932 
2216	 0.234281092540232 
2217	 0.234317358513236 
2218	 0.23432209570402 
2219	 0.23429739475087 
2220	 0.234281603838052 
2221	 0.23425312301514 
2222	 0.234210459852367 
2223	 0.234204508998545 
2224	 0.234203223032225 
2225	 0.234191029670728 
2226	 0.234184074372068 
2227	 0.234165590385736 
2228	 0.23412726665647 
2229	 0.234118280304945 
2230	 0.23412386509715 
2231	 0.234111130625961 
2232	 0.234101553590197 
2233	 0.234094098017212 
2234	 0.234075031293457 
2235	 0.234061480171512 
2236	 0.234061189892421 
2237	 0.234055617585474 
2238	 0.234055882770608 
2239	 0.234028807315274 
2240	 0.233980324747589 
2241	 0.233951881069093 
2242	 0.23391411735604 
2243	 0.233873083416162 
2244	 0.233868558021488 
2245	 0.233820413456022 
2246	 0.23373332479639 
2247	 0.233669136164507 
2248	 0.233618865363092 
2249	 0.233573748607169 
2250	 0.233533749149334 
2251	 0.233506731467872 
2252	 0.233485314213216 
2253	 0.233466992030478 
2254	 0.233448504331639 
2255	 0.23346183286051 
2256	 0.233432576324758 
2257	 0.233364734885517 
2258	 0.233331391352345 
2259	 0.233276444240531 
2260	 0.233261636250205 
2261	 0.233297327559914 
2262	 0.233306079432942 
2263	 0.23331893199679 
2264	 0.233331967956319 
2265	 0.233341459480661 
2266	 0.233352008382458 
2267	 0.233367985421588 
2268	 0.233381367453285 
2269	 0.233413136493005 
2270	 0.233394583805925 
2271	 0.233369890511205 
2272	 0.233366924703019 
2273	 0.233337087706606 
2274	 0.233328548780067 
2275	 0.233342782456381 
2276	 0.233388825012381 
2277	 0.233405740016587 
2278	 0.233434399955194 
2279	 0.233445198495006 
2280	 0.233425300423689 
2281	 0.233432714921949 
2282	 0.233452527382838 
2283	 0.233470850993176 
2284	 0.233489048236471 
2285	 0.233521822633901 
2286	 0.233581805275722 
2287	 0.233601976149224 
2288	 0.233606145716723 
2289	 0.233618364461331 
2290	 0.233589514309629 
2291	 0.233606150052533 
2292	 0.233687935114975 
2293	 0.233713991536965 
2294	 0.233740438339422 
2295	 0.233742081086711 
2296	 0.233699751878946 
2297	 0.233650815924319 
2298	 0.23360771670711 
2299	 0.233531294090871 
2300	 0.233484629228038 
2301	 0.233445897873692 
2302	 0.233392439254688 
2303	 0.23337442377982 
2304	 0.233374729205476 
2305	 0.233356871114302 
2306	 0.233347849594214 
2307	 0.233383538114743 
2308	 0.233364077573771 
2309	 0.233301578885774 
2310	 0.23326287699787 
2311	 0.233222993477207 
2312	 0.233163919430828 
2313	 0.233107436634606 
2314	 0.233034452426698 
2315	 0.232916390261467 
2316	 0.232844942507449 
2317	 0.232785065061088 
2318	 0.23272954962124 
2319	 0.232697281685498 
2320	 0.232674787180267 
2321	 0.232661797168288 
2322	 0.232645314227332 
2323	 0.232649329854922 
2324	 0.232638403763831 
2325	 0.232593446022367 
2326	 0.232586878424543 
2327	 0.232611968627252 
2328	 0.232622821324021 
2329	 0.232612712874656 
2330	 0.232615304979104 
2331	 0.23257150872317 
2332	 0.232485677334451 
2333	 0.232424061679377 
2334	 0.23238608837772 
2335	 0.232356907022878 
2336	 0.232342142428198 
2337	 0.232328581834436 
2338	 0.232299233163548 
2339	 0.232242596299882 
2340	 0.232181741883884 
2341	 0.232148425381186 
2342	 0.232098688917363 
2343	 0.23200857422968 
2344	 0.231918226261879 
2345	 0.231786765544759 
2346	 0.231582918634919 
2347	 0.231429979973561 
2348	 0.231281265234806 
2349	 0.231113063913454 
2350	 0.230931472259503 
2351	 0.230793660541933 
2352	 0.230675667724717 
2353	 0.230556388251372 
2354	 0.230479529946705 
2355	 0.230360362481207 
2356	 0.230216593886915 
2357	 0.230039953570668 
2358	 0.229822205447086 
2359	 0.229661336471952 
2360	 0.229492548398262 
2361	 0.229327118985797 
2362	 0.229199266888484 
2363	 0.229079522276329 
2364	 0.228956737731331 
2365	 0.228829575417931 
2366	 0.22873275073373 
2367	 0.22861862530904 
2368	 0.228489274721077 
2369	 0.228333318288729 
2370	 0.228181509432462 
2371	 0.228007345613362 
2372	 0.227743325453792 
2373	 0.227514416986289 
2374	 0.22729726396004 
2375	 0.227044512362556 
2376	 0.226876737845283 
2377	 0.226691987964351 
2378	 0.226510309885239 
2379	 0.226358798834334 
2380	 0.226178392470601 
2381	 0.226035384703234 
2382	 0.225841829710372 
2383	 0.225634934962447 
2384	 0.225439698700151 
2385	 0.225175516951062 
2386	 0.224998840694721 
2387	 0.224861173769421 
2388	 0.224639511446132 
2389	 0.224437856729467 
2390	 0.224209550880362 
2391	 0.223894374678867 
2392	 0.223580111606585 
2393	 0.223301007106112 
2394	 0.223023324071673 
2395	 0.222784282322011 
2396	 0.222612727189268 
2397	 0.222409211961119 
2398	 0.22217291451201 
2399	 0.221967843808001 
2400	 0.22181232403321 
2401	 0.221669149905931 
2402	 0.221422548370577 
2403	 0.221191669399663 
2404	 0.220956183683822 
2405	 0.220631616087711 
2406	 0.220416586141248 
2407	 0.220237458258447 
2408	 0.219927654717559 
2409	 0.219573134034642 
2410	 0.219302579030838 
2411	 0.219040643664746 
2412	 0.218819269761008 
2413	 0.218622372045674 
2414	 0.218288005535643 
2415	 0.217938175524615 
2416	 0.217609576483745 
2417	 0.217233292621586 
2418	 0.216932214732124 
2419	 0.216725211856694 
2420	 0.216394361050822 
2421	 0.215999233088248 
2422	 0.215673246840627 
2423	 0.215283154314327 
2424	 0.215000470479145 
2425	 0.214876389559461 
2426	 0.214660036292113 
2427	 0.214443794153886 
2428	 0.21421598366305 
2429	 0.213926388565319 
2430	 0.213680183463854 
2431	 0.213462630805992 
2432	 0.213191875288444 
2433	 0.212924204651173 
2434	 0.21262802606534 
2435	 0.212289809194988 
2436	 0.211993562273548 
2437	 0.211693119441783 
2438	 0.211396312281451 
2439	 0.211089849217702 
2440	 0.210829973834178 
2441	 0.210615050646804 
2442	 0.210389827104567 
2443	 0.210238390932415 
2444	 0.20998398199122 
2445	 0.209580431971756 
2446	 0.209351791484907 
2447	 0.209206532664228 
2448	 0.208955089728153 
2449	 0.208825269672866 
2450	 0.208541610667667 
2451	 0.208035034574797 
2452	 0.207629057203028 
2453	 0.20721438272592 
2454	 0.206913718420415 
2455	 0.206699420855584 
2456	 0.20641092712347 
2457	 0.206161802314905 
2458	 0.205854652175978 
2459	 0.205415398452824 
2460	 0.205061028035719 
2461	 0.204789207174144 
2462	 0.204566484475771 
2463	 0.204411743820281 
2464	 0.204226687047204 
2465	 0.204057567146113 
2466	 0.203760148398456 
2467	 0.203361632389264 
2468	 0.203019535639652 
2469	 0.202651001923738 
2470	 0.202455915932359 
2471	 0.202162633565886 
2472	 0.201699121894662 
2473	 0.201368516428327 
2474	 0.201072622542125 
2475	 0.200785007924575 
2476	 0.200627842964668 
2477	 0.200397555319236 
2478	 0.200048680833525 
2479	 0.199755094637496 
2480	 0.199575121012155 
2481	 0.199432493623886 
2482	 0.199335699194073 
2483	 0.199239928088986 
2484	 0.198944308015271 
2485	 0.198606469032291 
2486	 0.198287880755487 
2487	 0.198033299055094 
2488	 0.197860653879615 
2489	 0.197591838163829 
2490	 0.197315955019198 
2491	 0.19707201950364 
2492	 0.196849009290493 
2493	 0.196625438657943 
2494	 0.196495074109235 
2495	 0.196363495773762 
2496	 0.196205866036157 
2497	 0.196286432343066 
2498	 0.196205740935214 
2499	 0.195928977200325 
2500	 0.195831359417835 
