Wavelength	MM400001.asd
350	 0.04274881131537 
351	 4.63566561059785E-02 
352	 4.35154757981967E-02 
353	 3.75771985323629E-02 
354	 4.00363726939431E-02 
355	 4.49980653929332E-02 
356	 0.047115747749209 
357	 4.41632620675794E-02 
358	 4.35886837866894E-02 
359	 4.29008784777296E-02 
360	 4.07358713165213E-02 
361	 3.72152102346448E-02 
362	 3.73671239869092E-02 
363	 3.91498933158852E-02 
364	 4.08735513277461E-02 
365	 4.30971312816069E-02 
366	 4.16494151954982E-02 
367	 3.91628281160068E-02 
368	 3.94581060883676E-02 
369	 4.34198870369106E-02 
370	 4.43866364462202E-02 
371	 4.30084834148683E-02 
372	 4.45565838013178E-02 
373	 4.49028977135497E-02 
374	 4.34398280408106E-02 
375	 4.15436451130146E-02 
376	 4.32529953698391E-02 
377	 4.30395128250392E-02 
378	 4.27651490392392E-02 
379	 0.044903689848527 
380	 4.49029383706991E-02 
381	 4.34497635163075E-02 
382	 4.21427084484539E-02 
383	 4.29252794666504E-02 
384	 4.52069009838319E-02 
385	 4.46604758782059E-02 
386	 4.14108227562566E-02 
387	 4.50120700214496E-02 
388	 4.66281381743554E-02 
389	 4.57419117586565E-02 
390	 4.46342670423713E-02 
391	 0.04505230519688 
392	 4.52373503727002E-02 
393	 4.51751386232963E-02 
394	 4.63260534566404E-02 
395	 4.72176981143985E-02 
396	 4.71130473629467E-02 
397	 4.64701431105958E-02 
398	 4.81710116424637E-02 
399	 0.0483638053892 
400	 4.79651471578625E-02 
401	 4.90862086070099E-02 
402	 5.01100575079267E-02 
403	 4.96273462759383E-02 
404	 4.84349627251398E-02 
405	 4.93239218149119E-02 
406	 4.89849244972387E-02 
407	 4.87883826848334E-02 
408	 4.96853906100904E-02 
409	 4.91126810664303E-02 
410	 4.92631300352183E-02 
411	 4.98742398375581E-02 
412	 4.98071165558934E-02 
413	 5.07074075885954E-02 
414	 5.06757180571943E-02 
415	 4.96315783127226E-02 
416	 5.01325814775801E-02 
417	 0.050258801612731 
418	 5.01076673732443E-02 
419	 5.01450307650686E-02 
420	 5.04274100802213E-02 
421	 5.02995354242307E-02 
422	 5.01468258941012E-02 
423	 5.08299216069231E-02 
424	 5.05802800614025E-02 
425	 0.050001947498404 
426	 4.98407781843451E-02 
427	 5.06710314401326E-02 
428	 5.04287047943318E-02 
429	 4.99186732338678E-02 
430	 5.04303330088983E-02 
431	 5.07085124358357E-02 
432	 5.01401856854183E-02 
433	 4.94177930803852E-02 
434	 5.02927104866925E-02 
435	 5.04601045688662E-02 
436	 5.03124457969819E-02 
437	 5.03210701355488E-02 
438	 4.95698299256651E-02 
439	 4.96847416732267E-02 
440	 5.03470238123033E-02 
441	 5.03561236748153E-02 
442	 5.00301735800819E-02 
443	 5.00727638517682E-02 
444	 5.05158179991426E-02 
445	 5.03500100172577E-02 
446	 5.01615275775863E-02 
447	 5.00645796492672E-02 
448	 5.00930474643775E-02 
449	 5.05476946527872E-02 
450	 5.07585299808045E-02 
451	 5.05735603003444E-02 
452	 5.03280793158879E-02 
453	 5.04937238372438E-02 
454	 5.06013584881662E-02 
455	 5.04087103016361E-02 
456	 0.050682352361723 
457	 5.08289751826319E-02 
458	 5.07739036104349E-02 
459	 5.06949612346656E-02 
460	 5.07936291561491E-02 
461	 5.07017297643703E-02 
462	 5.04189599110442E-02 
463	 0.050520674508864 
464	 5.07642801711986E-02 
465	 5.08995290181374E-02 
466	 5.07922639756871E-02 
467	 0.050762691672044 
468	 0.050947384606573 
469	 5.11935598275864E-02 
470	 5.11417415004177E-02 
471	 5.09570565247627E-02 
472	 5.08338781108782E-02 
473	 5.08618358142953E-02 
474	 5.08840894951965E-02 
475	 5.09215909445464E-02 
476	 5.09892895993125E-02 
477	 5.10832661414182E-02 
478	 5.10652285810743E-02 
479	 0.0510049264041 
480	 0.050916869936355 
481	 5.07011993654087E-02 
482	 5.08604272523951E-02 
483	 5.11122651459135E-02 
484	 5.11006059927344E-02 
485	 5.11366962584056E-02 
486	 5.11769185956723E-02 
487	 5.11557263857667E-02 
488	 5.10147968897861E-02 
489	 5.10510241313023E-02 
490	 5.10608951951437E-02 
491	 5.09404710002726E-02 
492	 5.10832795601332E-02 
493	 5.09801441502288E-02 
494	 5.08286721275907E-02 
495	 5.10558116961163E-02 
496	 5.10795486472608E-02 
497	 5.10813877716177E-02 
498	 5.11541866067216E-02 
499	 5.11514512650196E-02 
500	 5.10807156352089E-02 
501	 5.11024691720212E-02 
502	 5.13017486513889E-02 
503	 5.12301262235881E-02 
504	 5.11741112549506E-02 
505	 5.12131837732125E-02 
506	 5.12193790720187E-02 
507	 5.12760176123781E-02 
508	 5.13558570724965E-02 
509	 5.14012055504302E-02 
510	 5.13090694929408E-02 
511	 5.13172287875846E-02 
512	 5.13987658358281E-02 
513	 5.13907571696459E-02 
514	 5.13007355215441E-02 
515	 0.051292057307539 
516	 5.14093759366555E-02 
517	 5.14795964916074E-02 
518	 5.14729219691455E-02 
519	 5.14148409081881E-02 
520	 5.13645525687707E-02 
521	 5.14026873953277E-02 
522	 5.14634704637882E-02 
523	 5.14971524172203E-02 
524	 5.14824803023231E-02 
525	 5.15067229305329E-02 
526	 5.15369392104367E-02 
527	 5.15458111506266E-02 
528	 5.16269208950352E-02 
529	 5.16361300422481E-02 
530	 5.15917079181633E-02 
531	 5.16146003184725E-02 
532	 5.16690412899776E-02 
533	 5.17545474686526E-02 
534	 5.18537266921851E-02 
535	 5.19086433087392E-02 
536	 0.05192691497169 
537	 5.19326015461945E-02 
538	 5.19614394419108E-02 
539	 5.20668193774202E-02 
540	 0.05211817596008 
541	 5.21085047854401E-02 
542	 5.22123051759909E-02 
543	 5.22567664476781E-02 
544	 5.22932464508227E-02 
545	 0.052393351115881 
546	 5.24581473154857E-02 
547	 5.25145291405704E-02 
548	 5.25620099383289E-02 
549	 5.25791891023395E-02 
550	 5.26580540102457E-02 
551	 5.27544422905441E-02 
552	 5.28328303291986E-02 
553	 5.29553079880923E-02 
554	 5.30393745819615E-02 
555	 5.31239256208846E-02 
556	 5.33004835539423E-02 
557	 5.35158928876967E-02 
558	 5.36856864563231E-02 
559	 5.37980267897173E-02 
560	 5.39739315101391E-02 
561	 5.40992546858898E-02 
562	 5.42532732971917E-02 
563	 5.45335402697437E-02 
564	 5.47652337604056E-02 
565	 5.49863319528291E-02 
566	 5.52157342973526E-02 
567	 0.055437799942597 
568	 5.57316414291931E-02 
569	 5.60564066077742E-02 
570	 0.056364158485416 
571	 5.66930770363529E-02 
572	 5.70090777058429E-02 
573	 5.73296294302475E-02 
574	 5.76983632994775E-02 
575	 5.79808854550372E-02 
576	 5.82920362394219E-02 
577	 5.86935916117843E-02 
578	 5.90380533835336E-02 
579	 5.94536802810849E-02 
580	 5.99390593289502E-02 
581	 6.04427537363825E-02 
582	 6.09803875756213E-02 
583	 6.15365438631704E-02 
584	 6.20933845790453E-02 
585	 6.26349584729869E-02 
586	 6.31405475052662E-02 
587	 6.36392414882699E-02 
588	 6.41663442049182E-02 
589	 6.47128786911021E-02 
590	 6.52696039641881E-02 
591	 6.58205474893842E-02 
592	 6.63485607995638E-02 
593	 6.68974188162368E-02 
594	 0.067478163531562 
595	 6.80708495863283E-02 
596	 6.85873407172546E-02 
597	 6.91724834413846E-02 
598	 6.97920098055501E-02 
599	 0.070332721739525 
600	 7.09127255307152E-02 
601	 7.14713227027371E-02 
602	 0.07196905235477 
603	 7.24393729138777E-02 
604	 7.29080863432489E-02 
605	 7.34031609048743E-02 
606	 7.39263834796059E-02 
607	 7.43522845326087E-02 
608	 0.074755507224811 
609	 7.51793674437468E-02 
610	 7.56172228314567E-02 
611	 7.60138924523717E-02 
612	 0.076395182967773 
613	 0.076786174152454 
614	 7.71463886947118E-02 
615	 7.74516227711362E-02 
616	 7.77303593927419E-02 
617	 7.80426335195501E-02 
618	 0.078364135717338 
619	 7.86387605552383E-02 
620	 7.88453161156197E-02 
621	 0.079035281868971 
622	 7.92693081547126E-02 
623	 7.94998566328187E-02 
624	 0.079656375135339 
625	 7.98619690239501E-02 
626	 8.00640711930684E-02 
627	 8.02376491483289E-02 
628	 8.04118090983409E-02 
629	 8.06167211676655E-02 
630	 8.08162503744561E-02 
631	 8.09715204284994E-02 
632	 8.11039202278013E-02 
633	 8.12792799227264E-02 
634	 8.14712510269948E-02 
635	 8.15880987035233E-02 
636	 0.081780131534778 
637	 8.19687410133403E-02 
638	 8.20949808932014E-02 
639	 8.22430269234127E-02 
640	 8.24223230197818E-02 
641	 8.25994050887385E-02 
642	 8.27311226462651E-02 
643	 8.28892766420935E-02 
644	 8.30727372445062E-02 
645	 0.083263982080707 
646	 8.34323284985722E-02 
647	 8.36057772774895E-02 
648	 8.37811109284204E-02 
649	 0.083953963525245 
650	 8.41564845397677E-02 
651	 8.43424688055352E-02 
652	 8.45174265143966E-02 
653	 8.47288852136775E-02 
654	 8.48973441623109E-02 
655	 8.50855636349996E-02 
656	 8.53291000212151E-02 
657	 8.55294060177375E-02 
658	 8.57337800996172E-02 
659	 8.59671082234329E-02 
660	 8.62330737079011E-02 
661	 0.08645755081559 
662	 8.66710104949421E-02 
663	 8.69025032910734E-02 
664	 8.71635948911727E-02 
665	 8.74200110097421E-02 
666	 0.087687145630327 
667	 0.087978139776379 
668	 8.82303460318059E-02 
669	 8.84937731173882E-02 
670	 0.088788363441882 
671	 8.91029645420594E-02 
672	 0.089399687726804 
673	 0.089707716619453 
674	 9.00407612185845E-02 
675	 9.03439482465262E-02 
676	 9.06684116931936E-02 
677	 9.09896332172134E-02 
678	 9.12699332071371E-02 
679	 9.16194670237905E-02 
680	 9.19901419390265E-02 
681	 9.23579994612203E-02 
682	 9.27491153896318E-02 
683	 9.31389374671636E-02 
684	 9.35034047353401E-02 
685	 9.38505793203658E-02 
686	 0.094302771845187 
687	 9.47309045188503E-02 
688	 9.51262878673959E-02 
689	 9.55603530422903E-02 
690	 0.095935142301586 
691	 9.62989477379218E-02 
692	 9.67101062673479E-02 
693	 9.72136836160839E-02 
694	 0.097680970666239 
695	 9.81277908700346E-02 
696	 9.86086620305545E-02 
697	 0.099067183397696 
698	 9.95041242618737E-02 
699	 9.99460433556345E-02 
700	 0.100438367110976 
701	 0.10089725422066 
702	 0.101368278076456 
703	 0.101882334094975 
704	 0.10234956450105 
705	 0.102838164480455 
706	 0.103335002993373 
707	 0.10379261401278 
708	 0.104254786672332 
709	 0.104753966653851 
710	 0.105275811640881 
711	 0.1057427633758 
712	 0.106243461476816 
713	 0.106744124368482 
714	 0.107202958120568 
715	 0.107681669500262 
716	 0.108132155378865 
717	 0.108573442617867 
718	 0.109064942397597 
719	 0.109529982723148 
720	 0.109969142486912 
721	 0.110393155671097 
722	 0.110806616815978 
723	 0.111256394539381 
724	 0.111695669542211 
725	 0.112067240420358 
726	 0.112444173644582 
727	 0.112784177041257 
728	 0.113096699957733 
729	 0.113438829027032 
730	 0.113759546129474 
731	 0.114066681903911 
732	 0.114362422562912 
733	 0.11460593597377 
734	 0.114856510598713 
735	 0.115100719501201 
736	 0.115298122303909 
737	 0.115441871770093 
738	 0.115601381490239 
739	 0.115780002507825 
740	 0.11590469757877 
741	 0.116010330116825 
742	 0.116085190577143 
743	 0.116128325857115 
744	 0.116194371976517 
745	 0.116228355777767 
746	 0.116234249195719 
747	 0.116239348523092 
748	 0.116221567159391 
749	 0.116166247609955 
750	 0.11607742227789 
751	 0.115980298020124 
752	 0.115888398835574 
753	 0.115781637091333 
754	 0.115643480734672 
755	 0.115494398313431 
756	 0.11531819839918 
757	 0.11512911302482 
758	 0.114951891970325 
759	 0.114766206823116 
760	 0.114555625170753 
761	 0.114327621973894 
762	 0.114117479455733 
763	 0.113864477008883 
764	 0.113597975171086 
765	 0.113347733533803 
766	 0.113078248603014 
767	 0.112818292784555 
768	 0.112534255851725 
769	 0.11218538626832 
770	 0.111916861887578 
771	 0.111633026340046 
772	 0.111294521957945 
773	 0.110956043864276 
774	 0.11067528463423 
775	 0.110377827772335 
776	 0.110015452195267 
777	 0.109696852513947 
778	 0.109380626023733 
779	 0.109066866982337 
780	 0.10876544533 
781	 0.10843361122689 
782	 0.108116615241439 
783	 0.10781084118079 
784	 0.107460189627254 
785	 0.10715674114868 
786	 0.106855742335898 
787	 0.106522920177868 
788	 0.106213185591245 
789	 0.105911454983072 
790	 0.105595673322978 
791	 0.105254871397162 
792	 0.104954211311426 
793	 0.104661625379779 
794	 0.104350642534882 
795	 0.104013251291589 
796	 0.103744577559648 
797	 0.103496054554664 
798	 0.103218917147064 
799	 0.102905336055692 
800	 0.102635229052011 
801	 0.102377030247315 
802	 0.1020843557206 
803	 0.101797636168702 
804	 0.101539277928169 
805	 0.101294484654584 
806	 0.101027984299674 
807	 0.100747598437638 
808	 0.10049251406528 
809	 0.100277594126219 
810	 0.100080145351017 
811	 9.98503633078939E-02 
812	 9.96133212758006E-02 
813	 9.93967851502378E-02 
814	 9.91886479867333E-02 
815	 9.89398707434959E-02 
816	 9.86976152756692E-02 
817	 0.0985283680335 
818	 9.83641289987854E-02 
819	 9.82002849365498E-02 
820	 9.80215086314465E-02 
821	 9.78102958728522E-02 
822	 9.76567498719807E-02 
823	 9.74911657046122E-02 
824	 9.72889548642522E-02 
825	 9.71387225070272E-02 
826	 9.69907161487409E-02 
827	 9.68542343840203E-02 
828	 0.096732414776695 
829	 0.096558492184606 
830	 9.63826975686187E-02 
831	 9.62487484880381E-02 
832	 9.61733526540431E-02 
833	 0.096048516695534 
834	 9.59155346629028E-02 
835	 9.57970868686748E-02 
836	 9.56866576969091E-02 
837	 9.55720856555998E-02 
838	 9.54743396226258E-02 
839	 9.53955030167327E-02 
840	 9.52967493760326E-02 
841	 0.095220967165806 
842	 9.51409657983082E-02 
843	 0.095043340135311 
844	 9.50218228364171E-02 
845	 9.49996396935699E-02 
846	 9.49269722403074E-02 
847	 0.094800056226655 
848	 0.094775747321795 
849	 0.09474471179836 
850	 9.46849683742679E-02 
851	 9.46584402694106E-02 
852	 9.46265476535252E-02 
853	 9.46033961876522E-02 
854	 9.45960663142071E-02 
855	 9.45915278684221E-02 
856	 9.45464688822102E-02 
857	 9.45515334721012E-02 
858	 9.46350877255105E-02 
859	 9.45828470803109E-02 
860	 0.094561197543897 
861	 9.45854947514889E-02 
862	 9.46187052967901E-02 
863	 9.46466782120815E-02 
864	 0.094696583345502 
865	 9.47356841432267E-02 
866	 9.47114139893486E-02 
867	 9.47031246337962E-02 
868	 9.47228974689531E-02 
869	 0.094782205664343 
870	 9.48897936559814E-02 
871	 9.49561586524636E-02 
872	 9.49908526707114E-02 
873	 9.50252518426667E-02 
874	 9.50928622274109E-02 
875	 9.52215741849644E-02 
876	 9.53362813007364E-02 
877	 9.53827698515471E-02 
878	 9.54232157599068E-02 
879	 9.55225424785686E-02 
880	 9.56439350864662E-02 
881	 9.57279420714936E-02 
882	 9.57966023434572E-02 
883	 9.59090909695994E-02 
884	 9.60431856612316E-02 
885	 9.61460529265316E-02 
886	 9.62952314869358E-02 
887	 9.64175732873345E-02 
888	 0.096509322051031 
889	 9.66308551576485E-02 
890	 0.096764074563012 
891	 9.69222861354437E-02 
892	 9.71031721491105E-02 
893	 9.72806919250389E-02 
894	 9.74137970734377E-02 
895	 9.75574933728153E-02 
896	 9.77415865860497E-02 
897	 9.79148988830331E-02 
898	 9.81398670995251E-02 
899	 9.83584482195865E-02 
900	 9.85321853582048E-02 
901	 9.87645636750695E-02 
902	 9.89164250908798E-02 
903	 9.90709449391535E-02 
904	 9.93222764051546E-02 
905	 9.94979236294764E-02 
906	 9.97313314956721E-02 
907	 9.99832280519584E-02 
908	 0.100175443042006 
909	 0.100496518146168 
910	 0.100770975671898 
911	 0.100991427741044 
912	 0.101260431510787 
913	 0.101519804643357 
914	 0.101786968744883 
915	 0.102037009270114 
916	 0.102224302525039 
917	 0.102490640963256 
918	 0.102838327357442 
919	 0.103201212081876 
920	 0.103475235588049 
921	 0.103820548020567 
922	 0.104154718617467 
923	 0.104453535916835 
924	 0.104832149346498 
925	 0.105200031392211 
926	 0.105536621622169 
927	 0.105850519220747 
928	 0.106171805503691 
929	 0.106552977645569 
930	 0.106935163909135 
931	 0.107294553631777 
932	 0.107760134357003 
933	 0.108170010285369 
934	 0.108553428059962 
935	 0.10896482124529 
936	 0.109359067414267 
937	 0.109704438702385 
938	 0.110108974466578 
939	 0.11064012862874 
940	 0.111061322401952 
941	 0.111579528945904 
942	 0.112088017706719 
943	 0.112451302156173 
944	 0.112931892715796 
945	 0.113390010527226 
946	 0.113824804847914 
947	 0.114296568687299 
948	 0.114820928314614 
949	 0.115357461975512 
950	 0.115835215355369 
951	 0.116244958688715 
952	 0.116916396238647 
953	 0.11751040898143 
954	 0.117978372681787 
955	 0.118472687555793 
956	 0.119120741189978 
957	 0.11973107430182 
958	 0.120250032157481 
959	 0.120745538746653 
960	 0.121340843400223 
961	 0.121958824771813 
962	 0.12259807958218 
963	 0.123280335910343 
964	 0.123814634239186 
965	 0.124381553421629 
966	 0.125023290989622 
967	 0.125664650629205 
968	 0.126248691644419 
969	 0.126883968369647 
970	 0.127583698268298 
971	 0.128282697943218 
972	 0.128954539190779 
973	 0.129598595387911 
974	 0.130218624408863 
975	 0.130838814431601 
976	 0.131587654567329 
977	 0.132306436917314 
978	 0.132997185384018 
979	 0.133744868851336 
980	 0.13437667762089 
981	 0.135073544829599 
982	 0.135820691064858 
983	 0.136501658115405 
984	 0.137226479562806 
985	 0.138024206518086 
986	 0.138754919842309 
987	 0.139300812882514 
988	 0.140105253706879 
989	 0.140868823603898 
990	 0.141544942461646 
991	 0.142249724104166 
992	 0.143083868844884 
993	 0.143865208350039 
994	 0.144620605506191 
995	 0.14540704563872 
996	 0.145963306431123 
997	 0.146580592659989 
998	 0.147330097409563 
999	 0.148178785454949 
1000	 0.14913899360152 
1001	 0.150714759882444 
1002	 0.151385103129305 
1003	 0.152082560537715 
1004	 0.152803210533754 
1005	 0.153592157556503 
1006	 0.154290310382904 
1007	 0.15495557410721 
1008	 0.155601237856628 
1009	 0.156313755576302 
1010	 0.156979266369793 
1011	 0.157675386545713 
1012	 0.158459387958499 
1013	 0.159115304321775 
1014	 0.159729008994124 
1015	 0.160399902615738 
1016	 0.16104332197206 
1017	 0.161673760846346 
1018	 0.162289511192899 
1019	 0.162906701602097 
1020	 0.163549922201119 
1021	 0.164174481097518 
1022	 0.164805966645959 
1023	 0.165467743977409 
1024	 0.166045416858178 
1025	 0.166636497024561 
1026	 0.167225534375463 
1027	 0.167785073976303 
1028	 0.168397334792356 
1029	 0.16894449331124 
1030	 0.169487072128528 
1031	 0.170027505275864 
1032	 0.170571065928507 
1033	 0.171043791094335 
1034	 0.171575994920048 
1035	 0.172129757766937 
1036	 0.172617413795257 
1037	 0.173141673316293 
1038	 0.173675299251353 
1039	 0.174133083016206 
1040	 0.174619777097756 
1041	 0.175172339233713 
1042	 0.175683994160759 
1043	 0.176208142633669 
1044	 0.176755212304687 
1045	 0.17734855933362 
1046	 0.177858007745439 
1047	 0.178360540359721 
1048	 0.178896899436471 
1049	 0.17938195834878 
1050	 0.17989128366988 
1051	 0.180410545925969 
1052	 0.180876039050412 
1053	 0.181329207887993 
1054	 0.18181951821507 
1055	 0.182341433365027 
1056	 0.182855121504225 
1057	 0.183356033119025 
1058	 0.183859084624315 
1059	 0.184329105317036 
1060	 0.184755668012567 
1061	 0.185228499055144 
1062	 0.185694367458985 
1063	 0.186171062734116 
1064	 0.18664532915965 
1065	 0.187109487377429 
1066	 0.187576637458978 
1067	 0.188018731755617 
1068	 0.188465385822721 
1069	 0.188912450667152 
1070	 0.189383145679625 
1071	 0.189871278085646 
1072	 0.190343098583546 
1073	 0.190852832260127 
1074	 0.191314178133279 
1075	 0.191732053845102 
1076	 0.192142435167313 
1077	 0.192575620893753 
1078	 0.192959699575791 
1079	 0.193375785686808 
1080	 0.193807111386034 
1081	 0.194220380250712 
1082	 0.194678244005569 
1083	 0.195120812322048 
1084	 0.195575829786537 
1085	 0.195999211222298 
1086	 0.196397225532017 
1087	 0.196809464024279 
1088	 0.197205443612198 
1089	 0.197615629514522 
1090	 0.198059198840802 
1091	 0.198504466854349 
1092	 0.198916026200587 
1093	 0.199302607858003 
1094	 0.199700526477682 
1095	 0.200088236650626 
1096	 0.200493542597014 
1097	 0.200966622969507 
1098	 0.201405929405922 
1099	 0.201846189214091 
1100	 0.202271599718305 
1101	 0.202677306447065 
1102	 0.203095690416581 
1103	 0.203497329686636 
1104	 0.203937484597609 
1105	 0.20441438929261 
1106	 0.204891795863634 
1107	 0.205341569209613 
1108	 0.205806457583171 
1109	 0.20624642160374 
1110	 0.206654085490383 
1111	 0.207095527369774 
1112	 0.207552723014245 
1113	 0.208011277991857 
1114	 0.208483234149595 
1115	 0.208951828838664 
1116	 0.209433349142493 
1117	 0.209900990631747 
1118	 0.21036325292108 
1119	 0.210807921986419 
1120	 0.2113050189431 
1121	 0.211771577953668 
1122	 0.212193467916873 
1123	 0.212692654886416 
1124	 0.213160710570018 
1125	 0.213596249023312 
1126	 0.214057156538533 
1127	 0.214552575569399 
1128	 0.215002594419548 
1129	 0.215420507267217 
1130	 0.215866103321586 
1131	 0.216306967615819 
1132	 0.216760833007854 
1133	 0.217235877845072 
1134	 0.217697399204171 
1135	 0.218155915739773 
1136	 0.218621679254911 
1137	 0.219062019348132 
1138	 0.219488985716832 
1139	 0.219918765054257 
1140	 0.220336210910433 
1141	 0.220755645078595 
1142	 0.221179156468932 
1143	 0.221598615580783 
1144	 0.222013046219434 
1145	 0.222419245860713 
1146	 0.222831102306807 
1147	 0.223224077828928 
1148	 0.223598448689893 
1149	 0.223977479501838 
1150	 0.224347981465501 
1151	 0.224715271620336 
1152	 0.225091151801823 
1153	 0.225460827488856 
1154	 0.225818354817841 
1155	 0.22616539603799 
1156	 0.226513122634931 
1157	 0.226853184121915 
1158	 0.227193129956805 
1159	 0.227537118004389 
1160	 0.227871294001671 
1161	 0.228199043397019 
1162	 0.228522428250855 
1163	 0.22884053730443 
1164	 0.229155630762949 
1165	 0.229464541526567 
1166	 0.229773160956015 
1167	 0.230084296093122 
1168	 0.230394800307998 
1169	 0.230698841045325 
1170	 0.231007097012946 
1171	 0.231298502316198 
1172	 0.231578643963752 
1173	 0.231856966344331 
1174	 0.232126025654716 
1175	 0.232396043885774 
1176	 0.232670801532897 
1177	 0.232929119740695 
1178	 0.233168859996052 
1179	 0.233421943455712 
1180	 0.23367022254741 
1181	 0.233921849305867 
1182	 0.234179185205984 
1183	 0.234454151336359 
1184	 0.234697536201457 
1185	 0.234922439944034 
1186	 0.235160725873344 
1187	 0.235393980409939 
1188	 0.2356236622277 
1189	 0.235868127391737 
1190	 0.236086558981538 
1191	 0.236281944757078 
1192	 0.236485118180601 
1193	 0.236674520473694 
1194	 0.236876452638179 
1195	 0.237091146789144 
1196	 0.237293771784778 
1197	 0.237494262766928 
1198	 0.237695188305443 
1199	 0.237893362784574 
1200	 0.238083102820778 
1201	 0.238279396576951 
1202	 0.238489486067205 
1203	 0.238669474395891 
1204	 0.238834249986151 
1205	 0.23900412261313 
1206	 0.239160085385556 
1207	 0.239318810175806 
1208	 0.239481312857281 
1209	 0.239641609510181 
1210	 0.239798713419696 
1211	 0.239950219625122 
1212	 0.24009822151264 
1213	 0.240250097756273 
1214	 0.240399011778211 
1215	 0.240544930459192 
1216	 0.240691039883573 
1217	 0.2408486395822 
1218	 0.240982965783806 
1219	 0.24110480441948 
1220	 0.241224819083407 
1221	 0.241325141754866 
1222	 0.241448260642447 
1223	 0.241576073692962 
1224	 0.241707238918673 
1225	 0.241862527094463 
1226	 0.241993173326884 
1227	 0.242113324905617 
1228	 0.24223211309179 
1229	 0.242337703062535 
1230	 0.242446249366236 
1231	 0.242559834666988 
1232	 0.242664481671467 
1233	 0.242764289876692 
1234	 0.242853942646893 
1235	 0.242958468193123 
1236	 0.243068953443117 
1237	 0.243166559072419 
1238	 0.243272035697564 
1239	 0.243363987705491 
1240	 0.243431466300248 
1241	 0.243516085752224 
1242	 0.24360741640018 
1243	 0.243694500813203 
1244	 0.243779012212129 
1245	 0.243872351240344 
1246	 0.243974913436843 
1247	 0.244069319129572 
1248	 0.244175836525777 
1249	 0.24426588522347 
1250	 0.24433759245915 
1251	 0.244396630414757 
1252	 0.244464952495549 
1253	 0.244533126292866 
1254	 0.244583278515032 
1255	 0.244624247351173 
1256	 0.244676607930067 
1257	 0.244714229467554 
1258	 0.244763882419832 
1259	 0.24483072701689 
1260	 0.244891697835975 
1261	 0.244946912605021 
1262	 0.245005926906026 
1263	 0.245084509712686 
1264	 0.24514232034097 
1265	 0.245175094741195 
1266	 0.245225124947657 
1267	 0.245273946065234 
1268	 0.245323099583696 
1269	 0.245382425589824 
1270	 0.245461010901709 
1271	 0.245523884859396 
1272	 0.245578482469372 
1273	 0.245646764534501 
1274	 0.245709965394706 
1275	 0.245794189182602 
1276	 0.245901643223881 
1277	 0.245993408564254 
1278	 0.246092857406418 
1279	 0.246186197263375 
1280	 0.246262351302608 
1281	 0.246356714258771 
1282	 0.246481835292327 
1283	 0.246571333050265 
1284	 0.246650844694627 
1285	 0.246713061648136 
1286	 0.246793183459397 
1287	 0.246860901853851 
1288	 0.246946120474343 
1289	 0.247077434849466 
1290	 0.247146492577611 
1291	 0.247179990491526 
1292	 0.247233320594548 
1293	 0.247276683597224 
1294	 0.247307727409244 
1295	 0.24734453895725 
1296	 0.24736803796086 
1297	 0.247368107445799 
1298	 0.24736986723355 
1299	 0.247373277107512 
1300	 0.247367016159921 
1301	 0.247338831252094 
1302	 0.247323898950257 
1303	 0.247311339407884 
1304	 0.247302930195609 
1305	 0.24729618614693 
1306	 0.247295514103384 
1307	 0.247296375035853 
1308	 0.247291084493738 
1309	 0.247284646608573 
1310	 0.247280471824359 
1311	 0.247268750687184 
1312	 0.247244009684436 
1313	 0.247233008651769 
1314	 0.247226902190345 
1315	 0.247215899674575 
1316	 0.247211934494215 
1317	 0.247201230690908 
1318	 0.247172820123657 
1319	 0.24716541781289 
1320	 0.247174066821661 
1321	 0.247173422273028 
1322	 0.247175158106656 
1323	 0.247178880403529 
1324	 0.247179521706117 
1325	 0.247191513112957 
1326	 0.247243290589783 
1327	 0.24727242763615 
1328	 0.24728942650622 
1329	 0.247336516768614 
1330	 0.247391562229401 
1331	 0.247450224123353 
1332	 0.247517690791278 
1333	 0.247613120155936 
1334	 0.247687550009297 
1335	 0.247749542135722 
1336	 0.24782629423881 
1337	 0.247904439419141 
1338	 0.247984307432505 
1339	 0.248077070743315 
1340	 0.248158188387826 
1341	 0.248236913205015 
1342	 0.248314169207467 
1343	 0.248384829398254 
1344	 0.248454043700088 
1345	 0.248533686431416 
1346	 0.248606347314052 
1347	 0.248687054949085 
1348	 0.248775990467792 
1349	 0.248849246159934 
1350	 0.248936671166841 
1351	 0.249040320980881 
1352	 0.24915624348723 
1353	 0.249267143314549 
1354	 0.249402351595283 
1355	 0.249512347495815 
1356	 0.249608688896836 
1357	 0.249701473564174 
1358	 0.2497864140258 
1359	 0.249871240704902 
1360	 0.249951382051173 
1361	 0.250027089424343 
1362	 0.250102540872759 
1363	 0.250171058600655 
1364	 0.250227417097964 
1365	 0.250288118278515 
1366	 0.250357559374568 
1367	 0.250407752829492 
1368	 0.250446282755698 
1369	 0.250491188476862 
1370	 0.250520577979994 
1371	 0.25054880545939 
1372	 0.250570380034536 
1373	 0.250582980420708 
1374	 0.250589169568157 
1375	 0.250583411077908 
1376	 0.250574612711476 
1377	 0.250569468891127 
1378	 0.250539921121797 
1379	 0.250507940189993 
1380	 0.250441188633892 
1381	 0.250339806577829 
1382	 0.250243814128131 
1383	 0.250132151050892 
1384	 0.250007069886288 
1385	 0.24988746012593 
1386	 0.24973725103695 
1387	 0.249553798569765 
1388	 0.24937352161993 
1389	 0.249191831443931 
1390	 0.248984707733938 
1391	 0.248756834532312 
1392	 0.248506603425121 
1393	 0.248214501990977 
1394	 0.247910592594576 
1395	 0.247616093611386 
1396	 0.247301249864011 
1397	 0.246967714719067 
1398	 0.246622922728836 
1399	 0.246268588074212 
1400	 0.245881123721281 
1401	 0.245515202567508 
1402	 0.245157411212838 
1403	 0.24479220705576 
1404	 0.244419678689955 
1405	 0.244060784963483 
1406	 0.243705772576278 
1407	 0.243347176799439 
1408	 0.24299178011441 
1409	 0.242644713702863 
1410	 0.242285725641604 
1411	 0.241955490595913 
1412	 0.24163721670157 
1413	 0.241337787788472 
1414	 0.241077103267384 
1415	 0.240839382058203 
1416	 0.240620155791106 
1417	 0.240412759322436 
1418	 0.240214081139623 
1419	 0.240019935945679 
1420	 0.239831138595466 
1421	 0.239677221470091 
1422	 0.23954100366629 
1423	 0.239393612083495 
1424	 0.239267574654425 
1425	 0.239163876802264 
1426	 0.239059424926446 
1427	 0.23895674876066 
1428	 0.238871697955201 
1429	 0.238799583861883 
1430	 0.238731394010548 
1431	 0.238673406306676 
1432	 0.238624712225216 
1433	 0.238584974610771 
1434	 0.238549038713406 
1435	 0.238527491587953 
1436	 0.238501291043606 
1437	 0.238465218262999 
1438	 0.23844788210868 
1439	 0.238438715081973 
1440	 0.238436294332088 
1441	 0.238444771701389 
1442	 0.238467063381756 
1443	 0.238483309732521 
1444	 0.238487429413671 
1445	 0.23851683863369 
1446	 0.238551452092497 
1447	 0.238574878321223 
1448	 0.238611738790633 
1449	 0.238620751643918 
1450	 0.238612992687822 
1451	 0.238639676560357 
1452	 0.238679673814375 
1453	 0.238721232123228 
1454	 0.238785696362251 
1455	 0.238839985269675 
1456	 0.238890588797389 
1457	 0.238938377844186 
1458	 0.238995289237183 
1459	 0.239039786689761 
1460	 0.239066863967171 
1461	 0.239105422553779 
1462	 0.239132024408683 
1463	 0.239180206086672 
1464	 0.239240802100798 
1465	 0.239314478573621 
1466	 0.239408829056093 
1467	 0.239504005336104 
1468	 0.239612195306062 
1469	 0.239713363405075 
1470	 0.239811907668194 
1471	 0.239917014276153 
1472	 0.240029416879358 
1473	 0.240132801507584 
1474	 0.24025977065652 
1475	 0.240394427777771 
1476	 0.240514799397998 
1477	 0.24064324440353 
1478	 0.240769715839577 
1479	 0.240888346522167 
1480	 0.24101088113554 
1481	 0.241138921003212 
1482	 0.241261416546288 
1483	 0.241378679953006 
1484	 0.241502026182049 
1485	 0.241623239790877 
1486	 0.2417515157111 
1487	 0.241883180961724 
1488	 0.242023629404006 
1489	 0.242175259813865 
1490	 0.242318129911988 
1491	 0.24247512674595 
1492	 0.242605648418343 
1493	 0.242714513961736 
1494	 0.242834009749239 
1495	 0.242936480185314 
1496	 0.243054432815668 
1497	 0.243190610301529 
1498	 0.243319480432477 
1499	 0.243448141971937 
1500	 0.243576963725917 
1501	 0.243705123378438 
1502	 0.243826671483815 
1503	 0.243940610405926 
1504	 0.244070985977929 
1505	 0.244186882183614 
1506	 0.244300770126333 
1507	 0.244420923288537 
1508	 0.244535419601953 
1509	 0.244642114754642 
1510	 0.244744907486057 
1511	 0.24485161620029 
1512	 0.244954707859936 
1513	 0.245062050374691 
1514	 0.245185278489091 
1515	 0.245301381771715 
1516	 0.245416648320911 
1517	 0.245532257818422 
1518	 0.245658569512008 
1519	 0.245758039001974 
1520	 0.245842197841202 
1521	 0.245928742697412 
1522	 0.246001447517954 
1523	 0.24608049944694 
1524	 0.246162612909038 
1525	 0.246245111203998 
1526	 0.246321664120564 
1527	 0.246402925773046 
1528	 0.246498090327812 
1529	 0.246574694585914 
1530	 0.246637714516098 
1531	 0.246713298308963 
1532	 0.246786141383124 
1533	 0.246855520910625 
1534	 0.246927815204971 
1535	 0.24700523905716 
1536	 0.24707558450506 
1537	 0.247153418459694 
1538	 0.247253509115572 
1539	 0.247336600119005 
1540	 0.247414649609107 
1541	 0.24748340390027 
1542	 0.247539843294382 
1543	 0.247596579572285 
1544	 0.247640211041379 
1545	 0.247693725595657 
1546	 0.247759090611291 
1547	 0.247807218803538 
1548	 0.247856109104235 
1549	 0.247922217706693 
1550	 0.247996417059349 
1551	 0.248068918642979 
1552	 0.248138758248573 
1553	 0.248202423326055 
1554	 0.248248763120368 
1555	 0.248300689117912 
1556	 0.248363325365059 
1557	 0.248421394242745 
1558	 0.248479803160533 
1559	 0.248522587587256 
1560	 0.248565276906682 
1561	 0.248599119536396 
1562	 0.248643985682728 
1563	 0.248687140005816 
1564	 0.248736827530989 
1565	 0.248795968353477 
1566	 0.248845150613635 
1567	 0.248886311811373 
1568	 0.248947693797492 
1569	 0.249023173909913 
1570	 0.24907722230451 
1571	 0.249136807615377 
1572	 0.249184352303623 
1573	 0.24920182771504 
1574	 0.249246605267197 
1575	 0.249316151726874 
1576	 0.249357581609507 
1577	 0.249392756609997 
1578	 0.249423869363618 
1579	 0.249433108129187 
1580	 0.249455661612495 
1581	 0.249489105149623 
1582	 0.249513487555662 
1583	 0.249525774893241 
1584	 0.249555947940753 
1585	 0.249596940361219 
1586	 0.249629455491078 
1587	 0.249668134334668 
1588	 0.249705037992006 
1589	 0.249724406665078 
1590	 0.249764161891816 
1591	 0.249830443977635 
1592	 0.249877102201385 
1593	 0.249926309318147 
1594	 0.249964033954874 
1595	 0.249973136547603 
1596	 0.250003828194344 
1597	 0.250052443715075 
1598	 0.250083449890954 
1599	 0.250112843853834 
1600	 0.250145795098752 
1601	 0.250163044637819 
1602	 0.250188881955717 
1603	 0.250227739687731 
1604	 0.250261661998744 
1605	 0.250295298667467 
1606	 0.250326002178533 
1607	 0.250353903060082 
1608	 0.250385851384186 
1609	 0.25041730733297 
1610	 0.250439296298577 
1611	 0.250471759089096 
1612	 0.250503372948719 
1613	 0.25052296630951 
1614	 0.250548694448946 
1615	 0.250572139064083 
1616	 0.250589384968269 
1617	 0.250593779964234 
1618	 0.25060196244307 
1619	 0.250628858192252 
1620	 0.250640974012325 
1621	 0.250662366929746 
1622	 0.250703643718934 
1623	 0.25072248105552 
1624	 0.250721441585645 
1625	 0.250744086422974 
1626	 0.250777021670691 
1627	 0.250792926613559 
1628	 0.250818273520196 
1629	 0.250818122368075 
1630	 0.250792154949606 
1631	 0.25077901878335 
1632	 0.250752633111961 
1633	 0.250754210859796 
1634	 0.250767473669542 
1635	 0.250784190827756 
1636	 0.250823219970049 
1637	 0.250840559394571 
1638	 0.250849653590796 
1639	 0.250863214877783 
1640	 0.250872231029975 
1641	 0.250884697594309 
1642	 0.250897246319793 
1643	 0.250918186558881 
1644	 0.250946247218081 
1645	 0.250963129087297 
1646	 0.250981430706976 
1647	 0.250999490998397 
1648	 0.251014268115389 
1649	 0.251018385648727 
1650	 0.251016500773847 
1651	 0.251026222819846 
1652	 0.25102024247089 
1653	 0.251038726221353 
1654	 0.251094981306898 
1655	 0.251112775239925 
1656	 0.251118541687547 
1657	 0.251125780948408 
1658	 0.251109902210664 
1659	 0.251117124718888 
1660	 0.251154462963063 
1661	 0.251148027015428 
1662	 0.25111734355962 
1663	 0.25110817713436 
1664	 0.251081390888169 
1665	 0.251068429644844 
1666	 0.251089049165048 
1667	 0.251079653744368 
1668	 0.251038061996282 
1669	 0.251030353820974 
1670	 0.251033213434985 
1671	 0.251035934650231 
1672	 0.251063804050189 
1673	 0.251065535319875 
1674	 0.251047854081383 
1675	 0.251043913652731 
1676	 0.251042789674587 
1677	 0.25103076140198 
1678	 0.251017845105737 
1679	 0.251005138352659 
1680	 0.250982783318409 
1681	 0.250961247792624 
1682	 0.250940373615378 
1683	 0.250927046518351 
1684	 0.250900966423479 
1685	 0.25090248870919 
1686	 0.250929432787383 
1687	 0.250949280757498 
1688	 0.250980938913162 
1689	 0.25100751303849 
1690	 0.251045504531428 
1691	 0.251054240647894 
1692	 0.251043181469251 
1693	 0.251043681227327 
1694	 0.251023583782343 
1695	 0.251021252359832 
1696	 0.251046081339784 
1697	 0.251048535565925 
1698	 0.251043073504241 
1699	 0.251034314988017 
1700	 0.251017028170692 
1701	 0.250995638528489 
1702	 0.250974276604913 
1703	 0.250940171478204 
1704	 0.250897337090989 
1705	 0.25085181221774 
1706	 0.250787585458953 
1707	 0.250739969021831 
1708	 0.2506994782704 
1709	 0.250653493904593 
1710	 0.250590813568947 
1711	 0.250577759842747 
1712	 0.250585929462498 
1713	 0.250598876883217 
1714	 0.250665925089285 
1715	 0.250682448505958 
1716	 0.250676229462951 
1717	 0.250664498842997 
1718	 0.250640150934205 
1719	 0.250611859023166 
1720	 0.250569706942331 
1721	 0.25053020402554 
1722	 0.250473288474505 
1723	 0.25044303412222 
1724	 0.250426576497058 
1725	 0.250407516913867 
1726	 0.250419246803455 
1727	 0.250388875511998 
1728	 0.250335097550931 
1729	 0.250281344412673 
1730	 0.25019600233416 
1731	 0.25014044894537 
1732	 0.250097531060513 
1733	 0.250052674547028 
1734	 0.250018087432372 
1735	 0.24998256279966 
1736	 0.249953484771463 
1737	 0.24990714614629 
1738	 0.249855651334398 
1739	 0.249805759401337 
1740	 0.249739695830663 
1741	 0.249686574103123 
1742	 0.249650971620322 
1743	 0.249590854657494 
1744	 0.249526294698653 
1745	 0.249445755929176 
1746	 0.249339357104311 
1747	 0.249262875234695 
1748	 0.249184699527977 
1749	 0.249111683973952 
1750	 0.249061504304685 
1751	 0.249026980090229 
1752	 0.248967270580544 
1753	 0.248914459395447 
1754	 0.248857518966707 
1755	 0.248765682375419 
1756	 0.248701857431896 
1757	 0.248667605846651 
1758	 0.248623065932739 
1759	 0.24855329251739 
1760	 0.248474651906722 
1761	 0.248389951614175 
1762	 0.248296228201769 
1763	 0.248240635021972 
1764	 0.248193659288345 
1765	 0.248121068402295 
1766	 0.248076760481104 
1767	 0.248053965342221 
1768	 0.248031968116644 
1769	 0.248011082785941 
1770	 0.247979606250232 
1771	 0.247947270473415 
1772	 0.24789923170852 
1773	 0.247851624636892 
1774	 0.247823986035553 
1775	 0.247780618556378 
1776	 0.247732581742903 
1777	 0.24770880098815 
1778	 0.247687047252594 
1779	 0.247635882148168 
1780	 0.24758931982609 
1781	 0.24756047273735 
1782	 0.24751654512316 
1783	 0.247531454519343 
1784	 0.247506046340004 
1785	 0.247446593011094 
1786	 0.247411141450806 
1787	 0.24734830197104 
1788	 0.247326357586985 
1789	 0.247359394750748 
1790	 0.247358187493585 
1791	 0.247365466507026 
1792	 0.247363724926735 
1793	 0.247330364775638 
1794	 0.247311432037614 
1795	 0.247306930799519 
1796	 0.247284895433449 
1797	 0.2472537010597 
1798	 0.247234058084054 
1799	 0.247183559185782 
1800	 0.24718793978226 
1801	 0.24371005646836 
1802	 0.243690561040491 
1803	 0.243670259537947 
1804	 0.243688150062214 
1805	 0.243730243042131 
1806	 0.243775169955567 
1807	 0.243824122727197 
1808	 0.243862608594405 
1809	 0.243877896726928 
1810	 0.243896450914506 
1811	 0.243923052029142 
1812	 0.243950808378276 
1813	 0.243938932444498 
1814	 0.243909034985183 
1815	 0.243895581877885 
1816	 0.243889731153616 
1817	 0.243900591779262 
1818	 0.243944244369491 
1819	 0.243963653932785 
1820	 0.243987185469776 
1821	 0.244004264622192 
1822	 0.2439812227512 
1823	 0.243959482796557 
1824	 0.24393592880771 
1825	 0.243898562622569 
1826	 0.243904295853671 
1827	 0.243905622867736 
1828	 0.243914140508983 
1829	 0.243956982945203 
1830	 0.243960991927061 
1831	 0.243945692886056 
1832	 0.24393671024485 
1833	 0.243913010536888 
1834	 0.243895205796753 
1835	 0.243903039119523 
1836	 0.243910467258337 
1837	 0.243903868608948 
1838	 0.243873303201271 
1839	 0.243851762506562 
1840	 0.24381933133647 
1841	 0.243797477022863 
1842	 0.243777219161007 
1843	 0.243761026972834 
1844	 0.243732235005319 
1845	 0.243649260910128 
1846	 0.243554367203606 
1847	 0.243483410736991 
1848	 0.243402956415324 
1849	 0.243344675945044 
1850	 0.243261767085325 
1851	 0.243184227894432 
1852	 0.24305762212788 
1853	 0.242926957341191 
1854	 0.242793906762536 
1855	 0.242660335222269 
1856	 0.242547213117862 
1857	 0.242454018187556 
1858	 0.242339985554137 
1859	 0.242230610466918 
1860	 0.24209585141769 
1861	 0.241952996601168 
1862	 0.241769157394368 
1863	 0.241579403814752 
1864	 0.241347949800462 
1865	 0.241099040251264 
1866	 0.240835581094345 
1867	 0.240526670090311 
1868	 0.240196708120653 
1869	 0.239854005771345 
1870	 0.239476497188687 
1871	 0.239055849334798 
1872	 0.23860264853879 
1873	 0.238122358461931 
1874	 0.237594745885406 
1875	 0.23703340299154 
1876	 0.23645508901595 
1877	 0.235834413827345 
1878	 0.23516226799355 
1879	 0.234427170793572 
1880	 0.233638632130453 
1881	 0.232786812425478 
1882	 0.231888302496084 
1883	 0.230928084280305 
1884	 0.22994430188509 
1885	 0.228910699617356 
1886	 0.227797580980456 
1887	 0.226637869484396 
1888	 0.225416754629586 
1889	 0.22413256953271 
1890	 0.222814870506132 
1891	 0.22148252982097 
1892	 0.220107340303165 
1893	 0.218721508774334 
1894	 0.217303544715504 
1895	 0.215903198351049 
1896	 0.2144683803251 
1897	 0.213041665558082 
1898	 0.211599327589932 
1899	 0.210159831514693 
1900	 0.208748935390156 
1901	 0.207346514002508 
1902	 0.206010867385343 
1903	 0.204724729293748 
1904	 0.203480624951573 
1905	 0.202275203360691 
1906	 0.201144152702189 
1907	 0.200049173831498 
1908	 0.199025818540565 
1909	 0.198070380674398 
1910	 0.197155217442727 
1911	 0.196294940499659 
1912	 0.195498489036715 
1913	 0.194755721844978 
1914	 0.194065688989009 
1915	 0.193428837609792 
1916	 0.192857437781851 
1917	 0.192329758447408 
1918	 0.19182020731189 
1919	 0.19135671490229 
1920	 0.190942582799135 
1921	 0.190556452440432 
1922	 0.190235622883281 
1923	 0.189961635888252 
1924	 0.189706393384541 
1925	 0.189480852743514 
1926	 0.189299071216112 
1927	 0.189149344848092 
1928	 0.189030499055372 
1929	 0.188958572529095 
1930	 0.188893007643159 
1931	 0.188851679899914 
1932	 0.188824432993732 
1933	 0.188826366343624 
1934	 0.188877467397174 
1935	 0.188945546895199 
1936	 0.189042237042658 
1937	 0.189166382983123 
1938	 0.189326480383984 
1939	 0.189489910341622 
1940	 0.189680108148076 
1941	 0.18987103252764 
1942	 0.190073415947233 
1943	 0.19029132010199 
1944	 0.190510611484508 
1945	 0.190748661947395 
1946	 0.190987089095079 
1947	 0.191222167601539 
1948	 0.191476184991625 
1949	 0.191747899712115 
1950	 0.192019469131276 
1951	 0.192294781543637 
1952	 0.192586144185993 
1953	 0.192896883390145 
1954	 0.193205080511022 
1955	 0.193504301968047 
1956	 0.193826810775491 
1957	 0.194163760820527 
1958	 0.194498967477868 
1959	 0.19484924337463 
1960	 0.195241833188803 
1961	 0.195613706189073 
1962	 0.195988398785169 
1963	 0.196354448571537 
1964	 0.19672037132942 
1965	 0.197061067701848 
1966	 0.197429305522354 
1967	 0.197789551823339 
1968	 0.198159948791093 
1969	 0.198546105557873 
1970	 0.198933631063209 
1971	 0.199322097240299 
1972	 0.199713749950541 
1973	 0.200123398947514 
1974	 0.200520624154167 
1975	 0.200914405781547 
1976	 0.201295943912962 
1977	 0.201690473564281 
1978	 0.202077518795384 
1979	 0.202459064969745 
1980	 0.20286208498308 
1981	 0.203266406679563 
1982	 0.203673926764336 
1983	 0.204083866024884 
1984	 0.204509885333315 
1985	 0.204924876259022 
1986	 0.205345887690473 
1987	 0.205747142439115 
1988	 0.206143778104896 
1989	 0.206523551558743 
1990	 0.206878747622975 
1991	 0.207251090075536 
1992	 0.20762522030384 
1993	 0.207996284059962 
1994	 0.208380991232511 
1995	 0.208773985805321 
1996	 0.209170142395406 
1997	 0.209584926095113 
1998	 0.209987272094201 
1999	 0.210389019756248 
2000	 0.210788161626409 
2001	 0.211194027680479 
2002	 0.211578259001676 
2003	 0.211949392467696 
2004	 0.212314613061398 
2005	 0.212667545825218 
2006	 0.212987807950622 
2007	 0.213337587170313 
2008	 0.213694781386849 
2009	 0.214047399960765 
2010	 0.21440766768745 
2011	 0.214766203793456 
2012	 0.215121837190527 
2013	 0.215478645691834 
2014	 0.215843647157751 
2015	 0.216200756359744 
2016	 0.216554545977067 
2017	 0.216895282337697 
2018	 0.217233990816415 
2019	 0.217571845719241 
2020	 0.217893593827623 
2021	 0.218198135484302 
2022	 0.218510388334913 
2023	 0.218815501081554 
2024	 0.219121135441337 
2025	 0.219418274520708 
2026	 0.219732410006922 
2027	 0.220058667186328 
2028	 0.220377291885269 
2029	 0.220688543390059 
2030	 0.221003196043285 
2031	 0.221322744326678 
2032	 0.221646292901284 
2033	 0.221941320571797 
2034	 0.222242813823645 
2035	 0.2225229275596 
2036	 0.222758809124038 
2037	 0.223007787564659 
2038	 0.223264570867853 
2039	 0.223508853683068 
2040	 0.223733974093187 
2041	 0.223968307455826 
2042	 0.224197095167756 
2043	 0.224441173837769 
2044	 0.224677736577594 
2045	 0.224916108842225 
2046	 0.225156453432214 
2047	 0.225395173899677 
2048	 0.225635987026958 
2049	 0.225887488171425 
2050	 0.226128376500022 
2051	 0.226369993540075 
2052	 0.226599219849136 
2053	 0.226820161558934 
2054	 0.227035188013064 
2055	 0.227238976297679 
2056	 0.227437982049514 
2057	 0.227636634782859 
2058	 0.227828060836863 
2059	 0.228029046108219 
2060	 0.228232226101347 
2061	 0.228432711105702 
2062	 0.228628375633756 
2063	 0.22884013897542 
2064	 0.229066350895917 
2065	 0.229279002866597 
2066	 0.229496834973286 
2067	 0.229712021288411 
2068	 0.229920413476986 
2069	 0.230121295717245 
2070	 0.230317826381282 
2071	 0.230521816852472 
2072	 0.230705710821554 
2073	 0.230867558185831 
2074	 0.231040213283778 
2075	 0.231208614666132 
2076	 0.231381911514859 
2077	 0.231562418632415 
2078	 0.231729928252204 
2079	 0.231888540264404 
2080	 0.232054317873342 
2081	 0.232209226613388 
2082	 0.232376515503587 
2083	 0.232551421279424 
2084	 0.23273661961513 
2085	 0.232919980148378 
2086	 0.233112606980088 
2087	 0.233290325298528 
2088	 0.233468485834798 
2089	 0.233634507289412 
2090	 0.23377486692472 
2091	 0.233943591340576 
2092	 0.234120934125653 
2093	 0.234298443121539 
2094	 0.234502428181895 
2095	 0.234681055516594 
2096	 0.234835355182469 
2097	 0.235003840876215 
2098	 0.235169712739908 
2099	 0.235336761098824 
2100	 0.235507595435486 
2101	 0.235693125951914 
2102	 0.235860989058108 
2103	 0.236016921538164 
2104	 0.23618355534232 
2105	 0.236341343421714 
2106	 0.23651783327593 
2107	 0.236708118746987 
2108	 0.236898396322433 
2109	 0.237100413151046 
2110	 0.237300090883476 
2111	 0.237495692473137 
2112	 0.237699206417022 
2113	 0.237901505072062 
2114	 0.238127383737374 
2115	 0.238328041200464 
2116	 0.238533930385376 
2117	 0.238716936888253 
2118	 0.238877921416008 
2119	 0.239043202630855 
2120	 0.239197420947117 
2121	 0.239356807661349 
2122	 0.239508550351739 
2123	 0.239672572784375 
2124	 0.239852965175511 
2125	 0.240014655088661 
2126	 0.2401655193944 
2127	 0.240328714580851 
2128	 0.24050606703547 
2129	 0.240652413376434 
2130	 0.240795480197974 
2131	 0.240938752482081 
2132	 0.241038778618611 
2133	 0.24108897151229 
2134	 0.241159641420443 
2135	 0.241225269677097 
2136	 0.241272032227708 
2137	 0.241312000972284 
2138	 0.241336261520126 
2139	 0.2413310982659 
2140	 0.241335616791954 
2141	 0.241336562260547 
2142	 0.241333594908032 
2143	 0.241338340216047 
2144	 0.241323589700787 
2145	 0.241298095578762 
2146	 0.241262646574914 
2147	 0.241208576946409 
2148	 0.241146929099388 
2149	 0.241091897874705 
2150	 0.241040337634082 
2151	 0.240966670276226 
2152	 0.240893631112368 
2153	 0.240797799155304 
2154	 0.240673287639221 
2155	 0.24055437237386 
2156	 0.24043455012746 
2157	 0.240296481968223 
2158	 0.240134993254171 
2159	 0.239987384500948 
2160	 0.239812374733231 
2161	 0.23967417929898 
2162	 0.239579738428315 
2163	 0.239462763920037 
2164	 0.239353609507469 
2165	 0.239242395512656 
2166	 0.239119819947059 
2167	 0.238983670565132 
2168	 0.238838263894829 
2169	 0.238687558008447 
2170	 0.238530212550311 
2171	 0.238342572087466 
2172	 0.23818609582646 
2173	 0.238038601316546 
2174	 0.237902186300398 
2175	 0.237805474070709 
2176	 0.237661313525917 
2177	 0.237492784474944 
2178	 0.237336647303256 
2179	 0.237151514055714 
2180	 0.23698528559132 
2181	 0.236851593939003 
2182	 0.236699716987587 
2183	 0.236545165282221 
2184	 0.236372845149053 
2185	 0.236210838531639 
2186	 0.236046537840803 
2187	 0.235882417616081 
2188	 0.23571773302926 
2189	 0.235559350836105 
2190	 0.235389640878261 
2191	 0.235247743010638 
2192	 0.2351126224141 
2193	 0.235002715238504 
2194	 0.23492999409748 
2195	 0.234841265060184 
2196	 0.234761845958779 
2197	 0.234686389884513 
2198	 0.234597632443572 
2199	 0.234529430086611 
2200	 0.234495007275799 
2201	 0.234441779342317 
2202	 0.234383160955463 
2203	 0.234329303574242 
2204	 0.234281068038977 
2205	 0.234225001789632 
2206	 0.234179830307971 
2207	 0.234141671684724 
2208	 0.23412238904745 
2209	 0.234096258756734 
2210	 0.234109213351064 
2211	 0.234183594059039 
2212	 0.234204554995662 
2213	 0.23421725735501 
2214	 0.234237475993161 
2215	 0.234229264609638 
2216	 0.234242119184191 
2217	 0.234300733786617 
2218	 0.234314073690168 
2219	 0.234316039987041 
2220	 0.234293934991547 
2221	 0.234221220441529 
2222	 0.23416622984174 
2223	 0.234131034684517 
2224	 0.234102850892918 
2225	 0.234096074887677 
2226	 0.234137309746526 
2227	 0.23412425918028 
2228	 0.234096588185015 
2229	 0.234073007011059 
2230	 0.234016952574918 
2231	 0.234006102036681 
2232	 0.234032216475956 
2233	 0.234026928549272 
2234	 0.234026424042876 
2235	 0.234017254486454 
2236	 0.233982146900471 
2237	 0.233962533173001 
2238	 0.233955127512672 
2239	 0.233943577678821 
2240	 0.233936529745819 
2241	 0.233918913322632 
2242	 0.233890563700201 
2243	 0.233869229318355 
2244	 0.233853644636107 
2245	 0.233824714983087 
2246	 0.233782155191085 
2247	 0.233760771943503 
2248	 0.233713678883764 
2249	 0.233636242742491 
2250	 0.233598018499217 
2251	 0.233570953698104 
2252	 0.233535142069087 
2253	 0.233516097560741 
2254	 0.233485416450049 
2255	 0.233437354377637 
2256	 0.233406686773145 
2257	 0.23338743013106 
2258	 0.233364285462798 
2259	 0.233333975919941 
2260	 0.233322127891 
2261	 0.233320904460178 
2262	 0.233323078352186 
2263	 0.233343916179718 
2264	 0.23335578645325 
2265	 0.233374340528364 
2266	 0.233375992317457 
2267	 0.233374505352178 
2268	 0.233360379989011 
2269	 0.233325351632771 
2270	 0.233286401539377 
2271	 0.233265608747428 
2272	 0.233235389134446 
2273	 0.233196141228865 
2274	 0.233180508459981 
2275	 0.233189907948975 
2276	 0.233209330669521 
2277	 0.233238556481437 
2278	 0.233328192088585 
2279	 0.233340970109982 
2280	 0.233300797805527 
2281	 0.233304919118516 
2282	 0.233288757210969 
2283	 0.233306784254366 
2284	 0.233374129150008 
2285	 0.233419331744046 
2286	 0.233470802003501 
2287	 0.23349583142449 
2288	 0.233512976722053 
2289	 0.233522937544021 
2290	 0.233511369195918 
2291	 0.233505312976027 
2292	 0.233483203038714 
2293	 0.233477976364897 
2294	 0.233486774123788 
2295	 0.23347907847384 
2296	 0.233461254292546 
2297	 0.233484696478901 
2298	 0.233460045430282 
2299	 0.233424266478779 
2300	 0.233407387378562 
2301	 0.233353539584861 
2302	 0.23334717348966 
2303	 0.233353756681253 
2304	 0.233339426114987 
2305	 0.23337296285224 
2306	 0.2333676186125 
2307	 0.233338444867546 
2308	 0.233305706257643 
2309	 0.233252323640057 
2310	 0.233225878325269 
2311	 0.233218228976489 
2312	 0.233168833392008 
2313	 0.23312178353699 
2314	 0.233059550926177 
2315	 0.232945782253282 
2316	 0.232857025804982 
2317	 0.232773543734177 
2318	 0.232707705995918 
2319	 0.232640514398643 
2320	 0.232592870458596 
2321	 0.232564466643599 
2322	 0.232554434909184 
2323	 0.232586861874129 
2324	 0.23257722123479 
2325	 0.232566585453305 
2326	 0.232552723489191 
2327	 0.232509190156176 
2328	 0.232467059837264 
2329	 0.232451940506116 
2330	 0.232422287038028 
2331	 0.232390122412248 
2332	 0.232333913120021 
2333	 0.232271949385484 
2334	 0.232232539972747 
2335	 0.232218919090171 
2336	 0.232161867758305 
2337	 0.232050452312537 
2338	 0.232024863190521 
2339	 0.231991245961113 
2340	 0.231929549978714 
2341	 0.231905395689029 
2342	 0.231818431013297 
2343	 0.231698824946383 
2344	 0.231608333161316 
2345	 0.23150488702896 
2346	 0.231403772715909 
2347	 0.231279522690305 
2348	 0.23112946114303 
2349	 0.231016378139607 
2350	 0.230905433586001 
2351	 0.230809102351234 
2352	 0.230768447423487 
2353	 0.230649570013554 
2354	 0.230497667424579 
2355	 0.230341283176027 
2356	 0.230131505248926 
2357	 0.229958013884038 
2358	 0.229784825507298 
2359	 0.229618237927521 
2360	 0.229470126273385 
2361	 0.229321994292799 
2362	 0.22920124194107 
2363	 0.229052238242174 
2364	 0.228869300812614 
2365	 0.228716715308924 
2366	 0.228552078887031 
2367	 0.228387646941241 
2368	 0.228281536496341 
2369	 0.228122518126292 
2370	 0.227915747400976 
2371	 0.227735835120735 
2372	 0.227534103216286 
2373	 0.227311359248968 
2374	 0.227081595943765 
2375	 0.226861174659402 
2376	 0.226673482163951 
2377	 0.226516312056951 
2378	 0.226376385571731 
2379	 0.226252113582352 
2380	 0.226123695406644 
2381	 0.225889360429126 
2382	 0.225698951576917 
2383	 0.225565188428537 
2384	 0.225338906156899 
2385	 0.225154309352577 
2386	 0.224924632545733 
2387	 0.224598221030412 
2388	 0.224338587046557 
2389	 0.224112058413179 
2390	 0.223846974968471 
2391	 0.223624638133892 
2392	 0.223447602972756 
2393	 0.223254712299587 
2394	 0.223133331234254 
2395	 0.223012695371436 
2396	 0.222788875803485 
2397	 0.222479352325457 
2398	 0.222169372085281 
2399	 0.221856817575848 
2400	 0.221484531276154 
2401	 0.221202373937801 
2402	 0.220926737822735 
2403	 0.220622714163223 
2404	 0.220404964846431 
2405	 0.220166527582372 
2406	 0.219932806330782 
2407	 0.219710143323144 
2408	 0.219487033634945 
2409	 0.219248855826545 
2410	 0.21894524710304 
2411	 0.218701494928494 
2412	 0.218477541130296 
2413	 0.218203720545798 
2414	 0.217958652123696 
2415	 0.21772369739353 
2416	 0.217487605841288 
2417	 0.217268367467039 
2418	 0.216976130113181 
2419	 0.216660695588818 
2420	 0.216315280563859 
2421	 0.215865160170686 
2422	 0.215522632614407 
2423	 0.215210253608134 
2424	 0.214923565757296 
2425	 0.214675249714807 
2426	 0.214439667798605 
2427	 0.214261101859519 
2428	 0.214059649060255 
2429	 0.213862987662766 
2430	 0.213645609854178 
2431	 0.213431975427393 
2432	 0.213172804830534 
2433	 0.212920449578159 
2434	 0.212605861400321 
2435	 0.212161505943152 
2436	 0.211856012592718 
2437	 0.211565964795543 
2438	 0.211280281357976 
2439	 0.211068760265178 
2440	 0.210913536628485 
2441	 0.210826990844032 
2442	 0.210605760110804 
2443	 0.210413581184598 
2444	 0.21014077970808 
2445	 0.209679252052717 
2446	 0.209359437768658 
2447	 0.209117049402029 
2448	 0.208782897178081 
2449	 0.208447013945511 
2450	 0.208059979880494 
2451	 0.207615081250881 
2452	 0.207246487718018 
2453	 0.20684790035494 
2454	 0.206470643143988 
2455	 0.206103048642905 
2456	 0.205781944178717 
2457	 0.205553224159365 
2458	 0.205262092465053 
2459	 0.204988104603693 
2460	 0.204728954938451 
2461	 0.204360833876258 
2462	 0.204059653559363 
2463	 0.203863242813439 
2464	 0.203636492706119 
2465	 0.203430076488782 
2466	 0.203205169958462 
2467	 0.202989251292171 
2468	 0.202731336483494 
2469	 0.202432055918609 
2470	 0.202123180133251 
2471	 0.201746598948144 
2472	 0.201532082179783 
2473	 0.201303964876973 
2474	 0.201096602101597 
2475	 0.200808289947043 
2476	 0.200414144011035 
2477	 0.200157050176022 
2478	 0.199911022556861 
2479	 0.199791181114915 
2480	 0.199548217506527 
2481	 0.19917182558895 
2482	 0.198873529027292 
2483	 0.198589569360003 
2484	 0.198535719990842 
2485	 0.198411813649738 
2486	 0.198138726109802 
2487	 0.197907287652399 
2488	 0.197422701784559 
2489	 0.196984757362504 
2490	 0.196680747025821 
2491	 0.196351843683313 
2492	 0.196325514631168 
2493	 0.196484912328122 
2494	 0.196663183702635 
2495	 0.196698198794169 
2496	 0.19642136872426 
2497	 0.196138657877299 
2498	 0.19594217561678 
2499	 0.195654203742242 
2500	 0.195537495984594 
