Wavelength	MM400002.asd
350	 3.72083028822955E-02 
351	 3.80669198231915E-02 
352	 3.89037568556341E-02 
353	 3.75280900554869E-02 
354	 0.041486972595126 
355	 4.29825383167892E-02 
356	 4.19035802064076E-02 
357	 4.17126724663425E-02 
358	 5.25115780692717E-02 
359	 5.34371480421773E-02 
360	 0.04557406031768 
361	 4.37513059004332E-02 
362	 0.043338184008266 
363	 4.66431004840977E-02 
364	 0.05037312397189 
365	 4.09081254708539E-02 
366	 3.74413040517049E-02 
367	 4.07676209842363E-02 
368	 4.55343124081002E-02 
369	 4.57217923782008E-02 
370	 4.33648847054462E-02 
371	 4.13681759111097E-02 
372	 4.25189826972387E-02 
373	 4.40930212377894E-02 
374	 4.55971957295637E-02 
375	 4.64436791829889E-02 
376	 4.53387687555912E-02 
377	 4.22401512656669E-02 
378	 4.11264200311051E-02 
379	 4.47843558620982E-02 
380	 4.64602810085069E-02 
381	 4.65243976858748E-02 
382	 4.55243680215429E-02 
383	 0.044089605026288 
384	 4.36895946431458E-02 
385	 0.043930594421793 
386	 4.44074571449351E-02 
387	 0.04531286597561 
388	 4.67854244815256E-02 
389	 4.72819241510254E-02 
390	 4.58077371805617E-02 
391	 4.61511083208191E-02 
392	 4.78310135883396E-02 
393	 4.91453750070917E-02 
394	 4.79343849307474E-02 
395	 4.83937530011783E-02 
396	 4.90525732574067E-02 
397	 4.89263357617843E-02 
398	 5.03737327479621E-02 
399	 5.02313462592777E-02 
400	 4.94572840328282E-02 
401	 4.99801524302468E-02 
402	 4.99472595184762E-02 
403	 4.97152481066631E-02 
404	 4.96256578207082E-02 
405	 4.98336815253291E-02 
406	 0.049398963155502 
407	 4.95600037347583E-02 
408	 5.05805147146602E-02 
409	 0.048926795458556 
410	 4.87866009087803E-02 
411	 0.05019247877198 
412	 5.11044220118838E-02 
413	 5.00270787829018E-02 
414	 4.93855154509983E-02 
415	 4.99992219562343E-02 
416	 5.02385753400743E-02 
417	 5.05324136412371E-02 
418	 5.06420037068472E-02 
419	 5.04755860857109E-02 
420	 5.09342527371034E-02 
421	 5.07560509363314E-02 
422	 5.03997484278046E-02 
423	 5.11982859239373E-02 
424	 0.05098048818541 
425	 5.06434583486458E-02 
426	 5.08355934416646E-02 
427	 5.11308527198297E-02 
428	 5.05701610833157E-02 
429	 4.99695019478884E-02 
430	 5.02886808564372E-02 
431	 5.00027869047492E-02 
432	 4.99645105899251E-02 
433	 5.02386871459894E-02 
434	 5.00737017209922E-02 
435	 5.02501283142152E-02 
436	 5.02765705213555E-02 
437	 4.99033303165345E-02 
438	 5.01861720303496E-02 
439	 0.050200141632964 
440	 5.01175277000752E-02 
441	 5.05111793709144E-02 
442	 0.050419990696785 
443	 5.03437145839971E-02 
444	 5.04657932136713E-02 
445	 5.02735940030235E-02 
446	 5.01965888597274E-02 
447	 5.03016559612397E-02 
448	 5.04741655487642E-02 
449	 5.02895267363186E-02 
450	 5.03032749761282E-02 
451	 5.05782701300457E-02 
452	 5.07340066328625E-02 
453	 5.06281370100812E-02 
454	 5.05356654802608E-02 
455	 5.06524741632977E-02 
456	 0.050813641935321 
457	 5.08376520070192E-02 
458	 5.08252979456425E-02 
459	 5.09426284715836E-02 
460	 5.07183788984294E-02 
461	 5.05572617681111E-02 
462	 5.06566623718329E-02 
463	 5.08264947828504E-02 
464	 5.07887009644717E-02 
465	 5.06383668099306E-02 
466	 0.050595981919884 
467	 5.08943779557742E-02 
468	 5.11216057560942E-02 
469	 0.051097119228271 
470	 5.08795425129574E-02 
471	 5.09517187497015E-02 
472	 0.05100447254477 
473	 5.08664987991184E-02 
474	 0.051053223096842 
475	 5.10732688409597E-02 
476	 5.08744935881341E-02 
477	 5.06353572281467E-02 
478	 5.06286302741048E-02 
479	 5.08110069627703E-02 
480	 5.10325672596495E-02 
481	 5.10461956088692E-02 
482	 5.11268492296956E-02 
483	 5.11221927212088E-02 
484	 5.09311293886736E-02 
485	 5.11526844255174E-02 
486	 5.12535811444458E-02 
487	 0.051117027164918 
488	 5.10018822908055E-02 
489	 5.10325346135483E-02 
490	 5.11070962391714E-02 
491	 5.11351594269428E-02 
492	 5.11869597422823E-02 
493	 5.10821039332751E-02 
494	 5.09549413673613E-02 
495	 5.10447932946844E-02 
496	 5.11598183180174E-02 
497	 5.11191745177011E-02 
498	 5.10037695100619E-02 
499	 5.12855550801385E-02 
500	 5.13321915872284E-02 
501	 5.12345323279824E-02 
502	 5.12432096170693E-02 
503	 0.051296931419205 
504	 5.13193745698726E-02 
505	 5.12773526262703E-02 
506	 5.11860399832655E-02 
507	 5.12164992498343E-02 
508	 0.051322089168259 
509	 5.14048409439689E-02 
510	 5.13421778056603E-02 
511	 5.13775568550577E-02 
512	 5.14329562478066E-02 
513	 5.13041177186969E-02 
514	 5.13353017948206E-02 
515	 5.13606043848706E-02 
516	 5.13266436820794E-02 
517	 5.14861096024579E-02 
518	 5.15005097369058E-02 
519	 5.13495211144965E-02 
520	 5.11824094387731E-02 
521	 5.14191772987262E-02 
522	 5.15518872629338E-02 
523	 5.14576329728821E-02 
524	 5.14650278056558E-02 
525	 5.14544818610354E-02 
526	 5.14319927011911E-02 
527	 5.14350664730327E-02 
528	 5.15323625136041E-02 
529	 5.16230427042461E-02 
530	 5.16632027938119E-02 
531	 5.16552688232881E-02 
532	 5.16421725668506E-02 
533	 5.16995409400032E-02 
534	 5.18318847474904E-02 
535	 5.18947097702558E-02 
536	 5.19564577020723E-02 
537	 5.20085848537787E-02 
538	 5.20255218771654E-02 
539	 5.20559585696532E-02 
540	 5.20904253881681E-02 
541	 0.052129615925975 
542	 5.21951166168312E-02 
543	 5.22317429809656E-02 
544	 5.22669824165943E-02 
545	 5.23389774405927E-02 
546	 5.24411851609193E-02 
547	 5.24718630619183E-02 
548	 5.24759554224587E-02 
549	 5.26115126595892E-02 
550	 5.27014294016311E-02 
551	 5.27570058342968E-02 
552	 5.28262328999517E-02 
553	 5.29633757161015E-02 
554	 5.30815485189284E-02 
555	 0.053176741272948 
556	 5.32900218390793E-02 
557	 5.34307699062647E-02 
558	 5.36117626844627E-02 
559	 0.053811963956897 
560	 5.39506566819447E-02 
561	 5.40941543680797E-02 
562	 5.42776493563094E-02 
563	 5.45120419273007E-02 
564	 5.47395836208908E-02 
565	 5.49767388375375E-02 
566	 5.52210223237916E-02 
567	 5.54451170024887E-02 
568	 5.57153625550429E-02 
569	 5.60395945810114E-02 
570	 5.63928993926253E-02 
571	 5.66986753307965E-02 
572	 5.70057915001274E-02 
573	 5.73349402104039E-02 
574	 5.76817399823257E-02 
575	 5.79956569837153E-02 
576	 5.83264076750344E-02 
577	 5.87018530365946E-02 
578	 5.90603452151388E-02 
579	 5.94900204600628E-02 
580	 5.99699896040431E-02 
581	 6.04467203169609E-02 
582	 6.10106306930634E-02 
583	 6.15290082123155E-02 
584	 6.19910016389548E-02 
585	 6.25866682224962E-02 
586	 6.31781966483913E-02 
587	 6.36902466066857E-02 
588	 0.064121026707955 
589	 6.46988351238992E-02 
590	 6.52818645976057E-02 
591	 6.58195969224829E-02 
592	 6.63580833654524E-02 
593	 6.68867555234187E-02 
594	 6.74240781650842E-02 
595	 6.79850829793079E-02 
596	 0.068565354874209 
597	 0.069182350313375 
598	 6.97921106451233E-02 
599	 0.070336086215615 
600	 7.09381285570803E-02 
601	 7.14937876705403E-02 
602	 7.19619717755261E-02 
603	 0.072462834671136 
604	 7.29495752968604E-02 
605	 7.34307707576739E-02 
606	 7.39205770136467E-02 
607	 7.43692298508677E-02 
608	 7.48022590035599E-02 
609	 7.52248851100927E-02 
610	 0.075615780001743 
611	 7.60259360478638E-02 
612	 7.64615718083996E-02 
613	 0.07689319550255 
614	 0.077226772709476 
615	 7.74902690622638E-02 
616	 7.77481557639271E-02 
617	 7.80756220951726E-02 
618	 7.83653138465804E-02 
619	 0.078597083042737 
620	 7.87971629487621E-02 
621	 7.90633987835872E-02 
622	 7.93042231528044E-02 
623	 7.94983273371192E-02 
624	 7.96654640992046E-02 
625	 7.98960714698832E-02 
626	 8.01211357670848E-02 
627	 8.02973568561212E-02 
628	 8.04316618956357E-02 
629	 8.06296171609075E-02 
630	 8.08314598134239E-02 
631	 8.09722766036648E-02 
632	 8.11638616023318E-02 
633	 8.13370738259992E-02 
634	 8.14856302033817E-02 
635	 0.081655989714986 
636	 8.18439076153935E-02 
637	 8.19905574794697E-02 
638	 8.20813859203939E-02 
639	 8.22309359637071E-02 
640	 8.23952554626567E-02 
641	 8.25694137597815E-02 
642	 8.27592577535946E-02 
643	 8.29361900402945E-02 
644	 8.30987349511504E-02 
645	 8.32528877471172E-02 
646	 8.34095665710826E-02 
647	 8.35957578334803E-02 
648	 8.37847850873046E-02 
649	 8.39481875585134E-02 
650	 8.41202121383264E-02 
651	 8.43239382940203E-02 
652	 8.45362231336049E-02 
653	 8.47013502538885E-02 
654	 8.49157676720485E-02 
655	 0.085133048884877 
656	 8.53226208277141E-02 
657	 8.55587701162919E-02 
658	 8.58144204538084E-02 
659	 8.60581686233865E-02 
660	 8.62654559285496E-02 
661	 8.64975797927124E-02 
662	 8.67290293359565E-02 
663	 8.69507788524149E-02 
664	 0.087189215093366 
665	 8.74526306697757E-02 
666	 8.77242902073771E-02 
667	 8.79868211261631E-02 
668	 8.82524630801372E-02 
669	 8.85253474046642E-02 
670	 8.88138870417082E-02 
671	 8.91285426408538E-02 
672	 8.94755722422561E-02 
673	 8.97947393675613E-02 
674	 9.00647436152546E-02 
675	 9.03808603548455E-02 
676	 9.06910909442226E-02 
677	 9.09935332175891E-02 
678	 9.13088501995261E-02 
679	 9.16592240180217E-02 
680	 9.20330393435509E-02 
681	 9.24176665911482E-02 
682	 9.28043996617736E-02 
683	 9.31746493106937E-02 
684	 9.35339559435268E-02 
685	 9.39053111224713E-02 
686	 9.43516875465533E-02 
687	 9.47627892661046E-02 
688	 9.51485060361343E-02 
689	 9.55965546626779E-02 
690	 9.60072005675371E-02 
691	 9.64151099146985E-02 
692	 9.68474114242073E-02 
693	 9.72759823316183E-02 
694	 9.77261753868657E-02 
695	 9.81898672604245E-02 
696	 0.098648176519185 
697	 9.90994984239553E-02 
698	 9.95298223605822E-02 
699	 9.99602839966848E-02 
700	 0.100445068816892 
701	 0.100927988049367 
702	 0.101409816994096 
703	 0.101894647036252 
704	 0.102358177561249 
705	 0.102855570760839 
706	 0.103363311889044 
707	 0.103827294611305 
708	 0.104319017209399 
709	 0.104814961700239 
710	 0.105305119150452 
711	 0.105816043990285 
712	 0.106298140856604 
713	 0.106768728169692 
714	 0.107249368911977 
715	 0.107693063620124 
716	 0.108155427396581 
717	 0.108645985100156 
718	 0.109135584153661 
719	 0.109596008754178 
720	 0.110039738753353 
721	 0.110468400928266 
722	 0.11084331789418 
723	 0.111278647012413 
724	 0.111723092755576 
725	 0.112094568568885 
726	 0.112476018961191 
727	 0.112833037842595 
728	 0.113167146370585 
729	 0.113513018571879 
730	 0.113800731483089 
731	 0.114084790091399 
732	 0.114398123453138 
733	 0.114669384622519 
734	 0.114921049638998 
735	 0.115153088961636 
736	 0.115355098998326 
737	 0.115497732696734 
738	 0.115653785852013 
739	 0.115835676034666 
740	 0.115981961584336 
741	 0.11607098162318 
742	 0.116130412093185 
743	 0.116187772235685 
744	 0.11623598056786 
745	 0.116267911878172 
746	 0.116291077981652 
747	 0.116309984012689 
748	 0.116257530950989 
749	 0.116182222944327 
750	 0.11611306006516 
751	 0.116041784395582 
752	 0.115949835744622 
753	 0.115824094497604 
754	 0.115667697878284 
755	 0.115522709416264 
756	 0.115367761759046 
757	 0.115196766433316 
758	 0.115010091931145 
759	 0.114794537584871 
760	 0.114570380550605 
761	 0.114353734413673 
762	 0.114150544155018 
763	 0.113922683674781 
764	 0.113674649595044 
765	 0.113415414405664 
766	 0.113132133632668 
767	 0.112840521383684 
768	 0.112550911630746 
769	 0.112266671684703 
770	 0.111968483846538 
771	 0.111667636694613 
772	 0.111364382941226 
773	 0.111043133624581 
774	 0.110746908508967 
775	 0.110432268086077 
776	 0.110076961584672 
777	 0.109772106488388 
778	 0.109444307211135 
779	 0.109110963017124 
780	 0.108815501720353 
781	 0.108484906620698 
782	 0.108178615504907 
783	 0.107885818425155 
784	 0.107520240089576 
785	 0.10722072703897 
786	 0.106914890581246 
787	 0.106555689024496 
788	 0.106256928623486 
789	 0.105957817035916 
790	 0.105644819285112 
791	 0.105325664998115 
792	 0.105029750659122 
793	 0.104723634128968 
794	 0.104402859050643 
795	 0.104092466718725 
796	 0.103812397896482 
797	 0.103539680265183 
798	 0.103257547876503 
799	 0.102972768990895 
800	 0.102709149764478 
801	 0.102432496399622 
802	 0.102119346646336 
803	 0.101856878349196 
804	 0.101611749901721 
805	 0.101358847295059 
806	 0.101083805874763 
807	 0.100796131940959 
808	 0.100547218273598 
809	 0.100339801028006 
810	 0.100109477061504 
811	 9.98977251616333E-02 
812	 9.96683516708498E-02 
813	 9.94111342043496E-02 
814	 0.099233478462257 
815	 9.90376220799278E-02 
816	 9.88249529082718E-02 
817	 9.86285462746929E-02 
818	 9.84089134833695E-02 
819	 9.82201040749342E-02 
820	 9.80575504641365E-02 
821	 9.78683203621718E-02 
822	 9.77012351675174E-02 
823	 9.75388461155976E-02 
824	 9.73629539576921E-02 
825	 9.71693717351799E-02 
826	 0.097021204701704 
827	 9.68994858737374E-02 
828	 0.096768172483693 
829	 9.66191069649087E-02 
830	 9.64546663330209E-02 
831	 9.63059875694909E-02 
832	 9.62036598852938E-02 
833	 9.60899828314587E-02 
834	 9.59692696123009E-02 
835	 9.58501681061368E-02 
836	 9.57401217638432E-02 
837	 9.56265987732046E-02 
838	 9.55210010818935E-02 
839	 9.54349963574347E-02 
840	 9.53749658477177E-02 
841	 9.52907777792347E-02 
842	 9.51855363769729E-02 
843	 9.50871807254395E-02 
844	 9.50496445675477E-02 
845	 9.49966473543211E-02 
846	 9.49256072056454E-02 
847	 9.48664826311123E-02 
848	 9.48082826189696E-02 
849	 0.094764444093015 
850	 9.47495998707013E-02 
851	 9.47680057734244E-02 
852	 9.47220914883141E-02 
853	 9.46716034928284E-02 
854	 0.094648820225556 
855	 9.46124045405483E-02 
856	 0.094590455180699 
857	 0.094611912256509 
858	 9.46666967379958E-02 
859	 9.46458906310456E-02 
860	 9.46426125248294E-02 
861	 9.46578503818006E-02 
862	 0.094669973578231 
863	 9.47126584471933E-02 
864	 9.47432849777922E-02 
865	 9.47563766334939E-02 
866	 0.094768199184439 
867	 9.47504175046696E-02 
868	 9.47787324006432E-02 
869	 9.48670106580027E-02 
870	 9.49546560936364E-02 
871	 9.49859774456349E-02 
872	 9.50190915339947E-02 
873	 9.50940778268002E-02 
874	 9.51874989005689E-02 
875	 9.52944432341884E-02 
876	 9.53618189319517E-02 
877	 9.53762752019962E-02 
878	 0.095448132620645 
879	 9.55662767562525E-02 
880	 9.56917834015546E-02 
881	 9.57861646643194E-02 
882	 9.58658181928351E-02 
883	 9.59944805352946E-02 
884	 9.61335136907611E-02 
885	 9.62128781883739E-02 
886	 9.63567585903527E-02 
887	 9.64980345445139E-02 
888	 9.66032892566689E-02 
889	 9.66901733242699E-02 
890	 9.68462703142505E-02 
891	 9.70217156751939E-02 
892	 9.71837662119305E-02 
893	 9.73449847115639E-02 
894	 9.74763735838244E-02 
895	 9.76189594767588E-02 
896	 9.78062250324429E-02 
897	 9.80338123956135E-02 
898	 0.098210097188738 
899	 9.83535240558329E-02 
900	 9.85188308533364E-02 
901	 9.87730028746119E-02 
902	 0.098973995922302 
903	 0.099155011145797 
904	 0.099376101723464 
905	 9.95448095824598E-02 
906	 0.099733841397005 
907	 9.99541114814614E-02 
908	 0.100192958335669 
909	 0.100496157108708 
910	 0.100788721023425 
911	 0.101029160680425 
912	 0.101229390702909 
913	 0.101538746513661 
914	 0.101883662636405 
915	 0.102168184340817 
916	 0.102333831046266 
917	 0.102630480567892 
918	 0.102988492940058 
919	 0.103303582944486 
920	 0.103505268395042 
921	 0.103818646380516 
922	 0.104169717031905 
923	 0.104497214537859 
924	 0.104838992749178 
925	 0.105174692722373 
926	 0.105545190635407 
927	 0.105934976770274 
928	 0.106207667437394 
929	 0.106569277823064 
930	 0.106979604423676 
931	 0.10738020770338 
932	 0.107829990522397 
933	 0.108226777836965 
934	 0.108591138521273 
935	 0.108977296550849 
936	 0.109423315333602 
937	 0.109816330408614 
938	 0.110191855346792 
939	 0.110628921051212 
940	 0.111172806569356 
941	 0.111611532829907 
942	 0.112045804943607 
943	 0.112604432730354 
944	 0.112989557185437 
945	 0.113410140395577 
946	 0.113889279584452 
947	 0.114366771498118 
948	 0.114848780207774 
949	 0.115398775840331 
950	 0.115902198666871 
951	 0.116266329640892 
952	 0.11695256238661 
953	 0.117586816160887 
954	 0.118117486076337 
955	 0.11867842202479 
956	 0.119181203976823 
957	 0.11972958840953 
958	 0.120306624555225 
959	 0.120841254241715 
960	 0.121442233230268 
961	 0.122067580077427 
962	 0.122694196648538 
963	 0.123312823612032 
964	 0.123884196465034 
965	 0.12446237164013 
966	 0.125072291923665 
967	 0.125711689451138 
968	 0.126375203380603 
969	 0.127037125266678 
970	 0.127698121770781 
971	 0.128371500537167 
972	 0.129038544194472 
973	 0.129693873419747 
974	 0.130324488555443 
975	 0.130940440182646 
976	 0.131705581583524 
977	 0.132476096024627 
978	 0.133183896459277 
979	 0.133840962376123 
980	 0.134496837375287 
981	 0.135093563902786 
982	 0.135685005458052 
983	 0.136402756264331 
984	 0.137395618765805 
985	 0.138222371783621 
986	 0.13882601020265 
987	 0.139411620569566 
988	 0.140093568217582 
989	 0.140902562633825 
990	 0.141722123308641 
991	 0.142427111942179 
992	 0.143201908538144 
993	 0.143919603529877 
994	 0.144586568895155 
995	 0.145281198694035 
996	 0.146082752175323 
997	 0.14681628787342 
998	 0.147530019618995 
999	 0.148331141927433 
1000	 0.149182904867576 
1001	 0.150665680717189 
1002	 0.151468334520303 
1003	 0.152268641202888 
1004	 0.153023229769244 
1005	 0.153768586855418 
1006	 0.154464675069977 
1007	 0.155086723752245 
1008	 0.155774926960241 
1009	 0.156431934622859 
1010	 0.157125105236156 
1011	 0.157882925244935 
1012	 0.158549117860657 
1013	 0.159172160658412 
1014	 0.15981896282365 
1015	 0.160453785173631 
1016	 0.161078037275547 
1017	 0.161717279251918 
1018	 0.162388656726813 
1019	 0.163060188495849 
1020	 0.163689085077685 
1021	 0.164297720936119 
1022	 0.164935541067065 
1023	 0.165586946841513 
1024	 0.166187953339545 
1025	 0.166799523858277 
1026	 0.167370783676084 
1027	 0.16785024299832 
1028	 0.168402219354854 
1029	 0.168968671183267 
1030	 0.169521743489951 
1031	 0.170068390391982 
1032	 0.170645400753781 
1033	 0.171132054149823 
1034	 0.171642001672232 
1035	 0.172181227591805 
1036	 0.172696417418585 
1037	 0.173265615390217 
1038	 0.173777259895681 
1039	 0.174266579609114 
1040	 0.174833931252263 
1041	 0.175366458739931 
1042	 0.175871037819635 
1043	 0.176378372256411 
1044	 0.176892690176747 
1045	 0.177373743490773 
1046	 0.177888486824455 
1047	 0.178457545285505 
1048	 0.179029757317849 
1049	 0.179557439180958 
1050	 0.180036244764591 
1051	 0.180491482257584 
1052	 0.180962054445057 
1053	 0.181475692157165 
1054	 0.18196897336453 
1055	 0.182441346132384 
1056	 0.182938927584263 
1057	 0.183416971436671 
1058	 0.183857496004197 
1059	 0.184320486987159 
1060	 0.184799136445883 
1061	 0.185257693380379 
1062	 0.18572709319293 
1063	 0.186247444705956 
1064	 0.186758518340897 
1065	 0.187227028215022 
1066	 0.187712664021925 
1067	 0.188162830223943 
1068	 0.188584408458249 
1069	 0.189073415513419 
1070	 0.189535785007275 
1071	 0.189954420837994 
1072	 0.190407574397477 
1073	 0.190899302614894 
1074	 0.191354689294101 
1075	 0.191787188633864 
1076	 0.192254090527794 
1077	 0.192702203134426 
1078	 0.193094102556979 
1079	 0.193495876691175 
1080	 0.193893201497784 
1081	 0.194325238955629 
1082	 0.194780277647058 
1083	 0.195210864416 
1084	 0.195665751816007 
1085	 0.196086640958846 
1086	 0.196449830268865 
1087	 0.196857054046973 
1088	 0.197277352336699 
1089	 0.197687174643578 
1090	 0.198126123124333 
1091	 0.198579599063638 
1092	 0.19897342742952 
1093	 0.199384459930033 
1094	 0.199817330385017 
1095	 0.200201878287057 
1096	 0.200614873083888 
1097	 0.20105706367271 
1098	 0.201479930373377 
1099	 0.201875470637784 
1100	 0.202303506254898 
1101	 0.202749539443251 
1102	 0.20318883507323 
1103	 0.203630427379285 
1104	 0.204098498768114 
1105	 0.204526907869248 
1106	 0.204942570405574 
1107	 0.205382529624493 
1108	 0.205807028046504 
1109	 0.206250762644125 
1110	 0.206723772775005 
1111	 0.207181049149491 
1112	 0.207630896247679 
1113	 0.208092667465396 
1114	 0.208547103874087 
1115	 0.209020501974707 
1116	 0.209534122968527 
1117	 0.21000804315284 
1118	 0.210461308349605 
1119	 0.210935504533555 
1120	 0.211426494298584 
1121	 0.211862177714354 
1122	 0.212319818267793 
1123	 0.212809871148138 
1124	 0.21326329807269 
1125	 0.213674684006752 
1126	 0.214128956653273 
1127	 0.214600272447602 
1128	 0.215056960792022 
1129	 0.215528274522532 
1130	 0.215982120111264 
1131	 0.216406043171347 
1132	 0.216855818376049 
1133	 0.217313809672529 
1134	 0.217774381154483 
1135	 0.218254631163296 
1136	 0.2187265154828 
1137	 0.219190077809457 
1138	 0.219608515665211 
1139	 0.220026669187058 
1140	 0.22041722084534 
1141	 0.220830027112627 
1142	 0.221248112787833 
1143	 0.221657237936209 
1144	 0.222074564578709 
1145	 0.222470116852594 
1146	 0.222836998184093 
1147	 0.223219797101074 
1148	 0.223610063898325 
1149	 0.22398959554134 
1150	 0.224367645220261 
1151	 0.224750196232421 
1152	 0.225114264042728 
1153	 0.225463909024721 
1154	 0.225812804805988 
1155	 0.226156193412695 
1156	 0.226495512616661 
1157	 0.226821951010601 
1158	 0.227161954514433 
1159	 0.22749943213362 
1160	 0.227847546377801 
1161	 0.228224538288047 
1162	 0.228569610391488 
1163	 0.228922140293528 
1164	 0.229243407325853 
1165	 0.229538320964101 
1166	 0.229802845264613 
1167	 0.230099269871733 
1168	 0.230400263862027 
1169	 0.23070628350695 
1170	 0.231042489422893 
1171	 0.231345493852556 
1172	 0.231639349856062 
1173	 0.231915942090332 
1174	 0.23217550480429 
1175	 0.232438931938415 
1176	 0.232691424912635 
1177	 0.232942693836864 
1178	 0.233181330743997 
1179	 0.233437714650559 
1180	 0.233706644882388 
1181	 0.233961411667779 
1182	 0.234213461620368 
1183	 0.234485205521135 
1184	 0.234736034916659 
1185	 0.234970740068092 
1186	 0.235205201254005 
1187	 0.235442892722894 
1188	 0.235668069891327 
1189	 0.235878817582385 
1190	 0.236088952250545 
1191	 0.236290363605434 
1192	 0.236499362793169 
1193	 0.236708388103234 
1194	 0.236915769694821 
1195	 0.237127122255525 
1196	 0.237336775547375 
1197	 0.237543954159293 
1198	 0.2377472953702 
1199	 0.237949230972613 
1200	 0.238158372151746 
1201	 0.238346837963206 
1202	 0.238516944537247 
1203	 0.238704781894256 
1204	 0.238899422981326 
1205	 0.239072852403294 
1206	 0.239249395558563 
1207	 0.239413134458074 
1208	 0.239542642255291 
1209	 0.239696399331354 
1210	 0.239872360704442 
1211	 0.240025273813732 
1212	 0.240173354774228 
1213	 0.240317057525295 
1214	 0.240431996706477 
1215	 0.240567459159729 
1216	 0.240710944123679 
1217	 0.240869039128883 
1218	 0.241009028460149 
1219	 0.241152010137122 
1220	 0.24129115179753 
1221	 0.241423622680772 
1222	 0.241548273936064 
1223	 0.241671784058201 
1224	 0.241793752335842 
1225	 0.241894139275194 
1226	 0.242014830736215 
1227	 0.242161054028529 
1228	 0.242284739118688 
1229	 0.242399500923284 
1230	 0.242518800351087 
1231	 0.242634290041532 
1232	 0.242742442202011 
1233	 0.242848342535818 
1234	 0.242963104201234 
1235	 0.243058517646854 
1236	 0.243133015622232 
1237	 0.243221225298911 
1238	 0.243309781679033 
1239	 0.243397056899782 
1240	 0.243484251361106 
1241	 0.243574351225985 
1242	 0.243665335923017 
1243	 0.243753652810134 
1244	 0.24384418580206 
1245	 0.243935141462284 
1246	 0.244020175071812 
1247	 0.244110682797399 
1248	 0.24421517299109 
1249	 0.244309571691616 
1250	 0.244377325977333 
1251	 0.244443448377135 
1252	 0.244511496840019 
1253	 0.244555476926992 
1254	 0.244627588310611 
1255	 0.244732165562119 
1256	 0.244801393936749 
1257	 0.244866150874024 
1258	 0.244919386779399 
1259	 0.244941013373232 
1260	 0.24498373346689 
1261	 0.245029545197539 
1262	 0.245078598234039 
1263	 0.245131286968333 
1264	 0.245191836188236 
1265	 0.245270560795372 
1266	 0.245332368865772 
1267	 0.245393809510126 
1268	 0.245448177052363 
1269	 0.245500739522007 
1270	 0.245530536084067 
1271	 0.245587513266908 
1272	 0.245659842004798 
1273	 0.245727210271667 
1274	 0.245796134975581 
1275	 0.245877953260896 
1276	 0.24596229743042 
1277	 0.246054792823186 
1278	 0.246164432622523 
1279	 0.246268985300133 
1280	 0.246382464196565 
1281	 0.246482322063436 
1282	 0.246582880593039 
1283	 0.246674645792793 
1284	 0.246752348463706 
1285	 0.246827663232124 
1286	 0.246902070354461 
1287	 0.246974551848499 
1288	 0.247061519417848 
1289	 0.247163015292774 
1290	 0.247241370436549 
1291	 0.247327428085993 
1292	 0.24738564040511 
1293	 0.247412477012614 
1294	 0.247453627608007 
1295	 0.247498477009393 
1296	 0.247526409088588 
1297	 0.247558760378185 
1298	 0.247558958768721 
1299	 0.247519218665842 
1300	 0.247498718271112 
1301	 0.247463263590684 
1302	 0.247438553765993 
1303	 0.24743125869185 
1304	 0.247413050996825 
1305	 0.247393832063645 
1306	 0.247384399840212 
1307	 0.2473653191364 
1308	 0.247348938417378 
1309	 0.247333656354115 
1310	 0.247315513172833 
1311	 0.247301436465235 
1312	 0.247290827982055 
1313	 0.24727950369738 
1314	 0.24726803819422 
1315	 0.247256913575086 
1316	 0.247253370243348 
1317	 0.247240208388463 
1318	 0.247216502838332 
1319	 0.247200734558137 
1320	 0.247178005262 
1321	 0.247167549962046 
1322	 0.247158047705833 
1323	 0.247168481663054 
1324	 0.247194931950929 
1325	 0.247223958865376 
1326	 0.247274065655503 
1327	 0.247315052313211 
1328	 0.247326860000874 
1329	 0.247359812408 
1330	 0.247412677289615 
1331	 0.247472632445423 
1332	 0.247540902733337 
1333	 0.24764280500762 
1334	 0.247720341699186 
1335	 0.247779836190922 
1336	 0.24786088215507 
1337	 0.247962773130959 
1338	 0.248036344961915 
1339	 0.248101873400135 
1340	 0.248171392406038 
1341	 0.248207780804678 
1342	 0.248280029089144 
1343	 0.248381481066416 
1344	 0.248482621803382 
1345	 0.248565433742922 
1346	 0.248654354182086 
1347	 0.248739252851315 
1348	 0.248813270192788 
1349	 0.248900310651114 
1350	 0.249000915545611 
1351	 0.249104638150103 
1352	 0.249211046883649 
1353	 0.24931603498632 
1354	 0.249439903896304 
1355	 0.249537895798953 
1356	 0.249622041685686 
1357	 0.249705549069592 
1358	 0.249775817768093 
1359	 0.249852859842614 
1360	 0.249922080487693 
1361	 0.250001497897988 
1362	 0.250096855976934 
1363	 0.250176610176286 
1364	 0.250260185617405 
1365	 0.250333435893822 
1366	 0.250398499771112 
1367	 0.250449558136447 
1368	 0.250492937711609 
1369	 0.250528261132333 
1370	 0.250551990706774 
1371	 0.250556964928181 
1372	 0.250577158814572 
1373	 0.250595866732928 
1374	 0.250597977628433 
1375	 0.250594977734328 
1376	 0.250592657641209 
1377	 0.250582812772202 
1378	 0.250553263026608 
1379	 0.250535758975569 
1380	 0.25047321691447 
1381	 0.250368216760128 
1382	 0.250270654574472 
1383	 0.250153971086702 
1384	 0.250031454339992 
1385	 0.249915552153322 
1386	 0.249769344066592 
1387	 0.249613186748884 
1388	 0.249431730948061 
1389	 0.249226545868352 
1390	 0.248995468519488 
1391	 0.248758313225717 
1392	 0.248496182157248 
1393	 0.248236486630552 
1394	 0.247971278290513 
1395	 0.247661727339449 
1396	 0.247337145303103 
1397	 0.247000812069047 
1398	 0.246626559823805 
1399	 0.246270376760764 
1400	 0.245916602138792 
1401	 0.245559740693578 
1402	 0.245204188538597 
1403	 0.244838409661751 
1404	 0.244464942833322 
1405	 0.244093922001751 
1406	 0.243710430767647 
1407	 0.243336743379344 
1408	 0.242961928934898 
1409	 0.242607022829869 
1410	 0.242243672569298 
1411	 0.241921297625314 
1412	 0.241629812844651 
1413	 0.241351409868861 
1414	 0.241093129012491 
1415	 0.240852035221967 
1416	 0.240615715499576 
1417	 0.240392083181039 
1418	 0.24018843987763 
1419	 0.24000855951664 
1420	 0.239842015922177 
1421	 0.239680117181038 
1422	 0.239540298070056 
1423	 0.239398380104159 
1424	 0.239265551803958 
1425	 0.239140743822883 
1426	 0.239032752981691 
1427	 0.238933721051454 
1428	 0.238844541033579 
1429	 0.238771314765497 
1430	 0.238703274382885 
1431	 0.238635517795358 
1432	 0.238584825447073 
1433	 0.238551947335236 
1434	 0.238520441480114 
1435	 0.238499936359184 
1436	 0.238483327031972 
1437	 0.238470655895645 
1438	 0.238467119676739 
1439	 0.238478580565217 
1440	 0.238477976804176 
1441	 0.238478894435741 
1442	 0.238488898137031 
1443	 0.238489522539121 
1444	 0.238495978303507 
1445	 0.238521412409143 
1446	 0.238537649468998 
1447	 0.238558928061308 
1448	 0.238599884277408 
1449	 0.238620877131836 
1450	 0.238645271576215 
1451	 0.238682174616184 
1452	 0.238722340196023 
1453	 0.238761793746049 
1454	 0.238818094548442 
1455	 0.238858655848187 
1456	 0.23888586230539 
1457	 0.238921116395704 
1458	 0.238952529414735 
1459	 0.238996959286274 
1460	 0.239052316859301 
1461	 0.239101675324307 
1462	 0.239151473160848 
1463	 0.239207992169367 
1464	 0.239255059302696 
1465	 0.239324355529057 
1466	 0.23941448428971 
1467	 0.239501889605315 
1468	 0.23960508774328 
1469	 0.239698690502445 
1470	 0.239775833949525 
1471	 0.23987955330857 
1472	 0.240000588194083 
1473	 0.240110050619997 
1474	 0.240246161855461 
1475	 0.240377581110347 
1476	 0.240483797532031 
1477	 0.240604982952555 
1478	 0.240740407390801 
1479	 0.240876540393229 
1480	 0.241014155444598 
1481	 0.241154014917306 
1482	 0.241282273560549 
1483	 0.24138857895046 
1484	 0.241521179873708 
1485	 0.241665820748221 
1486	 0.241799289024803 
1487	 0.24194396333433 
1488	 0.242072921787325 
1489	 0.242182280282195 
1490	 0.242306711128747 
1491	 0.242433115306388 
1492	 0.242562909119502 
1493	 0.242701953840159 
1494	 0.242834461233296 
1495	 0.242964689045805 
1496	 0.243093379235985 
1497	 0.243223137797627 
1498	 0.243342665242001 
1499	 0.243457996626271 
1500	 0.243576039272946 
1501	 0.243681897281834 
1502	 0.243797840252084 
1503	 0.243926998646483 
1504	 0.244039158709314 
1505	 0.244160850421011 
1506	 0.244286170820469 
1507	 0.244407485276673 
1508	 0.244517141484614 
1509	 0.24461236079899 
1510	 0.24471744201023 
1511	 0.244837364247469 
1512	 0.244973334772501 
1513	 0.245101480477007 
1514	 0.245222924827101 
1515	 0.245327879250503 
1516	 0.2454082890513 
1517	 0.24550468241943 
1518	 0.245604661617787 
1519	 0.245701751286987 
1520	 0.245804568826665 
1521	 0.245892926809503 
1522	 0.245971268811942 
1523	 0.246057640368178 
1524	 0.246138703559927 
1525	 0.246224646595483 
1526	 0.24631845497031 
1527	 0.246403380853539 
1528	 0.246483377887926 
1529	 0.246561254025909 
1530	 0.246639290593019 
1531	 0.24671532500806 
1532	 0.246784907343817 
1533	 0.2468573797544 
1534	 0.24692077992181 
1535	 0.247000037781792 
1536	 0.247096046328369 
1537	 0.247182056751856 
1538	 0.247284228945937 
1539	 0.247362039889666 
1540	 0.247410521125449 
1541	 0.247471836872959 
1542	 0.247531606022499 
1543	 0.24759005935691 
1544	 0.247661197580071 
1545	 0.247716995090291 
1546	 0.247757856659858 
1547	 0.247791395065786 
1548	 0.247846507413768 
1549	 0.24792043938074 
1550	 0.247999552686138 
1551	 0.248075657326963 
1552	 0.248138364933625 
1553	 0.248184861112437 
1554	 0.248246907505346 
1555	 0.248313950977464 
1556	 0.248376021913948 
1557	 0.248443794978555 
1558	 0.248499967543702 
1559	 0.248558348147811 
1560	 0.248603614271323 
1561	 0.248634965243119 
1562	 0.248678481574084 
1563	 0.248718364418448 
1564	 0.248762934002692 
1565	 0.248814013978337 
1566	 0.248870240817534 
1567	 0.248927426747029 
1568	 0.248984422971289 
1569	 0.249059808447862 
1570	 0.249106140944381 
1571	 0.249132823384511 
1572	 0.249171303289944 
1573	 0.249194217153445 
1574	 0.24923644162738 
1575	 0.249292559030982 
1576	 0.24934576043771 
1577	 0.249417174187931 
1578	 0.249462129149449 
1579	 0.249501684543245 
1580	 0.249524957185937 
1581	 0.249515468156975 
1582	 0.249527742823451 
1583	 0.24953565475648 
1584	 0.249558838230157 
1585	 0.249597892340698 
1586	 0.249630682437121 
1587	 0.249666974665049 
1588	 0.249706753211894 
1589	 0.249748027637202 
1590	 0.249790193877786 
1591	 0.249842672517784 
1592	 0.24988568555276 
1593	 0.249925190261851 
1594	 0.249961809468689 
1595	 0.2499847858679 
1596	 0.250017959556557 
1597	 0.250059772834097 
1598	 0.250092106059574 
1599	 0.250125365113403 
1600	 0.250159521770136 
1601	 0.250184408141309 
1602	 0.250213029080184 
1603	 0.25025029887206 
1604	 0.25028065216046 
1605	 0.250299878199241 
1606	 0.250330154869298 
1607	 0.250370640030618 
1608	 0.250402389711704 
1609	 0.250429152124998 
1610	 0.25045492123174 
1611	 0.250477036630272 
1612	 0.250492753849649 
1613	 0.250525026092149 
1614	 0.250573852023046 
1615	 0.250594539317783 
1616	 0.250622479218956 
1617	 0.250642914880622 
1618	 0.250625056797823 
1619	 0.250619997815596 
1620	 0.250630142958447 
1621	 0.250648424001318 
1622	 0.250676465313478 
1623	 0.250703087774603 
1624	 0.250741472618403 
1625	 0.250768166151122 
1626	 0.250794711635446 
1627	 0.250807522539559 
1628	 0.250809927602038 
1629	 0.250820589188606 
1630	 0.25082429228138 
1631	 0.250830381766199 
1632	 0.250842973790941 
1633	 0.250852307192193 
1634	 0.250855720208526 
1635	 0.250861737669241 
1636	 0.25086582912726 
1637	 0.250886719577204 
1638	 0.250918085285903 
1639	 0.25093387181262 
1640	 0.250964171683 
1641	 0.25097030798943 
1642	 0.25094311140742 
1643	 0.250946406131326 
1644	 0.25095263740962 
1645	 0.250970016419526 
1646	 0.251007768610122 
1647	 0.251028685187443 
1648	 0.251049817772965 
1649	 0.251068112091351 
1650	 0.251079902291799 
1651	 0.251091116386578 
1652	 0.251106821623491 
1653	 0.251109585767872 
1654	 0.251097006827849 
1655	 0.251097788075497 
1656	 0.251090343350247 
1657	 0.251104172496341 
1658	 0.251143148054172 
1659	 0.25115968981298 
1660	 0.25118231115218 
1661	 0.251188048515017 
1662	 0.251176658476096 
1663	 0.251162896040375 
1664	 0.251134368672434 
1665	 0.251122358847976 
1666	 0.251106626239191 
1667	 0.251101576238623 
1668	 0.251109850014492 
1669	 0.25112087786846 
1670	 0.251140529765317 
1671	 0.25115104673978 
1672	 0.251171270420195 
1673	 0.251175126491481 
1674	 0.251170599729582 
1675	 0.251151083055783 
1676	 0.251114587644012 
1677	 0.251084729819751 
1678	 0.251038713140234 
1679	 0.251008168876796 
1680	 0.250992850887615 
1681	 0.250964985331809 
1682	 0.250921309261415 
1683	 0.250906769719631 
1684	 0.250902144535695 
1685	 0.250902672631994 
1686	 0.250924317198698 
1687	 0.250944720361909 
1688	 0.250961994638756 
1689	 0.250987984310631 
1690	 0.251043835530438 
1691	 0.251060113704968 
1692	 0.251054211252892 
1693	 0.251057810476945 
1694	 0.251044112185807 
1695	 0.25103983336662 
1696	 0.251049828553791 
1697	 0.25104784813638 
1698	 0.251035178579531 
1699	 0.251024151617067 
1700	 0.251021226777074 
1701	 0.250998082781228 
1702	 0.250968217162856 
1703	 0.250925042064733 
1704	 0.250845321967779 
1705	 0.250806165072186 
1706	 0.250781305708482 
1707	 0.250749503033523 
1708	 0.25073262490968 
1709	 0.250718838202874 
1710	 0.250695057101232 
1711	 0.250684882765876 
1712	 0.250699580012701 
1713	 0.250699876782104 
1714	 0.25068930203989 
1715	 0.250687523531074 
1716	 0.250696340439587 
1717	 0.250690533574563 
1718	 0.250682463422217 
1719	 0.250668313823617 
1720	 0.250643308965091 
1721	 0.250618242527971 
1722	 0.250588720504186 
1723	 0.25056242827806 
1724	 0.250536181670559 
1725	 0.250506085868749 
1726	 0.250485089716604 
1727	 0.250440450323967 
1728	 0.250382123597398 
1729	 0.250315610631196 
1730	 0.250220363630581 
1731	 0.250156358399213 
1732	 0.25010050541484 
1733	 0.250045933871584 
1734	 0.250003909031521 
1735	 0.249968156818729 
1736	 0.249931635454783 
1737	 0.249901981049868 
1738	 0.249894819015121 
1739	 0.249856482731283 
1740	 0.24980566606555 
1741	 0.249756189011249 
1742	 0.249701697930524 
1743	 0.249639411581857 
1744	 0.249567863967988 
1745	 0.249500696915224 
1746	 0.249422657101229 
1747	 0.249345667692601 
1748	 0.249285191827366 
1749	 0.249205638222964 
1750	 0.249122304793225 
1751	 0.249032581680021 
1752	 0.248956556185074 
1753	 0.248894412000566 
1754	 0.248827451161239 
1755	 0.248769360786371 
1756	 0.24870908352908 
1757	 0.248654835350665 
1758	 0.2485960460553 
1759	 0.248543661832151 
1760	 0.248503984722842 
1761	 0.248432032462829 
1762	 0.248362523607562 
1763	 0.248304226025022 
1764	 0.248227975096221 
1765	 0.248162009094059 
1766	 0.248125175593643 
1767	 0.248082446882544 
1768	 0.248040330231652 
1769	 0.24800803791036 
1770	 0.247967529140748 
1771	 0.247941701809361 
1772	 0.247902573602807 
1773	 0.247872304651297 
1774	 0.247857551796377 
1775	 0.24781933484244 
1776	 0.247777017738214 
1777	 0.247717869690904 
1778	 0.247681717766327 
1779	 0.247672615540956 
1780	 0.247660469481053 
1781	 0.247648517044394 
1782	 0.247608976125637 
1783	 0.247571142619837 
1784	 0.247528992510316 
1785	 0.247489621558873 
1786	 0.24745752040184 
1787	 0.247398787527584 
1788	 0.247377205028881 
1789	 0.24740946760312 
1790	 0.247417123596393 
1791	 0.247425754097372 
1792	 0.247412592942665 
1793	 0.247369612581891 
1794	 0.247349836404897 
1795	 0.247343241201347 
1796	 0.247317915323415 
1797	 0.247291171850329 
1798	 0.247265160209035 
1799	 0.247201053973574 
1800	 0.247197413689045 
1801	 0.243552868788463 
1802	 0.24360461124256 
1803	 0.243641459782752 
1804	 0.24369274887433 
1805	 0.243745287306995 
1806	 0.243770641451404 
1807	 0.243789911986645 
1808	 0.243816986968818 
1809	 0.243866610932934 
1810	 0.243877531188109 
1811	 0.243867834776506 
1812	 0.243865741216679 
1813	 0.243841110308479 
1814	 0.243820480872865 
1815	 0.24383762022612 
1816	 0.243853703289546 
1817	 0.243881673663846 
1818	 0.243941900351748 
1819	 0.24396123542284 
1820	 0.243975275030844 
1821	 0.243979460148484 
1822	 0.243941147951502 
1823	 0.243926979877398 
1824	 0.243926857172597 
1825	 0.243918302650376 
1826	 0.24392952223012 
1827	 0.243906427112229 
1828	 0.24389148285057 
1829	 0.24387032752687 
1830	 0.243857070345588 
1831	 0.243837927488757 
1832	 0.243840048334289 
1833	 0.243848883797486 
1834	 0.243853334422532 
1835	 0.243873694475529 
1836	 0.243879900226062 
1837	 0.243862431408721 
1838	 0.243844169793256 
1839	 0.243830760387928 
1840	 0.243814539281032 
1841	 0.243794850494998 
1842	 0.243778504876926 
1843	 0.243746393810479 
1844	 0.243680846844399 
1845	 0.243618739405826 
1846	 0.243547434185222 
1847	 0.243478029470872 
1848	 0.243420016574391 
1849	 0.243327080532597 
1850	 0.243236254218992 
1851	 0.243145184375302 
1852	 0.243042733009744 
1853	 0.24290745614331 
1854	 0.242808045560377 
1855	 0.242696272061852 
1856	 0.24256834427512 
1857	 0.242475289051811 
1858	 0.242365672170564 
1859	 0.242250616619996 
1860	 0.242114187544192 
1861	 0.241975036641125 
1862	 0.241793755116268 
1863	 0.241590370107007 
1864	 0.241353670649877 
1865	 0.241093508392212 
1866	 0.240815701955883 
1867	 0.240499264694163 
1868	 0.240166791367197 
1869	 0.239822145897564 
1870	 0.239446533246799 
1871	 0.239033053920553 
1872	 0.238596097152625 
1873	 0.238132783718592 
1874	 0.23761408314136 
1875	 0.237037957295294 
1876	 0.236464778661723 
1877	 0.235831863771817 
1878	 0.235116857669 
1879	 0.234397417867351 
1880	 0.233603246860453 
1881	 0.232714196157509 
1882	 0.231807707509612 
1883	 0.230878568825324 
1884	 0.229867817801191 
1885	 0.228795460215641 
1886	 0.227693006344111 
1887	 0.226521624821092 
1888	 0.225284945732764 
1889	 0.224004703274203 
1890	 0.222683601187023 
1891	 0.221333496160246 
1892	 0.219915318294286 
1893	 0.218509316041141 
1894	 0.217081053876585 
1895	 0.215642559931999 
1896	 0.214191859531914 
1897	 0.21278464590019 
1898	 0.211345113375648 
1899	 0.209897229873074 
1900	 0.20850606009143 
1901	 0.207100492673815 
1902	 0.205766362223842 
1903	 0.204499922370186 
1904	 0.203265368973211 
1905	 0.202061524849847 
1906	 0.200924027021072 
1907	 0.199819058416092 
1908	 0.198771075367422 
1909	 0.197797620337063 
1910	 0.196881403228606 
1911	 0.196039461375568 
1912	 0.195264412872414 
1913	 0.194532768508441 
1914	 0.193867580999321 
1915	 0.193223797719936 
1916	 0.192615215711517 
1917	 0.192055004851792 
1918	 0.191545163663131 
1919	 0.19108233375772 
1920	 0.190678978539101 
1921	 0.190319259628953 
1922	 0.189993262068272 
1923	 0.189701465552832 
1924	 0.189450441924935 
1925	 0.189249865920054 
1926	 0.189077452951433 
1927	 0.188941696466715 
1928	 0.188832991596978 
1929	 0.188749023217103 
1930	 0.188678319257409 
1931	 0.188651656042647 
1932	 0.18864807065714 
1933	 0.188670944963541 
1934	 0.188734901706517 
1935	 0.188804048341968 
1936	 0.188877719713515 
1937	 0.188985933878913 
1938	 0.189114183516697 
1939	 0.189269380582962 
1940	 0.189452151684506 
1941	 0.189663121407947 
1942	 0.189893751806508 
1943	 0.19011935933999 
1944	 0.190346647065585 
1945	 0.190585378773336 
1946	 0.190819329384822 
1947	 0.191046229215689 
1948	 0.191296066638618 
1949	 0.191549504960089 
1950	 0.191816763447782 
1951	 0.192106146015453 
1952	 0.192388379792927 
1953	 0.192686324584622 
1954	 0.192993133595747 
1955	 0.193294856196105 
1956	 0.19362922295854 
1957	 0.19397795656099 
1958	 0.194352840419912 
1959	 0.194714962724707 
1960	 0.19510538201158 
1961	 0.195466627582996 
1962	 0.195806940386312 
1963	 0.196156909390154 
1964	 0.196494859188845 
1965	 0.196833917093603 
1966	 0.197211493677182 
1967	 0.197599025640399 
1968	 0.197987171944651 
1969	 0.198401500784584 
1970	 0.198796770456452 
1971	 0.199178159631605 
1972	 0.199575357364708 
1973	 0.199977178672017 
1974	 0.200378450716103 
1975	 0.200798928676989 
1976	 0.201197137438541 
1977	 0.201573570027936 
1978	 0.201973871172756 
1979	 0.202348716265927 
1980	 0.202714096695026 
1981	 0.203106406324163 
1982	 0.2035083895412 
1983	 0.203913862999438 
1984	 0.204341408021984 
1985	 0.204761434401034 
1986	 0.20518585429631 
1987	 0.205601025403542 
1988	 0.206019614014258 
1989	 0.206430964360577 
1990	 0.206826784299759 
1991	 0.207204583122663 
1992	 0.207577684600492 
1993	 0.207926846275663 
1994	 0.208303970102731 
1995	 0.208680065312179 
1996	 0.209064756635108 
1997	 0.209473594880027 
1998	 0.209869618011376 
1999	 0.210266777382476 
2000	 0.210656935280945 
2001	 0.211048463508679 
2002	 0.211420659175574 
2003	 0.211801519583867 
2004	 0.212193337686538 
2005	 0.212566837771279 
2006	 0.212940163608487 
2007	 0.213304996455734 
2008	 0.213653626072316 
2009	 0.214002128886553 
2010	 0.214340124617904 
2011	 0.214696811523978 
2012	 0.215061905699245 
2013	 0.215415711579009 
2014	 0.215772843380919 
2015	 0.216141656795399 
2016	 0.216486106238115 
2017	 0.216825882393162 
2018	 0.217155534541755 
2019	 0.217475924276996 
2020	 0.217800930901702 
2021	 0.218117213755862 
2022	 0.218432487561014 
2023	 0.218761254260812 
2024	 0.219071452470596 
2025	 0.219347215499473 
2026	 0.21965183386422 
2027	 0.219968852991316 
2028	 0.220279227029077 
2029	 0.220596777154552 
2030	 0.220939487685745 
2031	 0.221250518645774 
2032	 0.221548927089325 
2033	 0.221845283990595 
2034	 0.222126792636012 
2035	 0.222412612644192 
2036	 0.222705743969291 
2037	 0.222978615352092 
2038	 0.223252166185183 
2039	 0.223503208082918 
2040	 0.223725928147557 
2041	 0.223943719292438 
2042	 0.224165472309936 
2043	 0.224400364267368 
2044	 0.22463468376943 
2045	 0.224880348113209 
2046	 0.22512594382482 
2047	 0.225376885560955 
2048	 0.225615744683747 
2049	 0.225855049741275 
2050	 0.226095940281598 
2051	 0.226333406427195 
2052	 0.226561052704784 
2053	 0.226796608868961 
2054	 0.227016047769691 
2055	 0.227216873728814 
2056	 0.227404313937216 
2057	 0.227606891476292 
2058	 0.227808565066677 
2059	 0.228018846427728 
2060	 0.22824234674756 
2061	 0.228451894329165 
2062	 0.228648783802152 
2063	 0.22886652847414 
2064	 0.229094838727595 
2065	 0.229314132811625 
2066	 0.229551754708674 
2067	 0.229771684331704 
2068	 0.229978838943068 
2069	 0.230176959230378 
2070	 0.230364903776737 
2071	 0.230543987728721 
2072	 0.23072624622665 
2073	 0.230895822748841 
2074	 0.231068352910237 
2075	 0.231245550292359 
2076	 0.231418434648102 
2077	 0.231575637216867 
2078	 0.231752253876977 
2079	 0.231950769452524 
2080	 0.232128364332347 
2081	 0.232298517043448 
2082	 0.232472960965837 
2083	 0.232624106453592 
2084	 0.232804130000425 
2085	 0.232980679080807 
2086	 0.233172402528979 
2087	 0.233353607012145 
2088	 0.233537849942354 
2089	 0.233708343687656 
2090	 0.233863123279703 
2091	 0.234036685122168 
2092	 0.234200100143862 
2093	 0.234384732966131 
2094	 0.234608152218748 
2095	 0.234802392985596 
2096	 0.234999166727519 
2097	 0.235181801133533 
2098	 0.235357279707985 
2099	 0.235501433555476 
2100	 0.235652194481857 
2101	 0.235800042220195 
2102	 0.235931235523324 
2103	 0.236033328036435 
2104	 0.236172230787924 
2105	 0.236298326557724 
2106	 0.236464130903732 
2107	 0.236673397534831 
2108	 0.236874256252144 
2109	 0.23710188384275 
2110	 0.237310363187822 
2111	 0.237514174536587 
2112	 0.237716264563765 
2113	 0.237898119266578 
2114	 0.2381024347278 
2115	 0.238304270540226 
2116	 0.238517665040895 
2117	 0.238708215239865 
2118	 0.238907736625462 
2119	 0.239068836232734 
2120	 0.239184448683085 
2121	 0.239337389771417 
2122	 0.239488808841819 
2123	 0.23963597486204 
2124	 0.239792349322937 
2125	 0.239953430471144 
2126	 0.240117253778933 
2127	 0.240265171163853 
2128	 0.240437841697784 
2129	 0.240575312825228 
2130	 0.24067353292496 
2131	 0.240754339227499 
2132	 0.240868481321476 
2133	 0.240992357249567 
2134	 0.241091714412166 
2135	 0.241220203543547 
2136	 0.241286869013356 
2137	 0.241295171181109 
2138	 0.24132330193271 
2139	 0.241334452234283 
2140	 0.24134542979554 
2141	 0.241358034219055 
2142	 0.24136159046749 
2143	 0.241362757877675 
2144	 0.241344630662322 
2145	 0.241310064898853 
2146	 0.241273964972077 
2147	 0.241208862300407 
2148	 0.241166672294903 
2149	 0.241113026636616 
2150	 0.241067091269649 
2151	 0.240997255453473 
2152	 0.240915662386476 
2153	 0.240829482839101 
2154	 0.24073255594255 
2155	 0.240628826268927 
2156	 0.240525177471798 
2157	 0.240400700586731 
2158	 0.240256345749229 
2159	 0.240110255304696 
2160	 0.239943056152969 
2161	 0.239785972650565 
2162	 0.239621507853064 
2163	 0.239469234164352 
2164	 0.239323827345252 
2165	 0.239193011028948 
2166	 0.239039782818679 
2167	 0.238880652309167 
2168	 0.23873309487673 
2169	 0.238577256867385 
2170	 0.238426066724168 
2171	 0.238293650093985 
2172	 0.2381449024675 
2173	 0.237980248855375 
2174	 0.237825837153836 
2175	 0.23766881401017 
2176	 0.237522239489463 
2177	 0.237373147256666 
2178	 0.237238444683301 
2179	 0.237141086843299 
2180	 0.237011963162712 
2181	 0.236867817567801 
2182	 0.236729328473876 
2183	 0.236595797224134 
2184	 0.236421744979385 
2185	 0.236259214398065 
2186	 0.236107245136582 
2187	 0.235938133143997 
2188	 0.235724844374318 
2189	 0.235580153970546 
2190	 0.23546178879683 
2191	 0.235344139922907 
2192	 0.235268514064631 
2193	 0.235173267131916 
2194	 0.235056181707898 
2195	 0.234971565062136 
2196	 0.234915082585438 
2197	 0.23484442118548 
2198	 0.234782093650429 
2199	 0.234719083481736 
2200	 0.234649436846622 
2201	 0.234583379766617 
2202	 0.234530002445586 
2203	 0.234464143559149 
2204	 0.23440193493929 
2205	 0.23432994517271 
2206	 0.234277620676182 
2207	 0.234226859898437 
2208	 0.234196595762763 
2209	 0.234183422167803 
2210	 0.234176012022868 
2211	 0.234189497414022 
2212	 0.234194832987797 
2213	 0.234209868673287 
2214	 0.234212516679027 
2215	 0.234201913779435 
2216	 0.234203777495159 
2217	 0.234210429182128 
2218	 0.234213016428747 
2219	 0.234227737186878 
2220	 0.234227715067162 
2221	 0.234216002798938 
2222	 0.234205171771143 
2223	 0.234173983055279 
2224	 0.234128833071197 
2225	 0.234096105615791 
2226	 0.234051993680718 
2227	 0.234022502880155 
2228	 0.234004833305994 
2229	 0.233992453157783 
2230	 0.233978551944736 
2231	 0.233974888675823 
2232	 0.233991117848125 
2233	 0.233994137169704 
2234	 0.234000870966918 
2235	 0.234000621451454 
2236	 0.233996956367682 
2237	 0.233986317223051 
2238	 0.233964436646286 
2239	 0.233945183187156 
2240	 0.233923450823566 
2241	 0.233899826994582 
2242	 0.233871781274265 
2243	 0.233850124855046 
2244	 0.233840427355681 
2245	 0.233810561258014 
2246	 0.233772541147938 
2247	 0.233752510036512 
2248	 0.233717437051666 
2249	 0.233667147516808 
2250	 0.233633012903069 
2251	 0.233601839784497 
2252	 0.233571321893721 
2253	 0.233547256441109 
2254	 0.233515807377909 
2255	 0.233477409376953 
2256	 0.233456734350874 
2257	 0.233442132642137 
2258	 0.233424304918491 
2259	 0.233424333649221 
2260	 0.233406035498686 
2261	 0.233360990158769 
2262	 0.233348755629948 
2263	 0.233348636440061 
2264	 0.233344343197543 
2265	 0.233365769100442 
2266	 0.233367093487397 
2267	 0.233343819779367 
2268	 0.233339499824602 
2269	 0.233363487699782 
2270	 0.233345927466352 
2271	 0.233311374871376 
2272	 0.233284994958336 
2273	 0.23322581658388 
2274	 0.233206155103906 
2275	 0.233203619864965 
2276	 0.233243223909224 
2277	 0.233247693489584 
2278	 0.233241938133784 
2279	 0.233260663050001 
2280	 0.233267755432994 
2281	 0.233314001569543 
2282	 0.233420730896074 
2283	 0.233473573700165 
2284	 0.233526332425356 
2285	 0.233566716539903 
2286	 0.233580128240467 
2287	 0.233584208219542 
2288	 0.233582532578071 
2289	 0.233568585965714 
2290	 0.233526159819939 
2291	 0.233501813949216 
2292	 0.233460227315595 
2293	 0.233454704835339 
2294	 0.233478088993637 
2295	 0.233490353183863 
2296	 0.233533369242568 
2297	 0.233561161940143 
2298	 0.233540444113761 
2299	 0.233540040002451 
2300	 0.233539662399244 
2301	 0.233524933542288 
2302	 0.233507081023068 
2303	 0.233479156962772 
2304	 0.233452381016415 
2305	 0.233440533036501 
2306	 0.233433823616229 
2307	 0.233473063727465 
2308	 0.23344000051488 
2309	 0.233360918103927 
2310	 0.233319220800411 
2311	 0.233268691996263 
2312	 0.233194473026842 
2313	 0.233133484206138 
2314	 0.23305366581161 
2315	 0.232914876529516 
2316	 0.23282742719062 
2317	 0.232770976353215 
2318	 0.232717296141044 
2319	 0.232672807987373 
2320	 0.232633406503812 
2321	 0.232601281523111 
2322	 0.232577652716185 
2323	 0.232567720617463 
2324	 0.232562300298045 
2325	 0.232595241448729 
2326	 0.232579396962246 
2327	 0.232541918690082 
2328	 0.232478750834955 
2329	 0.232440705117973 
2330	 0.232416352226207 
2331	 0.23239827416329 
2332	 0.232402833103208 
2333	 0.232371601438259 
2334	 0.232302730174417 
2335	 0.232230562317452 
2336	 0.232154543081404 
2337	 0.23211989172583 
2338	 0.232060832995382 
2339	 0.232004080957092 
2340	 0.231977759612105 
2341	 0.231890731401882 
2342	 0.231841192061694 
2343	 0.23179965331819 
2344	 0.231684149934741 
2345	 0.23158218673384 
2346	 0.231459680233825 
2347	 0.231334632936217 
2348	 0.231205838880142 
2349	 0.231068263464127 
2350	 0.230908728270293 
2351	 0.230762128906698 
2352	 0.23061976110122 
2353	 0.230474694032701 
2354	 0.230339899898538 
2355	 0.23019839813104 
2356	 0.230047836640106 
2357	 0.229869047420829 
2358	 0.229658830456263 
2359	 0.229480923657994 
2360	 0.22929456760963 
2361	 0.229138877781265 
2362	 0.229046305068277 
2363	 0.228915596525867 
2364	 0.22873192880212 
2365	 0.228612339488521 
2366	 0.228554256297556 
2367	 0.228436265545653 
2368	 0.228340436151737 
2369	 0.228200207321469 
2370	 0.228039508499435 
2371	 0.227760391501986 
2372	 0.22749119790014 
2373	 0.227315379317728 
2374	 0.227075765611609 
2375	 0.226835691183746 
2376	 0.226629731032284 
2377	 0.22639368508588 
2378	 0.226157049535768 
2379	 0.225984774969522 
2380	 0.225864758714773 
2381	 0.225707532001239 
2382	 0.225487625510089 
2383	 0.225257615061832 
2384	 0.225013075231685 
2385	 0.224771692664922 
2386	 0.224555194187831 
2387	 0.22436994436499 
2388	 0.224197217602585 
2389	 0.223949823245376 
2390	 0.223722808362943 
2391	 0.223522990841968 
2392	 0.223271884864016 
2393	 0.223021525360035 
2394	 0.22275253631254 
2395	 0.222527751543038 
2396	 0.222290730158891 
2397	 0.222011161127064 
2398	 0.221814479953909 
2399	 0.221568736767244 
2400	 0.221330321909592 
2401	 0.221140121486214 
2402	 0.220833980988209 
2403	 0.220570490223652 
2404	 0.220354875543328 
2405	 0.220077389554575 
2406	 0.219896995087528 
2407	 0.219744061671526 
2408	 0.219458793580588 
2409	 0.219224437364265 
2410	 0.219029522284448 
2411	 0.218705094337698 
2412	 0.218454706296511 
2413	 0.218188713263021 
2414	 0.217811794946174 
2415	 0.21755096905315 
2416	 0.217302506222506 
2417	 0.217090453350302 
2418	 0.216841319461197 
2419	 0.216637492331162 
2420	 0.216348249917461 
2421	 0.215946111149475 
2422	 0.215688291956236 
2423	 0.215482830180057 
2424	 0.215184614057161 
2425	 0.214956157429608 
2426	 0.214680674981976 
2427	 0.214251845083182 
2428	 0.214009988585278 
2429	 0.213894953549332 
2430	 0.213657318887507 
2431	 0.213440722685633 
2432	 0.213171464710587 
2433	 0.212826909833409 
2434	 0.212502466647119 
2435	 0.212181914654018 
2436	 0.211874147047647 
2437	 0.211537265843991 
2438	 0.211242501026062 
2439	 0.210989223469531 
2440	 0.21069675079373 
2441	 0.210393109029791 
2442	 0.210112458720874 
2443	 0.209810375858021 
2444	 0.209564085767021 
2445	 0.209399759494363 
2446	 0.20914632079567 
2447	 0.20887814693182 
2448	 0.208569790981125 
2449	 0.208169312829311 
2450	 0.207874057032018 
2451	 0.207652406348227 
2452	 0.207357984912684 
2453	 0.207064461901543 
2454	 0.20671911431275 
2455	 0.206299354609032 
2456	 0.205911767692112 
2457	 0.20549157646777 
2458	 0.205192068903303 
2459	 0.204982388486217 
2460	 0.204687130827453 
2461	 0.204400116654752 
2462	 0.204116377167337 
2463	 0.203750230533479 
2464	 0.203469261500276 
2465	 0.203282586651091 
2466	 0.203137512557168 
2467	 0.203152348748509 
2468	 0.202895256501132 
2469	 0.202466849533398 
2470	 0.202037275249134 
2471	 0.201663707030215 
2472	 0.201444149212797 
2473	 0.201159693873027 
2474	 0.200847126343888 
2475	 0.20043051775957 
2476	 0.200026806779923 
2477	 0.199783497684899 
2478	 0.199478824480347 
2479	 0.19933056267757 
2480	 0.199184821440735 
2481	 0.198908282987932 
2482	 0.198695112804335 
2483	 0.198304175349802 
2484	 0.197944969312511 
2485	 0.197803889640971 
2486	 0.197653199598272 
2487	 0.197468552660296 
2488	 0.197308454685605 
2489	 0.19715173789068 
2490	 0.197086303462396 
2491	 0.197006616929435 
2492	 0.196709931837835 
2493	 0.196425954480527 
2494	 0.196121618203249 
2495	 0.195902329050561 
2496	 0.19585169014668 
2497	 0.195702985224373 
2498	 0.195516260314841 
2499	 0.195411850502118 
2500	 0.195328622786833 
