Wavelength	MM500001.asd
350	 0.05160916949062 
351	 0.051746456227506 
352	 4.89370988855866E-02 
353	 0.047443987558441 
354	 5.27411591717705E-02 
355	 5.29990982045404E-02 
356	 5.26958702309418E-02 
357	 5.73699595006024E-02 
358	 6.06322042123761E-02 
359	 5.73063993127296E-02 
360	 5.22861825757594E-02 
361	 5.50466189485695E-02 
362	 0.051065800157417 
363	 5.17329219651793E-02 
364	 5.93667491719714E-02 
365	 0.057949668893938 
366	 5.51674874722363E-02 
367	 5.59523531442035E-02 
368	 6.11092587513312E-02 
369	 5.87123196919538E-02 
370	 5.75739927892501E-02 
371	 5.94079154987069E-02 
372	 6.06050780335868E-02 
373	 5.98126926668022E-02 
374	 5.97461726324541E-02 
375	 6.19290276877238E-02 
376	 6.53845528409306E-02 
377	 6.24035721361064E-02 
378	 5.98074095754617E-02 
379	 6.45136575975503E-02 
380	 6.40615577172225E-02 
381	 6.35852666318902E-02 
382	 6.48607291796622E-02 
383	 0.066489063532339 
384	 6.58350839053679E-02 
385	 0.065697286871203 
386	 0.067620340202893 
387	 6.95491179350512E-02 
388	 0.069580325490968 
389	 6.83724942727591E-02 
390	 6.75716302413627E-02 
391	 6.83327921637216E-02 
392	 7.03043517888835E-02 
393	 7.25011174812183E-02 
394	 7.35920393321798E-02 
395	 7.32286806310501E-02 
396	 7.39915213556265E-02 
397	 7.66009357108419E-02 
398	 7.69211130616182E-02 
399	 7.69486075347015E-02 
400	 7.71458235204041E-02 
401	 7.74927763955437E-02 
402	 0.078287337189076 
403	 0.079253790843874 
404	 7.95321070087482E-02 
405	 7.78945744794196E-02 
406	 7.91060590500014E-02 
407	 8.10340365612449E-02 
408	 8.13436494251541E-02 
409	 0.080721936666823 
410	 8.00186871655149E-02 
411	 7.99729886894602E-02 
412	 8.09680310910652E-02 
413	 8.19230398731445E-02 
414	 8.17441183707962E-02 
415	 8.08185286549254E-02 
416	 0.081301063096906 
417	 0.082059553880312 
418	 8.25333920632551E-02 
419	 8.24873876811728E-02 
420	 0.082264263010278 
421	 0.081875758975511 
422	 0.081802503041946 
423	 8.26205895046246E-02 
424	 8.26276638245951E-02 
425	 8.19553293552187E-02 
426	 8.11759914916597E-02 
427	 8.12091726065979E-02 
428	 8.08822369146927E-02 
429	 8.05766985418321E-02 
430	 8.09264963847886E-02 
431	 8.12813098367349E-02 
432	 8.11649270973058E-02 
433	 8.08181965213835E-02 
434	 8.10950938737291E-02 
435	 8.13727507624639E-02 
436	 8.15609622812026E-02 
437	 8.16768550344579E-02 
438	 8.16752546660011E-02 
439	 8.21031633086326E-02 
440	 8.27931641763275E-02 
441	 8.32543473857001E-02 
442	 8.36477884217238E-02 
443	 8.39294173637679E-02 
444	 8.41625833804839E-02 
445	 8.45909334960968E-02 
446	 8.50775667622024E-02 
447	 8.55927877500582E-02 
448	 8.60802517572821E-02 
449	 8.62374851148255E-02 
450	 8.64571028567778E-02 
451	 8.68653979589286E-02 
452	 8.73316687303755E-02 
453	 0.087689371703026 
454	 8.78249145174311E-02 
455	 8.78617094713291E-02 
456	 8.85168199456908E-02 
457	 8.87424384618666E-02 
458	 8.87598137876202E-02 
459	 8.92264324518389E-02 
460	 0.089327427666586 
461	 8.94594901273894E-02 
462	 8.97627540868736E-02 
463	 8.98658560528582E-02 
464	 9.02193363942844E-02 
465	 0.09048749488211 
466	 9.03489731011469E-02 
467	 9.03979751040414E-02 
468	 9.06175399634906E-02 
469	 9.09250951517571E-02 
470	 9.11912845024198E-02 
471	 9.12938525243179E-02 
472	 9.13101660571053E-02 
473	 9.13670906546291E-02 
474	 9.16388079996541E-02 
475	 9.18061267104302E-02 
476	 9.18598624596186E-02 
477	 9.19401212792699E-02 
478	 9.21618445483333E-02 
479	 9.22994584441507E-02 
480	 9.23001475858899E-02 
481	 9.23869242771831E-02 
482	 9.24554518751908E-02 
483	 9.25722372796236E-02 
484	 9.27546969403217E-02 
485	 9.26300366220541E-02 
486	 9.26493556085984E-02 
487	 0.092843448080956 
488	 9.28916804647241E-02 
489	 9.29515378106645E-02 
490	 9.31028509064068E-02 
491	 9.33111747675252E-02 
492	 9.32936246812888E-02 
493	 9.32172449155211E-02 
494	 9.31888466944174E-02 
495	 9.32764201354909E-02 
496	 9.34614089643916E-02 
497	 9.35684933113585E-02 
498	 9.35977684510122E-02 
499	 9.38355575109877E-02 
500	 9.38617321066608E-02 
501	 9.37526623015664E-02 
502	 0.093733470329041 
503	 9.39941030999455E-02 
504	 9.41188601924975E-02 
505	 9.40685178056911E-02 
506	 9.41497421989299E-02 
507	 9.40867159586607E-02 
508	 9.41126112782118E-02 
509	 9.43319116500809E-02 
510	 9.42514637216323E-02 
511	 9.41529967932978E-02 
512	 0.094168393336876 
513	 9.43130873548829E-02 
514	 9.43193509499103E-02 
515	 9.42022170741607E-02 
516	 9.41181140116587E-02 
517	 9.44298279443147E-02 
518	 9.45276515678766E-02 
519	 9.44628840820029E-02 
520	 9.44892302030793E-02 
521	 0.094666377302688 
522	 9.47448863793146E-02 
523	 9.46844616428546E-02 
524	 0.094679404758184 
525	 9.48020968905851E-02 
526	 9.49036998340731E-02 
527	 9.48806817138068E-02 
528	 9.49476484521079E-02 
529	 9.49852356794667E-02 
530	 9.50074624818946E-02 
531	 9.51019847988836E-02 
532	 9.51031318947682E-02 
533	 9.51912144460787E-02 
534	 0.095410851417069 
535	 9.54219217623662E-02 
536	 9.54208038050679E-02 
537	 9.54765112218098E-02 
538	 9.56022904158559E-02 
539	 9.57705043643188E-02 
540	 9.58542397277379E-02 
541	 0.095862062064835 
542	 9.59887374903791E-02 
543	 9.60247151766683E-02 
544	 9.60825194521446E-02 
545	 9.62805858023198E-02 
546	 9.64083041752189E-02 
547	 9.64982555606586E-02 
548	 9.65911925254048E-02 
549	 9.67247914584726E-02 
550	 9.68347795433708E-02 
551	 9.69636171621281E-02 
552	 9.71352735446022E-02 
553	 9.72731196033064E-02 
554	 9.74275173601272E-02 
555	 9.76217466446371E-02 
556	 9.78555168795991E-02 
557	 9.80564188358201E-02 
558	 9.82277694618284E-02 
559	 0.098412716765335 
560	 9.87164001434728E-02 
561	 9.89485859423498E-02 
562	 9.91267120636941E-02 
563	 9.93412532713799E-02 
564	 9.96432527278188E-02 
565	 9.99173051133313E-02 
566	 0.100160371335896 
567	 0.100503539106143 
568	 0.100927394928694 
569	 0.101400632201338 
570	 0.101886610797782 
571	 0.102363082706555 
572	 0.102788190059564 
573	 0.103185152271011 
574	 0.103618401291416 
575	 0.10402485664793 
576	 0.104468405313285 
577	 0.104960107353632 
578	 0.105336076796592 
579	 0.105825249721779 
580	 0.106440329929532 
581	 0.107106360934151 
582	 0.10786485821202 
583	 0.108608608063582 
584	 0.109284332927501 
585	 0.109930703623975 
586	 0.110590588647583 
587	 0.11123797495782 
588	 0.111847942645007 
589	 0.112494694941955 
590	 0.113215673636172 
591	 0.113963990550043 
592	 0.114627724929022 
593	 0.115311219716888 
594	 0.11603221159258 
595	 0.116780401034538 
596	 0.117519325523063 
597	 0.118308798384023 
598	 0.119127983415641 
599	 0.119916511878995 
600	 0.120667157914085 
601	 0.121393715332187 
602	 0.122090011207516 
603	 0.12270580400833 
604	 0.123337589300507 
605	 0.123992520131759 
606	 0.124639095803632 
607	 0.125230039829398 
608	 0.125809960252972 
609	 0.12642076207586 
610	 0.127092940731839 
611	 0.127661023234937 
612	 0.128213371765679 
613	 0.128824450117262 
614	 0.129306100565244 
615	 0.129750042391803 
616	 0.130202493124878 
617	 0.130667758298934 
618	 0.131079094732113 
619	 0.131440564504763 
620	 0.131772869798841 
621	 0.132093959128846 
622	 0.132489797646433 
623	 0.132874649529161 
624	 0.133136669317127 
625	 0.133524660747769 
626	 0.13386081650035 
627	 0.13409994889235 
628	 0.134414094783042 
629	 0.134733084073495 
630	 0.135005907527973 
631	 0.135218538699039 
632	 0.135478167957339 
633	 0.135774799864608 
634	 0.136053940851176 
635	 0.136239960756197 
636	 0.136507187342058 
637	 0.136757732013955 
638	 0.136928468455455 
639	 0.137154718925869 
640	 0.137433291716123 
641	 0.137731675052347 
642	 0.138001959428119 
643	 0.138244182717651 
644	 0.138472964652684 
645	 0.138697578994349 
646	 0.138914246384971 
647	 0.139186214710814 
648	 0.139461816843049 
649	 0.139689934025868 
650	 0.13997651885415 
651	 0.140271398329962 
652	 0.140542620344265 
653	 0.140784659723053 
654	 0.141095013656685 
655	 0.141410111648431 
656	 0.141686304084414 
657	 0.142008299132116 
658	 0.142314346261388 
659	 0.142603564860194 
660	 0.142901625765678 
661	 0.143203000991444 
662	 0.143531065087879 
663	 0.143887164262907 
664	 0.144238090190749 
665	 0.144598821966423 
666	 0.144966979295121 
667	 0.145331826442686 
668	 0.145661565809367 
669	 0.146001369973372 
670	 0.146378279501156 
671	 0.146796045500642 
672	 0.147191834775412 
673	 0.147572643994371 
674	 0.147959445705903 
675	 0.148368823938088 
676	 0.148831383264988 
677	 0.149295117728068 
678	 0.14969038846322 
679	 0.150104947503988 
680	 0.150557438775959 
681	 0.151046240354415 
682	 0.151552972867922 
683	 0.15201458782896 
684	 0.152458508613212 
685	 0.152932963324929 
686	 0.153463968161777 
687	 0.153988041728506 
688	 0.154488416902548 
689	 0.15498792539428 
690	 0.155543120862762 
691	 0.156058768186592 
692	 0.156524256317436 
693	 0.157151681037873 
694	 0.157723411151676 
695	 0.158244419374813 
696	 0.158793361838431 
697	 0.159369443712454 
698	 0.159971475589327 
699	 0.160585409227057 
700	 0.161184296954125 
701	 0.161760714922134 
702	 0.162327028965417 
703	 0.162905782423136 
704	 0.163542510432552 
705	 0.164143855941017 
706	 0.164723467195167 
707	 0.165342916340694 
708	 0.165956135943293 
709	 0.166538421766154 
710	 0.167099971272126 
711	 0.167700093748777 
712	 0.16826524205053 
713	 0.168830484291702 
714	 0.169438327267647 
715	 0.170039741917698 
716	 0.170616363568343 
717	 0.171166505019996 
718	 0.171703147416634 
719	 0.172272542165958 
720	 0.172808250792959 
721	 0.17328636201453 
722	 0.173794331792403 
723	 0.174336533244663 
724	 0.174863749806755 
725	 0.17531933309856 
726	 0.175720759884876 
727	 0.176128456744989 
728	 0.176556494775762 
729	 0.176971035980894 
730	 0.177327714795585 
731	 0.177683488525891 
732	 0.178062821636474 
733	 0.178364700926817 
734	 0.178659374437281 
735	 0.17894208952785 
736	 0.179185190114735 
737	 0.179417544478444 
738	 0.179625069607198 
739	 0.179800298300675 
740	 0.179946067120492 
741	 0.180068454153485 
742	 0.180169436063779 
743	 0.180248914019897 
744	 0.180302147538134 
745	 0.180358617451104 
746	 0.180389098149386 
747	 0.18034954411622 
748	 0.180307716539443 
749	 0.180241119124189 
750	 0.180141543963312 
751	 0.180027482763689 
752	 0.179913269275321 
753	 0.1797887030204 
754	 0.179634402774281 
755	 0.179416522192427 
756	 0.179229569430265 
757	 0.179052194263385 
758	 0.178813365940226 
759	 0.178567760570153 
760	 0.178301712478128 
761	 0.178026767578641 
762	 0.177790900714631 
763	 0.177468176041201 
764	 0.177130292639807 
765	 0.176841672290149 
766	 0.176498586712943 
767	 0.176172917655381 
768	 0.175822555843487 
769	 0.175382948069556 
770	 0.175064853548335 
771	 0.174717292862542 
772	 0.174298026799263 
773	 0.173930842233091 
774	 0.173550260463517 
775	 0.173166923525702 
776	 0.172791081221138 
777	 0.172385740645687 
778	 0.171990386212468 
779	 0.17160584459683 
780	 0.171214144573342 
781	 0.170804244860029 
782	 0.170414181738578 
783	 0.170033514915882 
784	 0.169602424253273 
785	 0.169182254273738 
786	 0.168784178637991 
787	 0.168399387975737 
788	 0.167994350887283 
789	 0.167609239106 
790	 0.167239877031504 
791	 0.166862369501304 
792	 0.16644687513588 
793	 0.166050895335778 
794	 0.165694351078441 
795	 0.165358498767384 
796	 0.165027992525376 
797	 0.164648638297291 
798	 0.164222571698055 
799	 0.16385762501916 
800	 0.163541509838953 
801	 0.163224814256556 
802	 0.162870825921276 
803	 0.16254921792872 
804	 0.162216575695503 
805	 0.161890696192231 
806	 0.16161354864207 
807	 0.161275739049067 
808	 0.160944412395498 
809	 0.160651412463247 
810	 0.160356373749914 
811	 0.160075157695306 
812	 0.159782744885532 
813	 0.15947399794519 
814	 0.159219388799855 
815	 0.158980702091721 
816	 0.158740129534201 
817	 0.158492090589343 
818	 0.158253431788401 
819	 0.158006455293364 
820	 0.157753855885589 
821	 0.157516931150664 
822	 0.157297383526206 
823	 0.157099032785625 
824	 0.156905807150474 
825	 0.15666932830883 
826	 0.156510586861664 
827	 0.156353589828703 
828	 0.156122991588307 
829	 0.155923579307139 
830	 0.155735334641939 
831	 0.15557816772188 
832	 0.155467048321138 
833	 0.155279667687704 
834	 0.155111885948737 
835	 0.154990541404411 
836	 0.154861941868759 
837	 0.154708711851311 
838	 0.154561254285449 
839	 0.154443487428274 
840	 0.154352944281916 
841	 0.154273623181678 
842	 0.154158723329149 
843	 0.154003964446233 
844	 0.153959722450323 
845	 0.153913296240107 
846	 0.153826921814211 
847	 0.15371381597273 
848	 0.153642288838659 
849	 0.153597381075906 
850	 0.153557214763374 
851	 0.153502999035997 
852	 0.153460819114342 
853	 0.153430893753191 
854	 0.153414217765431 
855	 0.15341771971409 
856	 0.153385444293649 
857	 0.153348814318084 
858	 0.153345021966356 
859	 0.153371312881093 
860	 0.153392995610567 
861	 0.153406630218336 
862	 0.153423354308501 
863	 0.153456024379402 
864	 0.153501818034613 
865	 0.153539673633046 
866	 0.153547299988513 
867	 0.153567654520032 
868	 0.153605128555928 
869	 0.153656891116915 
870	 0.153717126887113 
871	 0.153795095128341 
872	 0.15387415575799 
873	 0.15396272798782 
874	 0.154113661698571 
875	 0.154229563150774 
876	 0.154308682643571 
877	 0.154378768073806 
878	 0.154467503642903 
879	 0.154622106215305 
880	 0.154770042211423 
881	 0.154839692690134 
882	 0.154949885034604 
883	 0.155090880892311 
884	 0.155232400034308 
885	 0.15535389555576 
886	 0.155562629069783 
887	 0.155787989921626 
888	 0.155984863370646 
889	 0.15614868772808 
890	 0.156317397441978 
891	 0.156452627707701 
892	 0.15660013597767 
893	 0.156901645675799 
894	 0.157099334445953 
895	 0.157244304818108 
896	 0.157427974903383 
897	 0.157694947690483 
898	 0.157965090849002 
899	 0.158205821295393 
900	 0.158425778546141 
901	 0.158704716074822 
902	 0.15893326082715 
903	 0.159182965257186 
904	 0.15952516657545 
905	 0.159785909083525 
906	 0.160077556610519 
907	 0.160383081493869 
908	 0.160652897947642 
909	 0.161022128892505 
910	 0.161342304674081 
911	 0.16162716870821 
912	 0.16197825181241 
913	 0.16223728866904 
914	 0.162536333425778 
915	 0.162903694801991 
916	 0.163262637436378 
917	 0.163675024815099 
918	 0.164109217336589 
919	 0.164519131131371 
920	 0.164866023386322 
921	 0.165254891401406 
922	 0.165656693949599 
923	 0.166048455801939 
924	 0.166453358959507 
925	 0.166894730631697 
926	 0.167358286134207 
927	 0.167814511929388 
928	 0.168223606985227 
929	 0.168718278603406 
930	 0.169235472602012 
931	 0.169718953481562 
932	 0.170252241945964 
933	 0.170794826508269 
934	 0.171274388392817 
935	 0.171682419150268 
936	 0.172209123872852 
937	 0.172731981033283 
938	 0.173285827696082 
939	 0.173903478487918 
940	 0.174432155179712 
941	 0.175006560570062 
942	 0.175625141899452 
943	 0.176236365543878 
944	 0.176842133868824 
945	 0.177329816944758 
946	 0.177859525624269 
947	 0.178602684634425 
948	 0.179213763611359 
949	 0.179816094368754 
950	 0.180453639505429 
951	 0.181118570827735 
952	 0.181796778293367 
953	 0.182479046205969 
954	 0.1831497112693 
955	 0.183808090770709 
956	 0.184536752201754 
957	 0.185306950427984 
958	 0.186028889537685 
959	 0.186641012590829 
960	 0.187412574093486 
961	 0.188122645719728 
962	 0.188797884576292 
963	 0.189607405104867 
964	 0.190437472351179 
965	 0.191226538845161 
966	 0.191990017694325 
967	 0.192785301404324 
968	 0.193570925928064 
969	 0.194359908662364 
970	 0.195189292495987 
971	 0.196078750031077 
972	 0.196896349334988 
973	 0.19769501531078 
974	 0.198488244792479 
975	 0.199268321673447 
976	 0.200101325256475 
977	 0.201103727034246 
978	 0.202126507983619 
979	 0.202923730403505 
980	 0.203708334234897 
981	 0.204670527287771 
982	 0.205679654980596 
983	 0.20649095943564 
984	 0.207376758040885 
985	 0.208327146830182 
986	 0.209263268041305 
987	 0.210121808460704 
988	 0.211077916073945 
989	 0.212023846249699 
990	 0.212937745354215 
991	 0.213863466170722 
992	 0.21488335147441 
993	 0.215863379756618 
994	 0.216785073942667 
995	 0.217680647402993 
996	 0.218509612477239 
997	 0.219484038519313 
998	 0.220498010868884 
999	 0.221414757727193 
1000	 0.222481298642744 
1001	 0.226028774674659 
1002	 0.226977290084086 
1003	 0.227924814458675 
1004	 0.228869180846637 
1005	 0.229810303326563 
1006	 0.230754005230786 
1007	 0.231700130966153 
1008	 0.232643615658099 
1009	 0.233540608121395 
1010	 0.23440324338107 
1011	 0.235270641791867 
1012	 0.236162617529163 
1013	 0.23708111861612 
1014	 0.238018086899607 
1015	 0.238932512059119 
1016	 0.239757358651785 
1017	 0.240611433123151 
1018	 0.241448298948173 
1019	 0.242320002579594 
1020	 0.243181376435841 
1021	 0.244092991070071 
1022	 0.244952227551213 
1023	 0.245725804973422 
1024	 0.246497832012052 
1025	 0.247309358729732 
1026	 0.248174758753501 
1027	 0.249083500054399 
1028	 0.249954003937485 
1029	 0.25072201714059 
1030	 0.251514498008909 
1031	 0.252314181626464 
1032	 0.253097048068588 
1033	 0.253897354681917 
1034	 0.25476089686802 
1035	 0.255512875940402 
1036	 0.256218968944618 
1037	 0.256996025467894 
1038	 0.257758635502373 
1039	 0.258550873622902 
1040	 0.259402954814013 
1041	 0.260214714196683 
1042	 0.261000116125981 
1043	 0.261780550080755 
1044	 0.262552026864524 
1045	 0.263292205946556 
1046	 0.264076099944271 
1047	 0.264885306419117 
1048	 0.265684249796867 
1049	 0.266494525134286 
1050	 0.267269308604598 
1051	 0.268014734848149 
1052	 0.268777143299931 
1053	 0.269564227171437 
1054	 0.270318541876707 
1055	 0.271041627926062 
1056	 0.271764698935726 
1057	 0.272479158206012 
1058	 0.273149850074299 
1059	 0.273869562790704 
1060	 0.274625884649513 
1061	 0.275348695863193 
1062	 0.276034677268678 
1063	 0.276721974322444 
1064	 0.277414634734125 
1065	 0.27807966718087 
1066	 0.278740843915467 
1067	 0.279424779881924 
1068	 0.280074397050813 
1069	 0.280706992003595 
1070	 0.281352079828324 
1071	 0.282019452729329 
1072	 0.282655729043766 
1073	 0.28325677060014 
1074	 0.283892312372257 
1075	 0.284542893233876 
1076	 0.285164988551395 
1077	 0.285800338192938 
1078	 0.286423782539578 
1079	 0.286994333678478 
1080	 0.287608105091406 
1081	 0.288230238910958 
1082	 0.288820234037597 
1083	 0.289436608708261 
1084	 0.290071824798275 
1085	 0.290683331275525 
1086	 0.291295183168411 
1087	 0.291913628828947 
1088	 0.292513356888721 
1089	 0.293124009440539 
1090	 0.293788374119239 
1091	 0.294433234814167 
1092	 0.295072542980421 
1093	 0.295712521920137 
1094	 0.296371582367948 
1095	 0.297023873960937 
1096	 0.297667168762037 
1097	 0.298355808425746 
1098	 0.299044948815439 
1099	 0.29971914464746 
1100	 0.300416966493504 
1101	 0.301153801203651 
1102	 0.301876533354666 
1103	 0.302603260472115 
1104	 0.303316739340667 
1105	 0.304037934173673 
1106	 0.304779170647382 
1107	 0.305518367854504 
1108	 0.306315805611841 
1109	 0.307123009126704 
1110	 0.30791334126406 
1111	 0.308721864388431 
1112	 0.309525119184961 
1113	 0.310355023658429 
1114	 0.311209929508178 
1115	 0.31206493019653 
1116	 0.312952606773763 
1117	 0.313813621402742 
1118	 0.314648723542457 
1119	 0.315510896998888 
1120	 0.316412560539926 
1121	 0.317275271386655 
1122	 0.318144313180968 
1123	 0.31903665175701 
1124	 0.319935916631385 
1125	 0.320819725273143 
1126	 0.321724424859042 
1127	 0.322679151857912 
1128	 0.323586342439389 
1129	 0.324463723999316 
1130	 0.325355690098963 
1131	 0.326219294984141 
1132	 0.327122919035685 
1133	 0.328067587889501 
1134	 0.328979888554717 
1135	 0.329889759912475 
1136	 0.330814986325089 
1137	 0.331718544275881 
1138	 0.332614591518468 
1139	 0.33349505452259 
1140	 0.334370099792097 
1141	 0.335254012001014 
1142	 0.336117023046093 
1143	 0.336991825091653 
1144	 0.337895567548314 
1145	 0.338769458984229 
1146	 0.339624438359634 
1147	 0.34048154008733 
1148	 0.341347934129786 
1149	 0.34218735331173 
1150	 0.34301488113353 
1151	 0.343818311550628 
1152	 0.344612518766385 
1153	 0.34541731850382 
1154	 0.346242315688467 
1155	 0.347099824570473 
1156	 0.34791963202044 
1157	 0.348752510657509 
1158	 0.349542553258866 
1159	 0.350290290074638 
1160	 0.351051934611755 
1161	 0.351802200297406 
1162	 0.352552118717985 
1163	 0.353309350656165 
1164	 0.354050769622081 
1165	 0.354787987542203 
1166	 0.355505816286729 
1167	 0.356213479630768 
1168	 0.356940621356633 
1169	 0.357644442733815 
1170	 0.358340545837128 
1171	 0.359031007324055 
1172	 0.359722199230929 
1173	 0.360382333122792 
1174	 0.361014870394246 
1175	 0.361669164938099 
1176	 0.362316024452979 
1177	 0.362957766110324 
1178	 0.363623765619872 
1179	 0.364261065258013 
1180	 0.364866731495825 
1181	 0.36547915660657 
1182	 0.366093373597625 
1183	 0.366694341635804 
1184	 0.367293799702333 
1185	 0.367900711722493 
1186	 0.368476396161538 
1187	 0.369027538642566 
1188	 0.369593501604213 
1189	 0.370158653807846 
1190	 0.370698998788761 
1191	 0.371240267006246 
1192	 0.371768457123771 
1193	 0.372266642594351 
1194	 0.372768095150877 
1195	 0.3732616491154 
1196	 0.373764926979913 
1197	 0.374276633976553 
1198	 0.374769044438448 
1199	 0.375256036490281 
1200	 0.375757840796075 
1201	 0.376219812459422 
1202	 0.376647548737892 
1203	 0.377088325974855 
1204	 0.377516673882203 
1205	 0.377951511806154 
1206	 0.378389722731983 
1207	 0.378820632933758 
1208	 0.379257399802016 
1209	 0.379675727589624 
1210	 0.380083753954172 
1211	 0.380485192346919 
1212	 0.380870856399916 
1213	 0.381257125489669 
1214	 0.381643534582623 
1215	 0.382020705909535 
1216	 0.382391780578622 
1217	 0.382755016592581 
1218	 0.383121959691665 
1219	 0.383495131474091 
1220	 0.383838403110455 
1221	 0.384171492929147 
1222	 0.384500226500836 
1223	 0.384789896734637 
1224	 0.38511626487805 
1225	 0.385474114274145 
1226	 0.385804427475512 
1227	 0.386149217896727 
1228	 0.386463031083433 
1229	 0.38673573691209 
1230	 0.387025124759364 
1231	 0.387309113951119 
1232	 0.3875917961706 
1233	 0.387875390219198 
1234	 0.38816395006671 
1235	 0.388452511445548 
1236	 0.388748015001799 
1237	 0.389017455673731 
1238	 0.389283524788868 
1239	 0.389540526742796 
1240	 0.389766118204404 
1241	 0.390011631621775 
1242	 0.390274165185804 
1243	 0.390518139869869 
1244	 0.390757311517124 
1245	 0.390990848890654 
1246	 0.391210307496639 
1247	 0.391434607950926 
1248	 0.391661609791791 
1249	 0.391881501545301 
1250	 0.392106441575222 
1251	 0.39231437867468 
1252	 0.392533012516304 
1253	 0.39275755737626 
1254	 0.392960579522833 
1255	 0.393171512655977 
1256	 0.393347247971963 
1257	 0.393487766901406 
1258	 0.393639909635168 
1259	 0.393767286775746 
1260	 0.393914527787655 
1261	 0.394065049170673 
1262	 0.394226039083703 
1263	 0.394410914962578 
1264	 0.394578934367215 
1265	 0.394748120186108 
1266	 0.394911342861202 
1267	 0.395053033986783 
1268	 0.395197064705658 
1269	 0.395381353838321 
1270	 0.395586465323424 
1271	 0.395789984513672 
1272	 0.396032250035075 
1273	 0.396239830326917 
1274	 0.396421792804412 
1275	 0.396626052968978 
1276	 0.396831846325394 
1277	 0.397041528567314 
1278	 0.397260147438728 
1279	 0.397481612546775 
1280	 0.397736722367243 
1281	 0.397936967238848 
1282	 0.39810863791654 
1283	 0.398281916104838 
1284	 0.398430407744675 
1285	 0.398553192872262 
1286	 0.398704941309351 
1287	 0.398860238533007 
1288	 0.398967200104053 
1289	 0.399047419617509 
1290	 0.399111822934074 
1291	 0.399147573101602 
1292	 0.39917109152593 
1293	 0.399186588785738 
1294	 0.399168215922668 
1295	 0.399134253402696 
1296	 0.399054750421993 
1297	 0.398929289075377 
1298	 0.398799863164119 
1299	 0.39861906008511 
1300	 0.398461427232321 
1301	 0.398307848749106 
1302	 0.398144895648659 
1303	 0.397984307693397 
1304	 0.397820190423658 
1305	 0.39761811931123 
1306	 0.397430098358839 
1307	 0.397258165573006 
1308	 0.397089889034259 
1309	 0.396934217846195 
1310	 0.39681163907682 
1311	 0.3966629945464 
1312	 0.396497427184623 
1313	 0.396353305650101 
1314	 0.396205046403947 
1315	 0.396081874924688 
1316	 0.395966883853711 
1317	 0.395883597390168 
1318	 0.395828006376048 
1319	 0.395777175069725 
1320	 0.395745452078057 
1321	 0.395730192676926 
1322	 0.395726312187704 
1323	 0.395735336036563 
1324	 0.395749337826865 
1325	 0.395783249488122 
1326	 0.395830235001637 
1327	 0.395878729464175 
1328	 0.395954704309079 
1329	 0.396054758856585 
1330	 0.39618951654558 
1331	 0.396353536019658 
1332	 0.396525497192253 
1333	 0.396748599075518 
1334	 0.396934974661777 
1335	 0.397098648176137 
1336	 0.397288160711901 
1337	 0.397476206407194 
1338	 0.397676392912391 
1339	 0.397905722583621 
1340	 0.398121788811838 
1341	 0.398331899206976 
1342	 0.398552445622402 
1343	 0.398781992470363 
1344	 0.398996845619363 
1345	 0.399222651950049 
1346	 0.39944450864453 
1347	 0.399673644023885 
1348	 0.399912283816561 
1349	 0.400157940162297 
1350	 0.400418697823889 
1351	 0.40067436082891 
1352	 0.400940734029125 
1353	 0.401179868397193 
1354	 0.401415047509818 
1355	 0.401638721430787 
1356	 0.401835478712107 
1357	 0.402048685871713 
1358	 0.402269434157856 
1359	 0.402479853402508 
1360	 0.402684654358666 
1361	 0.402889624640992 
1362	 0.403090809237141 
1363	 0.40329035268934 
1364	 0.403497441122962 
1365	 0.403688748250533 
1366	 0.403876036257503 
1367	 0.404047656531559 
1368	 0.404196084091994 
1369	 0.404357544669609 
1370	 0.404512440483035 
1371	 0.404644496027489 
1372	 0.404767342043871 
1373	 0.404874232892192 
1374	 0.404974816290425 
1375	 0.405064685344553 
1376	 0.405137169955269 
1377	 0.405213720953887 
1378	 0.405246051571587 
1379	 0.405248830951744 
1380	 0.405231143190229 
1381	 0.405184890301542 
1382	 0.405120480587523 
1383	 0.405046973863206 
1384	 0.404932027937061 
1385	 0.40480211411969 
1386	 0.404617673234723 
1387	 0.404378977666332 
1388	 0.404125847575063 
1389	 0.403850972948658 
1390	 0.403525447082392 
1391	 0.403168024179784 
1392	 0.40276098971187 
1393	 0.402301897514552 
1394	 0.401810237320861 
1395	 0.401292575707257 
1396	 0.400755691146099 
1397	 0.400202709279614 
1398	 0.399624259611319 
1399	 0.399035552316681 
1400	 0.398419427252569 
1401	 0.397823739141454 
1402	 0.39721189264079 
1403	 0.396616699861977 
1404	 0.396041157674631 
1405	 0.39546339758823 
1406	 0.394882659914147 
1407	 0.394309163729313 
1408	 0.393726524244542 
1409	 0.393180692166152 
1410	 0.392623627447165 
1411	 0.392137067348786 
1412	 0.391686106139074 
1413	 0.391289033243825 
1414	 0.390960294879917 
1415	 0.390670891852625 
1416	 0.390439302878885 
1417	 0.390253143114935 
1418	 0.390100805219337 
1419	 0.38997364449019 
1420	 0.389843243732987 
1421	 0.389715688348965 
1422	 0.389585464011953 
1423	 0.38943598634797 
1424	 0.389280819637957 
1425	 0.389118205614087 
1426	 0.388961554842852 
1427	 0.38878274467108 
1428	 0.388637294479845 
1429	 0.388518548546134 
1430	 0.388385296178963 
1431	 0.38826052841233 
1432	 0.388132428856624 
1433	 0.387997618897657 
1434	 0.387862061184554 
1435	 0.387728982203224 
1436	 0.387596533059688 
1437	 0.387441103811942 
1438	 0.387322806099599 
1439	 0.387227123833166 
1440	 0.387133756927808 
1441	 0.387046090206557 
1442	 0.386985893380299 
1443	 0.386910843541395 
1444	 0.386839320047971 
1445	 0.386809487081937 
1446	 0.386772996165007 
1447	 0.386751828927362 
1448	 0.386755579602733 
1449	 0.386751041929311 
1450	 0.386762281449499 
1451	 0.386784233309426 
1452	 0.386812614645653 
1453	 0.386862244467283 
1454	 0.386927522064072 
1455	 0.387008037593806 
1456	 0.387110028568103 
1457	 0.38721468382712 
1458	 0.38734120753861 
1459	 0.387449951358321 
1460	 0.387557517068796 
1461	 0.387670892850239 
1462	 0.387774504209144 
1463	 0.38788869604924 
1464	 0.388012304033497 
1465	 0.388140298640572 
1466	 0.38827142140808 
1467	 0.388409788858135 
1468	 0.388559321394952 
1469	 0.388705246366661 
1470	 0.388858503584328 
1471	 0.388998985366738 
1472	 0.389145502654168 
1473	 0.389301305676604 
1474	 0.389446251732592 
1475	 0.389596000817922 
1476	 0.389751362762704 
1477	 0.38989818564075 
1478	 0.390036687909527 
1479	 0.390184793193481 
1480	 0.390346450412895 
1481	 0.390506090871043 
1482	 0.390661552794036 
1483	 0.390835580668085 
1484	 0.390988555670649 
1485	 0.391105179931798 
1486	 0.391264517343753 
1487	 0.391443384858132 
1488	 0.391615651734951 
1489	 0.391806148800466 
1490	 0.391991375004024 
1491	 0.392177330713284 
1492	 0.392348291193911 
1493	 0.392509393307764 
1494	 0.392685290548881 
1495	 0.392862917425528 
1496	 0.393025729939699 
1497	 0.393205906236929 
1498	 0.39336093121984 
1499	 0.393478109860158 
1500	 0.393611160998902 
1501	 0.393744641039314 
1502	 0.393873131405826 
1503	 0.393993535122381 
1504	 0.394126260759159 
1505	 0.394267380775806 
1506	 0.394409481829963 
1507	 0.394552004801277 
1508	 0.39469508507414 
1509	 0.394815458629685 
1510	 0.394927682886583 
1511	 0.395062247318205 
1512	 0.395192696148178 
1513	 0.395313451110353 
1514	 0.395463344699966 
1515	 0.395608742075112 
1516	 0.395749878746697 
1517	 0.39589476323824 
1518	 0.396062642539753 
1519	 0.396185144778885 
1520	 0.396283231493572 
1521	 0.396382429804128 
1522	 0.396451621818243 
1523	 0.396553320785471 
1524	 0.396667074838903 
1525	 0.396786024538632 
1526	 0.39692693138525 
1527	 0.397044657991301 
1528	 0.397155116094567 
1529	 0.397261913505776 
1530	 0.397355218728294 
1531	 0.397455295564433 
1532	 0.397563630065093 
1533	 0.397658805066785 
1534	 0.397742164536429 
1535	 0.397833237621957 
1536	 0.397927824975584 
1537	 0.398007859847174 
1538	 0.398090182367121 
1539	 0.398165128341541 
1540	 0.39821219982451 
1541	 0.398277440445381 
1542	 0.398355260889291 
1543	 0.398423624767278 
1544	 0.398486020716967 
1545	 0.398562037862886 
1546	 0.398644988462004 
1547	 0.398714612974044 
1548	 0.398821205884729 
1549	 0.398934304610365 
1550	 0.399027340297819 
1551	 0.399143453358785 
1552	 0.399238277470219 
1553	 0.399309133424831 
1554	 0.399398613245022 
1555	 0.399461670283279 
1556	 0.39950021657482 
1557	 0.399548823534366 
1558	 0.399589161360179 
1559	 0.399643627217236 
1560	 0.399712743226911 
1561	 0.399807651261254 
1562	 0.399888361555665 
1563	 0.399970950555414 
1564	 0.400049711275493 
1565	 0.400128048738786 
1566	 0.400203445310919 
1567	 0.400284648774619 
1568	 0.400347170316328 
1569	 0.400389218985711 
1570	 0.400452127659778 
1571	 0.400516775202699 
1572	 0.400578062375374 
1573	 0.400642265396943 
1574	 0.400720611751484 
1575	 0.400796055231463 
1576	 0.400879502565257 
1577	 0.401003529089535 
1578	 0.401079370520065 
1579	 0.401131604395947 
1580	 0.401177306597125 
1581	 0.40119792119017 
1582	 0.401223808420949 
1583	 0.401235121605599 
1584	 0.401264751562679 
1585	 0.401297209491023 
1586	 0.401335749541126 
1587	 0.401388950757868 
1588	 0.401439949182479 
1589	 0.401499094934999 
1590	 0.401543983411219 
1591	 0.401582261523891 
1592	 0.401626370311251 
1593	 0.401642134845517 
1594	 0.40169973496039 
1595	 0.401801401541428 
1596	 0.401876294163442 
1597	 0.401973064334898 
1598	 0.402044233404008 
1599	 0.402080407269703 
1600	 0.40212478861787 
1601	 0.402167487024943 
1602	 0.402202798599042 
1603	 0.402232225483557 
1604	 0.402260499776943 
1605	 0.402284601509841 
1606	 0.402305010126693 
1607	 0.402317114532673 
1608	 0.402336893269443 
1609	 0.402355560195658 
1610	 0.40237805590843 
1611	 0.40242564218211 
1612	 0.402471746060047 
1613	 0.402505094156624 
1614	 0.402541895924094 
1615	 0.402558657683055 
1616	 0.402569872624041 
1617	 0.402577218183277 
1618	 0.402593172107612 
1619	 0.402625768514528 
1620	 0.402628550201583 
1621	 0.402639898725816 
1622	 0.402656754995844 
1623	 0.402661292154172 
1624	 0.402656357348654 
1625	 0.402651304814253 
1626	 0.402638052633075 
1627	 0.402635468745483 
1628	 0.402627382693443 
1629	 0.402640923320127 
1630	 0.402672092897151 
1631	 0.402696490893522 
1632	 0.402724614421561 
1633	 0.402760647651848 
1634	 0.402811064301284 
1635	 0.402830348210471 
1636	 0.402846731515507 
1637	 0.402854636420415 
1638	 0.402830432540738 
1639	 0.402831457292026 
1640	 0.402838691664803 
1641	 0.402862525620371 
1642	 0.402897355662387 
1643	 0.402929002976305 
1644	 0.402989601290365 
1645	 0.403006285418466 
1646	 0.402990849941139 
1647	 0.403000046359808 
1648	 0.402995429832248 
1649	 0.403010812942141 
1650	 0.403050992515825 
1651	 0.403077877054977 
1652	 0.403103065939882 
1653	 0.403127190411726 
1654	 0.403153680481481 
1655	 0.403173820650356 
1656	 0.403188361436471 
1657	 0.403205147697407 
1658	 0.403219743640151 
1659	 0.403233932702582 
1660	 0.403254218333705 
1661	 0.403259480724728 
1662	 0.403264036725936 
1663	 0.403248283108463 
1664	 0.403202294159137 
1665	 0.403184074114069 
1666	 0.403165089588045 
1667	 0.403149774201506 
1668	 0.4031505730216 
1669	 0.403147739354934 
1670	 0.403127875065953 
1671	 0.403138911590884 
1672	 0.403173762101927 
1673	 0.403203075474162 
1674	 0.403262642615975 
1675	 0.403278670063342 
1676	 0.403280194286776 
1677	 0.403266437154522 
1678	 0.403216019036184 
1679	 0.403183131311813 
1680	 0.403142640485049 
1681	 0.403113451559439 
1682	 0.40308091214439 
1683	 0.40307241669313 
1684	 0.403087576631967 
1685	 0.403092006218903 
1686	 0.403100154513842 
1687	 0.403121752448756 
1688	 0.40315221864217 
1689	 0.403169650113117 
1690	 0.403218050908213 
1691	 0.40321197007288 
1692	 0.403138042968883 
1693	 0.403127143080885 
1694	 0.403108835905023 
1695	 0.403128004453048 
1696	 0.403220984727782 
1697	 0.403254503340527 
1698	 0.40327608795495 
1699	 0.403288088485553 
1700	 0.403279261459169 
1701	 0.40326055439619 
1702	 0.403229497674077 
1703	 0.403203233270338 
1704	 0.403145802125888 
1705	 0.403136619263363 
1706	 0.40316884117688 
1707	 0.403165453550163 
1708	 0.403179425063061 
1709	 0.403160985190867 
1710	 0.403086493589936 
1711	 0.403068112028636 
1712	 0.403062514578422 
1713	 0.403065470848901 
1714	 0.403108719753962 
1715	 0.403120328578724 
1716	 0.403119365272093 
1717	 0.403123950964725 
1718	 0.4031245863836 
1719	 0.403117327246057 
1720	 0.40312183575117 
1721	 0.403094200420571 
1722	 0.403036685187766 
1723	 0.402991695793032 
1724	 0.402924796509644 
1725	 0.402881046955627 
1726	 0.402864103829084 
1727	 0.402824705154531 
1728	 0.402782964263143 
1729	 0.402732136615548 
1730	 0.402653880573681 
1731	 0.402606935809584 
1732	 0.402587078987021 
1733	 0.402530190631912 
1734	 0.402468702949711 
1735	 0.402407766261558 
1736	 0.402306665078137 
1737	 0.402256501389002 
1738	 0.402245303472099 
1739	 0.402213130148031 
1740	 0.402190515355762 
1741	 0.402163446259223 
1742	 0.402126486474073 
1743	 0.402096855979938 
1744	 0.402079211753472 
1745	 0.402037609355508 
1746	 0.401995427297286 
1747	 0.40192208634125 
1748	 0.401840429630206 
1749	 0.401761840978989 
1750	 0.401670959458086 
1751	 0.401612621474863 
1752	 0.401572821269431 
1753	 0.40153804920999 
1754	 0.401494538021706 
1755	 0.401451742684387 
1756	 0.401415014366164 
1757	 0.401346874390563 
1758	 0.401312491893851 
1759	 0.401280911842046 
1760	 0.401200157130717 
1761	 0.401140070302017 
1762	 0.401095753814109 
1763	 0.401062991813652 
1764	 0.401038591909096 
1765	 0.401016370698232 
1766	 0.400987786361551 
1767	 0.400922493365885 
1768	 0.400885462296019 
1769	 0.400877038831506 
1770	 0.400859278511961 
1771	 0.400846463031158 
1772	 0.400804353222026 
1773	 0.400764701052454 
1774	 0.400737581494921 
1775	 0.400713898407056 
1776	 0.40071704023602 
1777	 0.400698613823775 
1778	 0.400670617275744 
1779	 0.400654196221128 
1780	 0.400629618352175 
1781	 0.400626151938857 
1782	 0.400631436995272 
1783	 0.400633364839038 
1784	 0.400640214997748 
1785	 0.400639714810872 
1786	 0.400639681863494 
1787	 0.400652658691172 
1788	 0.40064901406836 
1789	 0.400616961618337 
1790	 0.400630703289524 
1791	 0.40065890184129 
1792	 0.400696627776816 
1793	 0.400787978166489 
1794	 0.400842598327474 
1795	 0.400890663062761 
1796	 0.400906457129406 
1797	 0.400882939165998 
1798	 0.400863660254957 
1799	 0.400807537708827 
1800	 0.40080129563639 
1801	 0.400164443598537 
1802	 0.400145618973733 
1803	 0.400147733838348 
1804	 0.400183398652601 
1805	 0.400238286225069 
1806	 0.400277302770445 
1807	 0.400314766453429 
1808	 0.400360397571938 
1809	 0.400412339664964 
1810	 0.400448975280589 
1811	 0.400486616924099 
1812	 0.400529702902464 
1813	 0.40054360168453 
1814	 0.400536811078504 
1815	 0.400554201341619 
1816	 0.4005778672924 
1817	 0.4005715460428 
1818	 0.400539143465356 
1819	 0.40054381567668 
1820	 0.400549299597061 
1821	 0.400532454012395 
1822	 0.400585113443276 
1823	 0.400644676286152 
1824	 0.400680460297731 
1825	 0.400717277108747 
1826	 0.400724542950533 
1827	 0.400709901994701 
1828	 0.400681201499123 
1829	 0.400629232410287 
1830	 0.40057417720247 
1831	 0.400492974088748 
1832	 0.400425408368071 
1833	 0.400390942116833 
1834	 0.400347442098214 
1835	 0.400350814836262 
1836	 0.400384739626768 
1837	 0.400422846004034 
1838	 0.400452406108149 
1839	 0.400450907318468 
1840	 0.400440510160726 
1841	 0.400407069688754 
1842	 0.400338642283189 
1843	 0.400262744736647 
1844	 0.400198240067941 
1845	 0.400125434569143 
1846	 0.40002778126151 
1847	 0.399945156096348 
1848	 0.399864864832549 
1849	 0.399761243662661 
1850	 0.399657792692551 
1851	 0.399551833370165 
1852	 0.399437971689676 
1853	 0.399341190319181 
1854	 0.399245337049702 
1855	 0.399131099760016 
1856	 0.399029833360493 
1857	 0.398922135940526 
1858	 0.398793667204677 
1859	 0.398648544384187 
1860	 0.398456673482325 
1861	 0.398230290324983 
1862	 0.39795529696285 
1863	 0.397656646178539 
1864	 0.397351838668286 
1865	 0.397040760641609 
1866	 0.396682197861877 
1867	 0.396316207218115 
1868	 0.395938809110955 
1869	 0.39551631254876 
1870	 0.395090744383565 
1871	 0.394612134037459 
1872	 0.394094163487934 
1873	 0.393526257896076 
1874	 0.392944439711501 
1875	 0.392298320688943 
1876	 0.39159889036153 
1877	 0.39084712596718 
1878	 0.390005301767121 
1879	 0.38909848232139 
1880	 0.388125024646366 
1881	 0.387075109667027 
1882	 0.38596601739156 
1883	 0.384799007018527 
1884	 0.383554447219156 
1885	 0.382228875715578 
1886	 0.38083312381876 
1887	 0.379338783888875 
1888	 0.377759905848186 
1889	 0.37613586233067 
1890	 0.374461008440366 
1891	 0.372754942835058 
1892	 0.370999540819525 
1893	 0.369223419122129 
1894	 0.3674075953675 
1895	 0.365566006061315 
1896	 0.363690178643749 
1897	 0.361778701944656 
1898	 0.359865188561211 
1899	 0.357975721422408 
1900	 0.356117178986892 
1901	 0.354298716216959 
1902	 0.352533880468146 
1903	 0.350818953777733 
1904	 0.349145865952292 
1905	 0.347516712604254 
1906	 0.345960472974467 
1907	 0.344411408666409 
1908	 0.342895040527455 
1909	 0.341469226552525 
1910	 0.340101205429003 
1911	 0.338834069659556 
1912	 0.337662976989983 
1913	 0.336530856839971 
1914	 0.335455922716571 
1915	 0.334437279002379 
1916	 0.333474203735205 
1917	 0.33257072925176 
1918	 0.331706206421478 
1919	 0.330903520246547 
1920	 0.330185036040209 
1921	 0.329519231348583 
1922	 0.328914742804689 
1923	 0.328355875629597 
1924	 0.327836928663797 
1925	 0.327337141778676 
1926	 0.326915757784739 
1927	 0.326554868802385 
1928	 0.326247738802251 
1929	 0.32597910512676 
1930	 0.325753570208212 
1931	 0.325559401163497 
1932	 0.325403507473794 
1933	 0.325309514746398 
1934	 0.325225282404054 
1935	 0.325193374298873 
1936	 0.325202749728815 
1937	 0.325258141386824 
1938	 0.325342043968719 
1939	 0.325491025374015 
1940	 0.325700312720913 
1941	 0.325943375898919 
1942	 0.326225814758022 
1943	 0.326560553436541 
1944	 0.32690207611318 
1945	 0.327261782355105 
1946	 0.327643057114366 
1947	 0.328048348183742 
1948	 0.328466151344153 
1949	 0.328899740576285 
1950	 0.329353797810714 
1951	 0.329821624012958 
1952	 0.330326118613916 
1953	 0.330833648079072 
1954	 0.331342642468251 
1955	 0.331846406629945 
1956	 0.332349270505905 
1957	 0.33283391525114 
1958	 0.333308784819376 
1959	 0.333781093798189 
1960	 0.334232413535718 
1961	 0.334686011895908 
1962	 0.335142062617005 
1963	 0.335602345118685 
1964	 0.336046124960322 
1965	 0.336519170346455 
1966	 0.337006523423656 
1967	 0.337472654132051 
1968	 0.337949194115934 
1969	 0.338431110390537 
1970	 0.338910785055609 
1971	 0.339392936318531 
1972	 0.33987276198206 
1973	 0.340341730709862 
1974	 0.340830797002789 
1975	 0.341328641373632 
1976	 0.341829798984719 
1977	 0.342335090238515 
1978	 0.342848733169467 
1979	 0.343359009954152 
1980	 0.343876097790983 
1981	 0.34438904152216 
1982	 0.344904391850004 
1983	 0.345426852739652 
1984	 0.345955113737381 
1985	 0.346468281001394 
1986	 0.346998830344385 
1987	 0.347502112018837 
1988	 0.347974926499507 
1989	 0.348448162398546 
1990	 0.348933315886706 
1991	 0.349417124479179 
1992	 0.349906571658281 
1993	 0.350401557690726 
1994	 0.350914122106263 
1995	 0.35143776133872 
1996	 0.351950231469037 
1997	 0.352484847377594 
1998	 0.352999703578808 
1999	 0.353497236515589 
2000	 0.353994351036275 
2001	 0.354498914179231 
2002	 0.354981518774096 
2003	 0.35545050496081 
2004	 0.355916078804811 
2005	 0.356362044663666 
2006	 0.356772647005456 
2007	 0.35722325657655 
2008	 0.357672188327392 
2009	 0.358132319453111 
2010	 0.358630442724693 
2011	 0.359102960916426 
2012	 0.359559887011837 
2013	 0.360024640520353 
2014	 0.360488142598419 
2015	 0.360954489016965 
2016	 0.361419205431802 
2017	 0.361876713296227 
2018	 0.362332952580879 
2019	 0.362785215947608 
2020	 0.363232787043846 
2021	 0.363689600982053 
2022	 0.364119353061666 
2023	 0.36453276239707 
2024	 0.364940402745396 
2025	 0.365295597306401 
2026	 0.365702361192246 
2027	 0.366141744519112 
2028	 0.366570926636602 
2029	 0.366998164709608 
2030	 0.367459379652947 
2031	 0.367882470943493 
2032	 0.368273060508206 
2033	 0.368682046034626 
2034	 0.369091460169522 
2035	 0.369496772353471 
2036	 0.369909420589743 
2037	 0.37030201198638 
2038	 0.370688549566209 
2039	 0.371066094945866 
2040	 0.37143013160781 
2041	 0.371776582539208 
2042	 0.3721417298169 
2043	 0.372512620186064 
2044	 0.372866630496609 
2045	 0.37322062875309 
2046	 0.3735719513395 
2047	 0.373900239144022 
2048	 0.374247452651835 
2049	 0.374635981622362 
2050	 0.374964493914854 
2051	 0.375252926611062 
2052	 0.375564725296873 
2053	 0.3758434631683 
2054	 0.376138570353535 
2055	 0.376459898422697 
2056	 0.376790063785777 
2057	 0.377091912881764 
2058	 0.377376100312117 
2059	 0.377669943057015 
2060	 0.377959546087864 
2061	 0.378242103086977 
2062	 0.378519780960959 
2063	 0.378798976748142 
2064	 0.379070921509059 
2065	 0.379344779827527 
2066	 0.379625607494519 
2067	 0.379902123287982 
2068	 0.380180487781324 
2069	 0.380444069162201 
2070	 0.380706762849903 
2071	 0.380963078314352 
2072	 0.381225186407874 
2073	 0.381491372568041 
2074	 0.381739825332779 
2075	 0.38198781831888 
2076	 0.382225025358635 
2077	 0.382425233472433 
2078	 0.382660842045383 
2079	 0.382915970214066 
2080	 0.383162082374 
2081	 0.383423160200191 
2082	 0.38367498173395 
2083	 0.383906490411948 
2084	 0.384157542291379 
2085	 0.38440320429882 
2086	 0.384649415206359 
2087	 0.384899975020402 
2088	 0.385162114677577 
2089	 0.385402525189463 
2090	 0.385638986152504 
2091	 0.385869557872327 
2092	 0.386074635734918 
2093	 0.386298241840117 
2094	 0.386536407688445 
2095	 0.386762437654383 
2096	 0.386976150566169 
2097	 0.387207847462567 
2098	 0.387450841546674 
2099	 0.387680266044168 
2100	 0.387917646314571 
2101	 0.388171089032893 
2102	 0.388412267122594 
2103	 0.388644330680486 
2104	 0.388878758385946 
2105	 0.389105400028703 
2106	 0.389352858299361 
2107	 0.389590022768136 
2108	 0.389862889599418 
2109	 0.390173009318029 
2110	 0.390478589008187 
2111	 0.3908223163929 
2112	 0.391132082586419 
2113	 0.39141854111915 
2114	 0.391722908361984 
2115	 0.392007543125676 
2116	 0.392274445654812 
2117	 0.392537304527438 
2118	 0.392798874748859 
2119	 0.393047475200195 
2120	 0.393275197824761 
2121	 0.39351118577137 
2122	 0.393743271861349 
2123	 0.393978573636441 
2124	 0.394214980260786 
2125	 0.394448374846241 
2126	 0.394687637351112 
2127	 0.394916168159659 
2128	 0.395153722438472 
2129	 0.395361396749957 
2130	 0.395571327264832 
2131	 0.39574015456974 
2132	 0.395868736865849 
2133	 0.395950950950663 
2134	 0.396037271414224 
2135	 0.39608960710721 
2136	 0.396136776461707 
2137	 0.396183228851735 
2138	 0.39620356019115 
2139	 0.396187709434692 
2140	 0.396177882148641 
2141	 0.396152832110955 
2142	 0.396132922640315 
2143	 0.396110474635318 
2144	 0.396087257839684 
2145	 0.396087572935981 
2146	 0.396049368575918 
2147	 0.395987700409808 
2148	 0.395922847430576 
2149	 0.395828226237051 
2150	 0.395703145959209 
2151	 0.395561943028724 
2152	 0.395399480804253 
2153	 0.395228031816234 
2154	 0.395024773684181 
2155	 0.394834806984539 
2156	 0.394658485995465 
2157	 0.394446696326998 
2158	 0.394201121401604 
2159	 0.393976954409575 
2160	 0.393740213591141 
2161	 0.393507361171432 
2162	 0.393315859639811 
2163	 0.393081409521597 
2164	 0.392828699688542 
2165	 0.392547344500368 
2166	 0.392251734003318 
2167	 0.39192717878392 
2168	 0.391601568745868 
2169	 0.391253507448313 
2170	 0.39091732940875 
2171	 0.390582417365973 
2172	 0.390231848145995 
2173	 0.389874957485337 
2174	 0.389518753885486 
2175	 0.389144581015172 
2176	 0.388779787406352 
2177	 0.388429420245583 
2178	 0.388063272281849 
2179	 0.38768092369134 
2180	 0.387310865475496 
2181	 0.386948407842017 
2182	 0.386573750170682 
2183	 0.38619806666079 
2184	 0.385820379181505 
2185	 0.385440002095752 
2186	 0.385043571535414 
2187	 0.384659995281729 
2188	 0.384273438872396 
2189	 0.383913067935641 
2190	 0.383548712042968 
2191	 0.383223492579973 
2192	 0.382927232082293 
2193	 0.382650980811258 
2194	 0.382395612701905 
2195	 0.382168240244821 
2196	 0.381979608704008 
2197	 0.381790862170228 
2198	 0.381619191670078 
2199	 0.381463582081192 
2200	 0.381318411953555 
2201	 0.381188136863276 
2202	 0.381065363205394 
2203	 0.380980772634669 
2204	 0.380910048384518 
2205	 0.380856036544917 
2206	 0.380815106108626 
2207	 0.380781877950206 
2208	 0.380806025176489 
2209	 0.380850168485261 
2210	 0.380942350537942 
2211	 0.381106160886689 
2212	 0.381264657337353 
2213	 0.381465198924379 
2214	 0.381638946446268 
2215	 0.381842166333605 
2216	 0.382001235252283 
2217	 0.382132668494955 
2218	 0.382248852897615 
2219	 0.382344187291113 
2220	 0.382421359340498 
2221	 0.382466966299043 
2222	 0.382517399388715 
2223	 0.382563530109473 
2224	 0.382590442523326 
2225	 0.382629623969402 
2226	 0.382680566400571 
2227	 0.382712027536097 
2228	 0.382741891179481 
2229	 0.382748710362373 
2230	 0.382747742519817 
2231	 0.382714559506961 
2232	 0.382646212970544 
2233	 0.382591835211804 
2234	 0.38249360536241 
2235	 0.382451960898658 
2236	 0.382438057743946 
2237	 0.382427162069601 
2238	 0.382470895900546 
2239	 0.382469346139464 
2240	 0.382458649507162 
2241	 0.382429537241294 
2242	 0.382349055917815 
2243	 0.382299811295902 
2244	 0.382248731956269 
2245	 0.382216130939279 
2246	 0.382196575696462 
2247	 0.382183044388471 
2248	 0.382145307532693 
2249	 0.38208553426982 
2250	 0.382056687417951 
2251	 0.382029619037684 
2252	 0.382006457546863 
2253	 0.382017688937453 
2254	 0.38198420830354 
2255	 0.38192223195389 
2256	 0.38187201426338 
2257	 0.38181776575579 
2258	 0.381747428409402 
2259	 0.38165767107208 
2260	 0.381589910901778 
2261	 0.38147928210563 
2262	 0.381449619151854 
2263	 0.381516957191776 
2264	 0.381522991296355 
2265	 0.381532309454204 
2266	 0.381550024983112 
2267	 0.381531786187604 
2268	 0.381528566409726 
2269	 0.381575627073638 
2270	 0.381587102719724 
2271	 0.381572511113348 
2272	 0.381547926313065 
2273	 0.38149293829185 
2274	 0.381481177247047 
2275	 0.381462868020386 
2276	 0.381439103040796 
2277	 0.381451128535479 
2278	 0.381498632286564 
2279	 0.381511910245083 
2280	 0.381530245289463 
2281	 0.381539334824432 
2282	 0.38152899654713 
2283	 0.381519628780177 
2284	 0.381504735436137 
2285	 0.381520583107132 
2286	 0.381544629514802 
2287	 0.381555826804944 
2288	 0.381599064719685 
2289	 0.381610822176773 
2290	 0.381604565048664 
2291	 0.381576805101643 
2292	 0.381508846221323 
2293	 0.381473949715714 
2294	 0.381436911582691 
2295	 0.381392030634395 
2296	 0.381371844477409 
2297	 0.381345363394847 
2298	 0.381260874316028 
2299	 0.381203717074904 
2300	 0.381155551786553 
2301	 0.381097643854973 
2302	 0.381055756849345 
2303	 0.380994405209496 
2304	 0.380889856302824 
2305	 0.380789495149549 
2306	 0.380699425896751 
2307	 0.38059462336293 
2308	 0.380499055406141 
2309	 0.380438555053964 
2310	 0.380325448173342 
2311	 0.38018504622265 
2312	 0.380045638369431 
2313	 0.379872830114104 
2314	 0.379724986745069 
2315	 0.379578534245231 
2316	 0.379446975656254 
2317	 0.379330498287447 
2318	 0.379213351399682 
2319	 0.379112292097154 
2320	 0.378994024083503 
2321	 0.378864789423162 
2322	 0.37874886615304 
2323	 0.378643973650051 
2324	 0.378518892103468 
2325	 0.378409533546703 
2326	 0.378256446795187 
2327	 0.378065445577743 
2328	 0.377855910628707 
2329	 0.377665068667712 
2330	 0.377501229853381 
2331	 0.377352918937913 
2332	 0.377263796627904 
2333	 0.377155096918286 
2334	 0.376998676181968 
2335	 0.376842894602325 
2336	 0.376646450574061 
2337	 0.376471696107211 
2338	 0.376340315252732 
2339	 0.376158581096616 
2340	 0.376003423128763 
2341	 0.375836423558674 
2342	 0.375603636515392 
2343	 0.375430177757495 
2344	 0.375243404992457 
2345	 0.375012364290756 
2346	 0.374753979970235 
2347	 0.374481723082118 
2348	 0.374171083315548 
2349	 0.37385841483885 
2350	 0.373502547105169 
2351	 0.373188692366211 
2352	 0.372896589341558 
2353	 0.372591908106007 
2354	 0.372324320591565 
2355	 0.372020724417863 
2356	 0.371653473068355 
2357	 0.371345275665266 
2358	 0.371054002265671 
2359	 0.370777815776211 
2360	 0.370541481493265 
2361	 0.370268278587913 
2362	 0.370030233418902 
2363	 0.36970749894648 
2364	 0.369293485139718 
2365	 0.368973979956273 
2366	 0.368623828416976 
2367	 0.368295336603749 
2368	 0.368112774269106 
2369	 0.367791475834204 
2370	 0.367373758918685 
2371	 0.36697951220668 
2372	 0.366568593256608 
2373	 0.366112925671408 
2374	 0.365752660727927 
2375	 0.36542035545429 
2376	 0.365046936466813 
2377	 0.364690136892928 
2378	 0.364255791041508 
2379	 0.363820636936555 
2380	 0.363489073492122 
2381	 0.363125917544662 
2382	 0.362811104992643 
2383	 0.362482106775555 
2384	 0.362006994072754 
2385	 0.36157186494582 
2386	 0.361108158132048 
2387	 0.360620505633501 
2388	 0.360233085736629 
2389	 0.359842627694489 
2390	 0.359488536082618 
2391	 0.359210680545575 
2392	 0.358917817445503 
2393	 0.358552618459489 
2394	 0.358200008357138 
2395	 0.357869639713274 
2396	 0.357474011367805 
2397	 0.357083059418835 
2398	 0.35667679894733 
2399	 0.356199340266507 
2400	 0.355723278675099 
2401	 0.355326490293431 
2402	 0.355014066492859 
2403	 0.354680835907941 
2404	 0.35439337615473 
2405	 0.354079243399428 
2406	 0.353618307934937 
2407	 0.3532164877435 
2408	 0.352763116345479 
2409	 0.352308466284344 
2410	 0.35202529537394 
2411	 0.351637642062707 
2412	 0.351176570432087 
2413	 0.350761045884763 
2414	 0.350281385849067 
2415	 0.349747398464513 
2416	 0.349263707919676 
2417	 0.348827465945817 
2418	 0.348422190270583 
2419	 0.34803134747692 
2420	 0.347662382788226 
2421	 0.347374775101526 
2422	 0.347051557100097 
2423	 0.346723567654175 
2424	 0.346311785208269 
2425	 0.345891795945279 
2426	 0.3454489952885 
2427	 0.344869803211741 
2428	 0.344438365582143 
2429	 0.34408806668966 
2430	 0.343671846912858 
2431	 0.343283896860026 
2432	 0.342842011093415 
2433	 0.342381611133954 
2434	 0.341932053452692 
2435	 0.341458173271085 
2436	 0.341048798728776 
2437	 0.340631700818401 
2438	 0.340227513055169 
2439	 0.339876495169257 
2440	 0.33946116562327 
2441	 0.33899245833222 
2442	 0.338649584378212 
2443	 0.338330128546836 
2444	 0.33805651262594 
2445	 0.33798553690177 
2446	 0.337726424861749 
2447	 0.337360419167341 
2448	 0.33696266247328 
2449	 0.336478929680333 
2450	 0.335963700774884 
2451	 0.335371856209227 
2452	 0.334874920465351 
2453	 0.334399319690823 
2454	 0.333901779363157 
2455	 0.333455709221142 
2456	 0.33303226784523 
2457	 0.332539282402826 
2458	 0.332111123806059 
2459	 0.33178892475244 
2460	 0.331400414112209 
2461	 0.330975775978316 
2462	 0.330630973583565 
2463	 0.330298375627448 
2464	 0.329957570283675 
2465	 0.329687508626795 
2466	 0.329394646658022 
2467	 0.329078488528426 
2468	 0.32874169358743 
2469	 0.328400818303739 
2470	 0.328033985628385 
2471	 0.327755467068758 
2472	 0.327544250610695 
2473	 0.327270091592339 
2474	 0.327220811030577 
2475	 0.326975827541784 
2476	 0.326484766170935 
2477	 0.326101356188285 
2478	 0.325477674589128 
2479	 0.324997833448048 
2480	 0.324729149062075 
2481	 0.324318413474551 
2482	 0.323874821859739 
2483	 0.323344636766466 
2484	 0.322951951694981 
2485	 0.322770408555258 
2486	 0.322668003034336 
2487	 0.322528854679324 
2488	 0.322219972157054 
2489	 0.321732947273451 
2490	 0.321360335576139 
2491	 0.321354154177306 
2492	 0.321192132626925 
2493	 0.320955379478005 
2494	 0.320778382903092 
2495	 0.320171807925812 
2496	 0.319741104079101 
2497	 0.319653488142639 
2498	 0.319274837495114 
2499	 0.318913361401252 
2500	 0.318661241865237 
