Wavelength	MM500003.asd
350	 4.90014586700133E-02 
351	 5.22940437684904E-02 
352	 5.47627839992543E-02 
353	 5.08282855475111E-02 
354	 4.77215078912923E-02 
355	 4.98914528066722E-02 
356	 5.60993065497199E-02 
357	 6.20927119244971E-02 
358	 5.85198777396507E-02 
359	 5.31135429068144E-02 
360	 5.29212931984081E-02 
361	 6.18013184711419E-02 
362	 6.04166039635317E-02 
363	 5.71692497910166E-02 
364	 5.71458527673072E-02 
365	 5.48773938230622E-02 
366	 5.21506451380314E-02 
367	 5.27194460936317E-02 
368	 5.78452422665963E-02 
369	 5.78949615983871E-02 
370	 5.66609270547035E-02 
371	 5.68280068257458E-02 
372	 5.95975677966897E-02 
373	 6.19246213056371E-02 
374	 6.31209724871006E-02 
375	 6.32800362402974E-02 
376	 6.31456430085638E-02 
377	 0.061362973563758 
378	 6.12868635452534E-02 
379	 6.51905422823659E-02 
380	 6.52566929637046E-02 
381	 6.46638160689497E-02 
382	 6.47869017113802E-02 
383	 0.065354721628227 
384	 6.72553577151826E-02 
385	 6.72307527062341E-02 
386	 6.52405049166785E-02 
387	 6.84268285423232E-02 
388	 7.09974856468863E-02 
389	 7.14244118516595E-02 
390	 7.02262861267815E-02 
391	 7.03515636350908E-02 
392	 7.05330470029796E-02 
393	 7.12415978018738E-02 
394	 0.074239129606903 
395	 7.49906542303254E-02 
396	 7.47496431483734E-02 
397	 0.075202827435297 
398	 0.076955486818469 
399	 7.76709386981437E-02 
400	 0.078017527110877 
401	 7.92233002528777E-02 
402	 7.87295670283135E-02 
403	 7.86835542634425E-02 
404	 7.94599016969586E-02 
405	 7.94356400924648E-02 
406	 7.99287422371746E-02 
407	 8.06675627276137E-02 
408	 8.11283550364963E-02 
409	 8.08728892927372E-02 
410	 8.08310473998083E-02 
411	 8.11048558467077E-02 
412	 8.14300991421034E-02 
413	 8.22136327800668E-02 
414	 8.21875407519076E-02 
415	 8.13809430463933E-02 
416	 8.15792425565956E-02 
417	 8.20505080742258E-02 
418	 8.23930982470298E-02 
419	 8.23911512979677E-02 
420	 8.22078899816312E-02 
421	 8.17859351875579E-02 
422	 8.14747137969102E-02 
423	 8.17529960212415E-02 
424	 8.15472098116766E-02 
425	 8.10810229424049E-02 
426	 8.07025173667796E-02 
427	 8.06742474862568E-02 
428	 8.05651740467228E-02 
429	 8.04546589737187E-02 
430	 8.05009514898852E-02 
431	 8.03883848055185E-02 
432	 8.01911479413546E-02 
433	 8.00775026279428E-02 
434	 8.02645476812856E-02 
435	 8.04342298465579E-02 
436	 8.07926070132118E-02 
437	 8.13508430803508E-02 
438	 8.12669236311347E-02 
439	 8.17091515350238E-02 
440	 8.24859493545544E-02 
441	 8.28125783860564E-02 
442	 8.31436642734533E-02 
443	 8.35096284272032E-02 
444	 8.39169417349889E-02 
445	 8.44087087554891E-02 
446	 8.47449594302069E-02 
447	 8.50274915283956E-02 
448	 8.54431530386386E-02 
449	 8.61146354226366E-02 
450	 8.64897820456481E-02 
451	 8.66500778718179E-02 
452	 8.71783578745913E-02 
453	 8.73711725373943E-02 
454	 8.74135098110609E-02 
455	 8.75690595916011E-02 
456	 8.79113788562252E-02 
457	 8.82845366565564E-02 
458	 8.86193252069433E-02 
459	 8.88744356120588E-02 
460	 8.89042911244526E-02 
461	 8.88529171867209E-02 
462	 8.89355643870277E-02 
463	 8.94352264119227E-02 
464	 8.97439998233261E-02 
465	 0.089896210651731 
466	 9.00843761582872E-02 
467	 0.090336504691019 
468	 9.05071287760865E-02 
469	 9.05921153555775E-02 
470	 9.07017059270979E-02 
471	 9.07688092631533E-02 
472	 9.09467299732771E-02 
473	 9.12562659236572E-02 
474	 9.13317260355975E-02 
475	 9.13569764098901E-02 
476	 9.14191418539694E-02 
477	 9.15417222995676E-02 
478	 9.15521023236828E-02 
479	 0.091675436412138 
480	 9.19401034267705E-02 
481	 9.20612625820244E-02 
482	 9.21947026303524E-02 
483	 9.22923437838855E-02 
484	 9.23082488096338E-02 
485	 9.24228492918082E-02 
486	 9.25010643244955E-02 
487	 9.24336748121486E-02 
488	 9.21799611060167E-02 
489	 9.23821986893618E-02 
490	 9.26041567710401E-02 
491	 9.25435117977584E-02 
492	 9.27309578154404E-02 
493	 0.092718711237175 
494	 0.09261891122272 
495	 9.27708797454117E-02 
496	 9.31254756811048E-02 
497	 9.32486668151848E-02 
498	 9.30634049235107E-02 
499	 9.30544441806271E-02 
500	 9.31405051813582E-02 
501	 9.32723259207034E-02 
502	 9.33873831004039E-02 
503	 9.33873931467723E-02 
504	 9.34262681512129E-02 
505	 9.34838789884985E-02 
506	 9.33901515024115E-02 
507	 9.34253886914545E-02 
508	 9.35558098898842E-02 
509	 9.36762972798268E-02 
510	 9.36667408791176E-02 
511	 9.36309277743304E-02 
512	 9.36345931910562E-02 
513	 9.37065107993981E-02 
514	 9.37336957182761E-02 
515	 9.38021040273467E-02 
516	 9.39241879575518E-02 
517	 9.39503050918539E-02 
518	 9.39552176487225E-02 
519	 9.39711267312669E-02 
520	 9.40144223952629E-02 
521	 9.40892599192243E-02 
522	 9.41249492485577E-02 
523	 9.41205196322195E-02 
524	 9.41506948755629E-02 
525	 9.42745162813779E-02 
526	 9.43758702450684E-02 
527	 9.43743418249047E-02 
528	 9.44252268679749E-02 
529	 9.45209358295222E-02 
530	 9.46016029282572E-02 
531	 9.45893619552922E-02 
532	 9.46304758330657E-02 
533	 9.47035351313875E-02 
534	 9.47788362430646E-02 
535	 9.48669813776017E-02 
536	 9.49292308560753E-02 
537	 9.49915987589405E-02 
538	 9.50941704110742E-02 
539	 9.51846540498121E-02 
540	 9.52371881160102E-02 
541	 9.52834493568636E-02 
542	 9.54285228639868E-02 
543	 9.55073898579131E-02 
544	 9.55738412115554E-02 
545	 9.57064679662902E-02 
546	 9.58314882666072E-02 
547	 9.59305902513838E-02 
548	 9.60309356304614E-02 
549	 9.61897898816011E-02 
550	 9.62845246637171E-02 
551	 9.64054533087415E-02 
552	 9.66151605101365E-02 
553	 9.68113041017633E-02 
554	 9.69602275715754E-02 
555	 9.70976719898595E-02 
556	 9.72929757568751E-02 
557	 0.09752373770219 
558	 9.77552736082667E-02 
559	 0.097979806173763 
560	 9.82432342045737E-02 
561	 0.098460510212236 
562	 9.86749809562538E-02 
563	 9.89531477111602E-02 
564	 9.92227692767736E-02 
565	 9.94967887076043E-02 
566	 9.97952064815263E-02 
567	 0.100139953709767 
568	 0.100543720962899 
569	 0.100982552306529 
570	 0.101430202420245 
571	 0.101888170924171 
572	 0.102369757580573 
573	 0.102858055508011 
574	 0.103315213810442 
575	 0.103724538402585 
576	 0.104135938196632 
577	 0.104581786215528 
578	 0.105021519431702 
579	 0.105574907021126 
580	 0.106205933814987 
581	 0.10682911228962 
582	 0.107546587919954 
583	 0.10830191191218 
584	 0.109037081389523 
585	 0.109712578486973 
586	 0.110374571751865 
587	 0.111030414431332 
588	 0.111680755461564 
589	 0.112347331114978 
590	 0.113034308475325 
591	 0.113752632533777 
592	 0.11451601280654 
593	 0.115187853174404 
594	 0.115888717565204 
595	 0.116695657178361 
596	 0.117426387218389 
597	 0.118244847987892 
598	 0.119093972483573 
599	 0.119824051440476 
600	 0.120587015296063 
601	 0.121338963249313 
602	 0.122031157984902 
603	 0.122642997195573 
604	 0.12327842212436 
605	 0.123926262749392 
606	 0.124548649586379 
607	 0.125221883173578 
608	 0.12583473811365 
609	 0.126394002798734 
610	 0.127049764166918 
611	 0.127634982791919 
612	 0.128196806445855 
613	 0.128793146584138 
614	 0.129354980957427 
615	 0.129826102825999 
616	 0.130243230332158 
617	 0.130696416232134 
618	 0.131074423260384 
619	 0.131441063998683 
620	 0.131836112940397 
621	 0.132185949998963 
622	 0.13256272648562 
623	 0.132925664854141 
624	 0.133215316866733 
625	 0.133572726712401 
626	 0.133908122227927 
627	 0.134189211442254 
628	 0.134482949992987 
629	 0.134776924987651 
630	 0.135054322351055 
631	 0.13530420290277 
632	 0.135541186601244 
633	 0.135808347022327 
634	 0.136082232594495 
635	 0.136293294560528 
636	 0.136562650778153 
637	 0.136822247583865 
638	 0.137029142147997 
639	 0.137283703367548 
640	 0.1375482250268 
641	 0.137814890881878 
642	 0.138083390728069 
643	 0.138322731512995 
644	 0.138552256715664 
645	 0.138792992419289 
646	 0.139061301674893 
647	 0.139313444984612 
648	 0.139550175997401 
649	 0.139792475555476 
650	 0.140081183782759 
651	 0.140388014086628 
652	 0.140681656414422 
653	 0.14093541303625 
654	 0.141199252345822 
655	 0.141484983727994 
656	 0.14178712193225 
657	 0.142070221660652 
658	 0.142411596775952 
659	 0.142758353864224 
660	 0.143020717849275 
661	 0.143351721222283 
662	 0.143701616757277 
663	 0.144034063865564 
664	 0.144360476425156 
665	 0.144700743298388 
666	 0.145058227725131 
667	 0.145425851618527 
668	 0.145772397674678 
669	 0.146152375327597 
670	 0.146571378464618 
671	 0.146989330738954 
672	 0.147362877601564 
673	 0.147740233405419 
674	 0.148158750945688 
675	 0.148589856076018 
676	 0.149043554133474 
677	 0.149475346774849 
678	 0.149845156575233 
679	 0.150308425678725 
680	 0.150789046778204 
681	 0.151250092060119 
682	 0.151732631844617 
683	 0.152210358245656 
684	 0.152695024974833 
685	 0.153203684412003 
686	 0.153739077924493 
687	 0.154269142322392 
688	 0.154787692999534 
689	 0.155308826341445 
690	 0.155847886855124 
691	 0.156345261105154 
692	 0.156815685088855 
693	 0.157452030773323 
694	 0.158059348365782 
695	 0.158604268836448 
696	 0.159125708873796 
697	 0.159700972499123 
698	 0.160317093268237 
699	 0.160940841555393 
700	 0.161526349264944 
701	 0.162125015224168 
702	 0.162722573039484 
703	 0.1633025362209 
704	 0.163878698338903 
705	 0.16450008954303 
706	 0.165132219134734 
707	 0.165710695593345 
708	 0.16633162781287 
709	 0.166963134650822 
710	 0.167577205508477 
711	 0.168174134541575 
712	 0.168735883187307 
713	 0.169299034195436 
714	 0.169899965713669 
715	 0.170514658910035 
716	 0.17109275716014 
717	 0.171649120043094 
718	 0.172239050119969 
719	 0.17280559143162 
720	 0.173322012328321 
721	 0.173801287623331 
722	 0.174321438295668 
723	 0.17486912382586 
724	 0.17540519845603 
725	 0.175885100608587 
726	 0.176296660771979 
727	 0.176701796520586 
728	 0.177127206407461 
729	 0.177558779522735 
730	 0.177943677599408 
731	 0.178280371936677 
732	 0.178586834596098 
733	 0.178896486747498 
734	 0.179219133168079 
735	 0.179526086119553 
736	 0.179780729648429 
737	 0.180016747525162 
738	 0.180218204490379 
739	 0.180380293796987 
740	 0.180514000614904 
741	 0.180647228791319 
742	 0.180762482087956 
743	 0.180840316534296 
744	 0.180882393340006 
745	 0.1809219067151 
746	 0.180949655608811 
747	 0.18094002306292 
748	 0.180920056465735 
749	 0.180844350633709 
750	 0.180718891166203 
751	 0.180616646672084 
752	 0.180494995642912 
753	 0.180365608685032 
754	 0.180230822147605 
755	 0.18002858937076 
756	 0.17982328578155 
757	 0.179613462119751 
758	 0.179370658034 
759	 0.179143029564748 
760	 0.178875464297981 
761	 0.17856758036813 
762	 0.178296552115889 
763	 0.177973559501741 
764	 0.177633473098145 
765	 0.177319191727269 
766	 0.177014424839995 
767	 0.176671551555137 
768	 0.176283391496061 
769	 0.175877310265083 
770	 0.175545964945665 
771	 0.175205514707499 
772	 0.174817852775802 
773	 0.1744200285687 
774	 0.174041183163939 
775	 0.173664588298186 
776	 0.173265816606894 
777	 0.17282578958426 
778	 0.172418266846411 
779	 0.172045374376525 
780	 0.171667407221485 
781	 0.171225335134758 
782	 0.170815444013989 
783	 0.170447804258583 
784	 0.170033596508745 
785	 0.169624917113932 
786	 0.169222181854869 
787	 0.168817167073177 
788	 0.168399461224206 
789	 0.168014322579423 
790	 0.167643376043896 
791	 0.167246461911888 
792	 0.166811281581713 
793	 0.166410741894284 
794	 0.166057315934247 
795	 0.165708249863889 
796	 0.165377001587537 
797	 0.165012878106838 
798	 0.16459971362067 
799	 0.164193847555012 
800	 0.163858996388649 
801	 0.163550217180002 
802	 0.163214408122592 
803	 0.16292551605741 
804	 0.162594676626882 
805	 0.162226825764002 
806	 0.161886708197194 
807	 0.161571916719931 
808	 0.16127478785049 
809	 0.160974797425866 
810	 0.160639009114369 
811	 0.16035647291945 
812	 0.160086758092154 
813	 0.159790773787874 
814	 0.159516854665583 
815	 0.159256145971959 
816	 0.159011050192402 
817	 0.158780671481769 
818	 0.158530042048464 
819	 0.158282934486545 
820	 0.158047929733336 
821	 0.157817515639564 
822	 0.157586534364367 
823	 0.1573791094993 
824	 0.157191924271766 
825	 0.156970661392613 
826	 0.156767495272332 
827	 0.156580361310305 
828	 0.156395051222378 
829	 0.156205648170728 
830	 0.156032515843421 
831	 0.155876470234696 
832	 0.155723025352952 
833	 0.155534566745276 
834	 0.155360765774512 
835	 0.15522064469133 
836	 0.155095723774231 
837	 0.154959156495251 
838	 0.154824338933511 
839	 0.154702458316397 
840	 0.154587201814727 
841	 0.154527401456886 
842	 0.154431077507599 
843	 0.154249698720431 
844	 0.15419059131938 
845	 0.154169420761623 
846	 0.154121108352591 
847	 0.154010211623715 
848	 0.153907053909371 
849	 0.153856116242488 
850	 0.153834255291021 
851	 0.153769793990752 
852	 0.153706140524696 
853	 0.15366188690764 
854	 0.15364589158562 
855	 0.153656526914568 
856	 0.153617154960668 
857	 0.153576793937019 
858	 0.153585710489314 
859	 0.153618988195975 
860	 0.153640480446145 
861	 0.153644313825197 
862	 0.153646123549889 
863	 0.153688852621174 
864	 0.153736781128469 
865	 0.153767560989774 
866	 0.153779838305353 
867	 0.153836037821471 
868	 0.153894533768509 
869	 0.153938156180033 
870	 0.153985561334504 
871	 0.154044356829716 
872	 0.154129832360462 
873	 0.154244317232494 
874	 0.154369038362148 
875	 0.154512562394099 
876	 0.154617094987143 
877	 0.154658093624057 
878	 0.154725314465582 
879	 0.154891650927505 
880	 0.155050661553499 
881	 0.155094381657969 
882	 0.155190666985475 
883	 0.155377704922679 
884	 0.155589270252694 
885	 0.155728174307815 
886	 0.155896818714662 
887	 0.156095097569277 
888	 0.156290078262909 
889	 0.156436803527374 
890	 0.156592196624188 
891	 0.156733562435918 
892	 0.156900612949172 
893	 0.157204755229061 
894	 0.157405380002336 
895	 0.157569368466001 
896	 0.157773169778813 
897	 0.157994067874935 
898	 0.158241523938496 
899	 0.158497682024861 
900	 0.158757714657119 
901	 0.159078030262559 
902	 0.159311030126088 
903	 0.159522819725622 
904	 0.159810734515445 
905	 0.160078788807116 
906	 0.16039686676866 
907	 0.160726923094233 
908	 0.161010914896133 
909	 0.161377167955094 
910	 0.16169993833757 
911	 0.161996399840844 
912	 0.162357879261816 
913	 0.162628638802264 
914	 0.162939761389171 
915	 0.163306703193246 
916	 0.163636750911378 
917	 0.164034672008288 
918	 0.164493256193822 
919	 0.164933577368192 
920	 0.165238144220209 
921	 0.165672937102998 
922	 0.166117496414524 
923	 0.166505480524655 
924	 0.166946704505208 
925	 0.167386880617162 
926	 0.167835887797891 
927	 0.168292602255504 
928	 0.168712359219347 
929	 0.169203957153184 
930	 0.169743085356621 
931	 0.170269052463637 
932	 0.170723942399256 
933	 0.171279324635559 
934	 0.171854608842744 
935	 0.172349106058323 
936	 0.17283502797369 
937	 0.173285935767445 
938	 0.173812689319291 
939	 0.174479178533234 
940	 0.175058628895343 
941	 0.1755528628837 
942	 0.176116537210659 
943	 0.176852222492645 
944	 0.177420069835469 
945	 0.17794092546318 
946	 0.178550351604603 
947	 0.17929913029544 
948	 0.179875862269515 
949	 0.180522504325268 
950	 0.181185980551584 
951	 0.181732704747289 
952	 0.182468560422926 
953	 0.183131561712311 
954	 0.183781271245281 
955	 0.184598766902819 
956	 0.18529904428065 
957	 0.186047714599586 
958	 0.186795595358661 
959	 0.187414197369893 
960	 0.188184533924548 
961	 0.188945215876821 
962	 0.189701137965389 
963	 0.190540191342175 
964	 0.191264525626299 
965	 0.192030351925109 
966	 0.192834982504353 
967	 0.193584667209451 
968	 0.194413751112434 
969	 0.195238654995621 
970	 0.196073090773207 
971	 0.196973853285801 
972	 0.197804871690364 
973	 0.198582826212165 
974	 0.199368475159246 
975	 0.200237298422185 
976	 0.201224674290812 
977	 0.202178650470812 
978	 0.203069994730024 
979	 0.203959592361616 
980	 0.204837802233439 
981	 0.205767709341044 
982	 0.206735313133074 
983	 0.207694214036877 
984	 0.208733605358843 
985	 0.209618729435427 
986	 0.210393708706726 
987	 0.21125634879184 
988	 0.212235238829742 
989	 0.213203290568114 
990	 0.21410382855312 
991	 0.214992666116604 
992	 0.216205185855967 
993	 0.217139873777013 
994	 0.217936982418457 
995	 0.218960850387864 
996	 0.219904091045283 
997	 0.220887240262373 
998	 0.221811877316546 
999	 0.222620904764442 
1000	 0.223676660195436 
1001	 0.227353107987117 
1002	 0.228310299373442 
1003	 0.229256248994154 
1004	 0.230232938954273 
1005	 0.231269665619898 
1006	 0.232252761582984 
1007	 0.233240717825827 
1008	 0.234176797696158 
1009	 0.235068977184141 
1010	 0.235975316613276 
1011	 0.236844992162652 
1012	 0.237728266348675 
1013	 0.238653768873447 
1014	 0.239520477884844 
1015	 0.240401771449027 
1016	 0.241318372362764 
1017	 0.242216736926161 
1018	 0.243108574540157 
1019	 0.243991029135446 
1020	 0.244845900746477 
1021	 0.245690582921739 
1022	 0.246539980362475 
1023	 0.247391503506812 
1024	 0.248252318683977 
1025	 0.249137405193301 
1026	 0.24995523100259 
1027	 0.250705390822561 
1028	 0.251509730816036 
1029	 0.252326058093498 
1030	 0.253133043293545 
1031	 0.25394078011674 
1032	 0.254785734267765 
1033	 0.255616116501208 
1034	 0.256383619345962 
1035	 0.257121132122477 
1036	 0.257887484490774 
1037	 0.258641367910632 
1038	 0.259447118955393 
1039	 0.260308129010533 
1040	 0.261130076391471 
1041	 0.261925494848331 
1042	 0.262691608710702 
1043	 0.263428198038276 
1044	 0.264209891565963 
1045	 0.265017102801982 
1046	 0.265885588464837 
1047	 0.266705387633239 
1048	 0.267491338807701 
1049	 0.268290311077141 
1050	 0.269066237114263 
1051	 0.269822133585333 
1052	 0.270593726850032 
1053	 0.271409657362243 
1054	 0.272143071669737 
1055	 0.272872493628206 
1056	 0.273682419109489 
1057	 0.274432200959281 
1058	 0.275118583674709 
1059	 0.27585574682986 
1060	 0.276629535330734 
1061	 0.277320218933972 
1062	 0.277989135042486 
1063	 0.278722062290703 
1064	 0.279394102480066 
1065	 0.280035485225247 
1066	 0.280735780334745 
1067	 0.281382763064493 
1068	 0.282048000119261 
1069	 0.282759624800805 
1070	 0.283417755508159 
1071	 0.284052709542235 
1072	 0.284697796448797 
1073	 0.285287405831794 
1074	 0.285923358548354 
1075	 0.286590264600815 
1076	 0.287262995501621 
1077	 0.2879138542477 
1078	 0.288566514176871 
1079	 0.289148274660782 
1080	 0.289716124493515 
1081	 0.290324350755282 
1082	 0.290920501726171 
1083	 0.291536858155359 
1084	 0.29220489651148 
1085	 0.292825679987577 
1086	 0.293395574640443 
1087	 0.294014429075556 
1088	 0.294638142416494 
1089	 0.295281984448979 
1090	 0.295908401216855 
1091	 0.296558181685941 
1092	 0.297230864944666 
1093	 0.297879626530576 
1094	 0.298529982039989 
1095	 0.299196893949132 
1096	 0.299860968026812 
1097	 0.300515833890483 
1098	 0.301201140269565 
1099	 0.301948492264603 
1100	 0.302651232659911 
1101	 0.303317338776217 
1102	 0.304028160028636 
1103	 0.304755042928677 
1104	 0.305469416620239 
1105	 0.306215859281804 
1106	 0.307013351319518 
1107	 0.30778275401303 
1108	 0.308567440050952 
1109	 0.309389474677781 
1110	 0.31017041783995 
1111	 0.310962495719356 
1112	 0.311750907031853 
1113	 0.312558344191279 
1114	 0.313355357735949 
1115	 0.314198464331186 
1116	 0.315094037945196 
1117	 0.315956112537236 
1118	 0.31682437146641 
1119	 0.317682538526306 
1120	 0.318553635377163 
1121	 0.319421277947819 
1122	 0.320307810962184 
1123	 0.321216425699113 
1124	 0.322115815384404 
1125	 0.32300718016154 
1126	 0.323900726550797 
1127	 0.324801844732698 
1128	 0.325705872152078 
1129	 0.326597613059627 
1130	 0.327507605992458 
1131	 0.328439904698626 
1132	 0.329354790116481 
1133	 0.330274263516867 
1134	 0.331185561019234 
1135	 0.332089408777512 
1136	 0.332983019280629 
1137	 0.333887671208905 
1138	 0.334765696422745 
1139	 0.335661653324006 
1140	 0.336570277883596 
1141	 0.337460922846205 
1142	 0.338353331860275 
1143	 0.339232228740234 
1144	 0.340098492716777 
1145	 0.340953830933562 
1146	 0.341790260244885 
1147	 0.342638060056657 
1148	 0.343488647649336 
1149	 0.344329291040971 
1150	 0.345168003296084 
1151	 0.346009966276184 
1152	 0.346844105529425 
1153	 0.34765017013662 
1154	 0.348474194412279 
1155	 0.349315537757206 
1156	 0.350120739618533 
1157	 0.350914148697189 
1158	 0.351704025517013 
1159	 0.352482654413366 
1160	 0.353247732493593 
1161	 0.354007691424512 
1162	 0.354758560881801 
1163	 0.355493898348121 
1164	 0.356217473677779 
1165	 0.356929678688502 
1166	 0.357642737783877 
1167	 0.35834893859029 
1168	 0.359080786347508 
1169	 0.35979174679831 
1170	 0.360520739015148 
1171	 0.361213081614044 
1172	 0.361873238139174 
1173	 0.362546654390516 
1174	 0.363219181076936 
1175	 0.363881651607972 
1176	 0.364553975910837 
1177	 0.365198194295579 
1178	 0.365813043203415 
1179	 0.366436749458785 
1180	 0.36705170703877 
1181	 0.367663288633454 
1182	 0.368282232853974 
1183	 0.368893506945266 
1184	 0.369483026276136 
1185	 0.370061078428695 
1186	 0.370625779883113 
1187	 0.371163613374913 
1188	 0.371719026584439 
1189	 0.372287928760081 
1190	 0.372818119790125 
1191	 0.373332054495018 
1192	 0.373850024544454 
1193	 0.374337216671523 
1194	 0.374839592477424 
1195	 0.37535683319147 
1196	 0.375869853838827 
1197	 0.376389585910434 
1198	 0.376890390396455 
1199	 0.377383590594861 
1200	 0.377884474011555 
1201	 0.378349748691629 
1202	 0.378784766667024 
1203	 0.379228287963832 
1204	 0.379656378816457 
1205	 0.38008999485135 
1206	 0.380532179261387 
1207	 0.380953745170305 
1208	 0.381360095747239 
1209	 0.3817719668627 
1210	 0.382182372435674 
1211	 0.382579705692087 
1212	 0.382969759165778 
1213	 0.383362405186345 
1214	 0.383755845161049 
1215	 0.384130190433598 
1216	 0.384496461979397 
1217	 0.38486334850753 
1218	 0.385220400691803 
1219	 0.385565000726218 
1220	 0.385892054029994 
1221	 0.386207019837886 
1222	 0.386529685864799 
1223	 0.386831611599135 
1224	 0.387144651051559 
1225	 0.387479914077153 
1226	 0.387796252626328 
1227	 0.388094676146757 
1228	 0.388401103881672 
1229	 0.388717030904611 
1230	 0.389018672704794 
1231	 0.389315198693548 
1232	 0.389606496678872 
1233	 0.389890753548605 
1234	 0.390158185950998 
1235	 0.390441070197628 
1236	 0.390740809998443 
1237	 0.39100477369602 
1238	 0.391259585036157 
1239	 0.391507656717674 
1240	 0.391731465764405 
1241	 0.391955489977275 
1242	 0.392166306259835 
1243	 0.392397672875991 
1244	 0.392623762388963 
1245	 0.392862241751859 
1246	 0.393151531264779 
1247	 0.393393712859319 
1248	 0.393617720253384 
1249	 0.393823657342037 
1250	 0.3940261178632 
1251	 0.394211364272578 
1252	 0.39440974176302 
1253	 0.394620913292688 
1254	 0.394814628092428 
1255	 0.395003986988076 
1256	 0.395183409130262 
1257	 0.395352385064564 
1258	 0.395520565792311 
1259	 0.395675797764229 
1260	 0.395838640390397 
1261	 0.396005709018843 
1262	 0.396166499011419 
1263	 0.396327507062914 
1264	 0.396486091727924 
1265	 0.396633173101027 
1266	 0.39679033747526 
1267	 0.396951491559995 
1268	 0.397106175165862 
1269	 0.397290716667596 
1270	 0.397491815978755 
1271	 0.397695929145289 
1272	 0.397919551935556 
1273	 0.398138982819324 
1274	 0.398361407267897 
1275	 0.39858441392586 
1276	 0.398821383842387 
1277	 0.399042610821847 
1278	 0.399248856883053 
1279	 0.399465522299073 
1280	 0.399697916783292 
1281	 0.399898018675603 
1282	 0.400097197527134 
1283	 0.400277383985996 
1284	 0.400431497428378 
1285	 0.400564930989805 
1286	 0.400711663368245 
1287	 0.400825702390817 
1288	 0.400923866540441 
1289	 0.401007167777985 
1290	 0.401067422001221 
1291	 0.401106871057393 
1292	 0.401122924601163 
1293	 0.401114492454598 
1294	 0.401089638794135 
1295	 0.401048516922261 
1296	 0.400976114284551 
1297	 0.400877949342057 
1298	 0.40076465963567 
1299	 0.400613766711834 
1300	 0.400466555939971 
1301	 0.400299716354042 
1302	 0.400142175463134 
1303	 0.399992873965004 
1304	 0.399823396483742 
1305	 0.399663945271685 
1306	 0.399471988486344 
1307	 0.399263474850182 
1308	 0.399090205990035 
1309	 0.398915702904925 
1310	 0.398754262248036 
1311	 0.398590087687715 
1312	 0.398421068012077 
1313	 0.398273128332385 
1314	 0.398120229782513 
1315	 0.39800792289976 
1316	 0.397937726207625 
1317	 0.397852672045771 
1318	 0.39777159474492 
1319	 0.397713328131667 
1320	 0.397648844561502 
1321	 0.3976194166237 
1322	 0.397620775728291 
1323	 0.39764758128481 
1324	 0.397672835816754 
1325	 0.39770300251258 
1326	 0.397745495347487 
1327	 0.397804263781273 
1328	 0.397888608820414 
1329	 0.39798776519739 
1330	 0.39811622477895 
1331	 0.398278538896092 
1332	 0.398434671420604 
1333	 0.398608605519434 
1334	 0.398789603099321 
1335	 0.398970990557206 
1336	 0.399163284116866 
1337	 0.399382176970203 
1338	 0.399581156751196 
1339	 0.399770625745807 
1340	 0.399972843991532 
1341	 0.400164486866842 
1342	 0.400378461214906 
1343	 0.400618391964863 
1344	 0.400847715309934 
1345	 0.401076329471916 
1346	 0.401300128148265 
1347	 0.401525663117944 
1348	 0.401748264719853 
1349	 0.401975110712349 
1350	 0.402225556430239 
1351	 0.4024790188815 
1352	 0.40274838028073 
1353	 0.402994662665776 
1354	 0.403257156960856 
1355	 0.403477796023105 
1356	 0.403658813607594 
1357	 0.403857031506369 
1358	 0.404028432802903 
1359	 0.404238191121737 
1360	 0.404477195205641 
1361	 0.404695327976526 
1362	 0.404931653661568 
1363	 0.405146774959945 
1364	 0.405342610106573 
1365	 0.405531521140188 
1366	 0.40572084636866 
1367	 0.405890972850589 
1368	 0.406027921877422 
1369	 0.406176949663072 
1370	 0.406315949964293 
1371	 0.406437574189094 
1372	 0.406554778923004 
1373	 0.406662368090134 
1374	 0.406773013698859 
1375	 0.406888190123333 
1376	 0.406965002222792 
1377	 0.407049743972704 
1378	 0.407080424920914 
1379	 0.407065139406885 
1380	 0.407035678948011 
1381	 0.406971345458009 
1382	 0.406903156056758 
1383	 0.406832977332127 
1384	 0.406713100099741 
1385	 0.406589149227207 
1386	 0.406398890820783 
1387	 0.406141879139837 
1388	 0.405868210388724 
1389	 0.405554820905779 
1390	 0.40522431973159 
1391	 0.404857494916602 
1392	 0.404447600039264 
1393	 0.403987086566876 
1394	 0.40349620031482 
1395	 0.402982756551523 
1396	 0.402442132143153 
1397	 0.401871779057887 
1398	 0.401264443331354 
1399	 0.400659806087171 
1400	 0.400020993863147 
1401	 0.399400084469975 
1402	 0.398786484150345 
1403	 0.398172072539236 
1404	 0.397541533881443 
1405	 0.396943505597776 
1406	 0.396356214545818 
1407	 0.395777910188817 
1408	 0.395204774632386 
1409	 0.394664848174336 
1410	 0.394119707848986 
1411	 0.393637812667212 
1412	 0.393190213612581 
1413	 0.392795295164063 
1414	 0.392462710522555 
1415	 0.392178438253559 
1416	 0.39195363924687 
1417	 0.39175594069972 
1418	 0.391568923264044 
1419	 0.391406826246825 
1420	 0.391245617765997 
1421	 0.39110358981252 
1422	 0.390983598313346 
1423	 0.390854917690455 
1424	 0.390702966638087 
1425	 0.39053349281669 
1426	 0.390381115115366 
1427	 0.39021124206211 
1428	 0.390058086450353 
1429	 0.389928198689142 
1430	 0.389791006256091 
1431	 0.389648323077369 
1432	 0.389509452470318 
1433	 0.389381204542741 
1434	 0.389247114555116 
1435	 0.389095425290322 
1436	 0.388965923494953 
1437	 0.388843658590297 
1438	 0.388734102581656 
1439	 0.388638809399544 
1440	 0.388554934377339 
1441	 0.3884659440005 
1442	 0.388385553972412 
1443	 0.388320447616253 
1444	 0.388264049339256 
1445	 0.388218092721973 
1446	 0.388169204100523 
1447	 0.388129585835902 
1448	 0.388115418401228 
1449	 0.388109947990659 
1450	 0.388112511637366 
1451	 0.388126499721088 
1452	 0.388131573446825 
1453	 0.388185033144026 
1454	 0.388275795143229 
1455	 0.388363649638609 
1456	 0.388474852016849 
1457	 0.388588425887544 
1458	 0.388713432438583 
1459	 0.388831487404233 
1460	 0.388964704401553 
1461	 0.389085251659955 
1462	 0.389181084914163 
1463	 0.389298669476851 
1464	 0.389433071300292 
1465	 0.389561006785602 
1466	 0.389688932892102 
1467	 0.38982596287694 
1468	 0.389962330065157 
1469	 0.390099746216455 
1470	 0.390245001956006 
1471	 0.390398270445047 
1472	 0.390538169207866 
1473	 0.390680321447207 
1474	 0.390842618576061 
1475	 0.390993176381208 
1476	 0.391135309488316 
1477	 0.391294199502643 
1478	 0.391448419652339 
1479	 0.391601105350812 
1480	 0.391762656733015 
1481	 0.391912627009712 
1482	 0.392067953481354 
1483	 0.392217849624051 
1484	 0.392381228816505 
1485	 0.39255122643865 
1486	 0.392723181060401 
1487	 0.392899524228026 
1488	 0.393074627692636 
1489	 0.393255615570523 
1490	 0.393432262888251 
1491	 0.393610934225703 
1492	 0.393783457488478 
1493	 0.393951830695892 
1494	 0.394123035921323 
1495	 0.39429269525883 
1496	 0.394456188304135 
1497	 0.394631180512306 
1498	 0.394779403892576 
1499	 0.394906279034193 
1500	 0.395036977957358 
1501	 0.395146618060778 
1502	 0.395263638003902 
1503	 0.395375184847242 
1504	 0.395507517768883 
1505	 0.395649039505513 
1506	 0.395789705208714 
1507	 0.395946988765017 
1508	 0.396104044876206 
1509	 0.396238126621279 
1510	 0.396368323770956 
1511	 0.396512012108339 
1512	 0.396650418472456 
1513	 0.396790751278488 
1514	 0.39696148630223 
1515	 0.397120290144032 
1516	 0.39725608059901 
1517	 0.397386586228239 
1518	 0.397507300174977 
1519	 0.397629713823882 
1520	 0.397742111320501 
1521	 0.397854880322508 
1522	 0.397972911024184 
1523	 0.398080124496118 
1524	 0.398172465226526 
1525	 0.398275120602406 
1526	 0.398376653034826 
1527	 0.398482223147814 
1528	 0.398596206851804 
1529	 0.398700443349666 
1530	 0.398803506750701 
1531	 0.398906143216693 
1532	 0.399008468647493 
1533	 0.399097924378898 
1534	 0.399181486566096 
1535	 0.39926656056703 
1536	 0.399338589799133 
1537	 0.399413087930675 
1538	 0.399495449288809 
1539	 0.399569129997648 
1540	 0.399630121296018 
1541	 0.399700914834385 
1542	 0.399776702151096 
1543	 0.399847008256507 
1544	 0.3999120704392 
1545	 0.399989185379257 
1546	 0.400071647512441 
1547	 0.40014465403577 
1548	 0.400245691224173 
1549	 0.400365789172687 
1550	 0.400481507540051 
1551	 0.400606525090774 
1552	 0.400725198203902 
1553	 0.400793317826654 
1554	 0.400840575886414 
1555	 0.400888234732896 
1556	 0.400914218973406 
1557	 0.400952414148746 
1558	 0.401013816069335 
1559	 0.401074637106529 
1560	 0.401145421848157 
1561	 0.401232526255239 
1562	 0.401319494709602 
1563	 0.401410156987338 
1564	 0.401496347393687 
1565	 0.401590381139472 
1566	 0.401674481111912 
1567	 0.401757758733341 
1568	 0.401826794313384 
1569	 0.4018883473594 
1570	 0.401941125897724 
1571	 0.401964882085774 
1572	 0.402024139504324 
1573	 0.40209191168831 
1574	 0.402171558506094 
1575	 0.402277188778711 
1576	 0.402370371533829 
1577	 0.402471337143806 
1578	 0.402554495120818 
1579	 0.402641767543003 
1580	 0.402697437170421 
1581	 0.402725035968073 
1582	 0.402758881433002 
1583	 0.402764892588414 
1584	 0.402792372763505 
1585	 0.402830805899034 
1586	 0.402869352587814 
1587	 0.402908420814135 
1588	 0.4029590831102 
1589	 0.40302661866859 
1590	 0.403078797732667 
1591	 0.403135279023097 
1592	 0.403186281557672 
1593	 0.403209773970239 
1594	 0.403258964690482 
1595	 0.403319410828772 
1596	 0.403386113957805 
1597	 0.40348136115478 
1598	 0.403555074645545 
1599	 0.403634732176607 
1600	 0.403690544918857 
1601	 0.403721139237637 
1602	 0.403753296087303 
1603	 0.403759426521894 
1604	 0.40378194511765 
1605	 0.403820444363722 
1606	 0.40384535329632 
1607	 0.403858590798425 
1608	 0.403891264588144 
1609	 0.403929709796929 
1610	 0.403949955196451 
1611	 0.403990300127751 
1612	 0.404035932529414 
1613	 0.404058517372899 
1614	 0.404087115529083 
1615	 0.404119172554622 
1616	 0.404143293803916 
1617	 0.404169612200444 
1618	 0.404203895333041 
1619	 0.404232534427321 
1620	 0.404248720504254 
1621	 0.404272380635494 
1622	 0.404298522874264 
1623	 0.404307319041251 
1624	 0.404315617327771 
1625	 0.40430796212496 
1626	 0.404274425409799 
1627	 0.404259823412862 
1628	 0.404240935106654 
1629	 0.404245790389357 
1630	 0.404264515092358 
1631	 0.404280781219754 
1632	 0.404305826935489 
1633	 0.404338982965536 
1634	 0.404385697482037 
1635	 0.404406992977875 
1636	 0.404435058541676 
1637	 0.404439973422497 
1638	 0.404410355799372 
1639	 0.404399807075259 
1640	 0.404381743896412 
1641	 0.404391863428359 
1642	 0.40441525948696 
1643	 0.404436672723858 
1644	 0.404489096465287 
1645	 0.404501980708156 
1646	 0.404492999459947 
1647	 0.404488298030059 
1648	 0.404455858130828 
1649	 0.404464957744503 
1650	 0.404490815675886 
1651	 0.404519003290053 
1652	 0.404571933948773 
1653	 0.404613956719736 
1654	 0.404658964172634 
1655	 0.404690550579039 
1656	 0.404720647085444 
1657	 0.404744564156959 
1658	 0.404754859133789 
1659	 0.404765323278419 
1660	 0.404785045217627 
1661	 0.404777812409312 
1662	 0.404749528351254 
1663	 0.404725163226837 
1664	 0.404677356721327 
1665	 0.404655357760121 
1666	 0.404643547276589 
1667	 0.404635158833357 
1668	 0.404645925670235 
1669	 0.40463887670053 
1670	 0.404610924251824 
1671	 0.404620212225351 
1672	 0.404642281440197 
1673	 0.404664205166615 
1674	 0.404728471312668 
1675	 0.404745640721937 
1676	 0.404736802118074 
1677	 0.404725704694015 
1678	 0.404688425318929 
1679	 0.404670859099296 
1680	 0.404655061856811 
1681	 0.404639618436424 
1682	 0.404626821625461 
1683	 0.404622802791988 
1684	 0.40461342134267 
1685	 0.404626508474761 
1686	 0.404667430844255 
1687	 0.404690251765966 
1688	 0.404726982885737 
1689	 0.404737417274313 
1690	 0.404731503842711 
1691	 0.40471910178104 
1692	 0.404663422606827 
1693	 0.404668743090851 
1694	 0.404710746635613 
1695	 0.404725527267203 
1696	 0.404773422306546 
1697	 0.404786216330526 
1698	 0.404755531617139 
1699	 0.40473943678715 
1700	 0.404735952243516 
1701	 0.404708217265918 
1702	 0.40465841005438 
1703	 0.4046164318275 
1704	 0.404549383243038 
1705	 0.404524332901247 
1706	 0.404524608110562 
1707	 0.404519157064169 
1708	 0.404533514187912 
1709	 0.404543322344303 
1710	 0.404552564034607 
1711	 0.404555062216035 
1712	 0.404561966610628 
1713	 0.404563106757718 
1714	 0.404541564329512 
1715	 0.404551285535641 
1716	 0.404590551605592 
1717	 0.404603527747682 
1718	 0.404625176189053 
1719	 0.404613452021922 
1720	 0.404572881530885 
1721	 0.404534052379146 
1722	 0.40447307058327 
1723	 0.404437101337378 
1724	 0.404421429012724 
1725	 0.404366273440572 
1726	 0.40430299370166 
1727	 0.404236733516066 
1728	 0.404134083140138 
1729	 0.404054730539728 
1730	 0.403994730124807 
1731	 0.403923945803641 
1732	 0.403840777999136 
1733	 0.403777293330873 
1734	 0.403718167550143 
1735	 0.403673105354898 
1736	 0.403649813794521 
1737	 0.403613210839434 
1738	 0.403582195562631 
1739	 0.403544122108796 
1740	 0.403498085964726 
1741	 0.403449523348942 
1742	 0.403399927920822 
1743	 0.403348074545789 
1744	 0.403288038888777 
1745	 0.403244978705918 
1746	 0.403204137448366 
1747	 0.403170813103546 
1748	 0.403152081815149 
1749	 0.403115448390924 
1750	 0.403076154877448 
1751	 0.403061177687793 
1752	 0.403018640055602 
1753	 0.402943732964544 
1754	 0.402898198236651 
1755	 0.402848325928797 
1756	 0.40278730426976 
1757	 0.402740710564132 
1758	 0.402698220447035 
1759	 0.402644183264854 
1760	 0.402574418784854 
1761	 0.40256250396861 
1762	 0.402575645296261 
1763	 0.402568093722689 
1764	 0.402556951596467 
1765	 0.402500043084602 
1766	 0.40243013891797 
1767	 0.402375643452468 
1768	 0.402360904689544 
1769	 0.402354529848266 
1770	 0.402329860350313 
1771	 0.402329084951168 
1772	 0.402304328332754 
1773	 0.402289660362715 
1774	 0.402308265730604 
1775	 0.40228197060076 
1776	 0.402223266983614 
1777	 0.4021947841931 
1778	 0.402155373054766 
1779	 0.402092749981112 
1780	 0.402077835038005 
1781	 0.402048533535259 
1782	 0.401997585035299 
1783	 0.402013430442001 
1784	 0.40200629802261 
1785	 0.401998389655236 
1786	 0.401981105826582 
1787	 0.401945553840526 
1788	 0.401928771140991 
1789	 0.401891149906411 
1790	 0.401910335460177 
1791	 0.401977160903067 
1792	 0.402023361505896 
1793	 0.402114362599812 
1794	 0.402163061750937 
1795	 0.402184513761032 
1796	 0.402197818895276 
1797	 0.402177159569173 
1798	 0.402173584525142 
1799	 0.402173021157302 
1800	 0.40215871700007 
1801	 0.401771269126458 
1802	 0.401779494820963 
1803	 0.401835372806699 
1804	 0.401858668734676 
1805	 0.401863009496692 
1806	 0.401893325915857 
1807	 0.401897035350393 
1808	 0.40192526690904 
1809	 0.40197927369887 
1810	 0.402024801704817 
1811	 0.402086115181481 
1812	 0.402121251162614 
1813	 0.402153461295595 
1814	 0.402123456466513 
1815	 0.4020637852458 
1816	 0.402053882490342 
1817	 0.402026148601234 
1818	 0.401965691747045 
1819	 0.401966542353889 
1820	 0.402003397741149 
1821	 0.402009867158966 
1822	 0.402059236588729 
1823	 0.40213102256551 
1824	 0.402191090003213 
1825	 0.402218649949644 
1826	 0.402225506520413 
1827	 0.402215751119598 
1828	 0.402185895586237 
1829	 0.402116279485506 
1830	 0.402065498903825 
1831	 0.401998623665761 
1832	 0.40194617709022 
1833	 0.401929191037558 
1834	 0.401898963170824 
1835	 0.401928258946157 
1836	 0.401970510596668 
1837	 0.401966077384344 
1838	 0.401966085979485 
1839	 0.401969274500467 
1840	 0.401967932612226 
1841	 0.401947692228795 
1842	 0.401944300345646 
1843	 0.4019262021049 
1844	 0.401873331509034 
1845	 0.401818497567658 
1846	 0.401727216644888 
1847	 0.40163431933982 
1848	 0.40153788877002 
1849	 0.401423015635372 
1850	 0.401316531147079 
1851	 0.401217526288567 
1852	 0.401103047138424 
1853	 0.400999695996255 
1854	 0.400895445878391 
1855	 0.400763206000014 
1856	 0.400659809143492 
1857	 0.400557556921638 
1858	 0.400400822046935 
1859	 0.400215270054751 
1860	 0.400006049909351 
1861	 0.399760532503028 
1862	 0.399479795957202 
1863	 0.399203234858775 
1864	 0.39891248264256 
1865	 0.398585418651809 
1866	 0.398219590093393 
1867	 0.397831349517609 
1868	 0.397434772224107 
1869	 0.39702996188127 
1870	 0.396601971463537 
1871	 0.396117364224981 
1872	 0.395590450240895 
1873	 0.395031363058588 
1874	 0.394441582908699 
1875	 0.393782248958277 
1876	 0.393091698509958 
1877	 0.39235260458308 
1878	 0.391504284205902 
1879	 0.390578681273525 
1880	 0.389592065466806 
1881	 0.388522951620806 
1882	 0.387399125446435 
1883	 0.386216833456499 
1884	 0.384970852607097 
1885	 0.383638796591485 
1886	 0.382206139173176 
1887	 0.380667966892377 
1888	 0.379042619346279 
1889	 0.377375841706411 
1890	 0.375654879783877 
1891	 0.373906528561493 
1892	 0.372111465523583 
1893	 0.370303293469375 
1894	 0.368464696134099 
1895	 0.366582361896508 
1896	 0.364672193321144 
1897	 0.362752550882476 
1898	 0.360817730914952 
1899	 0.358913669269485 
1900	 0.357057730097714 
1901	 0.355228933253137 
1902	 0.353456194224531 
1903	 0.351745134097829 
1904	 0.350061687421712 
1905	 0.348414986552083 
1906	 0.346826114731378 
1907	 0.345268577269424 
1908	 0.343752446332734 
1909	 0.342324386138893 
1910	 0.340950762295252 
1911	 0.339657732047877 
1912	 0.338451908704547 
1913	 0.337295372450138 
1914	 0.336189276615431 
1915	 0.335167420305382 
1916	 0.334226266012486 
1917	 0.333330770077506 
1918	 0.332476345604383 
1919	 0.331689590080543 
1920	 0.330952092420302 
1921	 0.330260084728325 
1922	 0.329645979937785 
1923	 0.329091934418723 
1924	 0.328563473743886 
1925	 0.328058545840906 
1926	 0.327621370401761 
1927	 0.327231463902159 
1928	 0.326886536500737 
1929	 0.326603249443013 
1930	 0.326388813274201 
1931	 0.326211992595704 
1932	 0.326072474300591 
1933	 0.32597419176388 
1934	 0.325879738188169 
1935	 0.32583542579281 
1936	 0.325806172585545 
1937	 0.32585087114489 
1938	 0.325949929242273 
1939	 0.326098690587139 
1940	 0.326314285617082 
1941	 0.326552294704842 
1942	 0.326834940240591 
1943	 0.327136429279774 
1944	 0.327457340914823 
1945	 0.327823716058581 
1946	 0.328197347776207 
1947	 0.328581389170566 
1948	 0.329008760361396 
1949	 0.329466894881961 
1950	 0.329947065858865 
1951	 0.330479321247468 
1952	 0.331004936884188 
1953	 0.331528961853342 
1954	 0.332034299164278 
1955	 0.332533003772182 
1956	 0.333037266732245 
1957	 0.333529687778628 
1958	 0.334011790608041 
1959	 0.334510525136417 
1960	 0.335017004675042 
1961	 0.335504529649157 
1962	 0.336000219802218 
1963	 0.336485544882601 
1964	 0.336940539526233 
1965	 0.337407561419783 
1966	 0.337898550008007 
1967	 0.338377213866302 
1968	 0.338860973255233 
1969	 0.339342477991245 
1970	 0.339835244466092 
1971	 0.340351238637816 
1972	 0.340837836174756 
1973	 0.341303764065796 
1974	 0.34178998176787 
1975	 0.342261661024047 
1976	 0.342747884274367 
1977	 0.34326646594603 
1978	 0.343797214053432 
1979	 0.344320020769485 
1980	 0.344840800458502 
1981	 0.345355083007126 
1982	 0.34586670745188 
1983	 0.346375450579848 
1984	 0.346868980959491 
1985	 0.347375741538933 
1986	 0.347899197275773 
1987	 0.348403681763398 
1988	 0.348911235363393 
1989	 0.349406854325735 
1990	 0.349869543438556 
1991	 0.350346531270514 
1992	 0.350836656784148 
1993	 0.351329041219683 
1994	 0.351831089612072 
1995	 0.352351651713184 
1996	 0.352864577911486 
1997	 0.353382669159125 
1998	 0.353900359557683 
1999	 0.354435972234217 
2000	 0.354942525090325 
2001	 0.35544287023193 
2002	 0.355917204314482 
2003	 0.356383856290409 
2004	 0.35684631250568 
2005	 0.357299469548151 
2006	 0.357734872104926 
2007	 0.358196953595474 
2008	 0.358661651997573 
2009	 0.359123364141194 
2010	 0.359610419572929 
2011	 0.360077620007288 
2012	 0.360517594836223 
2013	 0.360975509559293 
2014	 0.361450881200769 
2015	 0.361898869249522 
2016	 0.36237839458064 
2017	 0.36285429801537 
2018	 0.363308329731738 
2019	 0.363757988513509 
2020	 0.364198444823805 
2021	 0.364607664310989 
2022	 0.365038562023878 
2023	 0.365480530387594 
2024	 0.365911529327438 
2025	 0.366335681853397 
2026	 0.366766293793643 
2027	 0.367205829130376 
2028	 0.367628632860715 
2029	 0.368046618100001 
2030	 0.368467638409429 
2031	 0.368880701363934 
2032	 0.36927391186872 
2033	 0.369682147272265 
2034	 0.370098966676642 
2035	 0.370509821367405 
2036	 0.37093606543926 
2037	 0.371329882084887 
2038	 0.371701509068661 
2039	 0.372077192267515 
2040	 0.372436162691947 
2041	 0.372782038110636 
2042	 0.373159478407501 
2043	 0.37356333299565 
2044	 0.373936180191894 
2045	 0.374315439265421 
2046	 0.374670371185608 
2047	 0.375001971527222 
2048	 0.375332384702164 
2049	 0.375657352384212 
2050	 0.37597111264913 
2051	 0.376265086718958 
2052	 0.3765632898159 
2053	 0.376837705540887 
2054	 0.377139277062451 
2055	 0.377459661032686 
2056	 0.377782908554947 
2057	 0.378094488830983 
2058	 0.378422499010686 
2059	 0.378723956290218 
2060	 0.379006243400587 
2061	 0.37928459091578 
2062	 0.379542324795055 
2063	 0.379819292069227 
2064	 0.380088157509309 
2065	 0.380370633302179 
2066	 0.380680382945784 
2067	 0.380977157680168 
2068	 0.381291846460769 
2069	 0.381569493426909 
2070	 0.381837146585611 
2071	 0.382075589013535 
2072	 0.38235409117471 
2073	 0.382637593407211 
2074	 0.382910990421366 
2075	 0.383225304894945 
2076	 0.383483248373486 
2077	 0.383682793781177 
2078	 0.383914915624847 
2079	 0.38414772100015 
2080	 0.384373662638228 
2081	 0.384596482948289 
2082	 0.384827935422477 
2083	 0.385051667047313 
2084	 0.38528064383816 
2085	 0.385523292034474 
2086	 0.385790128302902 
2087	 0.38603692346232 
2088	 0.386285529082638 
2089	 0.386523313801493 
2090	 0.386747179153342 
2091	 0.386982113311582 
2092	 0.387212992808773 
2093	 0.387450031087617 
2094	 0.387701771159089 
2095	 0.387940474906746 
2096	 0.388163715230984 
2097	 0.38840315538051 
2098	 0.388649718666444 
2099	 0.388894528522906 
2100	 0.389132926666245 
2101	 0.389377581827175 
2102	 0.389621539884707 
2103	 0.38984877538571 
2104	 0.39009629750164 
2105	 0.390353860351297 
2106	 0.390621694662436 
2107	 0.390892739798063 
2108	 0.391181950577269 
2109	 0.391499925332677 
2110	 0.39180563275006 
2111	 0.392125268538366 
2112	 0.392429757495302 
2113	 0.392713291593091 
2114	 0.393018787182877 
2115	 0.393303083710422 
2116	 0.393585347958431 
2117	 0.393843302236655 
2118	 0.394087853970373 
2119	 0.394320936043657 
2120	 0.394517584754769 
2121	 0.394748870088933 
2122	 0.394984020423661 
2123	 0.395223233597111 
2124	 0.395496342096444 
2125	 0.395735104977159 
2126	 0.39595640141804 
2127	 0.396177014822316 
2128	 0.396398644092588 
2129	 0.396590088370881 
2130	 0.396753353580928 
2131	 0.396935626406357 
2132	 0.397077582814992 
2133	 0.39718229954637 
2134	 0.397293179475049 
2135	 0.397408920003327 
2136	 0.397477077395013 
2137	 0.397529214294855 
2138	 0.397545934255524 
2139	 0.397508163694354 
2140	 0.397477411999806 
2141	 0.397398142720325 
2142	 0.397364548032381 
2143	 0.397365772591414 
2144	 0.397334882962 
2145	 0.397322350915879 
2146	 0.397285597903889 
2147	 0.39721490808285 
2148	 0.397131680986451 
2149	 0.397046013669848 
2150	 0.396966981593577 
2151	 0.396847386708273 
2152	 0.396712594483764 
2153	 0.396543951085498 
2154	 0.396331860139835 
2155	 0.39612986389132 
2156	 0.395902811958 
2157	 0.395681801343994 
2158	 0.395471646597719 
2159	 0.395235187914966 
2160	 0.394969358647298 
2161	 0.394720511932341 
2162	 0.394461505176503 
2163	 0.394211673559475 
2164	 0.394006269845588 
2165	 0.393753629089204 
2166	 0.393475697781679 
2167	 0.393182432846152 
2168	 0.392865077234223 
2169	 0.392502767113447 
2170	 0.392153976655684 
2171	 0.391791434740699 
2172	 0.391434381215472 
2173	 0.391067473273395 
2174	 0.390709382916971 
2175	 0.390351317809365 
2176	 0.390006862250169 
2177	 0.389673788023296 
2178	 0.389333254703492 
2179	 0.388995807606841 
2180	 0.388664703029323 
2181	 0.388355578573447 
2182	 0.38801240057536 
2183	 0.387676367498288 
2184	 0.387294737250899 
2185	 0.38691897432934 
2186	 0.386507349269276 
2187	 0.386112745827205 
2188	 0.385711113316148 
2189	 0.385338240385991 
2190	 0.384965711485986 
2191	 0.384607424187882 
2192	 0.384252721298314 
2193	 0.383954065977931 
2194	 0.383669043466384 
2195	 0.383424599457567 
2196	 0.383257416401603 
2197	 0.383074675437005 
2198	 0.382894443066259 
2199	 0.382741938119234 
2200	 0.382617665235807 
2201	 0.382500279139606 
2202	 0.382403908094419 
2203	 0.382308282364569 
2204	 0.382241800613226 
2205	 0.382186052127579 
2206	 0.382147420234305 
2207	 0.382111834591049 
2208	 0.382151723773636 
2209	 0.382232723428444 
2210	 0.382327782234032 
2211	 0.382505471350674 
2212	 0.382641934075759 
2213	 0.382756165410791 
2214	 0.382901422815347 
2215	 0.383080091148894 
2216	 0.383228438761943 
2217	 0.383399944096116 
2218	 0.383526060653756 
2219	 0.383609842584696 
2220	 0.383690506835045 
2221	 0.38376525243614 
2222	 0.383795399839122 
2223	 0.383810002430349 
2224	 0.383859631213776 
2225	 0.383873475324041 
2226	 0.383863251419419 
2227	 0.383867316757414 
2228	 0.383865844095329 
2229	 0.383860445165642 
2230	 0.383853204151114 
2231	 0.383849487147173 
2232	 0.383842405235743 
2233	 0.38383989497499 
2234	 0.383847811465009 
2235	 0.383842196955461 
2236	 0.38383989073115 
2237	 0.383817494271309 
2238	 0.383769424551244 
2239	 0.383740902195415 
2240	 0.383715524371222 
2241	 0.383672803889439 
2242	 0.383624059286028 
2243	 0.383585296780734 
2244	 0.383542272705513 
2245	 0.383495322487842 
2246	 0.383428642479993 
2247	 0.38339792620839 
2248	 0.383348907394194 
2249	 0.383256701327823 
2250	 0.383248706642455 
2251	 0.383307703186713 
2252	 0.383293962961719 
2253	 0.383305462743837 
2254	 0.383267106174376 
2255	 0.383154545977287 
2256	 0.383083012596535 
2257	 0.383012190851718 
2258	 0.382943332015965 
2259	 0.382866432577312 
2260	 0.382812220043352 
2261	 0.38277359866228 
2262	 0.382742835194099 
2263	 0.382725839538454 
2264	 0.382714749067505 
2265	 0.382721414030286 
2266	 0.3827132237934 
2267	 0.382701170884644 
2268	 0.382699738780624 
2269	 0.382706620349105 
2270	 0.382691056520466 
2271	 0.382680814724442 
2272	 0.382672893258756 
2273	 0.382679768168794 
2274	 0.382732264179891 
2275	 0.382767533136806 
2276	 0.3828542784666 
2277	 0.38286279966566 
2278	 0.382822040846456 
2279	 0.382798339299732 
2280	 0.382740718064253 
2281	 0.38271189386849 
2282	 0.382695418375532 
2283	 0.382684436001203 
2284	 0.382686395951297 
2285	 0.382684142741947 
2286	 0.382687461163407 
2287	 0.382687614833779 
2288	 0.382682641264341 
2289	 0.382684087014895 
2290	 0.382688352012685 
2291	 0.382698288672417 
2292	 0.382710551728613 
2293	 0.382721510267903 
2294	 0.382790902430327 
2295	 0.382764781783377 
2296	 0.382664601652638 
2297	 0.382594137331398 
2298	 0.382454794304833 
2299	 0.382340559270997 
2300	 0.382338328495707 
2301	 0.382304309412309 
2302	 0.382251323001884 
2303	 0.382205536520352 
2304	 0.382125975922238 
2305	 0.382035268518556 
2306	 0.381938669158954 
2307	 0.381846698228807 
2308	 0.381743162878871 
2309	 0.381619314376332 
2310	 0.381492214637119 
2311	 0.381361713639913 
2312	 0.381220532464331 
2313	 0.381050465195285 
2314	 0.380917760581578 
2315	 0.380805592010203 
2316	 0.380686248480691 
2317	 0.380580184942802 
2318	 0.380471489431034 
2319	 0.38035928037377 
2320	 0.38023783954992 
2321	 0.380155050340488 
2322	 0.379993853964695 
2323	 0.379744722510165 
2324	 0.379560334720946 
2325	 0.379350442147894 
2326	 0.379168196119649 
2327	 0.379019196013951 
2328	 0.37891931669624 
2329	 0.378790909327254 
2330	 0.378652758116117 
2331	 0.378550720898704 
2332	 0.378472827689866 
2333	 0.378346962148319 
2334	 0.378217228095099 
2335	 0.378085664134865 
2336	 0.377893291660463 
2337	 0.377730402335558 
2338	 0.377561140770368 
2339	 0.377348840032765 
2340	 0.377140540421903 
2341	 0.376912041878013 
2342	 0.376701337352217 
2343	 0.376470963635355 
2344	 0.376238758647825 
2345	 0.376014849221327 
2346	 0.375786079980004 
2347	 0.375517431623784 
2348	 0.375279495399443 
2349	 0.37495494445794 
2350	 0.374495915329087 
2351	 0.374197593821896 
2352	 0.373948086063403 
2353	 0.373664876041419 
2354	 0.373475469722707 
2355	 0.373204075674017 
2356	 0.372845708751985 
2357	 0.372518676582971 
2358	 0.372187134091761 
2359	 0.371873749306901 
2360	 0.371567964660819 
2361	 0.371240070915645 
2362	 0.370929297594071 
2363	 0.370600462270991 
2364	 0.370203676635187 
2365	 0.369879676255053 
2366	 0.369601727526484 
2367	 0.369301871057893 
2368	 0.369053940332789 
2369	 0.36876398479686 
2370	 0.368445550002964 
2371	 0.368117904900541 
2372	 0.367755835170198 
2373	 0.367392150432048 
2374	 0.36702762813167 
2375	 0.36662405064894 
2376	 0.366218361767096 
2377	 0.365809790123362 
2378	 0.365386624733948 
2379	 0.364950107976176 
2380	 0.364552455191203 
2381	 0.364143660534076 
2382	 0.363732538501475 
2383	 0.363394086315247 
2384	 0.362975851985867 
2385	 0.36250488262525 
2386	 0.362045319015742 
2387	 0.361555940348315 
2388	 0.361118910682504 
2389	 0.360749885571822 
2390	 0.360394283057384 
2391	 0.360038686692018 
2392	 0.359706988553021 
2393	 0.359390990140726 
2394	 0.359091744523264 
2395	 0.358769351217362 
2396	 0.358419312133706 
2397	 0.358072369865814 
2398	 0.357683825517041 
2399	 0.357260411633617 
2400	 0.356875667909232 
2401	 0.356517060819297 
2402	 0.356117316539996 
2403	 0.355738236882799 
2404	 0.355344731080604 
2405	 0.35488158934829 
2406	 0.354437210366793 
2407	 0.354067432259755 
2408	 0.353693099953151 
2409	 0.353302442488679 
2410	 0.352937903221724 
2411	 0.352503980779056 
2412	 0.35205903258234 
2413	 0.351587833633662 
2414	 0.351035759583191 
2415	 0.350566039084435 
2416	 0.350161428995764 
2417	 0.349789938230258 
2418	 0.349417749034123 
2419	 0.349192645565042 
2420	 0.348807243836982 
2421	 0.348344697423824 
2422	 0.347956297316632 
2423	 0.347496606684523 
2424	 0.347050960870291 
2425	 0.346597932591818 
2426	 0.346208156413242 
2427	 0.345891276857994 
2428	 0.345531036072576 
2429	 0.345251504986666 
2430	 0.344843227557538 
2431	 0.344316528812246 
2432	 0.343823680994809 
2433	 0.343271116351955 
2434	 0.342795336155104 
2435	 0.342346141815354 
2436	 0.341905121602532 
2437	 0.341501954911587 
2438	 0.341132585996654 
2439	 0.340731285332659 
2440	 0.340403778095652 
2441	 0.340210466258744 
2442	 0.339894857875383 
2443	 0.33962500135491 
2444	 0.33927822917381 
2445	 0.338777177310483 
2446	 0.338396450656057 
2447	 0.338082210266016 
2448	 0.337581281153326 
2449	 0.33697351724193 
2450	 0.33649883932882 
2451	 0.335992253253739 
2452	 0.335461743889464 
2453	 0.335020192533158 
2454	 0.334620215594352 
2455	 0.334186304099318 
2456	 0.333739512725202 
2457	 0.333351617015488 
2458	 0.332947075939923 
2459	 0.332454636942759 
2460	 0.331977868747529 
2461	 0.331609215084965 
2462	 0.331258579975065 
2463	 0.330818532496421 
2464	 0.330447304890102 
2465	 0.330179581538436 
2466	 0.329862146321164 
2467	 0.329520456423309 
2468	 0.329242466975185 
2469	 0.329020932455043 
2470	 0.328701713323989 
2471	 0.328357993809468 
2472	 0.327840068189425 
2473	 0.327354674170907 
2474	 0.326930477696365 
2475	 0.326553254464824 
2476	 0.326245001374097 
2477	 0.325959794531696 
2478	 0.32573726792574 
2479	 0.325553453604854 
2480	 0.325159940732495 
2481	 0.32473356873724 
2482	 0.324410081081304 
2483	 0.324020060266776 
2484	 0.323800708161386 
2485	 0.323633484386121 
2486	 0.323236349008833 
2487	 0.322856069909008 
2488	 0.322582067567004 
2489	 0.322337651759717 
2490	 0.322269561581515 
2491	 0.322172644069572 
2492	 0.321915059571572 
2493	 0.321627288682283 
2494	 0.321337679465957 
2495	 0.321030911538565 
2496	 0.320564247686967 
2497	 0.320236585894641 
2498	 0.319999825197998 
2499	 0.319673502496239 
2500	 0.3196027033135 
