Wavelength	MM500006.asd
350	 5.33893608902844E-02 
351	 5.58258263211412E-02 
352	 5.35788709008982E-02 
353	 4.90637020278832E-02 
354	 5.53388943128337E-02 
355	 5.99297609540797E-02 
356	 6.03566727792179E-02 
357	 5.83815849763126E-02 
358	 6.05731054488355E-02 
359	 5.76548432311213E-02 
360	 0.053370500429013 
361	 5.82315644614459E-02 
362	 5.82903108427959E-02 
363	 5.58623040217755E-02 
364	 5.41817094004388E-02 
365	 5.47217040253779E-02 
366	 5.42115332901321E-02 
367	 5.44100862380679E-02 
368	 5.69135143741886E-02 
369	 5.71431509327739E-02 
370	 5.82387567592306E-02 
371	 0.060418749764631 
372	 6.17233026621405E-02 
373	 6.03249434966445E-02 
374	 5.95244921211576E-02 
375	 6.07996183678318E-02 
376	 0.061506759186869 
377	 0.060678693986247 
378	 6.04433687011177E-02 
379	 6.28858501784578E-02 
380	 0.066239172102842 
381	 6.48614697890424E-02 
382	 6.20050188871814E-02 
383	 6.65291133197124E-02 
384	 6.83238587989873E-02 
385	 0.066828812056929 
386	 6.44634248914715E-02 
387	 6.64725941551478E-02 
388	 6.76792939536743E-02 
389	 6.80992024274037E-02 
390	 6.90471625712099E-02 
391	 6.95011770909511E-02 
392	 7.06071210564137E-02 
393	 7.17672615793776E-02 
394	 7.11521167703785E-02 
395	 7.26462584557369E-02 
396	 7.44777855600604E-02 
397	 7.52094125544602E-02 
398	 7.62704482501429E-02 
399	 7.64195094296943E-02 
400	 7.60686506902428E-02 
401	 7.62538645090408E-02 
402	 7.79264260875041E-02 
403	 7.88245409588277E-02 
404	 7.85171426216895E-02 
405	 7.85940295301846E-02 
406	 8.00731785387374E-02 
407	 8.14077149385843E-02 
408	 8.13397280249171E-02 
409	 8.04646649519435E-02 
410	 8.05156174103432E-02 
411	 0.08111605175658 
412	 8.10872619204734E-02 
413	 8.16790468188432E-02 
414	 8.15424705724171E-02 
415	 0.080671578112986 
416	 8.09984969481273E-02 
417	 8.10865852655846E-02 
418	 8.12998106464908E-02 
419	 8.19482290131216E-02 
420	 8.17115433905375E-02 
421	 8.12191417248228E-02 
422	 0.081039263688702 
423	 8.15386666540977E-02 
424	 8.16838166917858E-02 
425	 8.15648190241921E-02 
426	 8.12958051309434E-02 
427	 8.06762175795343E-02 
428	 8.03644892636715E-02 
429	 8.03446240476362E-02 
430	 8.03558676782624E-02 
431	 8.02239205509244E-02 
432	 7.98693627245259E-02 
433	 7.96230452261346E-02 
434	 8.01438685115806E-02 
435	 8.08074653532949E-02 
436	 8.11745475358148E-02 
437	 8.10977662638268E-02 
438	 8.09650734871916E-02 
439	 8.12215528010013E-02 
440	 8.17790786992346E-02 
441	 8.22611687626154E-02 
442	 8.24547089638561E-02 
443	 8.29080552864008E-02 
444	 8.36695394522435E-02 
445	 8.39345262322586E-02 
446	 8.42938501615034E-02 
447	 8.46680043414738E-02 
448	 8.48938380121488E-02 
449	 8.52702778903574E-02 
450	 8.56527534138566E-02 
451	 8.60510180275391E-02 
452	 0.086594953516532 
453	 0.086955815178392 
454	 8.71723762590797E-02 
455	 8.73836457012338E-02 
456	 8.78298665225667E-02 
457	 8.80707007162813E-02 
458	 8.81598054380311E-02 
459	 8.83500301773816E-02 
460	 8.85128540150908E-02 
461	 8.86237597233954E-02 
462	 8.87877623562471E-02 
463	 0.089285854591144 
464	 8.95407553804251E-02 
465	 0.089596865665972 
466	 8.96724369742995E-02 
467	 8.98768540298221E-02 
468	 9.02391122618521E-02 
469	 9.04906824631231E-02 
470	 9.02064035871832E-02 
471	 0.090366165939457 
472	 0.090574533945636 
473	 0.090543287475939 
474	 9.08285788153389E-02 
475	 0.09098166916167 
476	 9.09785044398537E-02 
477	 9.09924053609835E-02 
478	 9.11567279775354E-02 
479	 9.13592037325933E-02 
480	 9.15390017859522E-02 
481	 9.17414255864064E-02 
482	 9.18980911522642E-02 
483	 9.20055142929991E-02 
484	 9.20759001382165E-02 
485	 9.21089517262564E-02 
486	 9.20180762692348E-02 
487	 9.19396479837331E-02 
488	 9.21590958514022E-02 
489	 9.22192638988512E-02 
490	 9.22770498230778E-02 
491	 9.24653557990844E-02 
492	 9.26251140378086E-02 
493	 9.24448375979049E-02 
494	 9.22639451533518E-02 
495	 9.26033035289843E-02 
496	 9.27558023768065E-02 
497	 9.27249328749647E-02 
498	 9.26776591202585E-02 
499	 9.29222981774328E-02 
500	 9.29504971648448E-02 
501	 9.29205593084431E-02 
502	 9.30763508033008E-02 
503	 9.31128665958154E-02 
504	 9.31382435801227E-02 
505	 9.31669652603824E-02 
506	 9.31226660178087E-02 
507	 9.31135799332986E-02 
508	 9.31803247970791E-02 
509	 9.33086645316042E-02 
510	 9.34017292989879E-02 
511	 9.33548709473168E-02 
512	 9.32760012075802E-02 
513	 0.093363840423645 
514	 0.093500828334975 
515	 9.35327474429443E-02 
516	 9.34795494460776E-02 
517	 9.36781966795916E-02 
518	 9.36441333633894E-02 
519	 0.093551722507373 
520	 9.36885832342914E-02 
521	 9.37162951236279E-02 
522	 9.37833376283316E-02 
523	 9.38914310529551E-02 
524	 0.093868107476489 
525	 9.39552044736711E-02 
526	 9.40571893912698E-02 
527	 9.40726575649034E-02 
528	 0.094130837552666 
529	 9.41648895537052E-02 
530	 9.42190823996825E-02 
531	 9.43858696362191E-02 
532	 9.44055367812129E-02 
533	 9.44340264206807E-02 
534	 9.45550045098779E-02 
535	 9.45672601642078E-02 
536	 9.46487891615123E-02 
537	 9.47746892916033E-02 
538	 9.48571210167131E-02 
539	 9.49644436060946E-02 
540	 9.50421471748107E-02 
541	 9.50819617296135E-02 
542	 0.095145496155174 
543	 9.52812781253987E-02 
544	 9.54188717829713E-02 
545	 9.54884456290068E-02 
546	 9.55680826391842E-02 
547	 9.56508456785943E-02 
548	 0.095750584081038 
549	 0.095896899442598 
550	 9.60498281420801E-02 
551	 9.61818988255385E-02 
552	 9.63070516665494E-02 
553	 9.65545255557206E-02 
554	 0.096693369890864 
555	 9.67956140940221E-02 
556	 9.70658147933958E-02 
557	 9.73302640247846E-02 
558	 9.75623670556627E-02 
559	 9.77758896573744E-02 
560	 9.80265147784261E-02 
561	 0.098249024806133 
562	 9.84540213220743E-02 
563	 9.86851721867115E-02 
564	 9.90197087572199E-02 
565	 9.92782408770673E-02 
566	 9.94854363881696E-02 
567	 0.099902851971501 
568	 0.10033650978188 
569	 0.100788953695456 
570	 0.101273794747399 
571	 0.101680325810868 
572	 0.102144231340411 
573	 0.102647810616111 
574	 0.103071236460885 
575	 0.103493781048158 
576	 0.103928988173826 
577	 0.104371811667439 
578	 0.104780284639202 
579	 0.105336774712046 
580	 0.106004985261797 
581	 0.106667070602338 
582	 0.107399793176094 
583	 0.10811953563913 
584	 0.108798987698372 
585	 0.109510447659474 
586	 0.110197182052241 
587	 0.110850566648479 
588	 0.111482568282918 
589	 0.112124664321937 
590	 0.112794570407104 
591	 0.11351223563418 
592	 0.114295387244733 
593	 0.115015694503489 
594	 0.115712353918723 
595	 0.116450287917352 
596	 0.117278522334795 
597	 0.11808458955326 
598	 0.118858636533154 
599	 0.119646558492686 
600	 0.120416253915361 
601	 0.121166533222446 
602	 0.121882716512608 
603	 0.122519409162431 
604	 0.123138639487983 
605	 0.123784071779049 
606	 0.124470131869353 
607	 0.125097188912263 
608	 0.125701931190008 
609	 0.126315739041572 
610	 0.126954299173187 
611	 0.12756577288518 
612	 0.128151960997422 
613	 0.128718750177127 
614	 0.129252508233901 
615	 0.129692246102633 
616	 0.130095655775532 
617	 0.130585085731792 
618	 0.131004774284617 
619	 0.13135581202381 
620	 0.131686268487381 
621	 0.132093815965055 
622	 0.132490959483369 
623	 0.132844356230709 
624	 0.133153112663384 
625	 0.13348327150267 
626	 0.133790163104636 
627	 0.134065757358653 
628	 0.134361049632131 
629	 0.134700118473221 
630	 0.135012788222542 
631	 0.135235797862509 
632	 0.135426438714887 
633	 0.135692427229439 
634	 0.136002005439241 
635	 0.13621967409323 
636	 0.13650148731219 
637	 0.136778239921529 
638	 0.136993624232404 
639	 0.137216236692794 
640	 0.137444490451684 
641	 0.137691331471305 
642	 0.13796696284702 
643	 0.138233218126173 
644	 0.138486017396126 
645	 0.138724492451482 
646	 0.138944796483985 
647	 0.139202411134321 
648	 0.139473198395244 
649	 0.139727728194007 
650	 0.140024884787293 
651	 0.140334608863174 
652	 0.140627476637173 
653	 0.140883431493296 
654	 0.141190444855437 
655	 0.141482700791489 
656	 0.141725295758844 
657	 0.142028720495106 
658	 0.142362328953041 
659	 0.142698070025108 
660	 0.143010054264132 
661	 0.143311252467994 
662	 0.143610584554597 
663	 0.143922495530134 
664	 0.144268962066868 
665	 0.144652621063221 
666	 0.145044346429654 
667	 0.145411472836816 
668	 0.145743226111587 
669	 0.146079227397276 
670	 0.146468969809454 
671	 0.146953350640993 
672	 0.147349552576891 
673	 0.147728953696776 
674	 0.148156155729133 
675	 0.148564788761179 
676	 0.149006765901944 
677	 0.149459677895516 
678	 0.149879629350092 
679	 0.150312646175787 
680	 0.150772114572853 
681	 0.151257161917076 
682	 0.151753619404113 
683	 0.15218430165339 
684	 0.15263013382517 
685	 0.153166892513407 
686	 0.153692764818438 
687	 0.154229819731845 
688	 0.154766684728516 
689	 0.15527567903802 
690	 0.155839419643924 
691	 0.156375635326132 
692	 0.15686800884036 
693	 0.157487316057586 
694	 0.158061115348419 
695	 0.158596544196802 
696	 0.15915747633556 
697	 0.159727863322543 
698	 0.160334052237781 
699	 0.160964156496373 
700	 0.161564814772296 
701	 0.162135051695561 
702	 0.162714634389069 
703	 0.163330000292826 
704	 0.163950614089157 
705	 0.164547280415631 
706	 0.165133591079064 
707	 0.165743889485234 
708	 0.16637649589712 
709	 0.166993983368517 
710	 0.167587790921722 
711	 0.168199259446284 
712	 0.168765466465938 
713	 0.169343474433371 
714	 0.169984726935072 
715	 0.170588555546305 
716	 0.171163880487549 
717	 0.171725211428051 
718	 0.172288799699563 
719	 0.172870427388421 
720	 0.173397257764073 
721	 0.173855195438868 
722	 0.174363503367656 
723	 0.174914495706849 
724	 0.175451057086255 
725	 0.175912230365797 
726	 0.176327603398855 
727	 0.176737700207851 
728	 0.177158002933355 
729	 0.17757716541044 
730	 0.177967272733979 
731	 0.178343655010539 
732	 0.178704859387642 
733	 0.178983315132965 
734	 0.179262486887232 
735	 0.179552915920548 
736	 0.179827344038415 
737	 0.180035611711267 
738	 0.18022050124696 
739	 0.180404131222169 
740	 0.180576660802243 
741	 0.180717806912592 
742	 0.180822754222149 
743	 0.180894812776145 
744	 0.180943005191806 
745	 0.181003681790779 
746	 0.181040250902736 
747	 0.180997384284923 
748	 0.180962076109735 
749	 0.180889575431355 
750	 0.180778737699647 
751	 0.18069295388884 
752	 0.180587112201511 
753	 0.180459363010238 
754	 0.180306831809847 
755	 0.180087752794294 
756	 0.17989108775644 
757	 0.179692162786658 
758	 0.179422302394286 
759	 0.17916503173213 
760	 0.178889026151331 
761	 0.178594955053269 
762	 0.178334670553785 
763	 0.178024820298313 
764	 0.177706466629467 
765	 0.177416110959397 
766	 0.177090645148175 
767	 0.176729608499589 
768	 0.176345685388404 
769	 0.175963137436651 
770	 0.175626261647938 
771	 0.175262824933801 
772	 0.17485694984104 
773	 0.174471515783185 
774	 0.174104015656975 
775	 0.173728160658222 
776	 0.173322605185889 
777	 0.172892075208529 
778	 0.172481407600499 
779	 0.172096963536043 
780	 0.171717149723492 
781	 0.17128096458187 
782	 0.170884145941285 
783	 0.170525521439143 
784	 0.170095975878425 
785	 0.169672297001926 
786	 0.169271566162061 
787	 0.168883360599898 
788	 0.168452994456281 
789	 0.16808009225617 
790	 0.167724782577705 
791	 0.167312835929879 
792	 0.166894094421585 
793	 0.166495602208939 
794	 0.166130408692989 
795	 0.165795870299362 
796	 0.1654520662326 
797	 0.165065944085327 
798	 0.164648911976867 
799	 0.164284432054854 
800	 0.163952641515519 
801	 0.163620244436358 
802	 0.163266982393409 
803	 0.162949847238652 
804	 0.16260549362495 
805	 0.162241744203946 
806	 0.161910595070819 
807	 0.16160716137828 
808	 0.161312784312358 
809	 0.161009815176432 
810	 0.160685959198587 
811	 0.160411992082398 
812	 0.16013972360023 
813	 0.159831737353726 
814	 0.15955382667328 
815	 0.15930692805747 
816	 0.159076158115058 
817	 0.158838990827363 
818	 0.158585629702945 
819	 0.158331404211945 
820	 0.158089127178564 
821	 0.157864822031066 
822	 0.157629541561358 
823	 0.157402430280775 
824	 0.157194091947753 
825	 0.156988693082339 
826	 0.156807025760517 
827	 0.156628605967452 
828	 0.156430958050754 
829	 0.156214906821165 
830	 0.15604678407741 
831	 0.155905439000711 
832	 0.155734345411997 
833	 0.155562619082257 
834	 0.155386581808179 
835	 0.155232402516102 
836	 0.155142745681003 
837	 0.154975663537094 
838	 0.154824287734673 
839	 0.154733690781086 
840	 0.154600566210477 
841	 0.154502645264117 
842	 0.154400672251607 
843	 0.154268358768879 
844	 0.154219747102301 
845	 0.154203086579915 
846	 0.154146161955418 
847	 0.154003396439737 
848	 0.153919567790427 
849	 0.15387078737224 
850	 0.153838674312693 
851	 0.153813760325979 
852	 0.153735513815675 
853	 0.153668081116466 
854	 0.153652020836977 
855	 0.153665486584477 
856	 0.153648454324412 
857	 0.153609017138005 
858	 0.15358173854616 
859	 0.153622942354234 
860	 0.153646452858114 
861	 0.153650675579563 
862	 0.153665737072405 
863	 0.153709943782027 
864	 0.15375490714338 
865	 0.1537814541445 
866	 0.153787181870946 
867	 0.153822466108387 
868	 0.153888704770266 
869	 0.153953008229129 
870	 0.153965222597696 
871	 0.154045214558367 
872	 0.154155117999174 
873	 0.154259561885696 
874	 0.154371733857784 
875	 0.154510436330178 
876	 0.154610568015969 
877	 0.154644867562809 
878	 0.15472749261472 
879	 0.154904650872706 
880	 0.15509233293228 
881	 0.155191684875297 
882	 0.155256427507082 
883	 0.15541504451845 
884	 0.155617891371845 
885	 0.155741985556579 
886	 0.155900363208837 
887	 0.156086546259432 
888	 0.156284108842505 
889	 0.156473068439002 
890	 0.156619245008159 
891	 0.156757122461353 
892	 0.1569461054655 
893	 0.157249255264676 
894	 0.157484385453933 
895	 0.157643363832276 
896	 0.157789491441651 
897	 0.158038770252498 
898	 0.158318790044992 
899	 0.158555084391987 
900	 0.158745554202538 
901	 0.15908464576217 
902	 0.159340430981977 
903	 0.159554396367233 
904	 0.159827904234428 
905	 0.16009513381809 
906	 0.16042456147176 
907	 0.160758385702135 
908	 0.161020904970759 
909	 0.161377055161629 
910	 0.161702934113245 
911	 0.161997223887513 
912	 0.162337331832001 
913	 0.162675766573903 
914	 0.163004986895863 
915	 0.163339154236272 
916	 0.163708183541916 
917	 0.164116545079003 
918	 0.16456708412053 
919	 0.165009863017166 
920	 0.165354487941519 
921	 0.165789695233015 
922	 0.166227466213796 
923	 0.166610477626126 
924	 0.167000036251175 
925	 0.167448143159937 
926	 0.167918266502073 
927	 0.16836550263297 
928	 0.168769686964976 
929	 0.169269935866356 
930	 0.169827253273134 
931	 0.170362023470775 
932	 0.170820324579432 
933	 0.171347304813733 
934	 0.171878017353618 
935	 0.172348489979244 
936	 0.172887959407686 
937	 0.173395794245316 
938	 0.173934835071655 
939	 0.174554829829481 
940	 0.175072435280482 
941	 0.175624428325655 
942	 0.176261512897667 
943	 0.17695117911134 
944	 0.177507263688932 
945	 0.178038479868314 
946	 0.178629232016627 
947	 0.179307758029457 
948	 0.179941904801122 
949	 0.180619026041086 
950	 0.181286675197507 
951	 0.181878906658119 
952	 0.182639829491196 
953	 0.183327952008401 
954	 0.183962324816777 
955	 0.18468974602425 
956	 0.185403124823761 
957	 0.186174640972614 
958	 0.186912767867891 
959	 0.187505092499688 
960	 0.188322688079939 
961	 0.189087350083635 
962	 0.189783275579135 
963	 0.190557656493775 
964	 0.191272210457879 
965	 0.192000896530283 
966	 0.192798848521782 
967	 0.193681454395136 
968	 0.194590830551324 
969	 0.195419458267709 
970	 0.196220864756658 
971	 0.19711781468867 
972	 0.197954493400274 
973	 0.198781623180092 
974	 0.199588270100277 
975	 0.200356142371268 
976	 0.20131854025075 
977	 0.202283424533193 
978	 0.203202119143364 
979	 0.204117376267388 
980	 0.204870020740516 
981	 0.205753134216536 
982	 0.206797857650204 
983	 0.207834948027067 
984	 0.208718778918279 
985	 0.209603216872969 
986	 0.210529789441584 
987	 0.211462626536952 
988	 0.212405399567639 
989	 0.21337648335307 
990	 0.214322651740111 
991	 0.215199564922637 
992	 0.216158791210005 
993	 0.217169659563726 
994	 0.218153270473167 
995	 0.219059569798056 
996	 0.220022159319457 
997	 0.221030746945492 
998	 0.222028275575103 
999	 0.222983657647787 
1000	 0.224019193334583 
1001	 0.227502398200615 
1002	 0.228463474927481 
1003	 0.22942388543268 
1004	 0.230412781273356 
1005	 0.231491986162421 
1006	 0.232454684235195 
1007	 0.233370938860776 
1008	 0.234309366253541 
1009	 0.235177630689437 
1010	 0.236040462095426 
1011	 0.23698390582842 
1012	 0.237922706006119 
1013	 0.238785059577019 
1014	 0.239702878051469 
1015	 0.240635681188909 
1016	 0.241507366697251 
1017	 0.242390891439194 
1018	 0.243304723608209 
1019	 0.244194607950493 
1020	 0.245034359173572 
1021	 0.245912209377157 
1022	 0.246831479501962 
1023	 0.247675280740015 
1024	 0.248506651196632 
1025	 0.249345712447401 
1026	 0.250090632796543 
1027	 0.250881087967426 
1028	 0.251742114723572 
1029	 0.252547870927703 
1030	 0.253372312861353 
1031	 0.254189791628214 
1032	 0.25502924141907 
1033	 0.255762891721495 
1034	 0.256536532967904 
1035	 0.257365124121236 
1036	 0.258151184620405 
1037	 0.25898511294209 
1038	 0.259823340793142 
1039	 0.260605424472828 
1040	 0.26139194069192 
1041	 0.262162803295232 
1042	 0.262890877119872 
1043	 0.263653784554578 
1044	 0.264460080637898 
1045	 0.2653040456028 
1046	 0.266150798823339 
1047	 0.266987008092521 
1048	 0.267815305619297 
1049	 0.26859372822499 
1050	 0.269344032853855 
1051	 0.270159350337272 
1052	 0.270962807685776 
1053	 0.27174256371577 
1054	 0.272546426726523 
1055	 0.273305332327115 
1056	 0.274063357871049 
1057	 0.274806803478409 
1058	 0.275517241643402 
1059	 0.27623102158857 
1060	 0.276954003252692 
1061	 0.277644571665104 
1062	 0.278285305664765 
1063	 0.278968479135261 
1064	 0.279641639075035 
1065	 0.280305730924322 
1066	 0.281030285649221 
1067	 0.281772903682268 
1068	 0.2824940557205 
1069	 0.283161259430014 
1070	 0.283821456895707 
1071	 0.284446971878715 
1072	 0.285078218892725 
1073	 0.285682557388471 
1074	 0.286322617282521 
1075	 0.286993129444942 
1076	 0.28759244138351 
1077	 0.288202679644226 
1078	 0.288844522313896 
1079	 0.289433670695171 
1080	 0.290012730658964 
1081	 0.290631408905449 
1082	 0.29125190733901 
1083	 0.29187219815274 
1084	 0.292512436358797 
1085	 0.29312610033773 
1086	 0.2936913443923 
1087	 0.294323229361964 
1088	 0.29497052430138 
1089	 0.295633876481777 
1090	 0.296296108728228 
1091	 0.29698623236006 
1092	 0.297610143384656 
1093	 0.298193489726926 
1094	 0.29888385537238 
1095	 0.299542256472088 
1096	 0.300198022324848 
1097	 0.300931636978891 
1098	 0.3016224206222 
1099	 0.302275693137712 
1100	 0.302974711219391 
1101	 0.303678803336924 
1102	 0.304406400867176 
1103	 0.305178281651088 
1104	 0.305926836243431 
1105	 0.306660527775619 
1106	 0.307426231750674 
1107	 0.308166049385133 
1108	 0.308931213214148 
1109	 0.309720264459923 
1110	 0.310514339467978 
1111	 0.31132298707287 
1112	 0.312137923938811 
1113	 0.312964731138457 
1114	 0.313809966295071 
1115	 0.314665670652272 
1116	 0.315538618447319 
1117	 0.316416681033192 
1118	 0.317332593190704 
1119	 0.318186949689601 
1120	 0.319044636064199 
1121	 0.319927335749096 
1122	 0.320782870676811 
1123	 0.321653620611462 
1124	 0.322538787635261 
1125	 0.323437897625441 
1126	 0.324320888457792 
1127	 0.325192560933196 
1128	 0.326105358645622 
1129	 0.327042870921491 
1130	 0.327951093313192 
1131	 0.328868361341592 
1132	 0.329796633067153 
1133	 0.330706025621209 
1134	 0.331622594379869 
1135	 0.332576480944259 
1136	 0.333499093924449 
1137	 0.334418802674513 
1138	 0.335303275214103 
1139	 0.336198106858867 
1140	 0.33709935507523 
1141	 0.337994536692142 
1142	 0.338883171830075 
1143	 0.339760327169743 
1144	 0.340627235303822 
1145	 0.341488987783598 
1146	 0.342336943609188 
1147	 0.34319173552482 
1148	 0.34407015556135 
1149	 0.344912964380261 
1150	 0.345727536331959 
1151	 0.346552229554585 
1152	 0.347357213303727 
1153	 0.348145083779023 
1154	 0.348957466178503 
1155	 0.34979552999468 
1156	 0.350592823079378 
1157	 0.351379187037957 
1158	 0.352168453968697 
1159	 0.352945419923128 
1160	 0.353715355946254 
1161	 0.354494661164852 
1162	 0.355254944622838 
1163	 0.355995810237435 
1164	 0.356731893716586 
1165	 0.357460075621018 
1166	 0.358183424420736 
1167	 0.358908799425263 
1168	 0.359632197808886 
1169	 0.360342135463123 
1170	 0.361059912486584 
1171	 0.361745332145505 
1172	 0.362409028008453 
1173	 0.363066655930399 
1174	 0.363696604343073 
1175	 0.364345737697909 
1176	 0.365011326408831 
1177	 0.365646462513858 
1178	 0.366256170149554 
1179	 0.366893350933749 
1180	 0.367543661841928 
1181	 0.368163033995237 
1182	 0.368770328278762 
1183	 0.369412021368469 
1184	 0.370017912629068 
1185	 0.370592494659159 
1186	 0.371162950625351 
1187	 0.371739394673455 
1188	 0.37229107554432 
1189	 0.372815815479608 
1190	 0.373331256383555 
1191	 0.37382677561933 
1192	 0.374338023405256 
1193	 0.374837983589244 
1194	 0.375341451525749 
1195	 0.375869123182965 
1196	 0.376375075085862 
1197	 0.376855516812514 
1198	 0.37734659443903 
1199	 0.377838266655135 
1200	 0.378332458835632 
1201	 0.378815501980796 
1202	 0.379311555453104 
1203	 0.379767354840168 
1204	 0.380193879266824 
1205	 0.38062949410709 
1206	 0.381054826691759 
1207	 0.381467405763742 
1208	 0.381871866637609 
1209	 0.382279034695737 
1210	 0.38267635174529 
1211	 0.383066102115844 
1212	 0.383457944858284 
1213	 0.383846097893025 
1214	 0.384211169620381 
1215	 0.384589066463061 
1216	 0.384972763508508 
1217	 0.385379056415807 
1218	 0.385742547074708 
1219	 0.386100045028994 
1220	 0.386437604727436 
1221	 0.386739261362239 
1222	 0.387057429044504 
1223	 0.387365634149058 
1224	 0.387688851151733 
1225	 0.388028765146605 
1226	 0.388348288550754 
1227	 0.388670805109382 
1228	 0.388983188655901 
1229	 0.389277232286705 
1230	 0.389571529763214 
1231	 0.38986536219478 
1232	 0.390155510098965 
1233	 0.390441263584269 
1234	 0.39071702493149 
1235	 0.391001249214978 
1236	 0.391295312121518 
1237	 0.39156597645897 
1238	 0.391833881330106 
1239	 0.392087856115115 
1240	 0.392317965532128 
1241	 0.392558224562409 
1242	 0.392803562830633 
1243	 0.393032819629388 
1244	 0.393247478265765 
1245	 0.393470645950481 
1246	 0.39368779383965 
1247	 0.393906121708089 
1248	 0.394130266351532 
1249	 0.394356066385949 
1250	 0.394576491770348 
1251	 0.394792880570744 
1252	 0.39500788565698 
1253	 0.395230117233973 
1254	 0.395430951004043 
1255	 0.395630058265447 
1256	 0.395800919401128 
1257	 0.395938313688925 
1258	 0.396097361498459 
1259	 0.396241248447563 
1260	 0.396396666789971 
1261	 0.396566287391921 
1262	 0.39673468075978 
1263	 0.396904559462818 
1264	 0.397074112239078 
1265	 0.397248159030184 
1266	 0.397423172955765 
1267	 0.397607160151776 
1268	 0.397765291437923 
1269	 0.397941266178581 
1270	 0.39812340511321 
1271	 0.398308292657234 
1272	 0.398488561573832 
1273	 0.398691372116608 
1274	 0.398912720376665 
1275	 0.399121725835305 
1276	 0.399338937216358 
1277	 0.399556945316191 
1278	 0.399776512549627 
1279	 0.399986066259573 
1280	 0.400207448742028 
1281	 0.400402826371554 
1282	 0.400570171767609 
1283	 0.400741931603997 
1284	 0.400913164770947 
1285	 0.401073164267522 
1286	 0.401212656739405 
1287	 0.401329433977763 
1288	 0.401421993096159 
1289	 0.401479656809019 
1290	 0.401539029222037 
1291	 0.401596248953459 
1292	 0.401610625691682 
1293	 0.401593734224159 
1294	 0.40157026265271 
1295	 0.401516073729985 
1296	 0.401456767535654 
1297	 0.401409069163363 
1298	 0.40131282146363 
1299	 0.401175953635133 
1300	 0.401036540662746 
1301	 0.400856528459784 
1302	 0.400689275673491 
1303	 0.400522543638113 
1304	 0.400352530410127 
1305	 0.400176295098306 
1306	 0.400002877986725 
1307	 0.399820226688662 
1308	 0.399638383561056 
1309	 0.399471044500039 
1310	 0.39931399477209 
1311	 0.399151455841695 
1312	 0.398986581925287 
1313	 0.398841491655693 
1314	 0.398687333168264 
1315	 0.398570055678554 
1316	 0.398482866347809 
1317	 0.398407807772214 
1318	 0.398354233296007 
1319	 0.398306909177642 
1320	 0.398265834937453 
1321	 0.398254613961253 
1322	 0.398268353640609 
1323	 0.398280393395346 
1324	 0.398334071828653 
1325	 0.3983724183927 
1326	 0.398389820107397 
1327	 0.398445152748116 
1328	 0.398502949917093 
1329	 0.398578523947958 
1330	 0.398684765895429 
1331	 0.398821510118953 
1332	 0.398969722609915 
1333	 0.399147446461484 
1334	 0.399317122769471 
1335	 0.399494887390538 
1336	 0.399682091926564 
1337	 0.399879016285012 
1338	 0.400071327587746 
1339	 0.400268351138462 
1340	 0.400470521579121 
1341	 0.400662953016862 
1342	 0.400873051588631 
1343	 0.401096771822885 
1344	 0.401334043228796 
1345	 0.401559681533365 
1346	 0.401796560276092 
1347	 0.402036211450945 
1348	 0.402271720032143 
1349	 0.402511099063384 
1350	 0.402756000290724 
1351	 0.403008641727937 
1352	 0.40327400438421 
1353	 0.403516415887175 
1354	 0.403767621322229 
1355	 0.403987695319558 
1356	 0.404166899985325 
1357	 0.404378675206059 
1358	 0.404599315583298 
1359	 0.404810072188496 
1360	 0.405034206129235 
1361	 0.405237805235096 
1362	 0.405416653703908 
1363	 0.405604788305883 
1364	 0.405797734439269 
1365	 0.405978158034864 
1366	 0.406153985732689 
1367	 0.406327903635402 
1368	 0.406479482574508 
1369	 0.406622425794081 
1370	 0.406767073364871 
1371	 0.406894047947438 
1372	 0.407027908292338 
1373	 0.407156038874508 
1374	 0.407265189218075 
1375	 0.407373945213024 
1376	 0.407452024352946 
1377	 0.40751495939502 
1378	 0.407544513023387 
1379	 0.40755059711898 
1380	 0.407522203428384 
1381	 0.40745883703937 
1382	 0.407378997459906 
1383	 0.40728043212097 
1384	 0.407149511329582 
1385	 0.40701008606745 
1386	 0.40681327527917 
1387	 0.406558905034945 
1388	 0.406294625608647 
1389	 0.406005573963604 
1390	 0.405682460764273 
1391	 0.40532256265165 
1392	 0.404910221610805 
1393	 0.404430618635137 
1394	 0.403921201118547 
1395	 0.403399334896228 
1396	 0.40287355577037 
1397	 0.402311180596441 
1398	 0.401723198789671 
1399	 0.401120412554998 
1400	 0.400469609009331 
1401	 0.399855927731408 
1402	 0.39924853788255 
1403	 0.398640095253546 
1404	 0.398036752168176 
1405	 0.397444102731468 
1406	 0.396857078684139 
1407	 0.396262480202415 
1408	 0.395639554212732 
1409	 0.39508316391279 
1410	 0.394520938078852 
1411	 0.394032018550511 
1412	 0.393600418354456 
1413	 0.393230248963436 
1414	 0.392896866848491 
1415	 0.392605710080959 
1416	 0.39238991012036 
1417	 0.392198304713096 
1418	 0.39202150234813 
1419	 0.391870928965267 
1420	 0.391717557668035 
1421	 0.391572687175569 
1422	 0.391440219508164 
1423	 0.3912956278447 
1424	 0.391139759415093 
1425	 0.390968212077469 
1426	 0.390808297314295 
1427	 0.390636488632393 
1428	 0.390483595889565 
1429	 0.390345774659914 
1430	 0.390204935479311 
1431	 0.39006491838901 
1432	 0.389938193299654 
1433	 0.389821547513347 
1434	 0.38969745835189 
1435	 0.389581765075381 
1436	 0.38946210656162 
1437	 0.389321560769585 
1438	 0.389209151026061 
1439	 0.389105165620602 
1440	 0.389023929026238 
1441	 0.388951770552899 
1442	 0.388874112063558 
1443	 0.388796605182806 
1444	 0.388734233922842 
1445	 0.388688970177285 
1446	 0.388651784264568 
1447	 0.388629318511789 
1448	 0.388608156479074 
1449	 0.388588833295388 
1450	 0.388599306943036 
1451	 0.388619164700508 
1452	 0.38865574224023 
1453	 0.388704737357135 
1454	 0.388764022849236 
1455	 0.388840744635554 
1456	 0.388935838521188 
1457	 0.389037503200763 
1458	 0.389156020049021 
1459	 0.389281020251021 
1460	 0.389426307839527 
1461	 0.389556033487751 
1462	 0.389693338849383 
1463	 0.389814838498311 
1464	 0.389914967130284 
1465	 0.390028625900912 
1466	 0.390127681507774 
1467	 0.390254620387527 
1468	 0.390409291292497 
1469	 0.390551339257224 
1470	 0.390698048665406 
1471	 0.390855790930905 
1472	 0.391011118201926 
1473	 0.391154393184945 
1474	 0.391307906540193 
1475	 0.391468197120739 
1476	 0.391606757002448 
1477	 0.391740876998625 
1478	 0.391895310953865 
1479	 0.392043284058034 
1480	 0.392195040732052 
1481	 0.392368937164393 
1482	 0.392532437299242 
1483	 0.392692797094544 
1484	 0.392860131133845 
1485	 0.393033535727711 
1486	 0.393197353473338 
1487	 0.393357917878249 
1488	 0.393529920855191 
1489	 0.393698161976636 
1490	 0.393872006450662 
1491	 0.394067775818232 
1492	 0.394242101112742 
1493	 0.394405600000625 
1494	 0.394571763721627 
1495	 0.394730481085532 
1496	 0.394887967401592 
1497	 0.395052842214865 
1498	 0.395201128343133 
1499	 0.395337553162787 
1500	 0.395473470619992 
1501	 0.39559475181484 
1502	 0.395722192756477 
1503	 0.395851760836048 
1504	 0.395978540394665 
1505	 0.396112893681732 
1506	 0.396250666687837 
1507	 0.396397088393268 
1508	 0.396552896653269 
1509	 0.396697827902454 
1510	 0.396832408151176 
1511	 0.39696350827765 
1512	 0.397103674881495 
1513	 0.397250424077757 
1514	 0.397400241203493 
1515	 0.397553249727586 
1516	 0.397698335404164 
1517	 0.397835544802991 
1518	 0.397966407383587 
1519	 0.398100970045776 
1520	 0.398230340238233 
1521	 0.398354133481977 
1522	 0.398479487315568 
1523	 0.398598557225011 
1524	 0.398706246874695 
1525	 0.398819583708427 
1526	 0.398939364338608 
1527	 0.399044448272931 
1528	 0.399142308560356 
1529	 0.399238396017681 
1530	 0.399318734250362 
1531	 0.399418476683216 
1532	 0.399535054392432 
1533	 0.399628432430267 
1534	 0.399719773049469 
1535	 0.399804446097578 
1536	 0.399865454958734 
1537	 0.399942081237492 
1538	 0.40002992038576 
1539	 0.400111644064542 
1540	 0.400194473111987 
1541	 0.400271393168501 
1542	 0.400344573789148 
1543	 0.400415391968581 
1544	 0.400478099340696 
1545	 0.400548355699603 
1546	 0.400615461006493 
1547	 0.400685157944797 
1548	 0.400789911407239 
1549	 0.400901599484753 
1550	 0.401019729340703 
1551	 0.401146344039349 
1552	 0.401245265625811 
1553	 0.401316840475249 
1554	 0.401373186848304 
1555	 0.401421177766538 
1556	 0.401455180334907 
1557	 0.401489614849472 
1558	 0.401544063235865 
1559	 0.401604446851924 
1560	 0.401679983322292 
1561	 0.401779471663467 
1562	 0.401869890326657 
1563	 0.401966824214011 
1564	 0.402052721839377 
1565	 0.402139416613651 
1566	 0.402216282909528 
1567	 0.402286464544205 
1568	 0.402350671815059 
1569	 0.40240986880859 
1570	 0.402461300515796 
1571	 0.402496315437809 
1572	 0.402551051830104 
1573	 0.40260050782 
1574	 0.402667387125913 
1575	 0.402746514821695 
1576	 0.402836021271045 
1577	 0.40296637851161 
1578	 0.403041356458332 
1579	 0.403106800639741 
1580	 0.403151363897302 
1581	 0.403134825557305 
1582	 0.40315875596619 
1583	 0.403192307160598 
1584	 0.403230566641947 
1585	 0.403277847927495 
1586	 0.403333476641285 
1587	 0.403402158783744 
1588	 0.403465162005983 
1589	 0.40355098039004 
1590	 0.403599736258178 
1591	 0.403607078908738 
1592	 0.403649429625848 
1593	 0.403674962689494 
1594	 0.403732010730078 
1595	 0.403840494362314 
1596	 0.403924551295203 
1597	 0.404030107396123 
1598	 0.404099329943104 
1599	 0.404136932489636 
1600	 0.404177901600293 
1601	 0.404191876321888 
1602	 0.404213437617084 
1603	 0.404247317773913 
1604	 0.40426830232974 
1605	 0.404269412105896 
1606	 0.404287662369558 
1607	 0.404306274619153 
1608	 0.404335806780973 
1609	 0.404366761071963 
1610	 0.404393985966905 
1611	 0.404438002515081 
1612	 0.40447354742104 
1613	 0.404504543642148 
1614	 0.404565719579845 
1615	 0.404610642147237 
1616	 0.404630101245412 
1617	 0.404662295845628 
1618	 0.404683536227747 
1619	 0.404708556981037 
1620	 0.404739270300163 
1621	 0.404762025496918 
1622	 0.404795680023337 
1623	 0.404802345806997 
1624	 0.404787612301996 
1625	 0.404784256828309 
1626	 0.404767267900485 
1627	 0.404770735135045 
1628	 0.40478698780975 
1629	 0.404797377111709 
1630	 0.404812563426763 
1631	 0.404832047527638 
1632	 0.404847094685116 
1633	 0.404876226710611 
1634	 0.404928895407531 
1635	 0.404946556807713 
1636	 0.404953736470733 
1637	 0.404962753129498 
1638	 0.404949672500861 
1639	 0.40495643523718 
1640	 0.404980967340872 
1641	 0.404989298261602 
1642	 0.404988073599568 
1643	 0.404998022940319 
1644	 0.405011872594004 
1645	 0.40501703933448 
1646	 0.405026057116435 
1647	 0.405030309722913 
1648	 0.405018266978798 
1649	 0.40502390153495 
1650	 0.405035041097513 
1651	 0.405056202319194 
1652	 0.405090086293516 
1653	 0.405117628952218 
1654	 0.405161218303494 
1655	 0.405179125304297 
1656	 0.40518107474121 
1657	 0.405185513077937 
1658	 0.405170904049077 
1659	 0.405177153902352 
1660	 0.405198329331274 
1661	 0.405205668097305 
1662	 0.405222167449392 
1663	 0.405217941363245 
1664	 0.405196217199118 
1665	 0.405174775306585 
1666	 0.405131739961998 
1667	 0.405118452386197 
1668	 0.405116812893793 
1669	 0.405112612801566 
1670	 0.405117772701013 
1671	 0.405133531822563 
1672	 0.405153154989691 
1673	 0.405171601080569 
1674	 0.405219452785251 
1675	 0.405229529494976 
1676	 0.405211578353136 
1677	 0.405203075885436 
1678	 0.405176296265162 
1679	 0.405169040244001 
1680	 0.405182285234369 
1681	 0.405169826229288 
1682	 0.405138139482227 
1683	 0.4051374456784 
1684	 0.405141921651559 
1685	 0.405142499245222 
1686	 0.405168320929056 
1687	 0.405177077325847 
1688	 0.40516030146121 
1689	 0.405161285256768 
1690	 0.40517955436406 
1691	 0.405185861879608 
1692	 0.405180497316272 
1693	 0.405188681393236 
1694	 0.405209140715136 
1695	 0.40521391893295 
1696	 0.405221095306045 
1697	 0.405220780036942 
1698	 0.405192346250141 
1699	 0.405192295661748 
1700	 0.405227262547781 
1701	 0.405214615172917 
1702	 0.405191399804813 
1703	 0.405161860199584 
1704	 0.405084571038542 
1705	 0.405047540755935 
1706	 0.405027917881019 
1707	 0.405017286134527 
1708	 0.405031092643552 
1709	 0.405021061184411 
1710	 0.404996037317581 
1711	 0.405004499139546 
1712	 0.405019472227375 
1713	 0.405035463547278 
1714	 0.405096138983425 
1715	 0.405106952351316 
1716	 0.40507294539228 
1717	 0.405070264325912 
1718	 0.40506563474105 
1719	 0.40506140962463 
1720	 0.405098018506291 
1721	 0.40506040781026 
1722	 0.404972550058976 
1723	 0.404913772681349 
1724	 0.404819949843277 
1725	 0.404757837235043 
1726	 0.404735161480458 
1727	 0.404674750644349 
1728	 0.404589991712139 
1729	 0.404523022699613 
1730	 0.404451415897282 
1731	 0.404397076000703 
1732	 0.404360797800655 
1733	 0.404318371084154 
1734	 0.40427535398261 
1735	 0.404243515146088 
1736	 0.40422342094161 
1737	 0.404187080815074 
1738	 0.404152319049369 
1739	 0.404113206214558 
1740	 0.404062920409778 
1741	 0.404010773035765 
1742	 0.403963579195054 
1743	 0.403909257685166 
1744	 0.403838571588085 
1745	 0.40377496053581 
1746	 0.403710015045931 
1747	 0.403671413030872 
1748	 0.403638179588286 
1749	 0.403598578018624 
1750	 0.403532359055513 
1751	 0.403451157109851 
1752	 0.403402819945149 
1753	 0.403376653875143 
1754	 0.403352416456843 
1755	 0.403325394775604 
1756	 0.403266965360636 
1757	 0.40319607775041 
1758	 0.403155003890985 
1759	 0.403126504096154 
1760	 0.403086330087079 
1761	 0.403031817946691 
1762	 0.402987953191716 
1763	 0.402946596290231 
1764	 0.402896380679042 
1765	 0.402884429504243 
1766	 0.402873811392685 
1767	 0.402814176667105 
1768	 0.40276659171424 
1769	 0.402734508200844 
1770	 0.402687905497454 
1771	 0.402681689947099 
1772	 0.402692761003439 
1773	 0.402682646946751 
1774	 0.402674719053423 
1775	 0.402657140035933 
1776	 0.402628633586184 
1777	 0.402601400467811 
1778	 0.402554981361128 
1779	 0.402487231452821 
1780	 0.402450439517371 
1781	 0.402425178626766 
1782	 0.402423078433588 
1783	 0.402466579990615 
1784	 0.402467567320359 
1785	 0.402446533097059 
1786	 0.402439457524895 
1787	 0.40241230662346 
1788	 0.402410024079332 
1789	 0.402421432414862 
1790	 0.402456317751274 
1791	 0.40252124758876 
1792	 0.402574469581761 
1793	 0.402644477208513 
1794	 0.402703687097185 
1795	 0.402763586497535 
1796	 0.40279421283333 
1797	 0.40282138070308 
1798	 0.402821412251086 
1799	 0.402773298233913 
1800	 0.402734799913066 
1801	 0.402381590222144 
1802	 0.40237114052275 
1803	 0.402378010448842 
1804	 0.402398609243757 
1805	 0.402430506104304 
1806	 0.402452467342186 
1807	 0.402476129517591 
1808	 0.402519408251116 
1809	 0.402585903247974 
1810	 0.402619870555793 
1811	 0.402662350799878 
1812	 0.402694883676227 
1813	 0.402668217000991 
1814	 0.402655001739432 
1815	 0.40266056737164 
1816	 0.402671115538384 
1817	 0.402679969349856 
1818	 0.402704542121425 
1819	 0.402723915910335 
1820	 0.402747811988652 
1821	 0.402737379054222 
1822	 0.402751079481158 
1823	 0.402758098597842 
1824	 0.402738958858779 
1825	 0.402744740799495 
1826	 0.402741010770655 
1827	 0.402729429221566 
1828	 0.402717921681081 
1829	 0.402720900633897 
1830	 0.402687367138358 
1831	 0.402631059062858 
1832	 0.402572217542845 
1833	 0.402527229482766 
1834	 0.402463797478679 
1835	 0.402469506059945 
1836	 0.402510701024586 
1837	 0.402514918333635 
1838	 0.402534599992154 
1839	 0.402527862928272 
1840	 0.402507935511797 
1841	 0.402448686736126 
1842	 0.402397406337442 
1843	 0.402335257773747 
1844	 0.402268972455625 
1845	 0.402191076396517 
1846	 0.402099126451021 
1847	 0.402029867176338 
1848	 0.401933030766191 
1849	 0.401824315920125 
1850	 0.401723680442853 
1851	 0.401630316343614 
1852	 0.401504718332023 
1853	 0.401392501174652 
1854	 0.401284205903341 
1855	 0.401145557411789 
1856	 0.401010225231879 
1857	 0.400878323141819 
1858	 0.400712964736239 
1859	 0.400536649378023 
1860	 0.400335293744508 
1861	 0.40011421488301 
1862	 0.399843254610539 
1863	 0.39955353593257 
1864	 0.399244089217632 
1865	 0.398911479914269 
1866	 0.39854700071307 
1867	 0.398165304326359 
1868	 0.397771727343418 
1869	 0.397356410230895 
1870	 0.396918606372619 
1871	 0.396433652550656 
1872	 0.395921271710648 
1873	 0.395376457060062 
1874	 0.394772635316977 
1875	 0.394126669689873 
1876	 0.393475899003362 
1877	 0.392750280768692 
1878	 0.391916538254594 
1879	 0.391000478890215 
1880	 0.390016942999363 
1881	 0.388913261735775 
1882	 0.387789134904978 
1883	 0.386627772703225 
1884	 0.385399696462906 
1885	 0.384074400855043 
1886	 0.38264956461684 
1887	 0.381138992136488 
1888	 0.379548517496583 
1889	 0.377884095396829 
1890	 0.376155460768579 
1891	 0.374408272212976 
1892	 0.372595689975666 
1893	 0.370766733188665 
1894	 0.368904769627505 
1895	 0.367038719329297 
1896	 0.365111684777498 
1897	 0.363163175863562 
1898	 0.361206983111758 
1899	 0.359279637541206 
1900	 0.357398470168743 
1901	 0.355539510044166 
1902	 0.353744207662484 
1903	 0.352017065471822 
1904	 0.350313987038017 
1905	 0.348639573859482 
1906	 0.347054008369014 
1907	 0.345479975151612 
1908	 0.343945896634305 
1909	 0.342515388507616 
1910	 0.341118559345177 
1911	 0.339803941876968 
1912	 0.338600875687759 
1913	 0.337442779915346 
1914	 0.336337859316679 
1915	 0.335307528140657 
1916	 0.334351417332631 
1917	 0.333450257009693 
1918	 0.332611100335295 
1919	 0.33184206313004 
1920	 0.331126598574411 
1921	 0.33046579672377 
1922	 0.329845860237804 
1923	 0.329250490148575 
1924	 0.328716591753967 
1925	 0.328216947059207 
1926	 0.32779349795248 
1927	 0.327431368379577 
1928	 0.327131589616526 
1929	 0.326879974973578 
1930	 0.326653784935697 
1931	 0.326433278841566 
1932	 0.32626373801814 
1933	 0.326160181906186 
1934	 0.326075827857536 
1935	 0.326045274341364 
1936	 0.326074656232682 
1937	 0.326134852632597 
1938	 0.32620847631135 
1939	 0.326365169160627 
1940	 0.32659802236117 
1941	 0.326857393552841 
1942	 0.327142006990243 
1943	 0.327454525419488 
1944	 0.32777814949466 
1945	 0.328136905991802 
1946	 0.32851297690685 
1947	 0.328931991348019 
1948	 0.329358609697323 
1949	 0.329791725624342 
1950	 0.330252257133418 
1951	 0.330745727373216 
1952	 0.331254411575803 
1953	 0.331763309685141 
1954	 0.332256835473917 
1955	 0.332753627354062 
1956	 0.333246594952319 
1957	 0.333735156587841 
1958	 0.334223377833442 
1959	 0.334715387367 
1960	 0.335193106248676 
1961	 0.335687006839374 
1962	 0.336210404377946 
1963	 0.336705208589871 
1964	 0.337183896491451 
1965	 0.337681596875798 
1966	 0.338151832286354 
1967	 0.338611758316074 
1968	 0.339093026429177 
1969	 0.339582057068792 
1970	 0.340070058435216 
1971	 0.340577817550789 
1972	 0.34106811446927 
1973	 0.341538511127229 
1974	 0.342027655958096 
1975	 0.342519958358831 
1976	 0.343013240952847 
1977	 0.343523088791402 
1978	 0.344045753319953 
1979	 0.344555073971155 
1980	 0.345065591496144 
1981	 0.345584179378906 
1982	 0.34609985520051 
1983	 0.346626801836325 
1984	 0.347179561252768 
1985	 0.347707749393894 
1986	 0.348246475720885 
1987	 0.348756535768429 
1988	 0.349250310976553 
1989	 0.349715776444679 
1990	 0.350173576162205 
1991	 0.350634639218746 
1992	 0.35111658857783 
1993	 0.351607952827057 
1994	 0.352107914479914 
1995	 0.352626508672522 
1996	 0.353139426654369 
1997	 0.353666621503991 
1998	 0.354177916435494 
1999	 0.354689378928224 
2000	 0.355189594472896 
2001	 0.355676866706984 
2002	 0.356158927965448 
2003	 0.356633787631246 
2004	 0.357109108935196 
2005	 0.357578705301875 
2006	 0.358042984778343 
2007	 0.358501606055681 
2008	 0.358938726031934 
2009	 0.359408312570138 
2010	 0.359887442099504 
2011	 0.360371609794061 
2012	 0.360885191734396 
2013	 0.361383978653166 
2014	 0.361890605837718 
2015	 0.362371531848886 
2016	 0.362840534992928 
2017	 0.363320727938293 
2018	 0.363781496393342 
2019	 0.364224712391899 
2020	 0.364669464365643 
2021	 0.365104532121567 
2022	 0.365541449704682 
2023	 0.365978435575299 
2024	 0.366406815719268 
2025	 0.366825792045954 
2026	 0.367252384396871 
2027	 0.367685611785706 
2028	 0.36809907495997 
2029	 0.368516334096901 
2030	 0.368930738156113 
2031	 0.369360663892162 
2032	 0.369799371592912 
2033	 0.37022436256802 
2034	 0.370668317700619 
2035	 0.371081820677427 
2036	 0.371464369827198 
2037	 0.371848115281178 
2038	 0.372232116974286 
2039	 0.372600351223358 
2040	 0.37294585642878 
2041	 0.37329889642598 
2042	 0.373648491067663 
2043	 0.373992755689504 
2044	 0.374353890879052 
2045	 0.374734709420071 
2046	 0.375102343440009 
2047	 0.37547734125918 
2048	 0.375837187221258 
2049	 0.376196343524485 
2050	 0.376534426623324 
2051	 0.376856989145666 
2052	 0.377173034193653 
2053	 0.377463351237307 
2054	 0.377764028303386 
2055	 0.378056739163577 
2056	 0.378364392463896 
2057	 0.378663943661142 
2058	 0.378966588571742 
2059	 0.379264091675276 
2060	 0.379562990144325 
2061	 0.379847147180032 
2062	 0.380119571112286 
2063	 0.380398791823855 
2064	 0.380673136299825 
2065	 0.380944615175387 
2066	 0.381226706610992 
2067	 0.381493933512259 
2068	 0.381749457829687 
2069	 0.381994034263703 
2070	 0.382246380565361 
2071	 0.38248978725202 
2072	 0.382750598471022 
2073	 0.383030924375584 
2074	 0.383282088031382 
2075	 0.383524626411487 
2076	 0.383776437651498 
2077	 0.384008880144733 
2078	 0.384257575691493 
2079	 0.384539913735069 
2080	 0.384790526202139 
2081	 0.385018284819841 
2082	 0.385257254275019 
2083	 0.385481003604211 
2084	 0.385720810665098 
2085	 0.385961687692338 
2086	 0.386220389417121 
2087	 0.386452491554795 
2088	 0.386669759687003 
2089	 0.386902581669462 
2090	 0.387121048658136 
2091	 0.387363539383162 
2092	 0.387633304931795 
2093	 0.387887941752273 
2094	 0.388146202618876 
2095	 0.388401122346068 
2096	 0.388651291592819 
2097	 0.388902264088704 
2098	 0.389155921094137 
2099	 0.389406039831134 
2100	 0.389649781320764 
2101	 0.389891228900938 
2102	 0.390129145279255 
2103	 0.390346841976355 
2104	 0.390596801064798 
2105	 0.390850006400305 
2106	 0.391122208696387 
2107	 0.391427376178759 
2108	 0.391720689279401 
2109	 0.392023381816379 
2110	 0.392321679691486 
2111	 0.39262123200728 
2112	 0.392914447341166 
2113	 0.393205333857011 
2114	 0.393498613968799 
2115	 0.393769960589148 
2116	 0.394031666232184 
2117	 0.394281729792311 
2118	 0.394509761344786 
2119	 0.394748096006414 
2120	 0.394977215569698 
2121	 0.395217196577929 
2122	 0.395460122570757 
2123	 0.395704640903543 
2124	 0.395964878834338 
2125	 0.396205770592109 
2126	 0.396458598747061 
2127	 0.396679054131222 
2128	 0.396873065007867 
2129	 0.397056077071344 
2130	 0.397224705413826 
2131	 0.397360490942052 
2132	 0.397505649706022 
2133	 0.397659569842846 
2134	 0.397761415291634 
2135	 0.397848778662899 
2136	 0.397898542497222 
2137	 0.397886949615728 
2138	 0.397897492814684 
2139	 0.397896665343152 
2140	 0.397886983947382 
2141	 0.397868336910217 
2142	 0.397848755689876 
2143	 0.397808799139549 
2144	 0.397784608286556 
2145	 0.397794392392012 
2146	 0.397763987029063 
2147	 0.397726943949865 
2148	 0.397667621771398 
2149	 0.397586138128866 
2150	 0.397473935928292 
2151	 0.397342175502401 
2152	 0.397203360361207 
2153	 0.397018451319308 
2154	 0.396780690009798 
2155	 0.396554016122853 
2156	 0.396288790557553 
2157	 0.396049328710819 
2158	 0.395815009524225 
2159	 0.395582425053521 
2160	 0.395364014640377 
2161	 0.395132999246855 
2162	 0.394908600379292 
2163	 0.39466679083458 
2164	 0.394435467114263 
2165	 0.394155834611005 
2166	 0.393857107135038 
2167	 0.39353111509251 
2168	 0.393197675489222 
2169	 0.392828871168874 
2170	 0.392474363695913 
2171	 0.392113346268966 
2172	 0.391756499303477 
2173	 0.391388465609567 
2174	 0.391040539113694 
2175	 0.390718702742774 
2176	 0.390371040626859 
2177	 0.390015827101895 
2178	 0.389662048901129 
2179	 0.389290290299476 
2180	 0.388927484157054 
2181	 0.388583410805048 
2182	 0.388226968179093 
2183	 0.387878357880088 
2184	 0.387497740693129 
2185	 0.387114294894813 
2186	 0.386713228832105 
2187	 0.386327050123317 
2188	 0.385907930684819 
2189	 0.385560358510752 
2190	 0.385252343380611 
2191	 0.3849422858812 
2192	 0.3846749656966 
2193	 0.384393838286213 
2194	 0.38408529870364 
2195	 0.383829289340345 
2196	 0.383595487083208 
2197	 0.383387029291222 
2198	 0.383227266418954 
2199	 0.383065710004248 
2200	 0.382911902737883 
2201	 0.382783053697094 
2202	 0.382672987607093 
2203	 0.382558212545663 
2204	 0.382509519569935 
2205	 0.382509566664832 
2206	 0.382501169403247 
2207	 0.382525567754089 
2208	 0.382561312422364 
2209	 0.382579024163257 
2210	 0.382670485725289 
2211	 0.382821187918325 
2212	 0.382977876675064 
2213	 0.38319713751352 
2214	 0.38337595485328 
2215	 0.383580774432275 
2216	 0.383732340321647 
2217	 0.383857935799859 
2218	 0.383958026842387 
2219	 0.384006192827168 
2220	 0.384057779769008 
2221	 0.384088680751162 
2222	 0.384114164232031 
2223	 0.384134753203194 
2224	 0.384189450990568 
2225	 0.384229511008316 
2226	 0.38427612164698 
2227	 0.384313128871769 
2228	 0.384358796298491 
2229	 0.384366903729629 
2230	 0.384352453861709 
2231	 0.384339444279653 
2232	 0.384303081030627 
2233	 0.384271688216361 
2234	 0.384233779851333 
2235	 0.384209407034592 
2236	 0.384179909323568 
2237	 0.384158880731473 
2238	 0.384174134205597 
2239	 0.384154915158432 
2240	 0.384115448823321 
2241	 0.384076109679814 
2242	 0.384022586764472 
2243	 0.383962105840046 
2244	 0.383893365622886 
2245	 0.383828293435787 
2246	 0.383744908042992 
2247	 0.383693668547309 
2248	 0.38365939500602 
2249	 0.383645626198295 
2250	 0.383646520264742 
2251	 0.38367602357733 
2252	 0.38368634266071 
2253	 0.383721451842377 
2254	 0.383706955886014 
2255	 0.383668962092799 
2256	 0.383621298345602 
2257	 0.383539832627163 
2258	 0.383466057085135 
2259	 0.38337756497111 
2260	 0.383308199865134 
2261	 0.383220903699235 
2262	 0.383174558858347 
2263	 0.383171213630343 
2264	 0.383152558530757 
2265	 0.383157506858056 
2266	 0.383150175743452 
2267	 0.383145546683098 
2268	 0.383117306770695 
2269	 0.383077911518697 
2270	 0.383016665493459 
2271	 0.382977530509246 
2272	 0.38292938273718 
2273	 0.382890135550172 
2274	 0.38290382547272 
2275	 0.382904218336186 
2276	 0.382899792523909 
2277	 0.382910988677673 
2278	 0.382951175046193 
2279	 0.382965042311263 
2280	 0.382978557522879 
2281	 0.382981765959761 
2282	 0.382973008636478 
2283	 0.382958735447948 
2284	 0.382921725189089 
2285	 0.382913316451493 
2286	 0.382918272837417 
2287	 0.382913731942309 
2288	 0.382904036240872 
2289	 0.38292578317256 
2290	 0.382972708903507 
2291	 0.382992144735383 
2292	 0.38304344661852 
2293	 0.383057745968828 
2294	 0.383026959195702 
2295	 0.382990389955643 
2296	 0.382948458942521 
2297	 0.382883624090693 
2298	 0.382808739153677 
2299	 0.382720788441824 
2300	 0.382628120993299 
2301	 0.382592041089981 
2302	 0.382550662240009 
2303	 0.382496896183302 
2304	 0.382448323663132 
2305	 0.382363220208274 
2306	 0.382276158721927 
2307	 0.382180416236733 
2308	 0.382056368879763 
2309	 0.381898523560668 
2310	 0.381775311116602 
2311	 0.381654032155758 
2312	 0.381505770998515 
2313	 0.38134545045933 
2314	 0.381217720666115 
2315	 0.381077472590557 
2316	 0.380952202107823 
2317	 0.380888892481448 
2318	 0.380781274118635 
2319	 0.380636180096418 
2320	 0.380493817934327 
2321	 0.380367322075388 
2322	 0.380199994379378 
2323	 0.379971827426544 
2324	 0.379796405829895 
2325	 0.379622379265212 
2326	 0.379460819645268 
2327	 0.379333478701351 
2328	 0.379209439573293 
2329	 0.379079785185977 
2330	 0.378933982261798 
2331	 0.378812925382938 
2332	 0.3787024732528 
2333	 0.37853856882754 
2334	 0.378382911868864 
2335	 0.378191183823611 
2336	 0.377999153195275 
2337	 0.377891537811979 
2338	 0.377755611283135 
2339	 0.377586047834148 
2340	 0.377420989124385 
2341	 0.377214851498267 
2342	 0.37699327963671 
2343	 0.376792671773791 
2344	 0.376569146687036 
2345	 0.37633557317684 
2346	 0.376062894254289 
2347	 0.375816645833273 
2348	 0.375607551781665 
2349	 0.375333309495113 
2350	 0.375028641730678 
2351	 0.374717163455725 
2352	 0.374341737661262 
2353	 0.374023037935605 
2354	 0.37372130773476 
2355	 0.373451746933254 
2356	 0.373246476239321 
2357	 0.372950683260353 
2358	 0.372618270757324 
2359	 0.372317931845608 
2360	 0.371992786600553 
2361	 0.371664158211108 
2362	 0.3713553228055 
2363	 0.37104183191215 
2364	 0.370696122971863 
2365	 0.370365409178819 
2366	 0.370058718892034 
2367	 0.369755953957477 
2368	 0.369459480095213 
2369	 0.369142781481139 
2370	 0.368822883924248 
2371	 0.368542697767254 
2372	 0.368163175642076 
2373	 0.367667404978006 
2374	 0.367226892439571 
2375	 0.366810280417235 
2376	 0.366428865961618 
2377	 0.36609440828692 
2378	 0.365715498178723 
2379	 0.365280084080114 
2380	 0.364878106593997 
2381	 0.364581168478166 
2382	 0.364260896397276 
2383	 0.36386829857976 
2384	 0.363492381630329 
2385	 0.362957891328844 
2386	 0.362451574844986 
2387	 0.362091263695335 
2388	 0.361620883640669 
2389	 0.36125807530271 
2390	 0.36097750457327 
2391	 0.360626068906604 
2392	 0.360350272631592 
2393	 0.360039186561016 
2394	 0.359607482295995 
2395	 0.359186840097826 
2396	 0.358792607295078 
2397	 0.358412976778413 
2398	 0.358084413433234 
2399	 0.357710464343781 
2400	 0.357316691803044 
2401	 0.356920808672632 
2402	 0.356423489453175 
2403	 0.355924777363255 
2404	 0.355486472980323 
2405	 0.355004718063769 
2406	 0.354536902086767 
2407	 0.354215378315062 
2408	 0.353874998970196 
2409	 0.353525290908798 
2410	 0.35325069455607 
2411	 0.352851806707149 
2412	 0.352395368388194 
2413	 0.351874050873947 
2414	 0.351282191397466 
2415	 0.350784605029315 
2416	 0.35036120197912 
2417	 0.350037271196265 
2418	 0.349661433419364 
2419	 0.349368824413179 
2420	 0.348980881685278 
2421	 0.348496294842245 
2422	 0.34810877381315 
2423	 0.347725311810935 
2424	 0.347343694196336 
2425	 0.347038714717035 
2426	 0.346594540440913 
2427	 0.346082570602664 
2428	 0.345646184345116 
2429	 0.345113151871107 
2430	 0.344689445238642 
2431	 0.344420867760532 
2432	 0.343978821191271 
2433	 0.343515098206476 
2434	 0.343101414524267 
2435	 0.342560809737857 
2436	 0.342181921806336 
2437	 0.341961329023152 
2438	 0.34156084170977 
2439	 0.341124609177286 
2440	 0.340722512177205 
2441	 0.340238895485608 
2442	 0.339825158732851 
2443	 0.339511211372159 
2444	 0.339186170754564 
2445	 0.338846438673093 
2446	 0.338501380116984 
2447	 0.33823606231728 
2448	 0.337787070532588 
2449	 0.337175779855551 
2450	 0.336698729991615 
2451	 0.336228407483728 
2452	 0.335687195414333 
2453	 0.335122968493192 
2454	 0.334709326670479 
2455	 0.334347147522961 
2456	 0.333911702674405 
2457	 0.333542128231438 
2458	 0.333155733623845 
2459	 0.332630966726396 
2460	 0.3322067260353 
2461	 0.331961506294846 
2462	 0.331625190860313 
2463	 0.331201196691586 
2464	 0.330795320956883 
2465	 0.330404873810013 
2466	 0.330036650604319 
2467	 0.3296663464248 
2468	 0.329278487476098 
2469	 0.328889499404144 
2470	 0.328653349374797 
2471	 0.3283536019389 
2472	 0.328169785122427 
2473	 0.328001267159125 
2474	 0.327721469354972 
2475	 0.327293069905043 
2476	 0.326752458088669 
2477	 0.326238272362472 
2478	 0.325596967817674 
2479	 0.325125378582052 
2480	 0.324886806099835 
2481	 0.324546139380493 
2482	 0.324184422009711 
2483	 0.323879707787096 
2484	 0.323695087575745 
2485	 0.323456349292491 
2486	 0.323326660575886 
2487	 0.323241426820028 
2488	 0.322855940895505 
2489	 0.322552391656946 
2490	 0.322351421575105 
2491	 0.322113644436455 
2492	 0.321961725473737 
2493	 0.321855056582223 
2494	 0.321593844882482 
2495	 0.321215724748971 
2496	 0.320988529122944 
2497	 0.32074298181279 
2498	 0.320528290918558 
2499	 0.320334442265706 
2500	 0.320029484148852 
