Wavelength	MM500007.asd
350	 6.11407955062437E-02 
351	 6.24466344003685E-02 
352	 5.62773544524175E-02 
353	 4.71536388681645E-02 
354	 0.047118012680057 
355	 0.054248423680232 
356	 0.059341080460574 
357	 5.68666958692317E-02 
358	 6.16543816683473E-02 
359	 5.68483609369548E-02 
360	 4.78515215024077E-02 
361	 5.24562736786252E-02 
362	 5.40417980617379E-02 
363	 5.52180876275921E-02 
364	 5.78070985561628E-02 
365	 5.86862802124557E-02 
366	 5.95599574979619E-02 
367	 5.87195468511184E-02 
368	 5.55732753575146E-02 
369	 5.71913081568221E-02 
370	 5.69035674990759E-02 
371	 5.58002943020261E-02 
372	 0.059671249735049 
373	 6.19916730433567E-02 
374	 6.12900133178595E-02 
375	 5.91187235088786E-02 
376	 6.09333289588946E-02 
377	 0.059879458259436 
378	 6.02068936027597E-02 
379	 6.60404977771584E-02 
380	 0.067442453270127 
381	 6.41379930706083E-02 
382	 6.14099188390384E-02 
383	 0.066974001768261 
384	 6.72199831188051E-02 
385	 6.53854768497647E-02 
386	 6.52263524420689E-02 
387	 6.66473626394223E-02 
388	 6.81395372476928E-02 
389	 0.069072906893793 
390	 6.94680005351073E-02 
391	 7.07442982880886E-02 
392	 0.071041731055168 
393	 7.10743821119344E-02 
394	 7.34893939788128E-02 
395	 7.41772477598555E-02 
396	 7.41456219984614E-02 
397	 0.07471898670066 
398	 7.61142811700503E-02 
399	 7.70620862054799E-02 
400	 7.75950256545048E-02 
401	 0.078116197523228 
402	 7.79537424355503E-02 
403	 7.81003367707856E-02 
404	 7.87930280692549E-02 
405	 7.94182071384132E-02 
406	 7.94630955698436E-02 
407	 0.080203234749255 
408	 8.18296667904552E-02 
409	 8.08429641824116E-02 
410	 7.96841098268098E-02 
411	 7.95864734563494E-02 
412	 8.08324797851056E-02 
413	 8.18150664455035E-02 
414	 8.13384743434079E-02 
415	 0.0801842367489 
416	 8.15008074549621E-02 
417	 8.11787961779968E-02 
418	 8.09264381732726E-02 
419	 8.23828012165241E-02 
420	 0.082113645795478 
421	 8.11455701187491E-02 
422	 0.080615956401082 
423	 8.14211462363733E-02 
424	 8.16926302937873E-02 
425	 8.11480588511502E-02 
426	 8.02334302577621E-02 
427	 8.02507638764592E-02 
428	 8.03816995406229E-02 
429	 8.02407876699497E-02 
430	 7.97806336075927E-02 
431	 7.99362590654569E-02 
432	 8.00259988810527E-02 
433	 7.98668356665277E-02 
434	 7.98327614630526E-02 
435	 8.04766140221216E-02 
436	 8.10955150094392E-02 
437	 8.11477577284254E-02 
438	 8.11176334104537E-02 
439	 8.12753096415557E-02 
440	 8.17227986990674E-02 
441	 8.23767898635084E-02 
442	 8.25653879932627E-02 
443	 0.082882839726438 
444	 8.34723932267523E-02 
445	 8.35977027480828E-02 
446	 8.41736119632423E-02 
447	 8.47160728413768E-02 
448	 8.46937715546098E-02 
449	 8.51302803058461E-02 
450	 8.56719077424245E-02 
451	 8.61155702713542E-02 
452	 8.64358136858311E-02 
453	 8.67788703400977E-02 
454	 8.70293161576727E-02 
455	 8.72052980230503E-02 
456	 8.78222477784106E-02 
457	 8.80792387274233E-02 
458	 0.088058000720889 
459	 8.82234464405573E-02 
460	 8.85875168955144E-02 
461	 8.87123088709505E-02 
462	 8.86152130714043E-02 
463	 8.89998748596897E-02 
464	 8.93002053339535E-02 
465	 8.95038465485365E-02 
466	 8.97282750380569E-02 
467	 8.99801717627766E-02 
468	 9.01964165406794E-02 
469	 9.03164223479918E-02 
470	 9.03047128148754E-02 
471	 9.04426407583383E-02 
472	 9.05612095349574E-02 
473	 9.05719745170336E-02 
474	 9.07699267056395E-02 
475	 9.09600129370048E-02 
476	 9.10495557439847E-02 
477	 9.10336345572487E-02 
478	 9.11928052067881E-02 
479	 9.13635923527448E-02 
480	 9.14287390895392E-02 
481	 9.13829823813436E-02 
482	 9.15568290833421E-02 
483	 9.18764646804064E-02 
484	 9.21342276459997E-02 
485	 0.092112447962104 
486	 9.20980765639416E-02 
487	 0.09211581265502 
488	 9.19864393787459E-02 
489	 9.21138179612645E-02 
490	 9.23271957744546E-02 
491	 9.24224470600247E-02 
492	 9.23653718712518E-02 
493	 9.22430231489353E-02 
494	 9.22303677208283E-02 
495	 9.24790565073317E-02 
496	 9.26698792027286E-02 
497	 9.27175052213058E-02 
498	 9.26741557787099E-02 
499	 9.27573613182828E-02 
500	 0.092660549457931 
501	 9.25816473828072E-02 
502	 9.27622938646724E-02 
503	 9.29711633261616E-02 
504	 9.31235539975579E-02 
505	 9.32029006874493E-02 
506	 9.32489554428635E-02 
507	 9.32003441268745E-02 
508	 9.31780857469004E-02 
509	 9.32488222795698E-02 
510	 9.32523946224723E-02 
511	 0.093198107369598 
512	 9.31846012648309E-02 
513	 9.33258793571072E-02 
514	 9.33889682204293E-02 
515	 9.34556457328024E-02 
516	 9.35668310612549E-02 
517	 9.36403876866872E-02 
518	 9.35908063863247E-02 
519	 9.34861909148887E-02 
520	 9.34669066098775E-02 
521	 9.37509387476099E-02 
522	 9.39047801301685E-02 
523	 9.38420810430974E-02 
524	 0.093871838608099 
525	 9.39738306620155E-02 
526	 9.40614355087327E-02 
527	 9.40745224022947E-02 
528	 9.41049063911811E-02 
529	 9.40876857159315E-02 
530	 9.41112253471073E-02 
531	 9.43262522640212E-02 
532	 9.43546163145922E-02 
533	 0.094378212957518 
534	 9.45048221241436E-02 
535	 9.45073012465628E-02 
536	 0.094575843888106 
537	 9.46918113491425E-02 
538	 9.47746512748775E-02 
539	 9.49229026033591E-02 
540	 9.50193101736587E-02 
541	 9.50516747757506E-02 
542	 9.51663838386933E-02 
543	 9.52564826927918E-02 
544	 9.53369628495898E-02 
545	 9.54371217727414E-02 
546	 9.55080984076038E-02 
547	 9.55831188336084E-02 
548	 9.56930757458204E-02 
549	 9.58590315728478E-02 
550	 9.59858568760574E-02 
551	 9.61192106193337E-02 
552	 9.63024854060352E-02 
553	 9.65125205070031E-02 
554	 9.66605903209656E-02 
555	 9.67990218836119E-02 
556	 9.70394413804683E-02 
557	 9.72835811603115E-02 
558	 9.74715421581242E-02 
559	 9.76419493514518E-02 
560	 9.80130133789951E-02 
561	 9.82193852262075E-02 
562	 9.83598465214054E-02 
563	 9.86424267711864E-02 
564	 9.89035763583236E-02 
565	 9.91834826338503E-02 
566	 9.95063046326315E-02 
567	 9.98661373591147E-02 
568	 0.100269267764641 
569	 0.100701524321178 
570	 0.101142533180654 
571	 0.10156201656173 
572	 0.102056436278552 
573	 0.102585383006121 
574	 0.103020102499636 
575	 0.103440611098535 
576	 0.103886572570404 
577	 0.104359647522834 
578	 0.104776973425224 
579	 0.105312451301962 
580	 0.10594440610707 
581	 0.106580115508394 
582	 0.107295898465507 
583	 0.10802974264963 
584	 0.108744852746473 
585	 0.109458205391578 
586	 0.110159969615974 
587	 0.110820417390059 
588	 0.111425054081192 
589	 0.112035513774071 
590	 0.112721964054036 
591	 0.113473213112602 
592	 0.114207212835107 
593	 0.114909895318045 
594	 0.115647151424622 
595	 0.11645075789254 
596	 0.117221140639445 
597	 0.118006671035923 
598	 0.118801520557433 
599	 0.119580909523628 
600	 0.120406197775832 
601	 0.121167950996894 
602	 0.121814661452784 
603	 0.122426527053068 
604	 0.123069586730135 
605	 0.1237329764206 
606	 0.124381171320428 
607	 0.125042468636844 
608	 0.125661754302877 
609	 0.126243601283973 
610	 0.126864991035668 
611	 0.127488967974296 
612	 0.128084520768454 
613	 0.128633637811466 
614	 0.129175978761407 
615	 0.129619155949505 
616	 0.13001729311069 
617	 0.130508083619611 
618	 0.130923952599291 
619	 0.13129001619054 
620	 0.131656616589067 
621	 0.132068866815151 
622	 0.132437556061586 
623	 0.132764991793695 
624	 0.133090970329826 
625	 0.13342853085963 
626	 0.133740024996818 
627	 0.134022652278787 
628	 0.134324460373688 
629	 0.134627428641849 
630	 0.134921317526032 
631	 0.13519498930327 
632	 0.135421365234409 
633	 0.135670828264017 
634	 0.135945238584054 
635	 0.136191493110927 
636	 0.136451703388432 
637	 0.136716520304804 
638	 0.136966830965915 
639	 0.137176075541644 
640	 0.137414716310961 
641	 0.137696497118426 
642	 0.137998218442637 
643	 0.138260867587104 
644	 0.138484305097923 
645	 0.138692049509284 
646	 0.138929813673747 
647	 0.139203041925302 
648	 0.139461653904479 
649	 0.13967918322286 
650	 0.140007431081631 
651	 0.140317283833956 
652	 0.140565865214882 
653	 0.140799714159302 
654	 0.141144092077235 
655	 0.141468757950672 
656	 0.141696651425899 
657	 0.142001736707144 
658	 0.142325375762628 
659	 0.142645958099199 
660	 0.142957907233856 
661	 0.143274341342375 
662	 0.143580157637706 
663	 0.14389508258379 
664	 0.144294011480557 
665	 0.144667138740713 
666	 0.145023509915687 
667	 0.145396228000036 
668	 0.145762115318432 
669	 0.14610006165232 
670	 0.14645228883504 
671	 0.146900234777419 
672	 0.147292946346571 
673	 0.147684352047798 
674	 0.148124439257771 
675	 0.148567028077126 
676	 0.149025493834556 
677	 0.149469492883227 
678	 0.149863790329306 
679	 0.150264648779981 
680	 0.15071113187729 
681	 0.15120290371423 
682	 0.151692593059524 
683	 0.152172665434661 
684	 0.152649238409343 
685	 0.153138767610472 
686	 0.153674597111003 
687	 0.154214552338469 
688	 0.154743828660413 
689	 0.155270465897896 
690	 0.155817425654291 
691	 0.156328574774344 
692	 0.156812680938088 
693	 0.157438423122495 
694	 0.158028382399736 
695	 0.158575677150812 
696	 0.159133579973585 
697	 0.159713512408579 
698	 0.160316097716077 
699	 0.160925262337069 
700	 0.161509560326032 
701	 0.162095794175066 
702	 0.162691670680884 
703	 0.163300082492536 
704	 0.163928819727998 
705	 0.164539820685703 
706	 0.165141926402396 
707	 0.165764332162931 
708	 0.166385908344073 
709	 0.16698593834306 
710	 0.167571748727202 
711	 0.168194012950039 
712	 0.168753886267606 
713	 0.169321465950882 
714	 0.16996728025557 
715	 0.170577743788129 
716	 0.171141121409075 
717	 0.171690588446908 
718	 0.172282427370043 
719	 0.172863396389422 
720	 0.173379777696327 
721	 0.173838872848276 
722	 0.17436320337233 
723	 0.174893270664239 
724	 0.175412295249291 
725	 0.175903030813612 
726	 0.176279851234065 
727	 0.176669130248264 
728	 0.177113576286472 
729	 0.177564287110163 
730	 0.177965755374354 
731	 0.178336844420264 
732	 0.178688676846421 
733	 0.178967974412323 
734	 0.179268654381862 
735	 0.179570878512951 
736	 0.179815096954196 
737	 0.180020936377989 
738	 0.180209094894347 
739	 0.18038147885868 
740	 0.18051966583319 
741	 0.18066336642536 
742	 0.180786474357247 
743	 0.180867911530217 
744	 0.180941690073857 
745	 0.180978929066593 
746	 0.180980191419141 
747	 0.180962435824935 
748	 0.180951646739833 
749	 0.180884759841588 
750	 0.180766114976416 
751	 0.180688033453365 
752	 0.180580341543464 
753	 0.180436106424427 
754	 0.180266916017293 
755	 0.180094975243427 
756	 0.1798977371234 
757	 0.179675677806897 
758	 0.179439894753148 
759	 0.179183496232371 
760	 0.178901282608832 
761	 0.178610342806826 
762	 0.178353194552078 
763	 0.178052478652974 
764	 0.177731468291498 
765	 0.177416714485177 
766	 0.177067953311031 
767	 0.17672439521901 
768	 0.176370905702777 
769	 0.175976461478818 
770	 0.17560668280168 
771	 0.175252625057578 
772	 0.174884662914427 
773	 0.17446029396021 
774	 0.174085479952241 
775	 0.173722746627975 
776	 0.173324619898607 
777	 0.172906335137966 
778	 0.172501892388327 
779	 0.172116573363069 
780	 0.171731776286989 
781	 0.171281522490822 
782	 0.17087487668221 
783	 0.170515078172702 
784	 0.170086827912585 
785	 0.169678535519327 
786	 0.169275616817774 
787	 0.168861581950384 
788	 0.168460974478038 
789	 0.168073835531661 
790	 0.167684037335109 
791	 0.167275925197989 
792	 0.166874808695576 
793	 0.166475069047867 
794	 0.166100729263784 
795	 0.165790793827855 
796	 0.16541686172653 
797	 0.165012025365962 
798	 0.164619695632186 
799	 0.164248281486992 
800	 0.163920595112643 
801	 0.163593643770547 
802	 0.163234991396162 
803	 0.162940921927122 
804	 0.162612230430864 
805	 0.162259989857706 
806	 0.161955926522449 
807	 0.161622129040958 
808	 0.161301956098817 
809	 0.161007834023035 
810	 0.16069583560309 
811	 0.160410108211989 
812	 0.160114721820599 
813	 0.159799880951832 
814	 0.159581119517139 
815	 0.159321923843903 
816	 0.159047745927026 
817	 0.158828492504631 
818	 0.158579408957944 
819	 0.158329725462394 
820	 0.158087833294212 
821	 0.157842030878131 
822	 0.157619581865908 
823	 0.157415664762197 
824	 0.157215789839193 
825	 0.156998459047937 
826	 0.156815441153721 
827	 0.156628053962249 
828	 0.156401511911528 
829	 0.156189347427122 
830	 0.156011943826304 
831	 0.155872449131442 
832	 0.15575068604566 
833	 0.155563874611784 
834	 0.155381560423442 
835	 0.155243032099679 
836	 0.155139425133049 
837	 0.154971040520495 
838	 0.154821839124332 
839	 0.154735503421319 
840	 0.154634978282652 
841	 0.154541393892203 
842	 0.154436291346175 
843	 0.15431728664163 
844	 0.154260709702359 
845	 0.154215381217849 
846	 0.15414477751107 
847	 0.154033210846527 
848	 0.153925753226405 
849	 0.153859057969643 
850	 0.153829413934328 
851	 0.153798339646587 
852	 0.153746050839216 
853	 0.153694087118852 
854	 0.153668802144381 
855	 0.153690941206771 
856	 0.15365459694253 
857	 0.153609234189026 
858	 0.153606818173556 
859	 0.153604761704691 
860	 0.153612120780906 
861	 0.153627670621316 
862	 0.153651953725395 
863	 0.153705728340479 
864	 0.153766123012448 
865	 0.153792432589614 
866	 0.153759553339997 
867	 0.153806003037026 
868	 0.153871855129171 
869	 0.153928484668592 
870	 0.153997482477524 
871	 0.154062924847657 
872	 0.154130197658161 
873	 0.154223499475328 
874	 0.154388876341559 
875	 0.154509139356955 
876	 0.154591938432862 
877	 0.154670931004893 
878	 0.154746871604679 
879	 0.154908858628443 
880	 0.15508224512162 
881	 0.155172495496278 
882	 0.155260542089365 
883	 0.155421578951369 
884	 0.155613673627221 
885	 0.15574993041516 
886	 0.155916934960244 
887	 0.156102155196463 
888	 0.156289487756913 
889	 0.156467505663386 
890	 0.156647653856501 
891	 0.156785007215106 
892	 0.156926080875018 
893	 0.157219409203566 
894	 0.157434318090134 
895	 0.157591670869361 
896	 0.157771862612957 
897	 0.158063484051605 
898	 0.158329460062112 
899	 0.158574820515563 
900	 0.158832815540712 
901	 0.159109274274394 
902	 0.159305798988657 
903	 0.159530259528272 
904	 0.159884670215857 
905	 0.160169647108766 
906	 0.160444199564328 
907	 0.16073661233435 
908	 0.161052997607062 
909	 0.161370321399592 
910	 0.16170000634331 
911	 0.162023992429323 
912	 0.162317959485382 
913	 0.162650616153656 
914	 0.163012103781978 
915	 0.163374602208112 
916	 0.163712739142588 
917	 0.164094085206625 
918	 0.164542318562077 
919	 0.164999175243524 
920	 0.165341509705991 
921	 0.16577606627621 
922	 0.166187900932705 
923	 0.166542224917688 
924	 0.166994175427889 
925	 0.167429783140215 
926	 0.167899892200868 
927	 0.168401784878771 
928	 0.168777328674003 
929	 0.169264571513752 
930	 0.169836873844788 
931	 0.170386849320365 
932	 0.170792635325943 
933	 0.171314054190121 
934	 0.171896115521777 
935	 0.172422621574806 
936	 0.172893420885481 
937	 0.173382469343318 
938	 0.173916293648542 
939	 0.174495780595544 
940	 0.175118350002411 
941	 0.175649464331505 
942	 0.176196897623287 
943	 0.176884324004183 
944	 0.177492291720211 
945	 0.178070573362552 
946	 0.178686539158499 
947	 0.179367670833737 
948	 0.179940024581189 
949	 0.180585814264317 
950	 0.18128954874263 
951	 0.181950536390193 
952	 0.182638636630486 
953	 0.183219563328466 
954	 0.183825713455482 
955	 0.184654674946474 
956	 0.185393159317296 
957	 0.186149900062572 
958	 0.186890444520333 
959	 0.187531834619147 
960	 0.188296236301237 
961	 0.189044702584999 
962	 0.189801955499606 
963	 0.190658187604207 
964	 0.191351990717065 
965	 0.192101708988391 
966	 0.192918118208502 
967	 0.193683519912723 
968	 0.194544096868025 
969	 0.195374319986673 
970	 0.196212645986323 
971	 0.197156705907275 
972	 0.197905488888802 
973	 0.198659085141242 
974	 0.19950297161399 
975	 0.200414620862549 
976	 0.201412331745631 
977	 0.202397900909758 
978	 0.203305631353667 
979	 0.204125846588658 
980	 0.20495088017046 
981	 0.205813833004946 
982	 0.206763933518504 
983	 0.207811027813268 
984	 0.208739871935949 
985	 0.209616926022291 
986	 0.210489680432844 
987	 0.211391380864472 
988	 0.212399721596656 
989	 0.213328799267521 
990	 0.214228248785385 
991	 0.215227576874337 
992	 0.216189218750204 
993	 0.217112965368745 
994	 0.218090514932278 
995	 0.219172152538506 
996	 0.220106652026605 
997	 0.220953272780345 
998	 0.221842573029705 
999	 0.222879157789753 
1000	 0.223998612014214 
1001	 0.227532879451608 
1002	 0.228470281480759 
1003	 0.229470340849112 
1004	 0.230441739556284 
1005	 0.231402840864566 
1006	 0.232346849576122 
1007	 0.233294312568083 
1008	 0.234201610733364 
1009	 0.235078996800903 
1010	 0.235991888195086 
1011	 0.236883056028042 
1012	 0.237742282150021 
1013	 0.238672378031872 
1014	 0.239600570978596 
1015	 0.240515299441293 
1016	 0.241453509342004 
1017	 0.242380009976227 
1018	 0.243292186784132 
1019	 0.244154763346767 
1020	 0.245012474387163 
1021	 0.245883507416482 
1022	 0.246700077146947 
1023	 0.247502169460237 
1024	 0.248360098023687 
1025	 0.249239086361557 
1026	 0.250041381087402 
1027	 0.250846140509818 
1028	 0.251679529421697 
1029	 0.252446307104307 
1030	 0.253274770271639 
1031	 0.254112932329129 
1032	 0.254993604679681 
1033	 0.255814225741627 
1034	 0.256644385112555 
1035	 0.257421427115787 
1036	 0.258147507541307 
1037	 0.258930962039371 
1038	 0.259739572943249 
1039	 0.260505505789345 
1040	 0.261293211809445 
1041	 0.262092002232637 
1042	 0.262840290777149 
1043	 0.263646994501591 
1044	 0.264452806533135 
1045	 0.265298867897998 
1046	 0.26606100886728 
1047	 0.266832839389715 
1048	 0.267637793009862 
1049	 0.268409345442511 
1050	 0.269230320690727 
1051	 0.27008396182529 
1052	 0.27084536679862 
1053	 0.27162053627116 
1054	 0.272385486807665 
1055	 0.273072620406663 
1056	 0.273815729694003 
1057	 0.27457160004696 
1058	 0.275343811904687 
1059	 0.276075750956634 
1060	 0.276821599762147 
1061	 0.277544779538399 
1062	 0.278218740145363 
1063	 0.278894992991608 
1064	 0.279619671499237 
1065	 0.280340053185044 
1066	 0.281024348735325 
1067	 0.28170288429741 
1068	 0.282381633339974 
1069	 0.283054752634746 
1070	 0.283703855441588 
1071	 0.284332297370695 
1072	 0.284962737921206 
1073	 0.285565324556713 
1074	 0.286181204699559 
1075	 0.286781667190935 
1076	 0.287439211920328 
1077	 0.288111949581545 
1078	 0.288715230734639 
1079	 0.289287667573765 
1080	 0.289913496003082 
1081	 0.290550729182927 
1082	 0.291152195231591 
1083	 0.291776206390825 
1084	 0.292456731014153 
1085	 0.293079932990379 
1086	 0.293639284192914 
1087	 0.294264245232904 
1088	 0.294925220591642 
1089	 0.295535057624072 
1090	 0.296157271981434 
1091	 0.296855452624382 
1092	 0.297512213622488 
1093	 0.298139284523545 
1094	 0.298827051891164 
1095	 0.299472792477301 
1096	 0.300116282259636 
1097	 0.300840632942254 
1098	 0.301549794276464 
1099	 0.302278229740419 
1100	 0.302979818472913 
1101	 0.303666556806261 
1102	 0.304380786197831 
1103	 0.305080583363427 
1104	 0.305815443031817 
1105	 0.306586582433757 
1106	 0.307380798392679 
1107	 0.30818910148946 
1108	 0.308983351003475 
1109	 0.309778666620016 
1110	 0.310561500529298 
1111	 0.311354538838652 
1112	 0.312123226293561 
1113	 0.312936211260589 
1114	 0.313786221374237 
1115	 0.314631038629518 
1116	 0.315488162488069 
1117	 0.316350297885547 
1118	 0.317218157564414 
1119	 0.318076169768321 
1120	 0.318990393486323 
1121	 0.319885530793884 
1122	 0.32075153826351 
1123	 0.321652100427177 
1124	 0.322543460669662 
1125	 0.323412625880706 
1126	 0.324297442173094 
1127	 0.325185963997275 
1128	 0.326093686099592 
1129	 0.327005473444528 
1130	 0.327924738224373 
1131	 0.328892649747355 
1132	 0.329824133742153 
1133	 0.330729189086261 
1134	 0.331633623606818 
1135	 0.332529312168469 
1136	 0.333413147841049 
1137	 0.334317990605604 
1138	 0.335221939228338 
1139	 0.336119436246384 
1140	 0.337034087678877 
1141	 0.33791924940724 
1142	 0.338771948340391 
1143	 0.339652676919383 
1144	 0.340542514428935 
1145	 0.34140970946541 
1146	 0.342286809429564 
1147	 0.343144409593209 
1148	 0.343978496335696 
1149	 0.34480988073521 
1150	 0.345629933065808 
1151	 0.34645357793954 
1152	 0.347272263570464 
1153	 0.348083420533975 
1154	 0.348898562038796 
1155	 0.349727685992157 
1156	 0.350531103128342 
1157	 0.351330290797921 
1158	 0.352110214528694 
1159	 0.352867375585325 
1160	 0.353629253569929 
1161	 0.35437486741386 
1162	 0.355129597744229 
1163	 0.355911037003141 
1164	 0.356655511498788 
1165	 0.357368323824993 
1166	 0.358105204453669 
1167	 0.358835523058418 
1168	 0.359543879307751 
1169	 0.360246493087565 
1170	 0.360953661500816 
1171	 0.361649014156265 
1172	 0.362333750694039 
1173	 0.362998055838414 
1174	 0.363653935163668 
1175	 0.36430821088514 
1176	 0.364933279966218 
1177	 0.365571728246846 
1178	 0.366236376611261 
1179	 0.366874019944058 
1180	 0.367492989070652 
1181	 0.368110541989062 
1182	 0.368704352418682 
1183	 0.369319499220101 
1184	 0.369931590713142 
1185	 0.370564788970489 
1186	 0.37114629292181 
1187	 0.371710995569098 
1188	 0.372268130318551 
1189	 0.372796731763416 
1190	 0.373317926052206 
1191	 0.37383442617475 
1192	 0.374348400336615 
1193	 0.374836323654616 
1194	 0.375334464772321 
1195	 0.375839387243002 
1196	 0.376344456767014 
1197	 0.376856462226976 
1198	 0.377353352697541 
1199	 0.377844940059015 
1200	 0.378344361980267 
1201	 0.378817824194667 
1202	 0.37926901578475 
1203	 0.379723249521238 
1204	 0.380176980814762 
1205	 0.380609348073527 
1206	 0.381025188322758 
1207	 0.381442807770214 
1208	 0.381848866123406 
1209	 0.382250255722942 
1210	 0.382657551125854 
1211	 0.383047758688389 
1212	 0.383401962914689 
1213	 0.383784634569664 
1214	 0.384190492865342 
1215	 0.38457278386566 
1216	 0.384950922722548 
1217	 0.38534185044513 
1218	 0.385709645215006 
1219	 0.386053628816025 
1220	 0.386398109279978 
1221	 0.386749799776728 
1222	 0.387074860565762 
1223	 0.387361983064459 
1224	 0.38768057710088 
1225	 0.388007578370178 
1226	 0.388322962534786 
1227	 0.388655221767242 
1228	 0.388968506904601 
1229	 0.389249185828386 
1230	 0.389548729489424 
1231	 0.389873262622832 
1232	 0.390168525489772 
1233	 0.390453004485166 
1234	 0.390728955380352 
1235	 0.391010976929273 
1236	 0.391277053171752 
1237	 0.391546446071475 
1238	 0.391837096825742 
1239	 0.392099201624495 
1240	 0.392337337981464 
1241	 0.392577571453551 
1242	 0.392804900823178 
1243	 0.393041245482639 
1244	 0.393274962744194 
1245	 0.39351189641638 
1246	 0.39377069603826 
1247	 0.394003217264385 
1248	 0.394222267724882 
1249	 0.394438193716797 
1250	 0.394631134825806 
1251	 0.39481245385659 
1252	 0.395016840208766 
1253	 0.395237108826244 
1254	 0.395426489457574 
1255	 0.395624792322372 
1256	 0.395793282961002 
1257	 0.395917991752768 
1258	 0.396067087761167 
1259	 0.396201770251348 
1260	 0.396364454730549 
1261	 0.396549570694625 
1262	 0.396725050882478 
1263	 0.396918213392782 
1264	 0.39710284893109 
1265	 0.397271170913577 
1266	 0.397449886350752 
1267	 0.397644486821891 
1268	 0.397825277316377 
1269	 0.397999444996891 
1270	 0.398162960719042 
1271	 0.39835044244906 
1272	 0.398526847677955 
1273	 0.398738908758135 
1274	 0.39899178792947 
1275	 0.399220134841202 
1276	 0.399464229655411 
1277	 0.399684125824336 
1278	 0.399883118076927 
1279	 0.400091263918144 
1280	 0.400301623678908 
1281	 0.400494408604433 
1282	 0.40069691281451 
1283	 0.400868198706355 
1284	 0.401011521838836 
1285	 0.401140846700154 
1286	 0.4012656786964 
1287	 0.401382688159426 
1288	 0.401485907605731 
1289	 0.401593465485407 
1290	 0.401656317128199 
1291	 0.401689245646616 
1292	 0.401714540822871 
1293	 0.401716676128254 
1294	 0.401700482935914 
1295	 0.40168368894336 
1296	 0.40162047608945 
1297	 0.401516537081752 
1298	 0.401404205133774 
1299	 0.401253456498809 
1300	 0.401103847464718 
1301	 0.400940989990463 
1302	 0.400773019636549 
1303	 0.400587781031549 
1304	 0.400414796741415 
1305	 0.400242810682426 
1306	 0.400065164848739 
1307	 0.399898063480433 
1308	 0.399739405622251 
1309	 0.399570648255922 
1310	 0.399400963826198 
1311	 0.399231166918873 
1312	 0.399045723110301 
1313	 0.398888675263242 
1314	 0.398726666311325 
1315	 0.398602418713387 
1316	 0.398508473471339 
1317	 0.398426550488058 
1318	 0.398372793163428 
1319	 0.398323755190045 
1320	 0.39828327871993 
1321	 0.398257530738669 
1322	 0.398243512773204 
1323	 0.39823704348373 
1324	 0.398264881394615 
1325	 0.398313916242827 
1326	 0.398369597478277 
1327	 0.398446549515472 
1328	 0.398517996019564 
1329	 0.398587931102448 
1330	 0.398694607910597 
1331	 0.39881350075065 
1332	 0.398966197615097 
1333	 0.399171548187507 
1334	 0.39934176600141 
1335	 0.399508826661695 
1336	 0.399697185832077 
1337	 0.399886573734685 
1338	 0.400073901750986 
1339	 0.400276016028269 
1340	 0.40048229071215 
1341	 0.400673091517458 
1342	 0.400883817631344 
1343	 0.401120649689737 
1344	 0.401355619413487 
1345	 0.401580163074435 
1346	 0.401827406804804 
1347	 0.402038588458619 
1348	 0.402266043264609 
1349	 0.402524214858963 
1350	 0.402754885724489 
1351	 0.40300148217238 
1352	 0.403275640899045 
1353	 0.40352575268298 
1354	 0.403772059790145 
1355	 0.403996816228522 
1356	 0.404207748019651 
1357	 0.404421845804975 
1358	 0.404611495159235 
1359	 0.404819491315828 
1360	 0.405049794694926 
1361	 0.405258206412953 
1362	 0.405453084329411 
1363	 0.405653040978031 
1364	 0.405862769850539 
1365	 0.406044206784711 
1366	 0.406218428561289 
1367	 0.406381562783157 
1368	 0.40650063606354 
1369	 0.406624599695293 
1370	 0.406775516699398 
1371	 0.406918238577177 
1372	 0.407055157771838 
1373	 0.407179008109899 
1374	 0.407297109923527 
1375	 0.40741226078876 
1376	 0.407483789887802 
1377	 0.407549532831197 
1378	 0.40757638524244 
1379	 0.407552021269726 
1380	 0.407521686699965 
1381	 0.407483092134511 
1382	 0.407409885728184 
1383	 0.407306877531823 
1384	 0.407179665363279 
1385	 0.407054295883313 
1386	 0.406864022362991 
1387	 0.406624700341892 
1388	 0.406359459479863 
1389	 0.406066766112031 
1390	 0.405695910119715 
1391	 0.405314725828579 
1392	 0.404915501481283 
1393	 0.404440045227035 
1394	 0.40396365861574 
1395	 0.403442085960065 
1396	 0.40287769440567 
1397	 0.402313911894636 
1398	 0.401720491266073 
1399	 0.40112632801528 
1400	 0.400530432443251 
1401	 0.399915311568143 
1402	 0.399268790777582 
1403	 0.398659119737456 
1404	 0.398041120132689 
1405	 0.397447393014342 
1406	 0.396893303673293 
1407	 0.39631826267909 
1408	 0.395715894287174 
1409	 0.395163291242632 
1410	 0.394593031021765 
1411	 0.394104831972017 
1412	 0.393655922986333 
1413	 0.393288970041019 
1414	 0.39296694085844 
1415	 0.392676049751532 
1416	 0.39244551675941 
1417	 0.39222641108621 
1418	 0.39202926737652 
1419	 0.391882324794433 
1420	 0.391725727943773 
1421	 0.391568265455197 
1422	 0.391432921620714 
1423	 0.391276742284897 
1424	 0.391117419178736 
1425	 0.390945544226723 
1426	 0.390797759309884 
1427	 0.390647703159637 
1428	 0.390509343883895 
1429	 0.390401998036022 
1430	 0.390270522690196 
1431	 0.390127028907062 
1432	 0.389991609101077 
1433	 0.389847006810146 
1434	 0.389712904907071 
1435	 0.389588096940258 
1436	 0.389463846850673 
1437	 0.389326080141249 
1438	 0.389223750275733 
1439	 0.389145984040801 
1440	 0.389066247262729 
1441	 0.38898642398853 
1442	 0.388925908376403 
1443	 0.388837752059918 
1444	 0.388754449206095 
1445	 0.388728397000657 
1446	 0.38870018962352 
1447	 0.388685105736748 
1448	 0.388695888516136 
1449	 0.388688481982956 
1450	 0.388690410636683 
1451	 0.388713567255903 
1452	 0.388751241166865 
1453	 0.388799621479232 
1454	 0.388864019050023 
1455	 0.388940210687693 
1456	 0.389024910133039 
1457	 0.389120732153054 
1458	 0.389238184523485 
1459	 0.389352440725087 
1460	 0.389476360151223 
1461	 0.389601332781018 
1462	 0.38973088342933 
1463	 0.389857319889418 
1464	 0.389980171970648 
1465	 0.390110132019575 
1466	 0.390245990260096 
1467	 0.390382967684309 
1468	 0.390518921218328 
1469	 0.390662449071534 
1470	 0.39081534514372 
1471	 0.390957772461462 
1472	 0.391102204612965 
1473	 0.391266249468983 
1474	 0.391424458640433 
1475	 0.391572407778637 
1476	 0.391716016399049 
1477	 0.391862743267606 
1478	 0.391998442416846 
1479	 0.39213081179959 
1480	 0.392294502245171 
1481	 0.392460490784873 
1482	 0.392618481350084 
1483	 0.392783562019148 
1484	 0.392952739723044 
1485	 0.393109775028545 
1486	 0.393280565167215 
1487	 0.393477103005525 
1488	 0.393650043046224 
1489	 0.393806576508764 
1490	 0.393977605026037 
1491	 0.394153100985938 
1492	 0.394317744223325 
1493	 0.394488031148936 
1494	 0.39465230218867 
1495	 0.394802374179355 
1496	 0.394954156460687 
1497	 0.395112524209697 
1498	 0.395259740294184 
1499	 0.395390932357812 
1500	 0.395537107201079 
1501	 0.39569954384973 
1502	 0.395831602381893 
1503	 0.395946445052116 
1504	 0.39607349799158 
1505	 0.396188708321824 
1506	 0.396305357666313 
1507	 0.396465282558569 
1508	 0.396621973865531 
1509	 0.396763016219281 
1510	 0.396907303618214 
1511	 0.397047574533374 
1512	 0.397184271659804 
1513	 0.397328183654518 
1514	 0.397480902258533 
1515	 0.397618573444969 
1516	 0.39776780430361 
1517	 0.397909639866121 
1518	 0.39805113704552 
1519	 0.398177859467363 
1520	 0.39829916637168 
1521	 0.398406803178872 
1522	 0.398491832116386 
1523	 0.398597541457892 
1524	 0.398703159014106 
1525	 0.398817069465858 
1526	 0.398949479258105 
1527	 0.399060507781735 
1528	 0.399167810475026 
1529	 0.399266091221634 
1530	 0.399349435996121 
1531	 0.399436610449666 
1532	 0.399522903411068 
1533	 0.399602867691137 
1534	 0.399665313168598 
1535	 0.399751788284212 
1536	 0.39985175780282 
1537	 0.399941562918945 
1538	 0.400048207562119 
1539	 0.40014130524593 
1540	 0.400223543991303 
1541	 0.40029757638042 
1542	 0.400357812095696 
1543	 0.400425460938737 
1544	 0.40047031750527 
1545	 0.40054176731382 
1546	 0.400628713120785 
1547	 0.40073377443595 
1548	 0.400847529177034 
1549	 0.400972343381675 
1550	 0.401095507941467 
1551	 0.401212133018733 
1552	 0.401302487022939 
1553	 0.401377328795755 
1554	 0.401439493290362 
1555	 0.401497267293219 
1556	 0.4015556734057 
1557	 0.40160455281903 
1558	 0.401643191649575 
1559	 0.401687564356066 
1560	 0.401763867370052 
1561	 0.401869233417728 
1562	 0.401951758995889 
1563	 0.402049611116345 
1564	 0.402130489826513 
1565	 0.402190942713521 
1566	 0.402257281122119 
1567	 0.40233438773756 
1568	 0.402394714274991 
1569	 0.402439508560046 
1570	 0.402485870856901 
1571	 0.402521181976411 
1572	 0.402572442956068 
1573	 0.402616716276006 
1574	 0.40268604871197 
1575	 0.40278107684329 
1576	 0.402865651130857 
1577	 0.402971328258717 
1578	 0.403049842589549 
1579	 0.40311624999576 
1580	 0.403171479625212 
1581	 0.403208259722991 
1582	 0.403246820665262 
1583	 0.403265190798576 
1584	 0.403310082231564 
1585	 0.403366384026249 
1586	 0.403422493742645 
1587	 0.403504322395852 
1588	 0.403559466166865 
1589	 0.403594039652878 
1590	 0.403636951971569 
1591	 0.403673641294758 
1592	 0.403713941676219 
1593	 0.403747537822021 
1594	 0.403803046432924 
1595	 0.403863012754738 
1596	 0.40393430520034 
1597	 0.404056618743571 
1598	 0.404133426179342 
1599	 0.404193924446223 
1600	 0.404243548221728 
1601	 0.404264567639358 
1602	 0.404278434170723 
1603	 0.404264585541996 
1604	 0.404278225089648 
1605	 0.404299590299659 
1606	 0.404317566875143 
1607	 0.40434897881986 
1608	 0.404388940330024 
1609	 0.404411492190885 
1610	 0.404421395248945 
1611	 0.40447045248038 
1612	 0.404522293371051 
1613	 0.404566073678874 
1614	 0.404639736841002 
1615	 0.404689656694974 
1616	 0.404719356804498 
1617	 0.404739838727974 
1618	 0.404758851464465 
1619	 0.404786868574581 
1620	 0.404802579632508 
1621	 0.404826248618774 
1622	 0.404872826034392 
1623	 0.404860598152542 
1624	 0.404815557253049 
1625	 0.404799079047258 
1626	 0.404750845863864 
1627	 0.404748536683402 
1628	 0.40478429713949 
1629	 0.404806728283914 
1630	 0.404832468852378 
1631	 0.404867459397723 
1632	 0.404923349341468 
1633	 0.404943835796344 
1634	 0.404953462283263 
1635	 0.404966990704902 
1636	 0.40496277234043 
1637	 0.404963235578295 
1638	 0.404970935875984 
1639	 0.40497481861712 
1640	 0.404959821635886 
1641	 0.404974037435219 
1642	 0.405012098203042 
1643	 0.405034637473256 
1644	 0.405065305293313 
1645	 0.405081563085314 
1646	 0.405086916468425 
1647	 0.4050914944028 
1648	 0.405085726489113 
1649	 0.405092963401108 
1650	 0.405102933150417 
1651	 0.40511196572198 
1652	 0.405132200393135 
1653	 0.405138662919932 
1654	 0.405129520318733 
1655	 0.405138356305671 
1656	 0.405153175352001 
1657	 0.405164157070835 
1658	 0.405179947991436 
1659	 0.405199228057429 
1660	 0.405224966837918 
1661	 0.405230885369815 
1662	 0.405246996422955 
1663	 0.405229539902999 
1664	 0.40516276803413 
1665	 0.405137417879557 
1666	 0.405106744899818 
1667	 0.405100892467874 
1668	 0.405137533193532 
1669	 0.405139944461029 
1670	 0.405124388992148 
1671	 0.405137241119286 
1672	 0.405153669336645 
1673	 0.405168974518096 
1674	 0.405213141691762 
1675	 0.405231973893413 
1676	 0.405235413358066 
1677	 0.405229603217017 
1678	 0.405207245342858 
1679	 0.405201629347474 
1680	 0.405198087490486 
1681	 0.405180029274103 
1682	 0.40516158694731 
1683	 0.405150446374853 
1684	 0.405114737893379 
1685	 0.40511165967459 
1686	 0.405142957601801 
1687	 0.405159252965718 
1688	 0.405183085688639 
1689	 0.405196711106001 
1690	 0.405214016071768 
1691	 0.4052107197665 
1692	 0.405182786015174 
1693	 0.40517298094486 
1694	 0.405149133468336 
1695	 0.405152701804945 
1696	 0.405186569373398 
1697	 0.405204447848397 
1698	 0.405229018106188 
1699	 0.405242837676854 
1700	 0.405265768126307 
1701	 0.405244852421698 
1702	 0.405194691063719 
1703	 0.405152384236383 
1704	 0.405059739463312 
1705	 0.405028356283177 
1706	 0.405038098390164 
1707	 0.405032445816011 
1708	 0.405045377455398 
1709	 0.405051709234701 
1710	 0.40504749133614 
1711	 0.405056817624633 
1712	 0.405087389636183 
1713	 0.405093372979867 
1714	 0.405086861998355 
1715	 0.405090613067973 
1716	 0.405085229506925 
1717	 0.405085833531173 
1718	 0.405105720060562 
1719	 0.405098378559099 
1720	 0.405085911114007 
1721	 0.405051115033306 
1722	 0.404996629631767 
1723	 0.404940990670242 
1724	 0.40485573212598 
1725	 0.404796282615913 
1726	 0.404744083804097 
1727	 0.404692337260441 
1728	 0.404650699191416 
1729	 0.40460544892965 
1730	 0.40456016494315 
1731	 0.404518957875421 
1732	 0.404483077061967 
1733	 0.404437325149173 
1734	 0.404394196370283 
1735	 0.404340201731926 
1736	 0.404268434612222 
1737	 0.404220603914191 
1738	 0.404175296810705 
1739	 0.404125987519146 
1740	 0.404090244742796 
1741	 0.404050023090579 
1742	 0.404002297384618 
1743	 0.403965025884538 
1744	 0.403944510749498 
1745	 0.403877963820207 
1746	 0.403793853123475 
1747	 0.403709971787356 
1748	 0.403620429957258 
1749	 0.403591078748454 
1750	 0.403549204691894 
1751	 0.403474706733626 
1752	 0.403433643141795 
1753	 0.403380868143757 
1754	 0.403306667745885 
1755	 0.403267491569944 
1756	 0.403245071674351 
1757	 0.403191513650428 
1758	 0.403135031344131 
1759	 0.403104764230026 
1760	 0.403042188480513 
1761	 0.402981371113136 
1762	 0.402962094211881 
1763	 0.402929349863089 
1764	 0.402894202757587 
1765	 0.402859941856538 
1766	 0.402814138179515 
1767	 0.402748464930834 
1768	 0.40270052252373 
1769	 0.402693399465727 
1770	 0.402678444190203 
1771	 0.40269246855093 
1772	 0.402688893803277 
1773	 0.402655277341339 
1774	 0.402663346935238 
1775	 0.402642961489119 
1776	 0.402600080050393 
1777	 0.402602533578472 
1778	 0.402588365538332 
1779	 0.402552403038438 
1780	 0.402540132059993 
1781	 0.402500372919647 
1782	 0.4024707825753 
1783	 0.402512975129013 
1784	 0.402508343385035 
1785	 0.402505425968867 
1786	 0.402475611577916 
1787	 0.402365254111268 
1788	 0.402337812629736 
1789	 0.402342123175336 
1790	 0.402368896019233 
1791	 0.402458091671956 
1792	 0.402528402766901 
1793	 0.402607895916062 
1794	 0.402664749611066 
1795	 0.402738745128935 
1796	 0.402763440296553 
1797	 0.402736564994161 
1798	 0.402727333583871 
1799	 0.402693242373536 
1800	 0.402669164504905 
1801	 0.402322267472428 
1802	 0.402370516505119 
1803	 0.402409894599856 
1804	 0.402409707680849 
1805	 0.40244331936208 
1806	 0.402493281524106 
1807	 0.402513879007449 
1808	 0.402557093503731 
1809	 0.40264876466082 
1810	 0.402696371738642 
1811	 0.402731320499155 
1812	 0.402744214032231 
1813	 0.402761693660469 
1814	 0.402774503289259 
1815	 0.40274013008771 
1816	 0.402734634478933 
1817	 0.402720119373044 
1818	 0.402668012925834 
1819	 0.402667492017119 
1820	 0.402699165353032 
1821	 0.402717222559573 
1822	 0.402737053343981 
1823	 0.402757733440055 
1824	 0.402795332448757 
1825	 0.402837635832858 
1826	 0.402874307260349 
1827	 0.402890769793888 
1828	 0.402871456233655 
1829	 0.402786499801905 
1830	 0.402734347754676 
1831	 0.40266182089154 
1832	 0.402616467904424 
1833	 0.402612986375528 
1834	 0.402603624709814 
1835	 0.402602630959018 
1836	 0.402601615517824 
1837	 0.402593277658354 
1838	 0.402558523497219 
1839	 0.402531816350903 
1840	 0.402509979755481 
1841	 0.402489964203512 
1842	 0.402446772936184 
1843	 0.402420385051525 
1844	 0.402380608947788 
1845	 0.402313301461458 
1846	 0.402234634690402 
1847	 0.40213902517208 
1848	 0.402008955516561 
1849	 0.401880788366135 
1850	 0.401768151632059 
1851	 0.401660163810518 
1852	 0.401543494356667 
1853	 0.401451620620329 
1854	 0.401355063285838 
1855	 0.401236441367598 
1856	 0.40111091548766 
1857	 0.400972506564043 
1858	 0.400814208828681 
1859	 0.400638380274344 
1860	 0.400441565261783 
1861	 0.400226593246171 
1862	 0.399986350890208 
1863	 0.399719436921815 
1864	 0.399418453564064 
1865	 0.399090184803954 
1866	 0.39872400257931 
1867	 0.398338973675991 
1868	 0.397933366381833 
1869	 0.397519077122209 
1870	 0.397094600648572 
1871	 0.396608019376001 
1872	 0.396080928836768 
1873	 0.395531143258291 
1874	 0.394944983940009 
1875	 0.394297013546387 
1876	 0.3936228647361 
1877	 0.392906635674192 
1878	 0.392085069879946 
1879	 0.391175155538085 
1880	 0.390187320092495 
1881	 0.389092036115603 
1882	 0.387956994806172 
1883	 0.386761874671843 
1884	 0.385488821824416 
1885	 0.384142700126459 
1886	 0.382733130488282 
1887	 0.381201704296096 
1888	 0.379594468786195 
1889	 0.377931104154101 
1890	 0.376193344133488 
1891	 0.374435981732801 
1892	 0.372613990582336 
1893	 0.370781918522414 
1894	 0.368917374125747 
1895	 0.367040359752335 
1896	 0.365114767736623 
1897	 0.363204887951754 
1898	 0.361263915188101 
1899	 0.359326113902022 
1900	 0.357445881349263 
1901	 0.355587796161876 
1902	 0.353779735824813 
1903	 0.352019245589492 
1904	 0.350315645452978 
1905	 0.348657085024796 
1906	 0.347054916588624 
1907	 0.345492940558175 
1908	 0.343993273337283 
1909	 0.342545195359669 
1910	 0.34114089759677 
1911	 0.339848348219111 
1912	 0.338632122962376 
1913	 0.337467882652411 
1914	 0.3363726688884 
1915	 0.335340486300146 
1916	 0.334366054870138 
1917	 0.333448014630304 
1918	 0.332601769699282 
1919	 0.331819599097384 
1920	 0.331103534827418 
1921	 0.33045931603809 
1922	 0.32987079888084 
1923	 0.329315185109869 
1924	 0.328795183909293 
1925	 0.328293193981001 
1926	 0.32786478248196 
1927	 0.327483783415482 
1928	 0.327158184806906 
1929	 0.326884938142405 
1930	 0.326667932141862 
1931	 0.326477657397036 
1932	 0.326320119551732 
1933	 0.326222455889624 
1934	 0.326154999147128 
1935	 0.326125216398148 
1936	 0.326118954775136 
1937	 0.326183718279365 
1938	 0.326295394395365 
1939	 0.326456391174087 
1940	 0.326688558999469 
1941	 0.326956985207782 
1942	 0.32722413386469 
1943	 0.327516993354266 
1944	 0.327836883475209 
1945	 0.328178608260767 
1946	 0.328549080814744 
1947	 0.328954662893825 
1948	 0.329386009571499 
1949	 0.329848748179947 
1950	 0.330323092400216 
1951	 0.330836363151752 
1952	 0.33135398433523 
1953	 0.331857138892634 
1954	 0.332356412327419 
1955	 0.332830647011286 
1956	 0.333310547600214 
1957	 0.33380378523234 
1958	 0.334296271688388 
1959	 0.334796172478946 
1960	 0.335330957560738 
1961	 0.335823691799901 
1962	 0.336297389574625 
1963	 0.336777738477475 
1964	 0.337232200567137 
1965	 0.337699753257418 
1966	 0.338198985922486 
1967	 0.33869921172064 
1968	 0.339191280489623 
1969	 0.33968742589699 
1970	 0.340183170367858 
1971	 0.340674592066903 
1972	 0.341161411153834 
1973	 0.341659089732092 
1974	 0.342141641074453 
1975	 0.342602187688466 
1976	 0.343074980228 
1977	 0.343541143210485 
1978	 0.344030879738712 
1979	 0.344547084240476 
1980	 0.345066173419718 
1981	 0.345598136012607 
1982	 0.346166736779649 
1983	 0.346696486254902 
1984	 0.347222397089828 
1985	 0.347736694220895 
1986	 0.348232116178928 
1987	 0.348723906237381 
1988	 0.34920876100886 
1989	 0.349687296878053 
1990	 0.350143329448001 
1991	 0.350629703647641 
1992	 0.351135785150892 
1993	 0.351668496380494 
1994	 0.352184403616749 
1995	 0.352717789754949 
1996	 0.353232722929992 
1997	 0.353733110000077 
1998	 0.354238129894136 
1999	 0.354753101328589 
2000	 0.355254683798171 
2001	 0.355756055563842 
2002	 0.356228579125229 
2003	 0.356704298343676 
2004	 0.357180881329214 
2005	 0.357650997887231 
2006	 0.358116793955643 
2007	 0.358582816066351 
2008	 0.359032544108476 
2009	 0.359505723123875 
2010	 0.359991933847695 
2011	 0.360476002076909 
2012	 0.360978301411831 
2013	 0.361466456853917 
2014	 0.361954496359952 
2015	 0.362430050645956 
2016	 0.362885957257819 
2017	 0.363351273925966 
2018	 0.363811790071933 
2019	 0.364261973389099 
2020	 0.364716133711467 
2021	 0.365178058891313 
2022	 0.365631056204556 
2023	 0.366091786683416 
2024	 0.366526286412208 
2025	 0.366929120370048 
2026	 0.367351661289693 
2027	 0.367760191241005 
2028	 0.368181927814505 
2029	 0.368611689590174 
2030	 0.3690668040945 
2031	 0.369503316814393 
2032	 0.369932482949933 
2033	 0.370366762942719 
2034	 0.370823118136713 
2035	 0.371235048613558 
2036	 0.37162771708472 
2037	 0.372014243992309 
2038	 0.372363423517493 
2039	 0.372723172207809 
2040	 0.373083960920844 
2041	 0.373449422275744 
2042	 0.373784755355332 
2043	 0.374139523221125 
2044	 0.374496969061392 
2045	 0.374854580258881 
2046	 0.375219234073962 
2047	 0.375608588060569 
2048	 0.375966713455299 
2049	 0.37632444509312 
2050	 0.37665894852062 
2051	 0.376961789665065 
2052	 0.377272697068802 
2053	 0.377572202711679 
2054	 0.377871696814408 
2055	 0.378165144321015 
2056	 0.378469178981942 
2057	 0.378766647330453 
2058	 0.379063712776462 
2059	 0.379352801933548 
2060	 0.379637253332645 
2061	 0.379921855457255 
2062	 0.380194212947358 
2063	 0.38047577232129 
2064	 0.380778044851527 
2065	 0.381053253231829 
2066	 0.381311278827212 
2067	 0.381578553842216 
2068	 0.381841013262276 
2069	 0.382092489667955 
2070	 0.382342451253471 
2071	 0.382598355682872 
2072	 0.382846761513113 
2073	 0.383073034152049 
2074	 0.383323378474705 
2075	 0.383589410037627 
2076	 0.383847861253757 
2077	 0.384119617726987 
2078	 0.384372236011398 
2079	 0.384616529462131 
2080	 0.384854966079158 
2081	 0.385068641879814 
2082	 0.385300475759368 
2083	 0.385528923190231 
2084	 0.385779708771777 
2085	 0.386020089738417 
2086	 0.386263765282771 
2087	 0.386514246280992 
2088	 0.386774202077125 
2089	 0.387015566805635 
2090	 0.387259739853559 
2091	 0.387496791141902 
2092	 0.387699277231515 
2093	 0.387936137100522 
2094	 0.388198039831277 
2095	 0.388449174729316 
2096	 0.388715044847056 
2097	 0.388969163239182 
2098	 0.389204978568178 
2099	 0.389452948982082 
2100	 0.389700763408962 
2101	 0.389949448144477 
2102	 0.3901960444643 
2103	 0.390444121120199 
2104	 0.390692178480546 
2105	 0.390922440015864 
2106	 0.391187506384793 
2107	 0.391479719320352 
2108	 0.391760152116132 
2109	 0.392066898229508 
2110	 0.392349797265911 
2111	 0.392589099906031 
2112	 0.392867885552556 
2113	 0.393165640821814 
2114	 0.393464688192118 
2115	 0.393755419212515 
2116	 0.394080489179273 
2117	 0.394346182442455 
2118	 0.394562347007364 
2119	 0.394813420152084 
2120	 0.395055387993036 
2121	 0.395306191290039 
2122	 0.395584982395327 
2123	 0.395832732428923 
2124	 0.396069816400426 
2125	 0.396292790894788 
2126	 0.396497776936044 
2127	 0.396698277709055 
2128	 0.396889934151461 
2129	 0.397069708537174 
2130	 0.3972367678252 
2131	 0.397412097401941 
2132	 0.397540041279403 
2133	 0.397632752811521 
2134	 0.397741889425009 
2135	 0.397849970115535 
2136	 0.397906854233958 
2137	 0.397956526053407 
2138	 0.397975329953911 
2139	 0.397912790254468 
2140	 0.397895879443302 
2141	 0.397883993642509 
2142	 0.397879502012258 
2143	 0.397907906814895 
2144	 0.397896635496515 
2145	 0.397882661742768 
2146	 0.39784697349439 
2147	 0.397774665976473 
2148	 0.397697575058647 
2149	 0.397602841698611 
2150	 0.397500748556502 
2151	 0.397367665007428 
2152	 0.397214841355613 
2153	 0.397036593880048 
2154	 0.396822721665814 
2155	 0.396613216849291 
2156	 0.396376511507811 
2157	 0.396150776460937 
2158	 0.395923510244493 
2159	 0.395697714542054 
2160	 0.395483588975751 
2161	 0.395249175933127 
2162	 0.395029943124515 
2163	 0.394767769454582 
2164	 0.394475887177203 
2165	 0.394154301813085 
2166	 0.393839183277946 
2167	 0.393491820023002 
2168	 0.393166469718764 
2169	 0.392860242617171 
2170	 0.392522913420137 
2171	 0.392169552963265 
2172	 0.391818618847734 
2173	 0.391437144409878 
2174	 0.391093281103361 
2175	 0.390781980455148 
2176	 0.390442886626953 
2177	 0.390114348011078 
2178	 0.389765551670412 
2179	 0.389380155707815 
2180	 0.389013054291541 
2181	 0.38865436020239 
2182	 0.388289549205571 
2183	 0.387947328776312 
2184	 0.387562690855049 
2185	 0.387176799892222 
2186	 0.386776850108361 
2187	 0.3863748691952 
2188	 0.385929387299422 
2189	 0.385560749149894 
2190	 0.385217741207473 
2191	 0.384884102258429 
2192	 0.384593325285541 
2193	 0.384310309433607 
2194	 0.384017706790415 
2195	 0.383766033561792 
2196	 0.383547703938177 
2197	 0.383352605266551 
2198	 0.383190161557238 
2199	 0.383038813895485 
2200	 0.382918011564077 
2201	 0.382809675936116 
2202	 0.382707373481341 
2203	 0.38261958225024 
2204	 0.382577476946735 
2205	 0.382578250302688 
2206	 0.382559727197082 
2207	 0.3825557813651 
2208	 0.382582279671215 
2209	 0.382590145222596 
2210	 0.382677183616052 
2211	 0.38283952475483 
2212	 0.382989719364264 
2213	 0.383191550850447 
2214	 0.383363469557622 
2215	 0.383548720497228 
2216	 0.383702684352462 
2217	 0.383852133934299 
2218	 0.38396304643076 
2219	 0.384022608708441 
2220	 0.384099114125489 
2221	 0.384161037380749 
2222	 0.384221994151056 
2223	 0.384261988874729 
2224	 0.384303641795294 
2225	 0.384336369454232 
2226	 0.384338966908204 
2227	 0.384360002694634 
2228	 0.384413813056726 
2229	 0.384404473496935 
2230	 0.384368063086472 
2231	 0.384322009841984 
2232	 0.384210326252404 
2233	 0.384163713483227 
2234	 0.384132026252669 
2235	 0.384112838302756 
2236	 0.384150878691748 
2237	 0.384142398048033 
2238	 0.384108790039629 
2239	 0.384092471311938 
2240	 0.384077032958255 
2241	 0.384046178105267 
2242	 0.384011801607541 
2243	 0.383980469754736 
2244	 0.383941416034587 
2245	 0.383890209920592 
2246	 0.383841314631209 
2247	 0.383791913184503 
2248	 0.383743809948196 
2249	 0.383666564058273 
2250	 0.383650727369017 
2251	 0.383686879702501 
2252	 0.38366950583715 
2253	 0.383666428680077 
2254	 0.383626261972321 
2255	 0.383531356708149 
2256	 0.383473470515651 
2257	 0.383434614371334 
2258	 0.38336617644484 
2259	 0.383247555070912 
2260	 0.383204430589691 
2261	 0.383191008992805 
2262	 0.383175409873216 
2263	 0.383223491671489 
2264	 0.383245868194203 
2265	 0.383240887492453 
2266	 0.383240859928353 
2267	 0.38326723573561 
2268	 0.383262549051174 
2269	 0.383257068714321 
2270	 0.38319669279781 
2271	 0.383122763208823 
2272	 0.383044152861068 
2273	 0.382954975702346 
2274	 0.382945803511594 
2275	 0.382963495350857 
2276	 0.38304874357721 
2277	 0.383084122582964 
2278	 0.383154542951827 
2279	 0.383155476457726 
2280	 0.383111633427032 
2281	 0.383069855111048 
2282	 0.382976866857444 
2283	 0.382939246410044 
2284	 0.382902128343143 
2285	 0.382894475462344 
2286	 0.382935675809656 
2287	 0.382969859865326 
2288	 0.383027517410162 
2289	 0.383054329605983 
2290	 0.383082779764757 
2291	 0.383093455587291 
2292	 0.383073152078448 
2293	 0.383065568812024 
2294	 0.383070149638301 
2295	 0.383038615718042 
2296	 0.382998890881137 
2297	 0.382932426305063 
2298	 0.38282987994583 
2299	 0.382738971771899 
2300	 0.382613304011926 
2301	 0.382536839389205 
2302	 0.382490536129184 
2303	 0.382430613665707 
2304	 0.382389704170613 
2305	 0.382344927823365 
2306	 0.382276801671029 
2307	 0.382189410948329 
2308	 0.382087617859442 
2309	 0.381977951108387 
2310	 0.381832818176157 
2311	 0.381631949716847 
2312	 0.381475802594077 
2313	 0.381310813007304 
2314	 0.381170275960185 
2315	 0.381068610349313 
2316	 0.380948395216497 
2317	 0.38082350417846 
2318	 0.380707199867685 
2319	 0.380599522878185 
2320	 0.380473068176223 
2321	 0.380363873392089 
2322	 0.380214725420301 
2323	 0.380009341813849 
2324	 0.37985279767207 
2325	 0.379680652332618 
2326	 0.379541046932983 
2327	 0.379462401510513 
2328	 0.379341743976959 
2329	 0.379241851667432 
2330	 0.379129915972854 
2331	 0.378986295996824 
2332	 0.378893830863959 
2333	 0.37875464465554 
2334	 0.378574371516107 
2335	 0.378351851276618 
2336	 0.378144263976309 
2337	 0.378018044519688 
2338	 0.377838447068901 
2339	 0.377675842012352 
2340	 0.377509767798169 
2341	 0.377242291174026 
2342	 0.377021481492725 
2343	 0.376828584511493 
2344	 0.376595500406527 
2345	 0.376375002944504 
2346	 0.376177312722946 
2347	 0.375907688160613 
2348	 0.375604082743671 
2349	 0.375319299572401 
2350	 0.37497587684359 
2351	 0.374689982440524 
2352	 0.37446018739288 
2353	 0.374176580360179 
2354	 0.373868781512974 
2355	 0.373602078379011 
2356	 0.373346625302891 
2357	 0.373057711667339 
2358	 0.372781369348844 
2359	 0.372495679527459 
2360	 0.372184590911593 
2361	 0.371869647480208 
2362	 0.371578057994218 
2363	 0.371236250427476 
2364	 0.370828359850944 
2365	 0.370459441518845 
2366	 0.3700918338607 
2367	 0.369698155982315 
2368	 0.369290114097832 
2369	 0.368909573270754 
2370	 0.368498029866186 
2371	 0.368172146301607 
2372	 0.36782787064864 
2373	 0.36746225023024 
2374	 0.367078436158696 
2375	 0.366680661498099 
2376	 0.366284280247024 
2377	 0.36589559419337 
2378	 0.365445990403613 
2379	 0.364971443599088 
2380	 0.364673061148375 
2381	 0.364352337735841 
2382	 0.363994204683347 
2383	 0.363690799433156 
2384	 0.363282267654755 
2385	 0.362813933352101 
2386	 0.362373084531758 
2387	 0.361986957723984 
2388	 0.36157788587875 
2389	 0.361171121019516 
2390	 0.360780771647266 
2391	 0.360415935932871 
2392	 0.360101869271544 
2393	 0.359723884915036 
2394	 0.359405497872675 
2395	 0.359145552796686 
2396	 0.358775771115439 
2397	 0.358374521813023 
2398	 0.358019738061273 
2399	 0.357605941032639 
2400	 0.35718924170748 
2401	 0.356897921475169 
2402	 0.356614246322639 
2403	 0.35622295689233 
2404	 0.355812896258883 
2405	 0.355394322605864 
2406	 0.354836131396106 
2407	 0.354349858209577 
2408	 0.353979966917217 
2409	 0.353564875979527 
2410	 0.35324911099735 
2411	 0.352911453213722 
2412	 0.352490665411849 
2413	 0.352047803894131 
2414	 0.351515544072943 
2415	 0.350996165511231 
2416	 0.350539068787809 
2417	 0.350103225657191 
2418	 0.349708290619457 
2419	 0.349413936184403 
2420	 0.349030996775195 
2421	 0.348615400731636 
2422	 0.348170426872136 
2423	 0.347660674697243 
2424	 0.34722940260434 
2425	 0.346841148158142 
2426	 0.346477843563733 
2427	 0.346168511589619 
2428	 0.345783126614745 
2429	 0.345353795070954 
2430	 0.344887640025328 
2431	 0.344410356319548 
2432	 0.343928264781104 
2433	 0.343410494002338 
2434	 0.342916356725596 
2435	 0.342354145256089 
2436	 0.341943281314925 
2437	 0.341693671747449 
2438	 0.341340422121863 
2439	 0.34100476284901 
2440	 0.340606983104556 
2441	 0.340061838004658 
2442	 0.339638974065208 
2443	 0.339310347493357 
2444	 0.339018829697914 
2445	 0.338769277852179 
2446	 0.338470475130586 
2447	 0.338256128750617 
2448	 0.337913550901489 
2449	 0.337506821738852 
2450	 0.337019909614055 
2451	 0.336391957038406 
2452	 0.335747849463883 
2453	 0.335022422932112 
2454	 0.334441687325995 
2455	 0.333881411362429 
2456	 0.33338603717117 
2457	 0.332992889281948 
2458	 0.332593875222275 
2459	 0.332209486943353 
2460	 0.331858435928603 
2461	 0.331512656574392 
2462	 0.331138383694825 
2463	 0.3308527430485 
2464	 0.330508453674688 
2465	 0.330140190652272 
2466	 0.329749099296435 
2467	 0.329310159307784 
2468	 0.32889604128152 
2469	 0.32839543768956 
2470	 0.328086514963379 
2471	 0.327782071039009 
2472	 0.327406562566922 
2473	 0.32718131132211 
2474	 0.327107054090557 
2475	 0.326796742094039 
2476	 0.326280989401834 
2477	 0.325857173881248 
2478	 0.325368598677685 
2479	 0.325039286085233 
2480	 0.324924110879049 
2481	 0.324664226800385 
2482	 0.324426054001766 
2483	 0.324093108024814 
2484	 0.323759492249013 
2485	 0.323549259796669 
2486	 0.323178625086671 
2487	 0.322898692522974 
2488	 0.322587952258032 
2489	 0.322134143461561 
2490	 0.321886506268948 
2491	 0.321742930056208 
2492	 0.321591216257768 
2493	 0.321609416308818 
2494	 0.321529986700281 
2495	 0.321238623203769 
2496	 0.320896952179898 
2497	 0.320530749444181 
2498	 0.320169721708728 
2499	 0.319690733484076 
2500	 0.319299716876588 
