Wavelength	MM600000.asd
350	 6.07947906486866E-02 
351	 6.49277224127253E-02 
352	 6.22775401547996E-02 
353	 5.56861681307363E-02 
354	 6.71877863770767E-02 
355	 6.88224246136762E-02 
356	 6.37764046808516E-02 
357	 6.20920174561874E-02 
358	 6.76286307982963E-02 
359	 6.88472437913028E-02 
360	 6.59240458298459E-02 
361	 6.64031792837971E-02 
362	 6.83939092939524E-02 
363	 6.77075964855041E-02 
364	 6.48851465149125E-02 
365	 0.068198024771571 
366	 6.93792458910045E-02 
367	 0.069322436197133 
368	 7.09550690110028E-02 
369	 7.51531638270477E-02 
370	 7.61817225854558E-02 
371	 7.45022116043505E-02 
372	 7.47615397652793E-02 
373	 0.07652101205988 
374	 7.85539685088662E-02 
375	 7.91281129070494E-02 
376	 7.54351624380804E-02 
377	 0.076678433135986 
378	 7.95061863631968E-02 
379	 7.91342058230923E-02 
380	 8.26985548868481E-02 
381	 8.35882596967837E-02 
382	 8.17720464512364E-02 
383	 8.22303809285935E-02 
384	 8.31661540984414E-02 
385	 8.25821129838545E-02 
386	 0.08129184173153 
387	 8.58766735007631E-02 
388	 8.66973074315569E-02 
389	 8.56099498718447E-02 
390	 8.69835500371993E-02 
391	 8.80004349593627E-02 
392	 8.80211021618751E-02 
393	 8.86707547916999E-02 
394	 9.28075467009435E-02 
395	 9.22883827368466E-02 
396	 9.24194388545954E-02 
397	 9.57411100618394E-02 
398	 9.37741545703704E-02 
399	 9.39300247142978E-02 
400	 9.57665246669653E-02 
401	 9.62690551697959E-02 
402	 9.50439841234237E-02 
403	 0.096435840054578 
404	 9.95402710450952E-02 
405	 9.82741159060564E-02 
406	 9.80196338832238E-02 
407	 9.91506267605301E-02 
408	 0.100574716132185 
409	 0.100033033211374 
410	 0.100002919799737 
411	 0.10073692297175 
412	 0.10144701908503 
413	 0.102259459737725 
414	 0.102505985302669 
415	 0.102430801000164 
416	 0.103499441795301 
417	 0.103414841218009 
418	 0.103104091253554 
419	 0.103676164056449 
420	 0.104207327209697 
421	 0.103707261512498 
422	 0.103290415005858 
423	 0.104964449100162 
424	 0.104909287731403 
425	 0.104183843860299 
426	 0.103839537635382 
427	 0.103661982704707 
428	 0.104203793861142 
429	 0.104789653859823 
430	 0.104645952152118 
431	 0.104655209773765 
432	 0.10432256317846 
433	 0.104040237517274 
434	 0.105003883706848 
435	 0.105453226095156 
436	 0.105561593169877 
437	 0.105640197104653 
438	 0.105177595590803 
439	 0.105358321712868 
440	 0.105974867391644 
441	 0.106191801171697 
442	 0.106346456842629 
443	 0.106700750799351 
444	 0.107137657542992 
445	 0.106966846154528 
446	 0.107173524732478 
447	 0.107678950289909 
448	 0.108112983289255 
449	 0.108284686044146 
450	 0.108659325191985 
451	 0.109160742150233 
452	 0.109284267564546 
453	 0.109709575457586 
454	 0.109914577055557 
455	 0.109712856581281 
456	 0.11029839849179 
457	 0.110504065826012 
458	 0.110462856011019 
459	 0.110800489156373 
460	 0.111076441742735 
461	 0.111212570595029 
462	 0.111290687378856 
463	 0.111570756255912 
464	 0.111656478597158 
465	 0.111761992013626 
466	 0.112094856395427 
467	 0.112112882709715 
468	 0.112288954870234 
469	 0.112580422994532 
470	 0.112549529366857 
471	 0.1126663983307 
472	 0.112860242804035 
473	 0.113021028247 
474	 0.113154843471752 
475	 0.113418230589607 
476	 0.113624295052899 
477	 0.113529211511234 
478	 0.11366710007394 
479	 0.113792113870957 
480	 0.113795497309635 
481	 0.113844921254586 
482	 0.114158689068365 
483	 0.114453890738224 
484	 0.114473902545403 
485	 0.114714792664192 
486	 0.114678476490394 
487	 0.114478613994501 
488	 0.114712300158319 
489	 0.114940101075948 
490	 0.115120154903252 
491	 0.115244111086125 
492	 0.115185476453161 
493	 0.115245189453246 
494	 0.115414725406926 
495	 0.115547181617899 
496	 0.115720540272067 
497	 0.115749592545485 
498	 0.115663851099025 
499	 0.11583888624269 
500	 0.116027972539078 
501	 0.116177615590554 
502	 0.116280704262717 
503	 0.116284835865869 
504	 0.116267319185594 
505	 0.116312438649265 
506	 0.116493346848337 
507	 0.116594160992444 
508	 0.11674230247711 
509	 0.116975818942326 
510	 0.11689559306093 
511	 0.116847341685597 
512	 0.116909635751219 
513	 0.117015175939124 
514	 0.117177682978426 
515	 0.117316640549887 
516	 0.117394432309115 
517	 0.117463291728629 
518	 0.117420724230022 
519	 0.117395457152697 
520	 0.117535677971495 
521	 0.117684098965504 
522	 0.117788748679619 
523	 0.117837810712605 
524	 0.117856295879369 
525	 0.118003218840552 
526	 0.118087288940611 
527	 0.117989040388227 
528	 0.118066413489669 
529	 0.118168333032114 
530	 0.118250147218027 
531	 0.11833399544982 
532	 0.118339014674125 
533	 0.118402625400414 
534	 0.118562360802435 
535	 0.118580692989929 
536	 0.118633853646398 
537	 0.11872013100425 
538	 0.118777475601482 
539	 0.118827385444168 
540	 0.118856437127222 
541	 0.118910998883013 
542	 0.119125215781733 
543	 0.11913262496307 
544	 0.119069463707432 
545	 0.119137745822397 
546	 0.119196340709253 
547	 0.119264618158745 
548	 0.119332913518472 
549	 0.119370226713781 
550	 0.119488585445047 
551	 0.119593455828634 
552	 0.119625790403361 
553	 0.119714572404027 
554	 0.119839534055868 
555	 0.119950504821207 
556	 0.119992556516633 
557	 0.120046648178506 
558	 0.120117226033003 
559	 0.120203447605064 
560	 0.120321105809186 
561	 0.120334744946384 
562	 0.120323595917659 
563	 0.120405357980293 
564	 0.120452903039311 
565	 0.120475964514925 
566	 0.120486080345911 
567	 0.120489143068394 
568	 0.120659997239976 
569	 0.120870167063029 
570	 0.120997518715601 
571	 0.121219139292651 
572	 0.121375934002818 
573	 0.12144684747141 
574	 0.121514069313288 
575	 0.121603140936814 
576	 0.121734239658179 
577	 0.12186406150529 
578	 0.121800495535846 
579	 0.121779279191898 
580	 0.121837360819774 
581	 0.121924317761041 
582	 0.122020143498189 
583	 0.122171521301718 
584	 0.122370194869032 
585	 0.122523994638799 
586	 0.122642201469683 
587	 0.122688086262758 
588	 0.122653760704078 
589	 0.122685365045803 
590	 0.12273847187293 
591	 0.122800022276819 
592	 0.122890496810262 
593	 0.122997490890112 
594	 0.123106676468734 
595	 0.123209859783991 
596	 0.123319889783088 
597	 0.12339775708009 
598	 0.123459321462406 
599	 0.123545770298873 
600	 0.123627713982589 
601	 0.123700058120668 
602	 0.123756416088085 
603	 0.123780859420594 
604	 0.123805584482136 
605	 0.123868097159477 
606	 0.123980326769026 
607	 0.124014077441605 
608	 0.124045722518474 
609	 0.124115124941088 
610	 0.12420589594958 
611	 0.124301173634591 
612	 0.124407538910085 
613	 0.124525445956261 
614	 0.124622583534284 
615	 0.124651406194874 
616	 0.124652687005283 
617	 0.124722559981327 
618	 0.124820403379032 
619	 0.124908448963988 
620	 0.124963354595071 
621	 0.124983172215897 
622	 0.125046806734489 
623	 0.125121986708423 
624	 0.125146686663397 
625	 0.12520166329692 
626	 0.125279753199876 
627	 0.12536163186321 
628	 0.125422573527238 
629	 0.12544334374088 
630	 0.125460761507099 
631	 0.125509355558755 
632	 0.125546622507935 
633	 0.125592864398419 
634	 0.12563712852604 
635	 0.125648298103084 
636	 0.125714016199851 
637	 0.125774935217087 
638	 0.125791971785702 
639	 0.125839166796192 
640	 0.125888310982471 
641	 0.125939528880358 
642	 0.126000444861994 
643	 0.126045096803833 
644	 0.126083966341695 
645	 0.126125103421362 
646	 0.126168146517674 
647	 0.126190511060464 
648	 0.126215379699003 
649	 0.126270392308518 
650	 0.126345103405925 
651	 0.126396139179484 
652	 0.126422243421179 
653	 0.12645989362602 
654	 0.126521329368952 
655	 0.126575557674141 
656	 0.12660630007518 
657	 0.126653118442176 
658	 0.126718955133744 
659	 0.126777945999872 
660	 0.126797333813229 
661	 0.126813643874206 
662	 0.126852859621869 
663	 0.126919319266273 
664	 0.126990491731698 
665	 0.127010493005606 
666	 0.127011752343502 
667	 0.127043628496647 
668	 0.127103830388855 
669	 0.127159947087334 
670	 0.127196805536923 
671	 0.127217489463899 
672	 0.127256594722455 
673	 0.127318769066436 
674	 0.127387598212022 
675	 0.127408690799158 
676	 0.127442602291385 
677	 0.127499737523123 
678	 0.127561910974617 
679	 0.127576904020157 
680	 0.127621018897989 
681	 0.127719192181898 
682	 0.127817035236533 
683	 0.127813789810423 
684	 0.127790569722392 
685	 0.127837031040036 
686	 0.127876624724823 
687	 0.127953047781523 
688	 0.128033229863089 
689	 0.128041608769965 
690	 0.128094266973045 
691	 0.128134699377706 
692	 0.128145581103207 
693	 0.128243250126218 
694	 0.128322339182697 
695	 0.128354377096002 
696	 0.128350968089886 
697	 0.128364992617201 
698	 0.128448510750163 
699	 0.128561903435143 
700	 0.128577465276088 
701	 0.128623353902045 
702	 0.128672322910307 
703	 0.128692241813276 
704	 0.128728597054949 
705	 0.128790685981614 
706	 0.1288499370248 
707	 0.12886950565762 
708	 0.128932879375217 
709	 0.128970230993461 
710	 0.128978214287096 
711	 0.1290734937698 
712	 0.129102603971525 
713	 0.129121548012235 
714	 0.129207990839777 
715	 0.129296758998073 
716	 0.129311134073808 
717	 0.129290897175821 
718	 0.129352284022774 
719	 0.129439677602182 
720	 0.129493905123893 
721	 0.1295001184043 
722	 0.129524182784834 
723	 0.129597632400706 
724	 0.12967124347448 
725	 0.129685775271406 
726	 0.129694737019346 
727	 0.12971399855089 
728	 0.129760881059131 
729	 0.129849202487548 
730	 0.129884450727919 
731	 0.129886142842408 
732	 0.129902240565371 
733	 0.130003336579343 
734	 0.130046081240012 
735	 0.130044763356897 
736	 0.130071672913467 
737	 0.130100193680694 
738	 0.130146791916975 
739	 0.130198101714647 
740	 0.130208839042439 
741	 0.130258553294075 
742	 0.130301436579694 
743	 0.130304276664995 
744	 0.130343830143026 
745	 0.130372123307732 
746	 0.130390894175929 
747	 0.1304241981572 
748	 0.130480533651177 
749	 0.130498935519617 
750	 0.130486285241161 
751	 0.130535608987363 
752	 0.130563707777756 
753	 0.130569505526365 
754	 0.130569887956714 
755	 0.130573346156293 
756	 0.130594480615863 
757	 0.130626887152379 
758	 0.130654885230189 
759	 0.130691872765674 
760	 0.130703682331116 
761	 0.130692623287467 
762	 0.130710074476288 
763	 0.130723902127981 
764	 0.130737542089445 
765	 0.130755498510922 
766	 0.130756968888365 
767	 0.130803489067698 
768	 0.130848841042967 
769	 0.130815943175362 
770	 0.130828934753554 
771	 0.130865079309238 
772	 0.130893535390954 
773	 0.130892016103201 
774	 0.1308975028915 
775	 0.130911339567722 
776	 0.130922418173161 
777	 0.130907095538999 
778	 0.130900565461393 
779	 0.130926019867743 
780	 0.13098492744395 
781	 0.130991242092404 
782	 0.131004545538358 
783	 0.131037689871257 
784	 0.131043060940347 
785	 0.131021974377629 
786	 0.131026312982966 
787	 0.131070975817904 
788	 0.131056798685596 
789	 0.131066311678967 
790	 0.131087998597458 
791	 0.131084206049094 
792	 0.131074448752278 
793	 0.131080300242135 
794	 0.131096436748961 
795	 0.131099645188542 
796	 0.131165500464768 
797	 0.131201916528038 
798	 0.131172740009946 
799	 0.131189667853532 
800	 0.131224731151606 
801	 0.131247946118008 
802	 0.131244032863545 
803	 0.131264238578036 
804	 0.131286609779904 
805	 0.131308872879569 
806	 0.131335969580049 
807	 0.131317168383847 
808	 0.131301491236067 
809	 0.131322742478267 
810	 0.131378268348311 
811	 0.131416964799843 
812	 0.131423818296373 
813	 0.131407003375409 
814	 0.13140641597826 
815	 0.131398733333467 
816	 0.131415728057203 
817	 0.131489455658046 
818	 0.131537994382457 
819	 0.131559363382289 
820	 0.131554294922934 
821	 0.131529581525917 
822	 0.131572178546359 
823	 0.131614692896705 
824	 0.131612959232972 
825	 0.131600084757015 
826	 0.131638559078041 
827	 0.131689890192069 
828	 0.13171101230561 
829	 0.131751007472526 
830	 0.131732091765865 
831	 0.131712764103233 
832	 0.131785781960706 
833	 0.131814946664924 
834	 0.131819888646122 
835	 0.131814410901378 
836	 0.131798937689279 
837	 0.131797419143462 
838	 0.131852090301831 
839	 0.131950388106424 
840	 0.131987899545706 
841	 0.131986095043685 
842	 0.131976064437224 
843	 0.131989031548466 
844	 0.132044457176475 
845	 0.132064508784305 
846	 0.132067323606138 
847	 0.132102955405644 
848	 0.132112897944807 
849	 0.132128694905758 
850	 0.132172735932119 
851	 0.132244867807835 
852	 0.132249947405075 
853	 0.13223766565106 
854	 0.132248774614967 
855	 0.132277526332818 
856	 0.132318431248038 
857	 0.13235015978207 
858	 0.132361975896255 
859	 0.132376083614335 
860	 0.13240038331858 
861	 0.132438342454801 
862	 0.132492196795614 
863	 0.132577615794771 
864	 0.132633565336653 
865	 0.132645836897207 
866	 0.13263401367628 
867	 0.132603095121973 
868	 0.132588169029293 
869	 0.132614506399242 
870	 0.132688438320758 
871	 0.132756054246506 
872	 0.132786204948717 
873	 0.132795087719176 
874	 0.132862154270622 
875	 0.13292982198806 
876	 0.132958004139849 
877	 0.132939484773182 
878	 0.132930891476056 
879	 0.132981410498617 
880	 0.133056184342532 
881	 0.133097107567548 
882	 0.133101379754622 
883	 0.13310321039961 
884	 0.133127743564094 
885	 0.133188554998865 
886	 0.133287794506454 
887	 0.133326506299506 
888	 0.133303967089999 
889	 0.133303798576481 
890	 0.13329187085508 
891	 0.1333137263133 
892	 0.13338011681118 
893	 0.133446665649363 
894	 0.133466834192503 
895	 0.133471038109398 
896	 0.133493772932986 
897	 0.133543885375517 
898	 0.133612889761384 
899	 0.13364437578009 
900	 0.133632459037497 
901	 0.13373955553587 
902	 0.133784470693213 
903	 0.133789381678316 
904	 0.133823276425908 
905	 0.133843477788296 
906	 0.133868306412168 
907	 0.133899064541766 
908	 0.133940455240161 
909	 0.134065880625868 
910	 0.134131136902415 
911	 0.13412295817643 
912	 0.134124612947574 
913	 0.134160843126415 
914	 0.13422107909127 
915	 0.134274047790754 
916	 0.134285745594165 
917	 0.134319800251849 
918	 0.134393627068187 
919	 0.134454674394103 
920	 0.134401285002207 
921	 0.134462439698897 
922	 0.134574416348771 
923	 0.134648147394203 
924	 0.134644071127882 
925	 0.134655697073324 
926	 0.134681914633155 
927	 0.134706901274466 
928	 0.134727888495332 
929	 0.134800889807671 
930	 0.134878985819213 
931	 0.134927765998328 
932	 0.135005381434152 
933	 0.13507926473374 
934	 0.135133514884301 
935	 0.135163277291467 
936	 0.135176726971023 
937	 0.135207984110922 
938	 0.135256343909301 
939	 0.135319945693752 
940	 0.135452933070856 
941	 0.135478864932408 
942	 0.135498556675249 
943	 0.135637194003495 
944	 0.135650851708162 
945	 0.135625998520484 
946	 0.135634866028008 
947	 0.135706525216823 
948	 0.135731229975914 
949	 0.135761648316387 
950	 0.135802770549279 
951	 0.135849995017349 
952	 0.135992547974195 
953	 0.136113306529289 
954	 0.136178180392818 
955	 0.136212009164286 
956	 0.136218794978357 
957	 0.136297977488269 
958	 0.136369024414822 
959	 0.136305336718241 
960	 0.136380729574434 
961	 0.136497152884076 
962	 0.13658650565021 
963	 0.136621961802598 
964	 0.136588236699412 
965	 0.136590502230252 
966	 0.136653455674262 
967	 0.136738884691507 
968	 0.136851205501894 
969	 0.136902607098461 
970	 0.136919213446238 
971	 0.136989318121251 
972	 0.137057214370835 
973	 0.13704455252062 
974	 0.137023079818406 
975	 0.137123827582787 
976	 0.137196507324524 
977	 0.137285044937118 
978	 0.137367498038 
979	 0.137402738444081 
980	 0.137541472288845 
981	 0.137568664481237 
982	 0.137513024774138 
983	 0.137542971667984 
984	 0.137616930656671 
985	 0.137633378048747 
986	 0.137605338689272 
987	 0.13762846413833 
988	 0.137822511407114 
989	 0.137975835547372 
990	 0.138026390842424 
991	 0.138034359382451 
992	 0.138158146466266 
993	 0.138043309705616 
994	 0.137979744053634 
995	 0.138298306346483 
996	 0.13823330967662 
997	 0.138294692763887 
998	 0.138473219579264 
999	 0.138574447918489 
1000	 0.138576300395067 
1001	 0.138771503049092 
1002	 0.138860109731839 
1003	 0.138934864945164 
1004	 0.13903813767126 
1005	 0.139169828387281 
1006	 0.13923448288445 
1007	 0.139287542749772 
1008	 0.139368768946124 
1009	 0.139352093163538 
1010	 0.139327151169057 
1011	 0.139365921747425 
1012	 0.139468835518108 
1013	 0.139548460877356 
1014	 0.139567705788588 
1015	 0.13957671986319 
1016	 0.139596423038614 
1017	 0.139621126185958 
1018	 0.139655878597056 
1019	 0.139682087165106 
1020	 0.139718154179728 
1021	 0.139756307966038 
1022	 0.139770968061195 
1023	 0.139852190390841 
1024	 0.139959013918716 
1025	 0.140005943115978 
1026	 0.140035022520231 
1027	 0.140081676844038 
1028	 0.140120095633897 
1029	 0.140168892306164 
1030	 0.140232883374219 
1031	 0.140262716083585 
1032	 0.140286765302557 
1033	 0.14028657785139 
1034	 0.140289749175135 
1035	 0.140295779153564 
1036	 0.140285658721575 
1037	 0.140320451390391 
1038	 0.140362779835782 
1039	 0.14036277581906 
1040	 0.140416935750957 
1041	 0.140534260202012 
1042	 0.140638491661689 
1043	 0.140718550842776 
1044	 0.140780131054011 
1045	 0.140837503043577 
1046	 0.14084746541276 
1047	 0.140869739251137 
1048	 0.140936390397219 
1049	 0.141015095515827 
1050	 0.141117703780333 
1051	 0.14120573233934 
1052	 0.141253162314901 
1053	 0.141302879619307 
1054	 0.14137002687512 
1055	 0.141401439748694 
1056	 0.141413421784485 
1057	 0.141451364711636 
1058	 0.141490026751538 
1059	 0.141542670050361 
1060	 0.141620848936178 
1061	 0.141685158977991 
1062	 0.141721191586692 
1063	 0.141766612516208 
1064	 0.141818859562095 
1065	 0.141860044233224 
1066	 0.141903069363549 
1067	 0.141949233360482 
1068	 0.141923808547896 
1069	 0.141861342994344 
1070	 0.141857472282028 
1071	 0.141894692396251 
1072	 0.141897089465701 
1073	 0.141924645619727 
1074	 0.141932381073151 
1075	 0.141938515117653 
1076	 0.14187117290846 
1077	 0.14180997819173 
1078	 0.141771556871792 
1079	 0.141734350150572 
1080	 0.141727398656256 
1081	 0.141725113678872 
1082	 0.14171682607832 
1083	 0.141721579783942 
1084	 0.141738087247574 
1085	 0.141733955842332 
1086	 0.141731696487455 
1087	 0.141732453715208 
1088	 0.141739018484123 
1089	 0.14169198214348 
1090	 0.141661739028199 
1091	 0.141671086570689 
1092	 0.141668060242361 
1093	 0.141692890802816 
1094	 0.141742478884817 
1095	 0.141753041987648 
1096	 0.141773559589101 
1097	 0.141799031581168 
1098	 0.141794295020811 
1099	 0.141768131938328 
1100	 0.141765078545125 
1101	 0.141728745628583 
1102	 0.141726565941408 
1103	 0.141746659143186 
1104	 0.141796152022191 
1105	 0.141820196337675 
1106	 0.141861882894366 
1107	 0.141915077914547 
1108	 0.14193945998325 
1109	 0.14197425241775 
1110	 0.142008964853945 
1111	 0.142050568077262 
1112	 0.142091837259647 
1113	 0.142144447963886 
1114	 0.142207918727274 
1115	 0.142268463366831 
1116	 0.142333491499084 
1117	 0.14239700503883 
1118	 0.142462266085781 
1119	 0.142524547932785 
1120	 0.142586856953441 
1121	 0.142650134550903 
1122	 0.142695613075067 
1123	 0.142770032110687 
1124	 0.142839279496356 
1125	 0.142903614825182 
1126	 0.142980056214956 
1127	 0.1430786202526 
1128	 0.143148996554948 
1129	 0.143210872169021 
1130	 0.143278408263315 
1131	 0.143333571025786 
1132	 0.143392334512845 
1133	 0.143458829538423 
1134	 0.143526461718718 
1135	 0.143590806255099 
1136	 0.143648949755743 
1137	 0.143735129448878 
1138	 0.143812526828147 
1139	 0.143870142586227 
1140	 0.143909233315016 
1141	 0.143974679722728 
1142	 0.144037185753776 
1143	 0.144098720489602 
1144	 0.144187828819054 
1145	 0.144254404065545 
1146	 0.144294056848141 
1147	 0.144342917539569 
1148	 0.144402911803726 
1149	 0.144447710316049 
1150	 0.144472516352947 
1151	 0.144517360593266 
1152	 0.144557805495621 
1153	 0.144587968310271 
1154	 0.144626570026676 
1155	 0.144675610231059 
1156	 0.144709452982032 
1157	 0.144734743018748 
1158	 0.144764768520557 
1159	 0.144792346174046 
1160	 0.144820463159136 
1161	 0.144849915541469 
1162	 0.144880650836539 
1163	 0.144908710689661 
1164	 0.144936879314678 
1165	 0.14495834690929 
1166	 0.145000755962374 
1167	 0.145043812749755 
1168	 0.145068791258488 
1169	 0.145087826214852 
1170	 0.145097804723236 
1171	 0.14511662553466 
1172	 0.14513262359772 
1173	 0.145142506713221 
1174	 0.145155181350675 
1175	 0.145167625007349 
1176	 0.145159735446706 
1177	 0.145173563463361 
1178	 0.145212356295745 
1179	 0.145235231623147 
1180	 0.145257092912023 
1181	 0.145278125126766 
1182	 0.145291512342262 
1183	 0.145305009881563 
1184	 0.145326294774035 
1185	 0.145350880800315 
1186	 0.145382249156594 
1187	 0.145428992829542 
1188	 0.145452752664038 
1189	 0.145471845082891 
1190	 0.145488345914343 
1191	 0.145491215841844 
1192	 0.145496372403609 
1193	 0.145500369712078 
1194	 0.14550942380179 
1195	 0.145507099471248 
1196	 0.14551978063062 
1197	 0.145549438043708 
1198	 0.145575452451294 
1199	 0.145603979777741 
1200	 0.14563977176512 
1201	 0.145667805474973 
1202	 0.145693085700951 
1203	 0.145719520728857 
1204	 0.145752672584933 
1205	 0.145766354624062 
1206	 0.145757105642497 
1207	 0.145777345826249 
1208	 0.145803362079812 
1209	 0.145823577148497 
1210	 0.145874909792952 
1211	 0.145895960785505 
1212	 0.145872586046362 
1213	 0.145880215785765 
1214	 0.145891564636142 
1215	 0.145910455825727 
1216	 0.145939489901084 
1217	 0.145995836772476 
1218	 0.146021237848352 
1219	 0.146044060620239 
1220	 0.146053357013364 
1221	 0.146037890408354 
1222	 0.146044388665816 
1223	 0.14604610601624 
1224	 0.146062353629111 
1225	 0.146096801441262 
1226	 0.146125122210358 
1227	 0.146168315048942 
1228	 0.146192207732314 
1229	 0.146199371917133 
1230	 0.146216939762083 
1231	 0.146224654016654 
1232	 0.146239457853464 
1233	 0.146260248539647 
1234	 0.146294494205322 
1235	 0.146322053610363 
1236	 0.14635323078558 
1237	 0.146372873975032 
1238	 0.146391844434328 
1239	 0.146403596363848 
1240	 0.146400791567457 
1241	 0.146406685575641 
1242	 0.14640855057337 
1243	 0.146419520371423 
1244	 0.146436899150464 
1245	 0.146454654731259 
1246	 0.14648526926886 
1247	 0.146503354879498 
1248	 0.146521919247622 
1249	 0.146524903524262 
1250	 0.146514632630485 
1251	 0.146528443500663 
1252	 0.146547315031583 
1253	 0.146582187196057 
1254	 0.146596632324631 
1255	 0.146619946634871 
1256	 0.146621213248217 
1257	 0.146592516846196 
1258	 0.146583713975005 
1259	 0.146571371374059 
1260	 0.146571067961795 
1261	 0.146579135624521 
1262	 0.146589571603897 
1263	 0.146615492029657 
1264	 0.146629113756086 
1265	 0.14664140688129 
1266	 0.146650622727729 
1267	 0.146649986902584 
1268	 0.146647673815076 
1269	 0.146658576019558 
1270	 0.146676294020874 
1271	 0.146692405102574 
1272	 0.146707337757588 
1273	 0.146742795902949 
1274	 0.146783167561793 
1275	 0.146831713524988 
1276	 0.14691134324002 
1277	 0.146966661908223 
1278	 0.14700505796741 
1279	 0.147060996238932 
1280	 0.147122024358265 
1281	 0.147180163059152 
1282	 0.147257382552247 
1283	 0.147314920467663 
1284	 0.14736533496051 
1285	 0.147392830050059 
1286	 0.14743765498782 
1287	 0.147482429296602 
1288	 0.147508985590743 
1289	 0.147538208537892 
1290	 0.147549081200464 
1291	 0.147530742808408 
1292	 0.147523946798296 
1293	 0.147515835690787 
1294	 0.147506563523523 
1295	 0.147499739840217 
1296	 0.147483300409359 
1297	 0.147461808746983 
1298	 0.147436561556571 
1299	 0.147412311569849 
1300	 0.147370858699323 
1301	 0.147308207434908 
1302	 0.14725774018621 
1303	 0.147213926477727 
1304	 0.147142320908959 
1305	 0.147073829753943 
1306	 0.147032227062137 
1307	 0.146963918888713 
1308	 0.146904132655353 
1309	 0.146843000565612 
1310	 0.146786743045233 
1311	 0.146727022547593 
1312	 0.146660363771032 
1313	 0.146603940140819 
1314	 0.14654132196161 
1315	 0.146507301598863 
1316	 0.146494417115986 
1317	 0.146476336389336 
1318	 0.146488907808062 
1319	 0.146472860857102 
1320	 0.146429150380739 
1321	 0.146405968316041 
1322	 0.14637568754741 
1323	 0.146356679909993 
1324	 0.146374486849851 
1325	 0.146387899574101 
1326	 0.146409631109993 
1327	 0.146437346342682 
1328	 0.146446252161667 
1329	 0.14644847714291 
1330	 0.146466756771478 
1331	 0.146482318222829 
1332	 0.146515206744821 
1333	 0.146568634437047 
1334	 0.146616648027996 
1335	 0.146670874277502 
1336	 0.146719238630941 
1337	 0.146767539090109 
1338	 0.146815800343208 
1339	 0.1468561114072 
1340	 0.14690740698967 
1341	 0.146966013130017 
1342	 0.147023277069781 
1343	 0.14708142951325 
1344	 0.147151466587676 
1345	 0.147212813194233 
1346	 0.147264276765335 
1347	 0.147326292929478 
1348	 0.147398441281698 
1349	 0.147472334102696 
1350	 0.147553124028255 
1351	 0.147628215952715 
1352	 0.14770184802687 
1353	 0.147770153499649 
1354	 0.147838164262725 
1355	 0.14790352494208 
1356	 0.147967919465811 
1357	 0.148020543921205 
1358	 0.148062600936647 
1359	 0.148113535008419 
1360	 0.148152948616242 
1361	 0.148208623981966 
1362	 0.148282772539816 
1363	 0.148343104301885 
1364	 0.148405001163798 
1365	 0.148464034853637 
1366	 0.148519070833276 
1367	 0.148572860137835 
1368	 0.148623296260055 
1369	 0.148654679376632 
1370	 0.148672114887412 
1371	 0.148704579591983 
1372	 0.148741015733565 
1373	 0.148782251852772 
1374	 0.148821284305067 
1375	 0.148873226984938 
1376	 0.148899460253738 
1377	 0.148917342681131 
1378	 0.148923240797023 
1379	 0.148906373833163 
1380	 0.148903699730634 
1381	 0.148901764825019 
1382	 0.148893450616015 
1383	 0.148892047020591 
1384	 0.148878413123014 
1385	 0.148851583192589 
1386	 0.148821277281451 
1387	 0.148785215301024 
1388	 0.148749224549253 
1389	 0.14870936008327 
1390	 0.148667148664747 
1391	 0.148627198301878 
1392	 0.148575123179236 
1393	 0.148495599196964 
1394	 0.148420325937786 
1395	 0.14834288268877 
1396	 0.148241943763045 
1397	 0.148150075738454 
1398	 0.148062271614705 
1399	 0.147968651586054 
1400	 0.147864616291952 
1401	 0.147773688062243 
1402	 0.147685700296145 
1403	 0.147599515200607 
1404	 0.147515354431894 
1405	 0.147441331365523 
1406	 0.147377771921346 
1407	 0.147305013986786 
1408	 0.14724348900398 
1409	 0.147168712943949 
1410	 0.147058336613803 
1411	 0.146990349103688 
1412	 0.146935279158161 
1413	 0.14689062177539 
1414	 0.146876236453604 
1415	 0.146882616293014 
1416	 0.146874141584115 
1417	 0.146852553667353 
1418	 0.146844164906372 
1419	 0.146824300003973 
1420	 0.146804600085088 
1421	 0.146805426598418 
1422	 0.146812791824565 
1423	 0.146817280002395 
1424	 0.146811209360408 
1425	 0.146810094146169 
1426	 0.146796718883646 
1427	 0.146757419422835 
1428	 0.146741241960345 
1429	 0.146723974217433 
1430	 0.146725907550336 
1431	 0.146749004858222 
1432	 0.146762082844209 
1433	 0.146793723141498 
1434	 0.146807084631811 
1435	 0.146796515118285 
1436	 0.146803839465971 
1437	 0.14681506899401 
1438	 0.146824614798654 
1439	 0.146836977588509 
1440	 0.146862714715679 
1441	 0.146870275530817 
1442	 0.146870995476125 
1443	 0.146884973681298 
1444	 0.146892815613927 
1445	 0.146903935664117 
1446	 0.146923888136864 
1447	 0.146945912044093 
1448	 0.146964499580953 
1449	 0.146978734494975 
1450	 0.146998104472965 
1451	 0.147011650247492 
1452	 0.14701317890727 
1453	 0.1470271022696 
1454	 0.147045089653896 
1455	 0.147062707276035 
1456	 0.147089656739148 
1457	 0.147104150567503 
1458	 0.147112132871949 
1459	 0.147127420258373 
1460	 0.147128880765498 
1461	 0.147148038312078 
1462	 0.147189238675727 
1463	 0.147215767377274 
1464	 0.147239793716244 
1465	 0.147273919348352 
1466	 0.147307422222008 
1467	 0.147338539110886 
1468	 0.147383044306066 
1469	 0.147413828949129 
1470	 0.147432511147695 
1471	 0.14745180253263 
1472	 0.147471327259866 
1473	 0.147483410231529 
1474	 0.147503918984572 
1475	 0.14753337965513 
1476	 0.147559449323205 
1477	 0.147595713116638 
1478	 0.147631879352549 
1479	 0.147657996159545 
1480	 0.147703182480185 
1481	 0.147751834313195 
1482	 0.147788083286126 
1483	 0.147824173944969 
1484	 0.147856709511993 
1485	 0.147878387212278 
1486	 0.147904015796947 
1487	 0.147929699027422 
1488	 0.14796124087515 
1489	 0.147989608937607 
1490	 0.148019765056033 
1491	 0.148060252609752 
1492	 0.148094307708438 
1493	 0.148121310444574 
1494	 0.148159677869278 
1495	 0.148206940453279 
1496	 0.148243612453124 
1497	 0.148278336958221 
1498	 0.148312835550552 
1499	 0.148338397788814 
1500	 0.148373984303428 
1501	 0.148426089475754 
1502	 0.14845986396041 
1503	 0.148483408860182 
1504	 0.148510451772238 
1505	 0.148539038834106 
1506	 0.148563373048401 
1507	 0.148600516800816 
1508	 0.14862559399825 
1509	 0.148635932151153 
1510	 0.148660266992359 
1511	 0.148685081109079 
1512	 0.148714349655508 
1513	 0.148756750745615 
1514	 0.148800123469274 
1515	 0.14884029175419 
1516	 0.148867471878158 
1517	 0.148891346693289 
1518	 0.148900091388241 
1519	 0.148919620837502 
1520	 0.148940648163751 
1521	 0.148966188021093 
1522	 0.148995093101734 
1523	 0.149018502442832 
1524	 0.149046132607414 
1525	 0.14906422374535 
1526	 0.14906640095938 
1527	 0.149090006860095 
1528	 0.149126394236051 
1529	 0.14914647818237 
1530	 0.149175707271881 
1531	 0.149193747396648 
1532	 0.149184393622956 
1533	 0.14919433975078 
1534	 0.149217039362974 
1535	 0.149232017338731 
1536	 0.149252445757864 
1537	 0.149264605912682 
1538	 0.149262279345067 
1539	 0.149271722625695 
1540	 0.149286132271443 
1541	 0.149297504435714 
1542	 0.14931618330117 
1543	 0.149329686646484 
1544	 0.149329667009475 
1545	 0.149340427530286 
1546	 0.149360061696977 
1547	 0.14937810761166 
1548	 0.149388328816573 
1549	 0.149395087279995 
1550	 0.149399264506249 
1551	 0.149416626864149 
1552	 0.149440939267721 
1553	 0.149464850048658 
1554	 0.149494177975184 
1555	 0.149508079052778 
1556	 0.149516717556973 
1557	 0.149531885671234 
1558	 0.149534156120038 
1559	 0.14953881525815 
1560	 0.149546549047951 
1561	 0.149554006763652 
1562	 0.149572112225881 
1563	 0.149599342240801 
1564	 0.149616981903381 
1565	 0.149639007309501 
1566	 0.149651901171793 
1567	 0.149653668809748 
1568	 0.149663032619284 
1569	 0.149674639051683 
1570	 0.149687694080653 
1571	 0.149701679832569 
1572	 0.149716548179849 
1573	 0.149733278577131 
1574	 0.14974615613631 
1575	 0.149759723919225 
1576	 0.149769966933371 
1577	 0.149773803078746 
1578	 0.14978524117555 
1579	 0.149805611512155 
1580	 0.149809253324205 
1581	 0.149806411853519 
1582	 0.149806465600105 
1583	 0.149792611593704 
1584	 0.149792119028392 
1585	 0.149797694896587 
1586	 0.1498094782844 
1587	 0.149829478291388 
1588	 0.149847056269189 
1589	 0.149881056348545 
1590	 0.149894432329233 
1591	 0.149884055630279 
1592	 0.149894344930801 
1593	 0.149900202405427 
1594	 0.149918284416316 
1595	 0.149961790613207 
1596	 0.149992057448958 
1597	 0.150028673312312 
1598	 0.150049001124447 
1599	 0.150057272186819 
1600	 0.150064907236356 
1601	 0.150050709622149 
1602	 0.150049761574374 
1603	 0.150055514203688 
1604	 0.150064644685614 
1605	 0.150082941954436 
1606	 0.150101624617771 
1607	 0.150132416267405 
1608	 0.150141166981722 
1609	 0.150161924450584 
1610	 0.150180351654661 
1611	 0.150185644078312 
1612	 0.150195385064643 
1613	 0.150199735066867 
1614	 0.150195135768193 
1615	 0.150196397721768 
1616	 0.150209042417109 
1617	 0.150222410882102 
1618	 0.150231593180149 
1619	 0.150237164484629 
1620	 0.150239594170995 
1621	 0.150253828469846 
1622	 0.150273587887472 
1623	 0.150284550878783 
1624	 0.150301284211648 
1625	 0.150311565856414 
1626	 0.150311003229859 
1627	 0.150313936927616 
1628	 0.150318624426561 
1629	 0.15032712099402 
1630	 0.150333435449948 
1631	 0.150342296949372 
1632	 0.150362346339816 
1633	 0.150365708642619 
1634	 0.150357083855127 
1635	 0.150356702327077 
1636	 0.150350319555975 
1637	 0.150355593363387 
1638	 0.150366168513283 
1639	 0.150384916276245 
1640	 0.150413644840734 
1641	 0.150438048614041 
1642	 0.15047606274797 
1643	 0.150488836105968 
1644	 0.150483731585934 
1645	 0.150493357955857 
1646	 0.150501142338653 
1647	 0.150500431264542 
1648	 0.150499936585802 
1649	 0.150506024299827 
1650	 0.150501314895875 
1651	 0.150506985846574 
1652	 0.15053235685924 
1653	 0.150543029885383 
1654	 0.150539506240897 
1655	 0.150551870781362 
1656	 0.150574452064462 
1657	 0.150588189247205 
1658	 0.150606087959352 
1659	 0.150617082780991 
1660	 0.150622698041927 
1661	 0.150622519981689 
1662	 0.150609810637929 
1663	 0.150616439765359 
1664	 0.150629772044492 
1665	 0.150634487349249 
1666	 0.150649860785544 
1667	 0.150657499409851 
1668	 0.150649079106193 
1669	 0.150650228438534 
1670	 0.150660622781983 
1671	 0.150665482401961 
1672	 0.150660558283628 
1673	 0.150670241048824 
1674	 0.150692089948974 
1675	 0.150703373821767 
1676	 0.150725765637633 
1677	 0.150725432084807 
1678	 0.150695094765483 
1679	 0.150696090151198 
1680	 0.150703941991896 
1681	 0.150706825779001 
1682	 0.150729241436661 
1683	 0.150734918146656 
1684	 0.150712089571827 
1685	 0.150722083959073 
1686	 0.150752324253467 
1687	 0.150770980107172 
1688	 0.150806016750796 
1689	 0.150820091373074 
1690	 0.150814984855193 
1691	 0.150816655238717 
1692	 0.150814076700668 
1693	 0.150812817443854 
1694	 0.150801074281959 
1695	 0.150815047756545 
1696	 0.150846380016671 
1697	 0.150865222973122 
1698	 0.15089963938868 
1699	 0.150920771249615 
1700	 0.15092517614982 
1701	 0.15093564282349 
1702	 0.150954992123989 
1703	 0.150957450951679 
1704	 0.150942638389956 
1705	 0.15094035212129 
1706	 0.15093383584459 
1707	 0.1509348881955 
1708	 0.150954015409259 
1709	 0.150951333992022 
1710	 0.150932759411056 
1711	 0.150929966675112 
1712	 0.150920905396773 
1713	 0.150924908483187 
1714	 0.150938599948444 
1715	 0.150965942967967 
1716	 0.151008727133117 
1717	 0.151037551155529 
1718	 0.151083487390068 
1719	 0.151104405723595 
1720	 0.151107314181971 
1721	 0.151102547649791 
1722	 0.151087366378825 
1723	 0.151069308144394 
1724	 0.151030977161051 
1725	 0.151011801543214 
1726	 0.150995367159926 
1727	 0.150988709008252 
1728	 0.150998392243863 
1729	 0.150991162028411 
1730	 0.150984074015347 
1731	 0.150972254823192 
1732	 0.15094922243833 
1733	 0.150932113499526 
1734	 0.150911380693256 
1735	 0.150906566069119 
1736	 0.150906270173842 
1737	 0.150914995635765 
1738	 0.150951190595473 
1739	 0.150944610313508 
1740	 0.150918592283046 
1741	 0.150905532628312 
1742	 0.150880113672421 
1743	 0.150858176383987 
1744	 0.150844723522368 
1745	 0.150829257111141 
1746	 0.150797620183659 
1747	 0.150797261863032 
1748	 0.150805267004851 
1749	 0.150790559515954 
1750	 0.150758919295287 
1751	 0.150717439945696 
1752	 0.150687888697589 
1753	 0.150665712676518 
1754	 0.150648904728055 
1755	 0.150649293496002 
1756	 0.150646721915363 
1757	 0.150658822348539 
1758	 0.150683634274394 
1759	 0.150701887951389 
1760	 0.150721721263881 
1761	 0.150715914425409 
1762	 0.150707388411996 
1763	 0.1507062340579 
1764	 0.150681162124628 
1765	 0.150666307335951 
1766	 0.150654310217581 
1767	 0.150609981917776 
1768	 0.150569983682792 
1769	 0.150542137627956 
1770	 0.15053421121027 
1771	 0.15056657332185 
1772	 0.150590780068976 
1773	 0.150604581403254 
1774	 0.150622656865789 
1775	 0.150621028950577 
1776	 0.150614106209758 
1777	 0.150622288378981 
1778	 0.150619819913813 
1779	 0.150599914274671 
1780	 0.150602783105297 
1781	 0.150614681137934 
1782	 0.150613038661011 
1783	 0.150625391477771 
1784	 0.150634390002854 
1785	 0.150628996536255 
1786	 0.150626571210822 
1787	 0.150631519503598 
1788	 0.150635861894407 
1789	 0.150639107033828 
1790	 0.150650643376115 
1791	 0.150667551086903 
1792	 0.15067496964301 
1793	 0.150679049132147 
1794	 0.150687367379194 
1795	 0.150690335184941 
1796	 0.150707216548028 
1797	 0.150740366658766 
1798	 0.150763366302887 
1799	 0.150788242155924 
1800	 0.150792228721238 
1801	 0.148891935481071 
1802	 0.148867380538248 
1803	 0.148844003597982 
1804	 0.148833379934152 
1805	 0.148828421353228 
1806	 0.148882594849527 
1807	 0.148947312745725 
1808	 0.148991092686576 
1809	 0.149068419716893 
1810	 0.149085566406214 
1811	 0.149039739299342 
1812	 0.149041514945975 
1813	 0.149048048077702 
1814	 0.149031960831633 
1815	 0.149073700149288 
1816	 0.149102329166438 
1817	 0.149115331508339 
1818	 0.149121969496219 
1819	 0.149131025659323 
1820	 0.149144996106259 
1821	 0.149114499824982 
1822	 0.149098254577257 
1823	 0.149092879009764 
1824	 0.149071932709274 
1825	 0.149090939514975 
1826	 0.149125468321509 
1827	 0.149143390179466 
1828	 0.149155058134488 
1829	 0.149165391620321 
1830	 0.149164103053727 
1831	 0.149142606630458 
1832	 0.149137517848345 
1833	 0.149147901184698 
1834	 0.149160131515989 
1835	 0.149171937920635 
1836	 0.149208363681106 
1837	 0.149247689354595 
1838	 0.14926097453535 
1839	 0.149280960826381 
1840	 0.149320050477569 
1841	 0.149323237580193 
1842	 0.149308489781524 
1843	 0.149342431034389 
1844	 0.149357768524264 
1845	 0.149344844367764 
1846	 0.149317298551814 
1847	 0.149292731428722 
1848	 0.149287484066898 
1849	 0.149282851844934 
1850	 0.149272991755423 
1851	 0.149276919216768 
1852	 0.14925312639529 
1853	 0.149225290503755 
1854	 0.149224483528366 
1855	 0.149226107335007 
1856	 0.149242876944376 
1857	 0.149252561852563 
1858	 0.149235864064735 
1859	 0.149214620835136 
1860	 0.149186460349324 
1861	 0.149143002231008 
1862	 0.149099198690001 
1863	 0.149063473212612 
1864	 0.149023159960041 
1865	 0.148985092995956 
1866	 0.148940942433708 
1867	 0.148887017197378 
1868	 0.148832438963071 
1869	 0.148786615030699 
1870	 0.148728048072846 
1871	 0.148658073967415 
1872	 0.148583971651931 
1873	 0.14850049035692 
1874	 0.148378617323248 
1875	 0.148265223204641 
1876	 0.14816436427737 
1877	 0.148048856556092 
1878	 0.147922405976162 
1879	 0.147776150234615 
1880	 0.147625564663402 
1881	 0.147461409974522 
1882	 0.147277436019384 
1883	 0.147085179420629 
1884	 0.146882650531255 
1885	 0.14665629101649 
1886	 0.146394258127715 
1887	 0.146133596221982 
1888	 0.145868319720287 
1889	 0.145591895706905 
1890	 0.145316053704956 
1891	 0.145036807650911 
1892	 0.144757653885512 
1893	 0.144476719916804 
1894	 0.144195790271208 
1895	 0.143902464854198 
1896	 0.143590505628199 
1897	 0.143290871092862 
1898	 0.142984552698673 
1899	 0.142666397777485 
1900	 0.142390648782379 
1901	 0.142136955235524 
1902	 0.141883145662941 
1903	 0.141644388170191 
1904	 0.141415576429894 
1905	 0.141203303715331 
1906	 0.140973640865753 
1907	 0.140750811053166 
1908	 0.140538417578935 
1909	 0.140325067968763 
1910	 0.140130307921825 
1911	 0.139958786164153 
1912	 0.139812660927777 
1913	 0.139678247147712 
1914	 0.139565307676319 
1915	 0.139456565635078 
1916	 0.139366990246472 
1917	 0.139271974546795 
1918	 0.139185628662362 
1919	 0.139101762743119 
1920	 0.139014849954913 
1921	 0.138954677488611 
1922	 0.138888346061847 
1923	 0.138808592891933 
1924	 0.138750738276359 
1925	 0.138699738375133 
1926	 0.138658247749739 
1927	 0.138624330015869 
1928	 0.138612226421728 
1929	 0.138610070536709 
1930	 0.138602986684672 
1931	 0.138602311003556 
1932	 0.138616731498701 
1933	 0.138633716911992 
1934	 0.138651603619684 
1935	 0.13867549429671 
1936	 0.138705448516746 
1937	 0.138742211533348 
1938	 0.13878615309388 
1939	 0.138830208627829 
1940	 0.13888195575919 
1941	 0.138938896173265 
1942	 0.138980425985216 
1943	 0.139006317939385 
1944	 0.139034606599681 
1945	 0.139077516643738 
1946	 0.139127038577078 
1947	 0.139188872122294 
1948	 0.139252615872596 
1949	 0.139317450844417 
1950	 0.139390705041465 
1951	 0.139468691349223 
1952	 0.139564863603539 
1953	 0.13965569248129 
1954	 0.139735992603873 
1955	 0.139814704113944 
1956	 0.139894321914738 
1957	 0.139969042251462 
1958	 0.14003604116365 
1959	 0.14012435473855 
1960	 0.14022511913036 
1961	 0.140308716959046 
1962	 0.140389678328175 
1963	 0.140480679270186 
1964	 0.140564173768431 
1965	 0.140653691399787 
1966	 0.140749111441363 
1967	 0.140856714872254 
1968	 0.140955828789039 
1969	 0.14103760354498 
1970	 0.141139357440798 
1971	 0.141258643506293 
1972	 0.141367727769398 
1973	 0.141476265557068 
1974	 0.141587473821443 
1975	 0.141698605439905 
1976	 0.141810875190916 
1977	 0.141919896092095 
1978	 0.14201721796943 
1979	 0.14212043451673 
1980	 0.142218045100721 
1981	 0.142329511841862 
1982	 0.142461396421016 
1983	 0.14257935970285 
1984	 0.14269701973481 
1985	 0.142811242116613 
1986	 0.142920454304871 
1987	 0.143027921730613 
1988	 0.143131553819444 
1989	 0.143236359232443 
1990	 0.143352737438945 
1991	 0.143453011956705 
1992	 0.143558404088923 
1993	 0.14367009151189 
1994	 0.143777873228623 
1995	 0.14387943837486 
1996	 0.143984994531515 
1997	 0.144097856267252 
1998	 0.14419868303369 
1999	 0.144284159022121 
2000	 0.144382126773903 
2001	 0.144478260475644 
2002	 0.144582884795056 
2003	 0.144685774105601 
2004	 0.144814030877266 
2005	 0.144917602002216 
2006	 0.145007800941497 
2007	 0.145107159073482 
2008	 0.145197654516631 
2009	 0.14529913526109 
2010	 0.145410816666752 
2011	 0.145521774728605 
2012	 0.145640388343401 
2013	 0.14575315448692 
2014	 0.145873346650925 
2015	 0.145981601820333 
2016	 0.146071261701564 
2017	 0.146151464909107 
2018	 0.146240170842437 
2019	 0.146319654986356 
2020	 0.146406013484896 
2021	 0.14649681699701 
2022	 0.146592824157777 
2023	 0.146693618901962 
2024	 0.146789497708937 
2025	 0.146891959221612 
2026	 0.146991093360894 
2027	 0.147089149880653 
2028	 0.147173955716914 
2029	 0.147263316793807 
2030	 0.147355540851685 
2031	 0.147444411138709 
2032	 0.147527732104419 
2033	 0.14761468307586 
2034	 0.147702625386605 
2035	 0.147790859769302 
2036	 0.147886167966519 
2037	 0.147965557909005 
2038	 0.148040807335749 
2039	 0.148112676764195 
2040	 0.148163773190109 
2041	 0.148228053180063 
2042	 0.148305911772694 
2043	 0.148366965825415 
2044	 0.148441633074514 
2045	 0.14852262394487 
2046	 0.148605325063928 
2047	 0.148697192692066 
2048	 0.148777896340696 
2049	 0.148859665498688 
2050	 0.148936622170522 
2051	 0.149002300547007 
2052	 0.14907245042161 
2053	 0.149150166748531 
2054	 0.149217743513363 
2055	 0.149275838426945 
2056	 0.149339356317466 
2057	 0.14939519340674 
2058	 0.149441105535629 
2059	 0.149493943024519 
2060	 0.149544324380291 
2061	 0.14959898273355 
2062	 0.149662961924246 
2063	 0.149714596763738 
2064	 0.149755942629394 
2065	 0.149809830743084 
2066	 0.149861493803068 
2067	 0.149916801891433 
2068	 0.149984259692653 
2069	 0.150057871914398 
2070	 0.150102040840154 
2071	 0.150125632104882 
2072	 0.150167867760636 
2073	 0.150192400819468 
2074	 0.150245278643623 
2075	 0.150329619984268 
2076	 0.150392540739865 
2077	 0.150461471813636 
2078	 0.150515750106722 
2079	 0.150546960107735 
2080	 0.150596467065141 
2081	 0.150643308618511 
2082	 0.150699670178166 
2083	 0.150772086860475 
2084	 0.150848081992152 
2085	 0.150907250115372 
2086	 0.150965279341586 
2087	 0.151010790775248 
2088	 0.151045815951573 
2089	 0.151071946585103 
2090	 0.151071354615413 
2091	 0.151105368356888 
2092	 0.151137719158726 
2093	 0.151186672912747 
2094	 0.151275812298394 
2095	 0.151342583661503 
2096	 0.151401719115881 
2097	 0.151464616925189 
2098	 0.151521412530954 
2099	 0.151585519185083 
2100	 0.151649213946024 
2101	 0.15171925172747 
2102	 0.151781585960076 
2103	 0.151842637492851 
2104	 0.151900086530161 
2105	 0.151946858512019 
2106	 0.152006378295291 
2107	 0.152061776749702 
2108	 0.152134494280297 
2109	 0.152233730802354 
2110	 0.152313225935279 
2111	 0.152390975014488 
2112	 0.152470211263326 
2113	 0.152541641451677 
2114	 0.152610839985106 
2115	 0.152683548187183 
2116	 0.152762614416917 
2117	 0.152840973121396 
2118	 0.152920043068404 
2119	 0.15299208539219 
2120	 0.153066515235725 
2121	 0.15313525200698 
2122	 0.153204304125395 
2123	 0.153253897379228 
2124	 0.153279674370693 
2125	 0.153329245130164 
2126	 0.153376072818452 
2127	 0.153420811416948 
2128	 0.153498495119543 
2129	 0.153548065066315 
2130	 0.153578763493768 
2131	 0.153594189293956 
2132	 0.153606724978166 
2133	 0.153603300514273 
2134	 0.153611440392054 
2135	 0.153629713023036 
2136	 0.153617268271836 
2137	 0.153593546406483 
2138	 0.153567554068084 
2139	 0.153507377578754 
2140	 0.153470499120272 
2141	 0.153458497377246 
2142	 0.153424012916201 
2143	 0.153387551171691 
2144	 0.153339880912717 
2145	 0.153259155723309 
2146	 0.153203328066677 
2147	 0.153157328354201 
2148	 0.153108237964221 
2149	 0.153064826991075 
2150	 0.153049744834528 
2151	 0.152988997095651 
2152	 0.152912801751329 
2153	 0.152822700969572 
2154	 0.152689110248873 
2155	 0.152595129161547 
2156	 0.152515154258577 
2157	 0.152421718107279 
2158	 0.152359438124629 
2159	 0.152253748770776 
2160	 0.152083417542894 
2161	 0.151964238190995 
2162	 0.151861326922017 
2163	 0.151747818118651 
2164	 0.151645183664998 
2165	 0.151570100069495 
2166	 0.151460107501395 
2167	 0.151321514925522 
2168	 0.151196137733795 
2169	 0.151068722073509 
2170	 0.15094451876718 
2171	 0.150818100830544 
2172	 0.150693632699638 
2173	 0.150575649260749 
2174	 0.150453917050992 
2175	 0.150324947404901 
2176	 0.150203357009049 
2177	 0.150084994487354 
2178	 0.149965769938595 
2179	 0.149856908293646 
2180	 0.149737072892823 
2181	 0.149595524406845 
2182	 0.149478747860137 
2183	 0.14937984587263 
2184	 0.14926530268038 
2185	 0.14915798807416 
2186	 0.149073536807408 
2187	 0.1489601756118 
2188	 0.148810443669205 
2189	 0.148708952342477 
2190	 0.148624550653557 
2191	 0.148536187609526 
2192	 0.148472217165161 
2193	 0.148398608194507 
2194	 0.148307176263314 
2195	 0.148235463319076 
2196	 0.148188559102864 
2197	 0.14812624132929 
2198	 0.148056858546837 
2199	 0.147995780655603 
2200	 0.147923393576293 
2201	 0.147868513821966 
2202	 0.147830110082725 
2203	 0.14780219580193 
2204	 0.147761695735404 
2205	 0.147723867152022 
2206	 0.147691671142321 
2207	 0.147644606388965 
2208	 0.147626721132961 
2209	 0.14763124349088 
2210	 0.147628897380872 
2211	 0.147630793806132 
2212	 0.147649594613414 
2213	 0.147696357033629 
2214	 0.147707116565681 
2215	 0.147694653884705 
2216	 0.147715886256463 
2217	 0.147732277203585 
2218	 0.147752398430559 
2219	 0.147819208761616 
2220	 0.147855599675504 
2221	 0.147865553528658 
2222	 0.147874885092154 
2223	 0.147864131406756 
2224	 0.14787659683026 
2225	 0.14788866063937 
2226	 0.147902144454247 
2227	 0.147902376808233 
2228	 0.147904956948657 
2229	 0.14790983769483 
2230	 0.147897610678953 
2231	 0.14790229857373 
2232	 0.147928084594558 
2233	 0.147943862554936 
2234	 0.147957816362049 
2235	 0.147966428617139 
2236	 0.147971533614371 
2237	 0.147977876553736 
2238	 0.147974078002896 
2239	 0.147982874195562 
2240	 0.148015856938044 
2241	 0.148023518432539 
2242	 0.148012941658931 
2243	 0.148014400513804 
2244	 0.148005503236699 
2245	 0.148001182820978 
2246	 0.14801242786504 
2247	 0.148026846797728 
2248	 0.1480405610478 
2249	 0.148053370363843 
2250	 0.14806200482884 
2251	 0.148071731855095 
2252	 0.148087711967593 
2253	 0.148105521117023 
2254	 0.148116473006299 
2255	 0.148131415006576 
2256	 0.148137901325092 
2257	 0.148133061602445 
2258	 0.148128675498886 
2259	 0.14810876174491 
2260	 0.148124141371281 
2261	 0.148163111827392 
2262	 0.148178790895189 
2263	 0.14820644587189 
2264	 0.1482337740836 
2265	 0.148227247934038 
2266	 0.148252745830734 
2267	 0.14833234352222 
2268	 0.14836800482764 
2269	 0.148385707899348 
2270	 0.148410829711902 
2271	 0.148399488653987 
2272	 0.148361936135309 
2273	 0.148361327218215 
2274	 0.148358757585851 
2275	 0.14837789376727 
2276	 0.148428351390985 
2277	 0.148460067258249 
2278	 0.148502621647845 
2279	 0.148519296238039 
2280	 0.148505921513121 
2281	 0.148526214080581 
2282	 0.148546748510296 
2283	 0.148580753572145 
2284	 0.148648846186595 
2285	 0.148693477175086 
2286	 0.148733259185449 
2287	 0.148762627267905 
2288	 0.148780425046291 
2289	 0.148800736614947 
2290	 0.148824679970526 
2291	 0.148830434025203 
2292	 0.148815858724347 
2293	 0.148821294956147 
2294	 0.148808837206706 
2295	 0.148814501396138 
2296	 0.148850109321138 
2297	 0.148885620454839 
2298	 0.14889835831533 
2299	 0.148916029610081 
2300	 0.148889830336404 
2301	 0.148848026237486 
2302	 0.148839070864137 
2303	 0.148861854879639 
2304	 0.14893350068667 
2305	 0.148985303637951 
2306	 0.1489943141132 
2307	 0.148966714046455 
2308	 0.14895601569462 
2309	 0.148918070265081 
2310	 0.148900509892931 
2311	 0.148894350666396 
2312	 0.148891782326089 
2313	 0.148885909364847 
2314	 0.148883227706257 
2315	 0.148899975482826 
2316	 0.148906373372024 
2317	 0.148896789765431 
2318	 0.148906845125728 
2319	 0.148926815211702 
2320	 0.148942385298273 
2321	 0.14896938848767 
2322	 0.148987583581081 
2323	 0.149003713775342 
2324	 0.149021209888721 
2325	 0.149028710644734 
2326	 0.149044822493391 
2327	 0.149048841220273 
2328	 0.149084204172095 
2329	 0.149159816134477 
2330	 0.149212536915934 
2331	 0.149299754784542 
2332	 0.14936250710529 
2333	 0.149342544278213 
2334	 0.14937133851897 
2335	 0.149391273463973 
2336	 0.149367306713107 
2337	 0.149421269319297 
2338	 0.149457090709245 
2339	 0.149442200525441 
2340	 0.14947175276158 
2341	 0.149474699132616 
2342	 0.149474451639319 
2343	 0.149519866720315 
2344	 0.149511382779842 
2345	 0.149511026058628 
2346	 0.1495038718336 
2347	 0.149500914776128 
2348	 0.149512289751716 
2349	 0.149483538292263 
2350	 0.149413781517379 
2351	 0.149369552002724 
2352	 0.149306932793748 
2353	 0.149263171469459 
2354	 0.149273534442779 
2355	 0.149220654579191 
2356	 0.149084843915282 
2357	 0.149040634347252 
2358	 0.149034543942217 
2359	 0.149012928770134 
2360	 0.149042962519598 
2361	 0.149061515031937 
2362	 0.149040425593204 
2363	 0.149032024185565 
2364	 0.149061382766278 
2365	 0.149077633082165 
2366	 0.149108269405161 
2367	 0.149082665288334 
2368	 0.149022080938026 
2369	 0.148950656387361 
2370	 0.148798403299328 
2371	 0.148711505406271 
2372	 0.148710110085529 
2373	 0.148691920484871 
2374	 0.148681112772101 
2375	 0.148637376101801 
2376	 0.148499640199873 
2377	 0.14844363759911 
2378	 0.148424674455148 
2379	 0.148383083823522 
2380	 0.148442139419554 
2381	 0.148470646608628 
2382	 0.148434722505291 
2383	 0.14842150406408 
2384	 0.148373496540711 
2385	 0.148285596133616 
2386	 0.14821195998347 
2387	 0.148192637774696 
2388	 0.148100585627324 
2389	 0.147998920011375 
2390	 0.147997971747637 
2391	 0.147932797995849 
2392	 0.147887254251021 
2393	 0.147855844210014 
2394	 0.1477651063304 
2395	 0.147701825264874 
2396	 0.147633335844436 
2397	 0.147561886284877 
2398	 0.147532303484052 
2399	 0.1475021580433 
2400	 0.147512735220615 
2401	 0.147536641086514 
2402	 0.147425137036222 
2403	 0.147349356296201 
2404	 0.147292734947499 
2405	 0.147210556065869 
2406	 0.147194617568307 
2407	 0.147147642722707 
2408	 0.147065415311958 
2409	 0.146973193419795 
2410	 0.146949503979706 
2411	 0.146929924602454 
2412	 0.146860913542944 
2413	 0.146778169514575 
2414	 0.1466272231388 
2415	 0.146442095502631 
2416	 0.146280786268556 
2417	 0.146065157569316 
2418	 0.145978695696456 
2419	 0.145981265350192 
2420	 0.145952337824739 
2421	 0.146047302485474 
2422	 0.146021898703414 
2423	 0.145892519395935 
2424	 0.145777862493384 
2425	 0.14562055957158 
2426	 0.145504287016127 
2427	 0.145400705378036 
2428	 0.145299083467028 
2429	 0.145194671196915 
2430	 0.145067893458063 
2431	 0.144961919643493 
2432	 0.144838339513677 
2433	 0.144713932664863 
2434	 0.144617313143156 
2435	 0.144462360095866 
2436	 0.144356548694861 
2437	 0.144274119407634 
2438	 0.144258565230529 
2439	 0.14436852920884 
2440	 0.144343704623641 
2441	 0.144313484784504 
2442	 0.144216734897893 
2443	 0.143960909655782 
2444	 0.143785461527547 
2445	 0.143664647846715 
2446	 0.143549822627197 
2447	 0.143427968888342 
2448	 0.143315094556921 
2449	 0.143220715576424 
2450	 0.143116193742363 
2451	 0.143019059090732 
2452	 0.142939572774245 
2453	 0.14284924487568 
2454	 0.142763197293071 
2455	 0.142679259097528 
2456	 0.142572759465258 
2457	 0.142514249816596 
2458	 0.142383487611856 
2459	 0.142148059626363 
2460	 0.142061085833949 
2461	 0.142010177146525 
2462	 0.14197033998853 
2463	 0.142051684078919 
2464	 0.14203081676312 
2465	 0.14203447107932 
2466	 0.141744746700102 
2467	 0.14111838857074 
2468	 0.141022264681842 
2469	 0.140928608124132 
2470	 0.141266947289634 
2471	 0.141620768520476 
2472	 0.141478051714642 
2473	 0.141323012259056 
2474	 0.141232668439333 
2475	 0.141092281688323 
2476	 0.141050553718097 
2477	 0.141081326670552 
2478	 0.140913235232487 
2479	 0.140864059321471 
2480	 0.140898321124321 
2481	 0.140690057006528 
2482	 0.140612421760428 
2483	 0.140515303456458 
2484	 0.140278051775918 
2485	 0.140308951914551 
2486	 0.140403762808145 
2487	 0.140371905012076 
2488	 0.140301865239953 
2489	 0.140196866042722 
2490	 0.140134652853113 
2491	 0.14006270778054 
2492	 0.140018245792096 
2493	 0.139995991939788 
2494	 0.139865601402975 
2495	 0.139750289313342 
2496	 0.139771822396191 
2497	 0.139846578313484 
2498	 0.139946680981441 
2499	 0.140028200919969 
2500	 0.139997020789808 
