Wavelength	MM600003.asd
350	 6.58653149414485E-02 
351	 6.58442354575075E-02 
352	 6.69863983465416E-02 
353	 0.069189656029625 
354	 7.06253205041182E-02 
355	 6.78320232854726E-02 
356	 6.71722449022972E-02 
357	 7.26547663322489E-02 
358	 0.070358261258548 
359	 6.82201229200934E-02 
360	 6.94582073923588E-02 
361	 7.29321829660804E-02 
362	 7.02518063510251E-02 
363	 6.78825942731547E-02 
364	 6.93949934038625E-02 
365	 7.14721128392826E-02 
366	 0.07055784757733 
367	 7.10925664725875E-02 
368	 7.63389242989247E-02 
369	 7.63849497616414E-02 
370	 7.40027851803314E-02 
371	 7.26918518309477E-02 
372	 7.53799537480228E-02 
373	 7.59034415149054E-02 
374	 7.71921600387047E-02 
375	 8.04373862328818E-02 
376	 8.19703768540024E-02 
377	 8.01479819925206E-02 
378	 7.89667884938313E-02 
379	 8.17376801690444E-02 
380	 0.081160017137374 
381	 0.080468392985051 
382	 8.12248804281216E-02 
383	 8.32839037296105E-02 
384	 0.085620106359132 
385	 8.57893629000555E-02 
386	 0.084180388331313 
387	 8.67937082191225E-02 
388	 8.90193892071186E-02 
389	 8.95055653772399E-02 
390	 8.86501894156309E-02 
391	 8.96807671933065E-02 
392	 9.03252449773351E-02 
393	 9.08362751394768E-02 
394	 9.34825844662976E-02 
395	 9.40048297988606E-02 
396	 0.093922851331352 
397	 9.46052334043978E-02 
398	 9.49416756026519E-02 
399	 0.095566467860375 
400	 0.096639282231097 
401	 9.78663180946482E-02 
402	 0.097367320145515 
403	 0.098198422280235 
404	 0.100165880337132 
405	 9.97180107481095E-02 
406	 9.99595390693241E-02 
407	 0.100891274980058 
408	 0.101751347261731 
409	 0.101384289830369 
410	 0.101270115150318 
411	 0.101751855474707 
412	 0.102528377024297 
413	 0.103099618070209 
414	 0.103225381358393 
415	 0.103151451095131 
416	 0.103671507573083 
417	 0.103954873825856 
418	 0.104217817566074 
419	 0.104716134230308 
420	 0.10504061703193 
421	 0.10457393777137 
422	 0.10413329272821 
423	 0.105150185079538 
424	 0.105096138127715 
425	 0.105075059419965 
426	 0.105642560849207 
427	 0.105502533495679 
428	 0.105401381099855 
429	 0.105368008745315 
430	 0.105270357940324 
431	 0.105307570222813 
432	 0.105361217361654 
433	 0.105431244892993 
434	 0.105632636528497 
435	 0.105577362406429 
436	 0.105756659147302 
437	 0.106341084619736 
438	 0.10617552078902 
439	 0.106290041566345 
440	 0.106797200091254 
441	 0.107297693754902 
442	 0.107289246321007 
443	 0.107435052337336 
444	 0.107921548795918 
445	 0.10804891718086 
446	 0.108336598658172 
447	 0.108704632354415 
448	 0.108978319613369 
449	 0.109322402177377 
450	 0.10973759858794 
451	 0.110071122163719 
452	 0.110079553739114 
453	 0.110173289459536 
454	 0.110372322095521 
455	 0.110621009591182 
456	 0.110877586707428 
457	 0.111096717163397 
458	 0.111308962990358 
459	 0.111577468885319 
460	 0.111942484960032 
461	 0.11204473509431 
462	 0.111927099611736 
463	 0.112229224689248 
464	 0.112580153192681 
465	 0.112710947496585 
466	 0.112570030171744 
467	 0.11284369614628 
468	 0.113114090702166 
469	 0.113207349351033 
470	 0.113189722099906 
471	 0.113301089109753 
472	 0.113491826535861 
473	 0.113674754629126 
474	 0.113814329470145 
475	 0.113867893980935 
476	 0.113936667625036 
477	 0.114150654872721 
478	 0.11432410019396 
479	 0.11458209596858 
480	 0.114844781040276 
481	 0.114708538929289 
482	 0.114775813651151 
483	 0.115007807511859 
484	 0.11521333098281 
485	 0.115408413740774 
486	 0.115429189157506 
487	 0.115356006371166 
488	 0.115456022062905 
489	 0.115537236446424 
490	 0.115672164197975 
491	 0.115874066794355 
492	 0.115888467018937 
493	 0.116007683943206 
494	 0.116165841304173 
495	 0.116179495319187 
496	 0.116370387862976 
497	 0.116496555206136 
498	 0.116503369817322 
499	 0.116695975666701 
500	 0.116724979149467 
501	 0.116771586451475 
502	 0.117019759954292 
503	 0.116959661174493 
504	 0.116857489887657 
505	 0.116884632337085 
506	 0.117084957985662 
507	 0.117203046900824 
508	 0.117329898676454 
509	 0.11753405512173 
510	 0.117646141551426 
511	 0.117615990068686 
512	 0.11757734204196 
513	 0.117722859119051 
514	 0.117775740920618 
515	 0.117831804442284 
516	 0.11795292547269 
517	 0.118076007943496 
518	 0.118181726685473 
519	 0.118193456949103 
520	 0.118098859548285 
521	 0.118290653985 
522	 0.118422442452618 
523	 0.118373318251565 
524	 0.118302767250112 
525	 0.118469105964188 
526	 0.118681251302333 
527	 0.118744208635972 
528	 0.118801983105382 
529	 0.118857395812 
530	 0.118916029404412 
531	 0.118979247908364 
532	 0.118976730830595 
533	 0.119039001325042 
534	 0.11919851046373 
535	 0.119221268484922 
536	 0.119283817666531 
537	 0.119385026028893 
538	 0.119458660783156 
539	 0.119489281523474 
540	 0.119528309615887 
541	 0.11959153926112 
542	 0.119639299504428 
543	 0.119749044195625 
544	 0.119852463034513 
545	 0.119875943481104 
546	 0.119888575932583 
547	 0.119904125083518 
548	 0.119957540652452 
549	 0.12009119796407 
550	 0.120109973360422 
551	 0.120110251323746 
552	 0.120196035641109 
553	 0.12035656694835 
554	 0.120474609463906 
555	 0.120546258654581 
556	 0.120624947388412 
557	 0.120657787028577 
558	 0.120740748138482 
559	 0.120887650082876 
560	 0.120946147034425 
561	 0.120944454720554 
562	 0.120939754897483 
563	 0.120990723821667 
564	 0.1210835067589 
565	 0.121115749144773 
566	 0.121088158611888 
567	 0.121120136144522 
568	 0.121288317573335 
569	 0.121501725012523 
570	 0.121670493075721 
571	 0.121879084246615 
572	 0.122006530580838 
573	 0.122054276360234 
574	 0.122113340868396 
575	 0.122195270939907 
576	 0.122331337724267 
577	 0.122475773499375 
578	 0.122385729313791 
579	 0.122419515795884 
580	 0.122550705774766 
581	 0.122608354540664 
582	 0.122673684316936 
583	 0.122812881842762 
584	 0.123006469794714 
585	 0.123115927727366 
586	 0.123246412849437 
587	 0.123332037447409 
588	 0.123308785941022 
589	 0.123325470217514 
590	 0.123379267999123 
591	 0.123452190363844 
592	 0.123518455458095 
593	 0.123592204153822 
594	 0.123702932722109 
595	 0.123849447414266 
596	 0.1239469413918 
597	 0.124007499260538 
598	 0.124075012103632 
599	 0.124199107036263 
600	 0.124298524436841 
601	 0.124347654254052 
602	 0.124363005680188 
603	 0.12442110028425 
604	 0.124504484937455 
605	 0.124587784618244 
606	 0.124645150114727 
607	 0.124680139305269 
608	 0.124718919202649 
609	 0.12477687387206 
610	 0.124854939559812 
611	 0.124925218245321 
612	 0.125023241691494 
613	 0.125165115676885 
614	 0.125258301950654 
615	 0.12528877953189 
616	 0.1253046292237 
617	 0.12539045504677 
618	 0.125511569770446 
619	 0.125581733798549 
620	 0.125577500057527 
621	 0.125616576239583 
622	 0.125725606583487 
623	 0.125804042406842 
624	 0.125746820323055 
625	 0.125827168788654 
626	 0.125915075709148 
627	 0.125943843919109 
628	 0.125972526182693 
629	 0.126042496496771 
630	 0.126113442297987 
631	 0.126136177051152 
632	 0.126117496663538 
633	 0.126163867295935 
634	 0.126268408595869 
635	 0.126331145000093 
636	 0.126358254241937 
637	 0.12640357444845 
638	 0.126478437066319 
639	 0.126459298833867 
640	 0.1264789662174 
641	 0.126551956643377 
642	 0.126634350146694 
643	 0.126705190246576 
644	 0.126725875181872 
645	 0.12672171616337 
646	 0.126811607276082 
647	 0.126861829619825 
648	 0.126869893197752 
649	 0.126878964965131 
650	 0.126946747631814 
651	 0.127027666002886 
652	 0.127070912849559 
653	 0.127036848920659 
654	 0.127109605258058 
655	 0.127187899777682 
656	 0.127196191168968 
657	 0.127260310930389 
658	 0.127323824173788 
659	 0.127374390277466 
660	 0.12741891146622 
661	 0.12745595665738 
662	 0.127504005575414 
663	 0.12755751075232 
664	 0.127573882317201 
665	 0.127586154208653 
666	 0.127623765638433 
667	 0.12769150875972 
668	 0.127697875409647 
669	 0.127722287953124 
670	 0.127793158802249 
671	 0.127887676536419 
672	 0.127942074336453 
673	 0.127973805727508 
674	 0.128005249923596 
675	 0.128029156440197 
676	 0.128068800881154 
677	 0.128114508078339 
678	 0.128147453693896 
679	 0.128197535139914 
680	 0.128258982923681 
681	 0.128323107413508 
682	 0.128382134829637 
683	 0.128415259177159 
684	 0.128424990172154 
685	 0.12843498838943 
686	 0.128516067997401 
687	 0.128612280922624 
688	 0.128678349048119 
689	 0.12868722497533 
690	 0.128707018013348 
691	 0.128729753999579 
692	 0.128760558701128 
693	 0.128862607411294 
694	 0.128923244214034 
695	 0.128939816489701 
696	 0.128956181563974 
697	 0.12901599477054 
698	 0.129094771485343 
699	 0.129159349394014 
700	 0.129175768822568 
701	 0.129207727052616 
702	 0.129250030043264 
703	 0.129291163383274 
704	 0.12935048777541 
705	 0.129386116049761 
706	 0.129413787192834 
707	 0.12947473723886 
708	 0.129552131162991 
709	 0.12958401425247 
710	 0.129575179308181 
711	 0.129631739421139 
712	 0.129685238460388 
713	 0.129738939812147 
714	 0.129805762911926 
715	 0.129864509513382 
716	 0.129898529210683 
717	 0.129910271213614 
718	 0.129921285968074 
719	 0.130003891478965 
720	 0.130073539617283 
721	 0.130086232040864 
722	 0.130117040225306 
723	 0.130182889788094 
724	 0.130258287447035 
725	 0.130302151969527 
726	 0.130288955607778 
727	 0.13029806760232 
728	 0.130354356413825 
729	 0.130424378212562 
730	 0.130461686368778 
731	 0.130480854996856 
732	 0.130514813352571 
733	 0.130618600287808 
734	 0.13066807154095 
735	 0.130663924856464 
736	 0.130661916819209 
737	 0.130683404216192 
738	 0.130747165014075 
739	 0.130821259171278 
740	 0.130825031456336 
741	 0.130869856727058 
742	 0.13090702941488 
743	 0.130896562152017 
744	 0.13091476371645 
745	 0.130944490028285 
746	 0.130982439880511 
747	 0.131029545512335 
748	 0.131086546514057 
749	 0.131102981733228 
750	 0.131086832789882 
751	 0.131118963237019 
752	 0.131136868731853 
753	 0.131146307988611 
754	 0.131160980481038 
755	 0.131168875955403 
756	 0.131198388957241 
757	 0.131232700288771 
758	 0.131240681444053 
759	 0.131275233874241 
760	 0.131303310825468 
761	 0.131317561837156 
762	 0.1313517184395 
763	 0.131338650210982 
764	 0.13134025839797 
765	 0.131397958036123 
766	 0.131401019665738 
767	 0.13141684205405 
768	 0.131440561169625 
769	 0.131438475725005 
770	 0.131448124077638 
771	 0.131459239938228 
772	 0.131470113940561 
773	 0.131493502600718 
774	 0.131498729960886 
775	 0.131503781602429 
776	 0.131521935471154 
777	 0.131521945658694 
778	 0.131518960927851 
779	 0.131539478990781 
780	 0.131596161051557 
781	 0.131581431114944 
782	 0.131593891339924 
783	 0.131643042895584 
784	 0.131632194747666 
785	 0.131628332066457 
786	 0.131632251586084 
787	 0.131635546749477 
788	 0.131636133268416 
789	 0.131660244260319 
790	 0.131686645475754 
791	 0.131682467630844 
792	 0.131656582290069 
793	 0.131650527826735 
794	 0.131676476895006 
795	 0.131716573982293 
796	 0.131743687059834 
797	 0.131750783740826 
798	 0.131744604318771 
799	 0.131748071695736 
800	 0.131752065001824 
801	 0.131758672567186 
802	 0.131773595370108 
803	 0.131804880722672 
804	 0.13184309280297 
805	 0.131872550555296 
806	 0.131878299599494 
807	 0.131881387609363 
808	 0.131869687097334 
809	 0.131858862506727 
810	 0.131902058959978 
811	 0.13193915782437 
812	 0.131962489670123 
813	 0.131975052482766 
814	 0.13197361048465 
815	 0.131954745088719 
816	 0.131951675883671 
817	 0.131997788855463 
818	 0.132043507242324 
819	 0.132097880907613 
820	 0.132130570114996 
821	 0.132089712593617 
822	 0.132097974563888 
823	 0.132135364779499 
824	 0.132165739836692 
825	 0.132165091942348 
826	 0.132184470320393 
827	 0.132213941452683 
828	 0.132236300567192 
829	 0.132272626952706 
830	 0.13228006102676 
831	 0.13228848625988 
832	 0.132347233224208 
833	 0.132393069392002 
834	 0.132398935263467 
835	 0.13236917601559 
836	 0.132337964782462 
837	 0.132346732524019 
838	 0.132405582621896 
839	 0.132488477181653 
840	 0.132524024509225 
841	 0.132513603736096 
842	 0.13249779366914 
843	 0.132512945816409 
844	 0.132543256833494 
845	 0.132553770307268 
846	 0.132561998037741 
847	 0.132599510411946 
848	 0.132619701138893 
849	 0.132644200068236 
850	 0.13268227421944 
851	 0.132726634833879 
852	 0.132751631228818 
853	 0.132769477577078 
854	 0.132793530795861 
855	 0.132829334813942 
856	 0.132879491630943 
857	 0.132889003342031 
858	 0.132845773065316 
859	 0.132876159030714 
860	 0.132930478111674 
861	 0.132972852849811 
862	 0.13299182168906 
863	 0.133067205711129 
864	 0.133134930484327 
865	 0.133170082882429 
866	 0.133176306695112 
867	 0.133140146680806 
868	 0.13312842496717 
869	 0.133163093515039 
870	 0.13321065291191 
871	 0.133238609085498 
872	 0.133276888592075 
873	 0.133339632496751 
874	 0.133397799950656 
875	 0.133455421260157 
876	 0.133461948704536 
877	 0.133408426508648 
878	 0.133420167771056 
879	 0.133455618413801 
880	 0.133493360078107 
881	 0.133521634925815 
882	 0.133549816281361 
883	 0.133577192308464 
884	 0.133620916931126 
885	 0.133697434798382 
886	 0.133770009663885 
887	 0.133773665756173 
888	 0.133744545014061 
889	 0.13379215565108 
890	 0.133855882397043 
891	 0.133875903575322 
892	 0.133859432676073 
893	 0.133892711961316 
894	 0.133961054595721 
895	 0.133997832271272 
896	 0.133998385170544 
897	 0.134085648035481 
898	 0.134135055150515 
899	 0.134123502559699 
900	 0.13410031172411 
901	 0.1342364487053 
902	 0.134277802747326 
903	 0.134259197337725 
904	 0.134287923209087 
905	 0.13432538413876 
906	 0.134386659448231 
907	 0.134443684774363 
908	 0.134468885078617 
909	 0.134549179574005 
910	 0.134579841792661 
911	 0.134566597546969 
912	 0.134589306399623 
913	 0.134645459845163 
914	 0.134696745426072 
915	 0.134718602317013 
916	 0.13471610075904 
917	 0.134797865301986 
918	 0.134902998473567 
919	 0.134957688134032 
920	 0.134919539936133 
921	 0.134978518335558 
922	 0.135060021030539 
923	 0.135106574327605 
924	 0.135155491121629 
925	 0.135153917928861 
926	 0.135182908801617 
927	 0.13526423344225 
928	 0.135263533595967 
929	 0.135344413812972 
930	 0.135406358108167 
931	 0.135394426801571 
932	 0.135514091222092 
933	 0.135571609627404 
934	 0.135578017905279 
935	 0.135598991745105 
936	 0.135674091917894 
937	 0.135696173078602 
938	 0.135722641610371 
939	 0.135825583951969 
940	 0.135926725805329 
941	 0.136012593991374 
942	 0.13604790289239 
943	 0.136023549448123 
944	 0.136044243773695 
945	 0.136052237003474 
946	 0.136066981550122 
947	 0.136130052071067 
948	 0.136219018687974 
949	 0.136263819411403 
950	 0.136283520822923 
951	 0.136337947596725 
952	 0.136425997064508 
953	 0.136504540968521 
954	 0.136547887780597 
955	 0.136570237652773 
956	 0.136714617785292 
957	 0.136807345935066 
958	 0.136814296722685 
959	 0.136806005988767 
960	 0.136820067537355 
961	 0.136873544811016 
962	 0.136957168061997 
963	 0.13703915335255 
964	 0.13706466893726 
965	 0.137106394950907 
966	 0.137169040755846 
967	 0.137214055336257 
968	 0.137285275736566 
969	 0.137310666303834 
970	 0.13737796201866 
971	 0.137601992191663 
972	 0.137583276696958 
973	 0.137532214679577 
974	 0.137528385630834 
975	 0.137545332929572 
976	 0.137687267589017 
977	 0.137851247440621 
978	 0.137918279123748 
979	 0.13783497415756 
980	 0.137849879655644 
981	 0.137931243534669 
982	 0.138019499410744 
983	 0.138067286177784 
984	 0.138131832696041 
985	 0.13815695630378 
986	 0.138156263837681 
987	 0.138187973788052 
988	 0.138291584062129 
989	 0.13843592269979 
990	 0.138503547239552 
991	 0.138427002202473 
992	 0.138524347139131 
993	 0.13852037562712 
994	 0.138537255985179 
995	 0.138746581004938 
996	 0.138719181313248 
997	 0.138799450991625 
998	 0.138912369828829 
999	 0.13891545538433 
1000	 0.139067652775995 
1001	 0.139314171142987 
1002	 0.139299259351054 
1003	 0.139287790974191 
1004	 0.13931848522768 
1005	 0.1393149982883 
1006	 0.139346570682763 
1007	 0.139432622847171 
1008	 0.13955656178077 
1009	 0.139602597398308 
1010	 0.13958269492808 
1011	 0.139615683172383 
1012	 0.139628256150726 
1013	 0.139612192062746 
1014	 0.139710478800845 
1015	 0.139811243517367 
1016	 0.139850759130187 
1017	 0.139917437448366 
1018	 0.140018723325643 
1019	 0.140042046885385 
1020	 0.140034188854727 
1021	 0.140124160440111 
1022	 0.140162709172475 
1023	 0.140165261282011 
1024	 0.14022652402782 
1025	 0.140236793055331 
1026	 0.140228609471357 
1027	 0.140250568880162 
1028	 0.140273703931923 
1029	 0.14031982870913 
1030	 0.14036755630112 
1031	 0.14040810172456 
1032	 0.140472209939191 
1033	 0.140498493851621 
1034	 0.140481245537671 
1035	 0.14049862346044 
1036	 0.140509492739008 
1037	 0.140537707448433 
1038	 0.140608351671907 
1039	 0.140653358582392 
1040	 0.140701624245992 
1041	 0.140785963741372 
1042	 0.140888398166896 
1043	 0.140972555680995 
1044	 0.141017166513702 
1045	 0.141038566288572 
1046	 0.141046461946696 
1047	 0.141056956210162 
1048	 0.14107778282657 
1049	 0.141135446972377 
1050	 0.141236821532957 
1051	 0.141314457554215 
1052	 0.141348478711445 
1053	 0.141406265760561 
1054	 0.141486351275005 
1055	 0.141541453122195 
1056	 0.141611236425329 
1057	 0.141677196420964 
1058	 0.141736836441017 
1059	 0.141786464864898 
1060	 0.14182973646702 
1061	 0.141894357399598 
1062	 0.141915056244706 
1063	 0.141933320783044 
1064	 0.141942416265109 
1065	 0.141912953987226 
1066	 0.141943064272974 
1067	 0.141997166372876 
1068	 0.142014650762854 
1069	 0.142067394873221 
1070	 0.142084705572781 
1071	 0.142048254317581 
1072	 0.142047359844794 
1073	 0.142061144743855 
1074	 0.142064168925328 
1075	 0.142076837148595 
1076	 0.142087410539129 
1077	 0.142066764674301 
1078	 0.142038975622041 
1079	 0.141981182830373 
1080	 0.141915464365021 
1081	 0.141904567390292 
1082	 0.141888617517408 
1083	 0.141884627216517 
1084	 0.14192777501396 
1085	 0.141944931261118 
1086	 0.141945454105021 
1087	 0.141946513132764 
1088	 0.141964144217952 
1089	 0.141935701437992 
1090	 0.141885246044045 
1091	 0.141855490372261 
1092	 0.141828999073218 
1093	 0.141812611974451 
1094	 0.14180289982017 
1095	 0.14180947523672 
1096	 0.141817434910872 
1097	 0.14185992941797 
1098	 0.141887323320543 
1099	 0.141935007661697 
1100	 0.141947535095734 
1101	 0.141914976980355 
1102	 0.141926585720753 
1103	 0.141923073246489 
1104	 0.142003293054685 
1105	 0.142059265032062 
1106	 0.142090504488399 
1107	 0.142146702904181 
1108	 0.142173261141136 
1109	 0.14220869797028 
1110	 0.142273174578712 
1111	 0.142309594639446 
1112	 0.14231105413769 
1113	 0.142342332487116 
1114	 0.142366792622071 
1115	 0.142428535950313 
1116	 0.14254703531862 
1117	 0.142609596960856 
1118	 0.14266462598139 
1119	 0.142714347396201 
1120	 0.142753565451477 
1121	 0.142777892793724 
1122	 0.142841222094155 
1123	 0.142948533829004 
1124	 0.143033139335641 
1125	 0.143120241674004 
1126	 0.143195777040587 
1127	 0.143265619088984 
1128	 0.143333972926869 
1129	 0.143397959714894 
1130	 0.143457099773057 
1131	 0.143505879457037 
1132	 0.143572623029738 
1133	 0.143642487069702 
1134	 0.143707871576785 
1135	 0.143781224883447 
1136	 0.143871398325781 
1137	 0.143918917297771 
1138	 0.143958399489801 
1139	 0.144022407054182 
1140	 0.144099435971817 
1141	 0.144153948901525 
1142	 0.144215881193971 
1143	 0.144266870429369 
1144	 0.144289520374245 
1145	 0.144329106201802 
1146	 0.144376291942977 
1147	 0.144431946103577 
1148	 0.144490615953944 
1149	 0.144549896986384 
1150	 0.144635177642853 
1151	 0.144689438695354 
1152	 0.144724378768581 
1153	 0.144765833105008 
1154	 0.144799596686243 
1155	 0.144818429032442 
1156	 0.144847333194103 
1157	 0.144877418247534 
1158	 0.144910085003826 
1159	 0.144941015100675 
1160	 0.144973551622765 
1161	 0.145020559401555 
1162	 0.145052062559026 
1163	 0.145073643887449 
1164	 0.145097047768111 
1165	 0.145114397058526 
1166	 0.145127597892418 
1167	 0.145151028086708 
1168	 0.145183015564084 
1169	 0.145194840195449 
1170	 0.145193683685719 
1171	 0.145208541869187 
1172	 0.145221515628312 
1173	 0.145233320390881 
1174	 0.145257259647557 
1175	 0.145273127833934 
1176	 0.145265390472554 
1177	 0.145283425888503 
1178	 0.14532279717341 
1179	 0.145352859810227 
1180	 0.145391141323484 
1181	 0.145424636468193 
1182	 0.145445847636103 
1183	 0.145480817534734 
1184	 0.145506539108647 
1185	 0.145535937476774 
1186	 0.145551828817171 
1187	 0.145551015806023 
1188	 0.14557009267796 
1189	 0.145599403570464 
1190	 0.145611457138458 
1191	 0.145625972428629 
1192	 0.145637174211166 
1193	 0.145624981540551 
1194	 0.145630615403213 
1195	 0.145646473180337 
1196	 0.145666078230067 
1197	 0.145693191960161 
1198	 0.145717815427513 
1199	 0.145744539395676 
1200	 0.145782702779073 
1201	 0.145801769272194 
1202	 0.145810716289519 
1203	 0.145824988498638 
1204	 0.145828469293668 
1205	 0.145845115171423 
1206	 0.145870572004152 
1207	 0.145893341561532 
1208	 0.145925055148346 
1209	 0.145945326226177 
1210	 0.145956735479961 
1211	 0.145973823127643 
1212	 0.145983362051076 
1213	 0.146001441657424 
1214	 0.146041936596906 
1215	 0.146060848276271 
1216	 0.146071689154002 
1217	 0.146071083692773 
1218	 0.146087232328 
1219	 0.146094188512918 
1220	 0.146113096503671 
1221	 0.146152726651937 
1222	 0.146180118456825 
1223	 0.146197876235546 
1224	 0.146225343053958 
1225	 0.146265355934645 
1226	 0.14629199696732 
1227	 0.146316676498513 
1228	 0.146337012252088 
1229	 0.146342916775091 
1230	 0.146357939725708 
1231	 0.146377566991942 
1232	 0.146394817671961 
1233	 0.146412546487428 
1234	 0.146429227264639 
1235	 0.146455605179142 
1236	 0.146494670478353 
1237	 0.146508286689362 
1238	 0.146517436331177 
1239	 0.146527314100636 
1240	 0.146507947994125 
1241	 0.146517917888688 
1242	 0.146560987420761 
1243	 0.146576499458823 
1244	 0.146577417581626 
1245	 0.146593515383624 
1246	 0.146607410109874 
1247	 0.146620474288275 
1248	 0.146647201209604 
1249	 0.146673913115715 
1250	 0.146677122297575 
1251	 0.146658452529279 
1252	 0.146666299192524 
1253	 0.146677551152357 
1254	 0.146685418267584 
1255	 0.146708225214999 
1256	 0.146718532600049 
1257	 0.146711280076389 
1258	 0.146719513560145 
1259	 0.146746419273677 
1260	 0.146748754705506 
1261	 0.146736414720545 
1262	 0.146732980652031 
1263	 0.146710667732911 
1264	 0.146708707718622 
1265	 0.146730312648292 
1266	 0.146744105209711 
1267	 0.146763494120934 
1268	 0.146778615828005 
1269	 0.146791370468011 
1270	 0.146799201938054 
1271	 0.146811988888605 
1272	 0.146814344947862 
1273	 0.146845183886049 
1274	 0.146890075499451 
1275	 0.146935871904713 
1276	 0.147009064034811 
1277	 0.147061931175487 
1278	 0.147100610591593 
1279	 0.147149430968931 
1280	 0.147200419437709 
1281	 0.147247710290478 
1282	 0.147303122237411 
1283	 0.147349851107305 
1284	 0.14739078751538 
1285	 0.147423467747209 
1286	 0.147464920515185 
1287	 0.147504618085002 
1288	 0.147535546543657 
1289	 0.147570666037565 
1290	 0.147587456088189 
1291	 0.147588634690921 
1292	 0.147589460717803 
1293	 0.147579724285163 
1294	 0.147570928092245 
1295	 0.147562934506219 
1296	 0.147544991282133 
1297	 0.147524580464165 
1298	 0.147493318837368 
1299	 0.147460354905346 
1300	 0.147405020920278 
1301	 0.147311602328603 
1302	 0.147247460029374 
1303	 0.14718565422458 
1304	 0.147119104150789 
1305	 0.147071677942904 
1306	 0.147041850245385 
1307	 0.146983063555008 
1308	 0.146916553212199 
1309	 0.146871047103843 
1310	 0.146837407165416 
1311	 0.146790389583816 
1312	 0.146753459577736 
1313	 0.146703325532197 
1314	 0.146624230566325 
1315	 0.146579611320275 
1316	 0.146551146890685 
1317	 0.146522254932011 
1318	 0.146508775324105 
1319	 0.146489257089441 
1320	 0.146465237677645 
1321	 0.146447280400649 
1322	 0.146422745825564 
1323	 0.146422959006272 
1324	 0.14643129452262 
1325	 0.146439039774627 
1326	 0.146458161614099 
1327	 0.146467585427918 
1328	 0.146474312608519 
1329	 0.146485144128875 
1330	 0.146507667555055 
1331	 0.14653683205093 
1332	 0.146575657326409 
1333	 0.146633760239309 
1334	 0.146674866252736 
1335	 0.146711579104012 
1336	 0.146756082532531 
1337	 0.146792869462213 
1338	 0.146839232527583 
1339	 0.146902755479986 
1340	 0.146957742835651 
1341	 0.147006220522588 
1342	 0.147059875982742 
1343	 0.147115745980347 
1344	 0.14716959017274 
1345	 0.147228509688203 
1346	 0.147301923387437 
1347	 0.147368875198948 
1348	 0.147436124608487 
1349	 0.147497651124914 
1350	 0.14755046304825 
1351	 0.147615304533319 
1352	 0.147691138396883 
1353	 0.147742940822777 
1354	 0.147790356831924 
1355	 0.14783777011515 
1356	 0.147859264342497 
1357	 0.147910471465183 
1358	 0.147981799341415 
1359	 0.148046270852275 
1360	 0.148128458785805 
1361	 0.148186582243324 
1362	 0.148230463037332 
1363	 0.148276686640272 
1364	 0.148313186257593 
1365	 0.148347526874539 
1366	 0.148376413368671 
1367	 0.148413325773303 
1368	 0.148459683122113 
1369	 0.148492703274701 
1370	 0.148521816151692 
1371	 0.148558491448046 
1372	 0.148574636975271 
1373	 0.148590257977295 
1374	 0.148614072470655 
1375	 0.148654491914971 
1376	 0.148664436634826 
1377	 0.1486598136674 
1378	 0.148664771001497 
1379	 0.148662100751691 
1380	 0.148655792965028 
1381	 0.148664462978418 
1382	 0.148648001918336 
1383	 0.148608131095011 
1384	 0.148570318503447 
1385	 0.148525218053084 
1386	 0.148475029980812 
1387	 0.148420055669409 
1388	 0.148360519092053 
1389	 0.148296904706456 
1390	 0.148226779092539 
1391	 0.148153224698496 
1392	 0.148070842260132 
1393	 0.147973336582063 
1394	 0.147880519466347 
1395	 0.147775624719542 
1396	 0.147651884062968 
1397	 0.147525920792912 
1398	 0.147387803453225 
1399	 0.147252379000946 
1400	 0.147101974516991 
1401	 0.146974145954101 
1402	 0.146855931377905 
1403	 0.146743821452819 
1404	 0.146648239714554 
1405	 0.146544599243592 
1406	 0.146440736766731 
1407	 0.146334089075792 
1408	 0.146224487500527 
1409	 0.146120154439 
1410	 0.146000873852238 
1411	 0.145912675263325 
1412	 0.145840161618499 
1413	 0.145773500188993 
1414	 0.145733722190073 
1415	 0.14570954521541 
1416	 0.145676083050204 
1417	 0.145646824299307 
1418	 0.145627494344254 
1419	 0.1456123358738 
1420	 0.145594099095574 
1421	 0.145586474430904 
1422	 0.145583979646309 
1423	 0.145564001749928 
1424	 0.145546418238226 
1425	 0.145529032006751 
1426	 0.145512386272475 
1427	 0.145482662967175 
1428	 0.145476831392527 
1429	 0.145488905730507 
1430	 0.145487215373932 
1431	 0.145491590384579 
1432	 0.145493737387581 
1433	 0.145491658884234 
1434	 0.145488989350674 
1435	 0.145485945670733 
1436	 0.145481488933478 
1437	 0.14546325769316 
1438	 0.145459359373568 
1439	 0.145456310973345 
1440	 0.145478149640157 
1441	 0.14550215588484 
1442	 0.145525734495965 
1443	 0.145544746068928 
1444	 0.145558601397706 
1445	 0.145564146816118 
1446	 0.14555867862985 
1447	 0.145575081996384 
1448	 0.145593060685129 
1449	 0.145596423059478 
1450	 0.14562707206094 
1451	 0.145647399435699 
1452	 0.145653393050855 
1453	 0.145678022699723 
1454	 0.145719502101521 
1455	 0.145744867264261 
1456	 0.145770153739284 
1457	 0.145794733656227 
1458	 0.145810974440944 
1459	 0.145834761519579 
1460	 0.145861272156897 
1461	 0.145890294226308 
1462	 0.14592241877293 
1463	 0.145956755580353 
1464	 0.145993380252054 
1465	 0.146032738844562 
1466	 0.146078487810269 
1467	 0.146117820692102 
1468	 0.146160889363746 
1469	 0.146194122351795 
1470	 0.146214119135873 
1471	 0.146244995762822 
1472	 0.146263536798888 
1473	 0.146289473024091 
1474	 0.146327872909644 
1475	 0.146347418376746 
1476	 0.146379326233566 
1477	 0.146429061275486 
1478	 0.146479198165223 
1479	 0.146533409859321 
1480	 0.146585177549885 
1481	 0.146628582653532 
1482	 0.146681927942378 
1483	 0.146738427347347 
1484	 0.146795582799599 
1485	 0.146864740880599 
1486	 0.146916456499658 
1487	 0.146954751089119 
1488	 0.147000115343192 
1489	 0.147038723410785 
1490	 0.147083864804873 
1491	 0.147139720284273 
1492	 0.147188648384141 
1493	 0.147231134530264 
1494	 0.147281461685878 
1495	 0.147337566100634 
1496	 0.147384151670154 
1497	 0.147434075571087 
1498	 0.14747743181182 
1499	 0.147509826484223 
1500	 0.147543513202732 
1501	 0.14757374713545 
1502	 0.147605328808594 
1503	 0.147630722111539 
1504	 0.14766726642964 
1505	 0.147709573433219 
1506	 0.147750163197515 
1507	 0.147792608654129 
1508	 0.147838470553273 
1509	 0.147880953630683 
1510	 0.147922039640187 
1511	 0.147962000793999 
1512	 0.147994441558447 
1513	 0.148032285404059 
1514	 0.148076446143526 
1515	 0.148122909435027 
1516	 0.148170161754759 
1517	 0.148204447713614 
1518	 0.148223561705075 
1519	 0.148255691139901 
1520	 0.148286745568299 
1521	 0.148318286845451 
1522	 0.148359863000409 
1523	 0.14838980720051 
1524	 0.148408316790122 
1525	 0.148435091216654 
1526	 0.148463370609819 
1527	 0.148489419511335 
1528	 0.148520361024041 
1529	 0.148544808971706 
1530	 0.148558597150943 
1531	 0.148582355691181 
1532	 0.148613341963438 
1533	 0.148634259022644 
1534	 0.148655226515354 
1535	 0.148675956271853 
1536	 0.148687115466299 
1537	 0.148701426780909 
1538	 0.148717173075886 
1539	 0.148738111501622 
1540	 0.148763277122306 
1541	 0.148784522954452 
1542	 0.148811987391351 
1543	 0.148834301201358 
1544	 0.148847978559042 
1545	 0.148861718753907 
1546	 0.148880386414072 
1547	 0.148886383609912 
1548	 0.148881404694886 
1549	 0.148907059434723 
1550	 0.148934934185112 
1551	 0.148959985077424 
1552	 0.149002406620008 
1553	 0.149019147892721 
1554	 0.149039142173922 
1555	 0.149071421195094 
1556	 0.149080677922029 
1557	 0.149093962668606 
1558	 0.149104116725054 
1559	 0.149108817095287 
1560	 0.149128668575102 
1561	 0.149165277287529 
1562	 0.149188349811999 
1563	 0.149211132806926 
1564	 0.149231232912928 
1565	 0.149240501612555 
1566	 0.149265898726051 
1567	 0.149301588586715 
1568	 0.149330468141583 
1569	 0.149369723830396 
1570	 0.149391498237261 
1571	 0.149404952751888 
1572	 0.149412662106057 
1573	 0.149405149007883 
1574	 0.1494072825426 
1575	 0.149400066762951 
1576	 0.14941051133916 
1577	 0.149436174719597 
1578	 0.149456447954867 
1579	 0.14949564565584 
1580	 0.149506973513447 
1581	 0.149498172418043 
1582	 0.149499983459603 
1583	 0.149483434788025 
1584	 0.149485721585996 
1585	 0.149505528706413 
1586	 0.149518343842792 
1587	 0.149533783030645 
1588	 0.149552733248398 
1589	 0.149581265041643 
1590	 0.149594268167968 
1591	 0.149595676146895 
1592	 0.14960668678742 
1593	 0.149603708402931 
1594	 0.149619105059468 
1595	 0.149666402733498 
1596	 0.149689988881193 
1597	 0.149708941448338 
1598	 0.149722972323044 
1599	 0.149716730530973 
1600	 0.149720671729932 
1601	 0.14972806887741 
1602	 0.149736178219766 
1603	 0.149751298130604 
1604	 0.149761424799211 
1605	 0.149764902333755 
1606	 0.149775720042567 
1607	 0.149788026421802 
1608	 0.149801385382088 
1609	 0.149816682682963 
1610	 0.149834672034734 
1611	 0.149853336823892 
1612	 0.149861793179337 
1613	 0.149879835252608 
1614	 0.149912566762787 
1615	 0.149930513199101 
1616	 0.149938962208388 
1617	 0.149937293775117 
1618	 0.149929431271096 
1619	 0.149932784079649 
1620	 0.149936273512746 
1621	 0.149947674159022 
1622	 0.149973270254256 
1623	 0.149975399247221 
1624	 0.149966909957365 
1625	 0.149975275281593 
1626	 0.149977602617285 
1627	 0.149984245248095 
1628	 0.150007140430368 
1629	 0.150021024347908 
1630	 0.150023275035618 
1631	 0.150037285920511 
1632	 0.15006260293796 
1633	 0.150078831653929 
1634	 0.150090376688233 
1635	 0.150106392701782 
1636	 0.150127410236172 
1637	 0.150138466220716 
1638	 0.150143576601497 
1639	 0.150156551558366 
1640	 0.15016316254405 
1641	 0.150179609622421 
1642	 0.150209100648358 
1643	 0.150231210455326 
1644	 0.150258865951164 
1645	 0.150267892624034 
1646	 0.15026265049031 
1647	 0.15027163514373 
1648	 0.150278162040666 
1649	 0.150279758031535 
1650	 0.15028975388576 
1651	 0.150292911405584 
1652	 0.150280403889325 
1653	 0.150277050201922 
1654	 0.150282582648448 
1655	 0.150283471051036 
1656	 0.150272782242959 
1657	 0.150281704433217 
1658	 0.150306114487545 
1659	 0.150318954694282 
1660	 0.15034186808739 
1661	 0.150349081777046 
1662	 0.150340264279166 
1663	 0.150338720015782 
1664	 0.150329306418017 
1665	 0.150334149174234 
1666	 0.150349505983451 
1667	 0.150357403123428 
1668	 0.150368166645753 
1669	 0.150381073099084 
1670	 0.150393718586015 
1671	 0.150400825612465 
1672	 0.150409441580312 
1673	 0.150418015339999 
1674	 0.150416351921298 
1675	 0.150423845082974 
1676	 0.150449412285236 
1677	 0.15045109758613 
1678	 0.150428760909928 
1679	 0.150436720713949 
1680	 0.150454142900666 
1681	 0.15046029158138 
1682	 0.150479442364525 
1683	 0.150494807104175 
1684	 0.150490017411954 
1685	 0.150501983049799 
1686	 0.15053785065269 
1687	 0.150555310983204 
1688	 0.150568505748984 
1689	 0.150571572584713 
1690	 0.150563445505991 
1691	 0.15055946769266 
1692	 0.150541662998792 
1693	 0.150540773196931 
1694	 0.150548290264236 
1695	 0.150560827679876 
1696	 0.150583096624436 
1697	 0.150606239804575 
1698	 0.150644120685265 
1699	 0.150658843139863 
1700	 0.150669181010249 
1701	 0.150668788539708 
1702	 0.150645726576913 
1703	 0.150631914331052 
1704	 0.150606112438034 
1705	 0.150606286774905 
1706	 0.150626483806463 
1707	 0.150631848507182 
1708	 0.150650414093599 
1709	 0.150654145060477 
1710	 0.150636269721361 
1711	 0.150631062502049 
1712	 0.150629884108351 
1713	 0.150629696433056 
1714	 0.150622606875984 
1715	 0.150635947961372 
1716	 0.150665907729134 
1717	 0.150688968653275 
1718	 0.150735620885544 
1719	 0.150737617112743 
1720	 0.150713510642956 
1721	 0.150694218845698 
1722	 0.150640651801425 
1723	 0.150631635861244 
1724	 0.150649915361702 
1725	 0.150645587107825 
1726	 0.150656933982295 
1727	 0.15064890736026 
1728	 0.150610966861218 
1729	 0.150599516755078 
1730	 0.150595818484662 
1731	 0.150591435819687 
1732	 0.15060011843334 
1733	 0.150596040692126 
1734	 0.150585361782473 
1735	 0.150574873184307 
1736	 0.150566554382895 
1737	 0.150542500301178 
1738	 0.150505291973268 
1739	 0.150483670954667 
1740	 0.150452043125131 
1741	 0.150436616102613 
1742	 0.150443051722508 
1743	 0.150438401245716 
1744	 0.150432852792077 
1745	 0.150426295229716 
1746	 0.150419165690063 
1747	 0.150420564239479 
1748	 0.15040596382852 
1749	 0.150376909136255 
1750	 0.150365489659212 
1751	 0.150344387849664 
1752	 0.150321781335915 
1753	 0.150331655740997 
1754	 0.150311878410011 
1755	 0.150274494415851 
1756	 0.150273722604644 
1757	 0.150256049194072 
1758	 0.150229905526188 
1759	 0.150254277883112 
1760	 0.150269728685168 
1761	 0.150253297972162 
1762	 0.150275769787346 
1763	 0.150290828923303 
1764	 0.150265533846738 
1765	 0.150258233612906 
1766	 0.15025281424233 
1767	 0.150220478021689 
1768	 0.150191171905983 
1769	 0.150186609109893 
1770	 0.150182904431719 
1771	 0.150178292861886 
1772	 0.150175526071493 
1773	 0.150181621881374 
1774	 0.150193385120273 
1775	 0.150194014175144 
1776	 0.15020866038087 
1777	 0.150211922802877 
1778	 0.150187912847723 
1779	 0.150165260750938 
1780	 0.150164166547906 
1781	 0.150173804773006 
1782	 0.150170731792232 
1783	 0.150193762589546 
1784	 0.150199438992767 
1785	 0.150173232062239 
1786	 0.150176565109049 
1787	 0.15019924805176 
1788	 0.150207333886343 
1789	 0.150221931963615 
1790	 0.150230775971589 
1791	 0.150219858041919 
1792	 0.150233779945161 
1793	 0.150268315974038 
1794	 0.150287880544192 
1795	 0.150318921525012 
1796	 0.150324161175636 
1797	 0.15030477077407 
1798	 0.150293677374613 
1799	 0.150273379928004 
1800	 0.150256622797615 
1801	 0.148289627290861 
1802	 0.148308583173202 
1803	 0.148341133150165 
1804	 0.148379292381037 
1805	 0.148408775070882 
1806	 0.148440867835772 
1807	 0.148462568090603 
1808	 0.148481716352123 
1809	 0.148489369342085 
1810	 0.148506894975855 
1811	 0.148527846281195 
1812	 0.148545076110878 
1813	 0.148569333921822 
1814	 0.14858488867455 
1815	 0.148589332544397 
1816	 0.148590448525434 
1817	 0.148600365498334 
1818	 0.148614374097549 
1819	 0.148621801678875 
1820	 0.148634113448848 
1821	 0.148640182443075 
1822	 0.148637559550809 
1823	 0.148617216921821 
1824	 0.148609904379945 
1825	 0.148627404165392 
1826	 0.148636423476523 
1827	 0.148636116060515 
1828	 0.148639123114483 
1829	 0.148640743043273 
1830	 0.148634393667044 
1831	 0.148618219624573 
1832	 0.14861998083297 
1833	 0.148621824162059 
1834	 0.148631457001498 
1835	 0.148654845935255 
1836	 0.148678840402708 
1837	 0.148692042475714 
1838	 0.14869772711003 
1839	 0.14871284095229 
1840	 0.148733468865415 
1841	 0.1487492917206 
1842	 0.148751163402748 
1843	 0.148766368232045 
1844	 0.148760164241547 
1845	 0.148720754682867 
1846	 0.148711610413478 
1847	 0.148701045729688 
1848	 0.148654187233228 
1849	 0.14862443959564 
1850	 0.148597305353657 
1851	 0.148566977786413 
1852	 0.14851575861313 
1853	 0.148501023566803 
1854	 0.148490221107224 
1855	 0.148458671844524 
1856	 0.148442816462721 
1857	 0.148426753035707 
1858	 0.148399255463184 
1859	 0.148376979227988 
1860	 0.148341390201764 
1861	 0.148297811360347 
1862	 0.148237268457623 
1863	 0.148172572146709 
1864	 0.148085376539034 
1865	 0.148010450752653 
1866	 0.147941034748287 
1867	 0.147841839196022 
1868	 0.14774347266098 
1869	 0.147618333458506 
1870	 0.147474043384224 
1871	 0.147337558350861 
1872	 0.147203001662213 
1873	 0.147065994723539 
1874	 0.146931876856412 
1875	 0.146779610126087 
1876	 0.146604910979922 
1877	 0.146412493798314 
1878	 0.146195227227163 
1879	 0.145980115218638 
1880	 0.145738785356599 
1881	 0.145482520011235 
1882	 0.145196335895761 
1883	 0.14488556671998 
1884	 0.144549988943355 
1885	 0.144214542970908 
1886	 0.143854421250081 
1887	 0.14348161052172 
1888	 0.143099661688239 
1889	 0.142667773802168 
1890	 0.142215076162554 
1891	 0.141775685925305 
1892	 0.1413132213069 
1893	 0.140878158311693 
1894	 0.140452385268701 
1895	 0.140055868258094 
1896	 0.139636763901635 
1897	 0.139212809003185 
1898	 0.138782010812007 
1899	 0.138338914514402 
1900	 0.137927646388806 
1901	 0.137558708024669 
1902	 0.137185800811914 
1903	 0.136810327455717 
1904	 0.136475098182411 
1905	 0.136170306580779 
1906	 0.135859291315108 
1907	 0.135574236546616 
1908	 0.135321213256831 
1909	 0.135083131318415 
1910	 0.134855413437693 
1911	 0.134642135897039 
1912	 0.134458734211503 
1913	 0.134278058763386 
1914	 0.134089954650514 
1915	 0.133929512196598 
1916	 0.133784604113563 
1917	 0.133673376376012 
1918	 0.133562421168489 
1919	 0.133468450088559 
1920	 0.133408830853698 
1921	 0.133322856090284 
1922	 0.133234818179349 
1923	 0.133178272931651 
1924	 0.133126503265607 
1925	 0.133066800109928 
1926	 0.133043894214373 
1927	 0.133054068512998 
1928	 0.133061520054508 
1929	 0.133078695176282 
1930	 0.133104974848699 
1931	 0.133121383734393 
1932	 0.133145489964795 
1933	 0.133198445841208 
1934	 0.133242140505754 
1935	 0.13328244614412 
1936	 0.133313909429269 
1937	 0.133376561596044 
1938	 0.133445180563398 
1939	 0.133518378682503 
1940	 0.13362113424391 
1941	 0.133718356595365 
1942	 0.133793446405467 
1943	 0.133873794502846 
1944	 0.133948386877961 
1945	 0.134022964228568 
1946	 0.134099714045683 
1947	 0.13416254776978 
1948	 0.134248811298685 
1949	 0.134351572394498 
1950	 0.134450703076394 
1951	 0.134555644999286 
1952	 0.134673366281675 
1953	 0.134774541514935 
1954	 0.134883161549112 
1955	 0.135025083310744 
1956	 0.135153321892691 
1957	 0.135271814438492 
1958	 0.13539410120924 
1959	 0.135512821464182 
1960	 0.135607943114688 
1961	 0.135721327696834 
1962	 0.135846025220999 
1963	 0.135975927062855 
1964	 0.136112198473327 
1965	 0.136242187200935 
1966	 0.136395249128806 
1967	 0.136532558574604 
1968	 0.136673838521917 
1969	 0.136811989985869 
1970	 0.136959350463136 
1971	 0.137115090513112 
1972	 0.137264758435052 
1973	 0.137425107828495 
1974	 0.137564769132269 
1975	 0.137685944533075 
1976	 0.137809198989326 
1977	 0.137948359889643 
1978	 0.138091106781715 
1979	 0.138244024014766 
1980	 0.138398214104259 
1981	 0.138550877820936 
1982	 0.138697387478882 
1983	 0.138846432984133 
1984	 0.138999075226418 
1985	 0.139152129638974 
1986	 0.139299883033615 
1987	 0.13944922031813 
1988	 0.1395998137294 
1989	 0.139762993631755 
1990	 0.139915146663364 
1991	 0.140065480596674 
1992	 0.140205430674556 
1993	 0.140335178137336 
1994	 0.14047408756063 
1995	 0.140601192904118 
1996	 0.140742788964497 
1997	 0.140906375465678 
1998	 0.141050712063615 
1999	 0.141196929589465 
2000	 0.141333776466007 
2001	 0.141459511752248 
2002	 0.141574228643429 
2003	 0.141701468961749 
2004	 0.141820629643313 
2005	 0.141948089723174 
2006	 0.142086595042306 
2007	 0.142213240891338 
2008	 0.142333218735816 
2009	 0.142459011450787 
2010	 0.142581768031059 
2011	 0.142707643420487 
2012	 0.142839540853043 
2013	 0.142970766802381 
2014	 0.143110251967313 
2015	 0.143230904505237 
2016	 0.143357457715688 
2017	 0.14348452405029 
2018	 0.143607416428737 
2019	 0.143723115703446 
2020	 0.143847587728036 
2021	 0.14397674119739 
2022	 0.144099493514184 
2023	 0.144227546515318 
2024	 0.144343482064037 
2025	 0.144450753264579 
2026	 0.144556779020863 
2027	 0.144652673161822 
2028	 0.144744607715592 
2029	 0.144862186974218 
2030	 0.144994406694286 
2031	 0.145114291200547 
2032	 0.145254680303082 
2033	 0.145368261598337 
2034	 0.145453121706357 
2035	 0.145556230698332 
2036	 0.1456662573885 
2037	 0.145766141687737 
2038	 0.145867571132804 
2039	 0.145963608895746 
2040	 0.146048763859068 
2041	 0.146129097127318 
2042	 0.146225271557883 
2043	 0.14632584750379 
2044	 0.146417084205543 
2045	 0.146512430875469 
2046	 0.146595868541501 
2047	 0.146659113882228 
2048	 0.146742894855263 
2049	 0.146834216194986 
2050	 0.146922079572381 
2051	 0.147029423537253 
2052	 0.147112087615024 
2053	 0.147170871289033 
2054	 0.147240104155899 
2055	 0.14729651395314 
2056	 0.147369575385223 
2057	 0.147436054325919 
2058	 0.147510603347506 
2059	 0.147574974927772 
2060	 0.14763359014022 
2061	 0.147690396394185 
2062	 0.147738057897997 
2063	 0.147798074992545 
2064	 0.147856597866766 
2065	 0.147924737500161 
2066	 0.148010417181838 
2067	 0.14808602321067 
2068	 0.148169186461482 
2069	 0.148238675917992 
2070	 0.148301516794364 
2071	 0.148351062667887 
2072	 0.148415231971348 
2073	 0.148474656701455 
2074	 0.148542533886885 
2075	 0.148623992572727 
2076	 0.14869803942945 
2077	 0.148769543935766 
2078	 0.148842194498933 
2079	 0.148922298790608 
2080	 0.148990699216373 
2081	 0.14904811742487 
2082	 0.149112007466385 
2083	 0.149173960283332 
2084	 0.149227717770722 
2085	 0.149300077865966 
2086	 0.1493921108381 
2087	 0.149462109095998 
2088	 0.149532645245908 
2089	 0.149594932215518 
2090	 0.149642208296378 
2091	 0.149694175291632 
2092	 0.149740967833903 
2093	 0.149796819976397 
2094	 0.149850530865475 
2095	 0.149911310750347 
2096	 0.149985313564501 
2097	 0.150055699204112 
2098	 0.150122778677588 
2099	 0.150193180771158 
2100	 0.150279411204484 
2101	 0.150380763675403 
2102	 0.15046197425087 
2103	 0.150551477613891 
2104	 0.150627863653102 
2105	 0.150684207626555 
2106	 0.150746423704292 
2107	 0.150802173864432 
2108	 0.150872368334922 
2109	 0.150942307748333 
2110	 0.151018874598158 
2111	 0.15112173038501 
2112	 0.151205229153245 
2113	 0.151275567459391 
2114	 0.151348015070161 
2115	 0.15142828613395 
2116	 0.151510126150899 
2117	 0.151583826504293 
2118	 0.151662366248476 
2119	 0.151734809550544 
2120	 0.151794004283039 
2121	 0.151859918697075 
2122	 0.151933190841734 
2123	 0.152000062209092 
2124	 0.152071022271648 
2125	 0.152122699897246 
2126	 0.152163861768733 
2127	 0.152204017465666 
2128	 0.152218459126546 
2129	 0.15224956286492 
2130	 0.152303727092322 
2131	 0.152335195694312 
2132	 0.152364420954341 
2133	 0.152394500874595 
2134	 0.152414841015248 
2135	 0.152425517357333 
2136	 0.152426643723299 
2137	 0.152427474907299 
2138	 0.152410261854021 
2139	 0.1523767962015 
2140	 0.152333431149564 
2141	 0.152265969791136 
2142	 0.152212282014827 
2143	 0.152145570611748 
2144	 0.152093445792462 
2145	 0.152061075287677 
2146	 0.152020478594989 
2147	 0.151984714169022 
2148	 0.151950114528327 
2149	 0.151887786624518 
2150	 0.151804770815915 
2151	 0.151735258313902 
2152	 0.151656066485947 
2153	 0.151572007845623 
2154	 0.151499882422529 
2155	 0.151408630494649 
2156	 0.151292319833897 
2157	 0.151185379299248 
2158	 0.151064278703312 
2159	 0.15096788246829 
2160	 0.150878945684497 
2161	 0.150797274710046 
2162	 0.150764883241832 
2163	 0.150686602218955 
2164	 0.150590274443815 
2165	 0.150477450388063 
2166	 0.150364217132045 
2167	 0.150220988362269 
2168	 0.150095979133224 
2169	 0.149977848906465 
2170	 0.149861969424686 
2171	 0.149750430116914 
2172	 0.149625833654214 
2173	 0.149495257872815 
2174	 0.149376413367023 
2175	 0.14924254802153 
2176	 0.149128177932546 
2177	 0.149048408336739 
2178	 0.148944166159956 
2179	 0.148839218734681 
2180	 0.148723685276423 
2181	 0.148587217567972 
2182	 0.148458473315197 
2183	 0.148321927268977 
2184	 0.148192152290911 
2185	 0.148068954858174 
2186	 0.147950521584311 
2187	 0.147839300237936 
2188	 0.147726358470132 
2189	 0.147639185938127 
2190	 0.147576780792479 
2191	 0.147499692079205 
2192	 0.147438315725006 
2193	 0.147365601691527 
2194	 0.147262923406514 
2195	 0.147196875600834 
2196	 0.147159276580221 
2197	 0.147107319339336 
2198	 0.147080383227183 
2199	 0.147027167310497 
2200	 0.146936561740213 
2201	 0.14686824647606 
2202	 0.146797315781191 
2203	 0.146730494761247 
2204	 0.146686880392633 
2205	 0.146667922841052 
2206	 0.146642261221021 
2207	 0.146626211640485 
2208	 0.146612090428101 
2209	 0.146586772237015 
2210	 0.146600451470084 
2211	 0.146649037921723 
2212	 0.146673462748257 
2213	 0.146708290814948 
2214	 0.146744557524803 
2215	 0.146764162773529 
2216	 0.146797386839609 
2217	 0.146868153565644 
2218	 0.146905455791636 
2219	 0.146919098949239 
2220	 0.146939102762277 
2221	 0.146952353694575 
2222	 0.146953514156441 
2223	 0.146979822797795 
2224	 0.14698678313642 
2225	 0.147003381085352 
2226	 0.147026671805601 
2227	 0.14703671556405 
2228	 0.147047722798874 
2229	 0.147042302630005 
2230	 0.147016588603937 
2231	 0.146999624493951 
2232	 0.146971634701335 
2233	 0.146962369094995 
2234	 0.146955727930648 
2235	 0.146962472919408 
2236	 0.146998800736739 
2237	 0.147005429595799 
2238	 0.147005825564364 
2239	 0.147008717664533 
2240	 0.146982327208904 
2241	 0.146981934751382 
2242	 0.147019374988002 
2243	 0.147029570534156 
2244	 0.147031550553793 
2245	 0.147041463589313 
2246	 0.147025626131997 
2247	 0.146960441683817 
2248	 0.146953417248313 
2249	 0.146948701170973 
2250	 0.146974126042413 
2251	 0.147057851048284 
2252	 0.147082173129944 
2253	 0.147101420400111 
2254	 0.147105762050432 
2255	 0.147061161181265 
2256	 0.147064901527549 
2257	 0.147093627042491 
2258	 0.147102122315638 
2259	 0.147111448008528 
2260	 0.147129916602387 
2261	 0.147148591490741 
2262	 0.147159866452891 
2263	 0.147177149453582 
2264	 0.147200311926534 
2265	 0.147214053283018 
2266	 0.14723128479267 
2267	 0.147267867954167 
2268	 0.147292697292963 
2269	 0.147320076775247 
2270	 0.147314092749839 
2271	 0.147322115035241 
2272	 0.14732657689563 
2273	 0.147303869335775 
2274	 0.147301158286084 
2275	 0.147313481636271 
2276	 0.147339418407872 
2277	 0.147351137554216 
2278	 0.147384514512092 
2279	 0.147387655300331 
2280	 0.147351757247816 
2281	 0.147358249759068 
2282	 0.147374522645668 
2283	 0.147391082607959 
2284	 0.147421607132551 
2285	 0.147457662634989 
2286	 0.147512144604628 
2287	 0.14753325433302 
2288	 0.147542392782304 
2289	 0.147566081946836 
2290	 0.1475728525587 
2291	 0.147585642432081 
2292	 0.147624895488731 
2293	 0.14763982092116 
2294	 0.147619021608603 
2295	 0.147624043283783 
2296	 0.147628495237171 
2297	 0.147659706350364 
2298	 0.147710414606638 
2299	 0.14774381353843 
2300	 0.147728028958809 
2301	 0.147711057945006 
2302	 0.147744206011694 
2303	 0.147735513732963 
2304	 0.147719359694497 
2305	 0.147754173053468 
2306	 0.147754857501456 
2307	 0.147715645978215 
2308	 0.147686768307793 
2309	 0.14766218401186 
2310	 0.147643308105737 
2311	 0.14760939375532 
2312	 0.147583519397067 
2313	 0.147589634551952 
2314	 0.147572607955711 
2315	 0.147528063308822 
2316	 0.14750177127471 
2317	 0.147476986820061 
2318	 0.147457712028821 
2319	 0.147422780179683 
2320	 0.147434913950188 
2321	 0.147502106729155 
2322	 0.147531056840893 
2323	 0.147578304501053 
2324	 0.147602464527496 
2325	 0.147574980251448 
2326	 0.147573685796274 
2327	 0.147563640820509 
2328	 0.147605922059269 
2329	 0.147654238903983 
2330	 0.1476812426815 
2331	 0.147733576790849 
2332	 0.147794638320755 
2333	 0.147827439756778 
2334	 0.14787821521867 
2335	 0.147923562193796 
2336	 0.147932012158646 
2337	 0.14794284692717 
2338	 0.147932615217996 
2339	 0.147919574525902 
2340	 0.147873250159487 
2341	 0.147825174801787 
2342	 0.147818730758058 
2343	 0.147820821880701 
2344	 0.147847764934019 
2345	 0.147858239836474 
2346	 0.14788853427412 
2347	 0.147879786517749 
2348	 0.147847042697504 
2349	 0.147802036278589 
2350	 0.147716607610259 
2351	 0.147643366656096 
2352	 0.147563709394573 
2353	 0.147503803050578 
2354	 0.147458345817253 
2355	 0.147427544154497 
2356	 0.147413670376171 
2357	 0.147380038864014 
2358	 0.147335028270349 
2359	 0.147301991530644 
2360	 0.147259155796691 
2361	 0.147242463378825 
2362	 0.147272015270724 
2363	 0.147265819446837 
2364	 0.14725522849134 
2365	 0.14722931863151 
2366	 0.147192022630993 
2367	 0.147130426112177 
2368	 0.147045111943265 
2369	 0.146968838669183 
2370	 0.146882689932339 
2371	 0.14675207451577 
2372	 0.146705225532031 
2373	 0.146667552435464 
2374	 0.146618453499001 
2375	 0.146598009342118 
2376	 0.146563229099952 
2377	 0.146512091825783 
2378	 0.146462092106311 
2379	 0.146445176994813 
2380	 0.146477932868128 
2381	 0.146517687537645 
2382	 0.146497847560636 
2383	 0.146495005951979 
2384	 0.146403351558426 
2385	 0.146193932595043 
2386	 0.146086160674552 
2387	 0.145973635506983 
2388	 0.145851972796824 
2389	 0.145801942495525 
2390	 0.145747551519469 
2391	 0.145690045511839 
2392	 0.145649460854971 
2393	 0.145668644127602 
2394	 0.145681979976447 
2395	 0.145653618797486 
2396	 0.145607193744474 
2397	 0.145488103408066 
2398	 0.145372131796605 
2399	 0.145273998696238 
2400	 0.145199314880463 
2401	 0.145196501986887 
2402	 0.145114296264456 
2403	 0.145004901957509 
2404	 0.144921600020209 
2405	 0.144841004836323 
2406	 0.144891361191389 
2407	 0.144879911924887 
2408	 0.144729393827425 
2409	 0.144596200379463 
2410	 0.144432193844688 
2411	 0.144322223714885 
2412	 0.144357887581385 
2413	 0.144394077531568 
2414	 0.144361596769484 
2415	 0.14429153418391 
2416	 0.144208514189816 
2417	 0.144080902607329 
2418	 0.143969943397268 
2419	 0.143855395118563 
2420	 0.143741092674263 
2421	 0.14365093106142 
2422	 0.143490575332672 
2423	 0.143258257754303 
2424	 0.143120560846774 
2425	 0.142991577479143 
2426	 0.142837039034922 
2427	 0.142718697641235 
2428	 0.142604342908906 
2429	 0.142439150168552 
2430	 0.142319753621924 
2431	 0.142282715895329 
2432	 0.142206823837553 
2433	 0.14212044681036 
2434	 0.142027857158227 
2435	 0.141945165112181 
2436	 0.141843383462702 
2437	 0.141685012212009 
2438	 0.141549131494953 
2439	 0.141445040791509 
2440	 0.141335182682988 
2441	 0.141213571307226 
2442	 0.141116382380213 
2443	 0.141008168081549 
2444	 0.1409126636053 
2445	 0.140879154603776 
2446	 0.140787919552377 
2447	 0.140677912912021 
2448	 0.140586657414162 
2449	 0.140457436581768 
2450	 0.140318225134412 
2451	 0.140160006586012 
2452	 0.140025801960603 
2453	 0.139881591176773 
2454	 0.139748685629322 
2455	 0.139721187213261 
2456	 0.139660606272615 
2457	 0.13955356289029 
2458	 0.139485131455609 
2459	 0.139393220636947 
2460	 0.139335423655564 
2461	 0.139284313627357 
2462	 0.139169430524997 
2463	 0.139120980878402 
2464	 0.13898318445916 
2465	 0.138729379740293 
2466	 0.138638037436649 
2467	 0.138594105738539 
2468	 0.138501000182641 
2469	 0.138477688513058 
2470	 0.13834520192764 
2471	 0.138175123512309 
2472	 0.138061000654915 
2473	 0.137922454441647 
2474	 0.137832760808057 
2475	 0.137690006282158 
2476	 0.137591806141237 
2477	 0.137579730919272 
2478	 0.13740322076696 
2479	 0.137346998450194 
2480	 0.137353088658512 
2481	 0.13719890123265 
2482	 0.137269276074617 
2483	 0.137236086749498 
2484	 0.136877212122914 
2485	 0.136724203989575 
2486	 0.136695319451657 
2487	 0.136631193640362 
2488	 0.136673696108871 
2489	 0.136770427499546 
2490	 0.136630141119351 
2491	 0.136489964043103 
2492	 0.136491109395991 
2493	 0.136387754371615 
2494	 0.136346363436081 
2495	 0.136195603368668 
2496	 0.135959658146884 
2497	 0.135854282959102 
2498	 0.135646882959681 
2499	 0.135561377838721 
2500	 0.135721324043247 
