Wavelength	MM700000.asd
350	 0.055307599997677 
351	 5.68683347659212E-02 
352	 5.75098006490349E-02 
353	 5.81502946610642E-02 
354	 5.48434247607952E-02 
355	 5.43610365136436E-02 
356	 5.62200208230343E-02 
357	 5.82691420362819E-02 
358	 0.06043293200671 
359	 0.058872581283678 
360	 5.64129928450313E-02 
361	 5.90245811406567E-02 
362	 5.78390383010308E-02 
363	 5.63257421949469E-02 
364	 5.73833022041596E-02 
365	 0.061245027555877 
366	 0.059064324530815 
367	 5.60637186766977E-02 
368	 5.85054189939088E-02 
369	 6.07850956394814E-02 
370	 5.99208480683538E-02 
371	 5.87335810362453E-02 
372	 6.28370185271887E-02 
373	 6.28292627235147E-02 
374	 6.07904675686389E-02 
375	 5.96063280894745E-02 
376	 6.08427302995443E-02 
377	 6.06181502153507E-02 
378	 6.16582634186054E-02 
379	 0.065891009118253 
380	 6.33704033877779E-02 
381	 0.06106972110606 
382	 6.18911715126234E-02 
383	 6.47827313015507E-02 
384	 0.06591939146267 
385	 6.50026460921984E-02 
386	 6.34300594286124E-02 
387	 6.44762462309072E-02 
388	 6.66170427690379E-02 
389	 6.84580603661315E-02 
390	 6.86981380578936E-02 
391	 6.59857965164354E-02 
392	 6.65288095134522E-02 
393	 6.97643244881037E-02 
394	 6.95939308736462E-02 
395	 6.95353072214816E-02 
396	 7.02455423736488E-02 
397	 7.14475454418766E-02 
398	 7.19856610975154E-02 
399	 7.15646008463632E-02 
400	 7.17352389837304E-02 
401	 7.38558065916939E-02 
402	 7.43586677958898E-02 
403	 7.37220478447598E-02 
404	 7.32690385881514E-02 
405	 7.47301479923876E-02 
406	 7.57199216863514E-02 
407	 0.0762228424247 
408	 7.65015506855188E-02 
409	 7.61263888032526E-02 
410	 7.60148417080762E-02 
411	 7.63495726511684E-02 
412	 7.70012576266306E-02 
413	 7.87595954214118E-02 
414	 7.88680059026146E-02 
415	 7.76390909905299E-02 
416	 7.95750511816571E-02 
417	 8.00194626784003E-02 
418	 7.97773231517969E-02 
419	 8.02842655435797E-02 
420	 8.03235857247988E-02 
421	 8.06768049025578E-02 
422	 8.13797562228772E-02 
423	 8.19323970881412E-02 
424	 8.17476854345027E-02 
425	 8.13805203759183E-02 
426	 8.12021953205242E-02 
427	 8.09650091622226E-02 
428	 8.08445072754914E-02 
429	 8.08899073009409E-02 
430	 8.11005645707446E-02 
431	 8.15808920460112E-02 
432	 8.13084269268308E-02 
433	 8.06117550964285E-02 
434	 8.10453135129199E-02 
435	 8.12076792797357E-02 
436	 8.10121577063998E-02 
437	 0.080699376872906 
438	 8.06380695606734E-02 
439	 0.080687177869388 
440	 8.08429670750887E-02 
441	 8.11339842216169E-02 
442	 8.13240118520425E-02 
443	 0.08149557499378 
444	 0.081725901276956 
445	 8.20384596183157E-02 
446	 8.22326243515892E-02 
447	 8.25439474402413E-02 
448	 8.31602767241175E-02 
449	 8.35425397199076E-02 
450	 0.083789924532005 
451	 8.39779560346858E-02 
452	 8.41499607710375E-02 
453	 8.44492949551118E-02 
454	 8.47714146032204E-02 
455	 8.50047991879215E-02 
456	 0.085137801504544 
457	 8.51453195015071E-02 
458	 8.53009956655752E-02 
459	 8.58718864413642E-02 
460	 8.60445329814283E-02 
461	 8.60473772813085E-02 
462	 8.61296844331323E-02 
463	 8.64326468639815E-02 
464	 8.65115839836811E-02 
465	 8.65347664841367E-02 
466	 8.67220970156618E-02 
467	 8.67420484246097E-02 
468	 8.68860665230026E-02 
469	 8.70984893773935E-02 
470	 8.70604768813909E-02 
471	 8.70681931015879E-02 
472	 0.087183360715743 
473	 0.0873556286905 
474	 8.73554800031607E-02 
475	 8.74779004011045E-02 
476	 8.76772793611824E-02 
477	 8.77792606097869E-02 
478	 0.087867500665572 
479	 8.79378563929621E-02 
480	 8.80287613440605E-02 
481	 8.82481230946556E-02 
482	 8.84085790210928E-02 
483	 8.85562617285966E-02 
484	 0.088737358679733 
485	 8.87223312377893E-02 
486	 8.86288060520463E-02 
487	 8.86198111639622E-02 
488	 8.88510425799214E-02 
489	 8.88150581596106E-02 
490	 8.88384143037963E-02 
491	 8.91013101229156E-02 
492	 8.90460036674824E-02 
493	 8.90738488549934E-02 
494	 8.91801613023048E-02 
495	 8.92084357752082E-02 
496	 8.93801591632264E-02 
497	 0.089533815404564 
498	 8.95791966420879E-02 
499	 8.95793123912041E-02 
500	 8.95890530943561E-02 
501	 8.96799637320124E-02 
502	 8.98795572073471E-02 
503	 9.00559749431024E-02 
504	 9.01024779710389E-02 
505	 9.00680302881939E-02 
506	 9.01325441604534E-02 
507	 9.02150018145236E-02 
508	 9.03405461013498E-02 
509	 9.04788478436485E-02 
510	 0.090388653199119 
511	 9.03432171360185E-02 
512	 9.04263763158071E-02 
513	 9.05875281295313E-02 
514	 9.05800863910027E-02 
515	 9.05290861991095E-02 
516	 9.05795925639743E-02 
517	 9.08655232154819E-02 
518	 9.08765288726105E-02 
519	 9.07625499698545E-02 
520	 0.090832009514711 
521	 9.09386533294659E-02 
522	 0.091083196169684 
523	 9.12183773947407E-02 
524	 9.12448318118124E-02 
525	 0.091277472197321 
526	 9.13713022528786E-02 
527	 9.15196230450962E-02 
528	 9.15819378658518E-02 
529	 9.15903590069966E-02 
530	 9.16007406644642E-02 
531	 9.16788718299042E-02 
532	 9.18169212753829E-02 
533	 9.19227421583461E-02 
534	 9.19633787518007E-02 
535	 9.20469903057654E-02 
536	 9.21501007849238E-02 
537	 9.22666469979211E-02 
538	 9.23869737360019E-02 
539	 9.24509269789455E-02 
540	 0.092558032889018 
541	 9.27209004010474E-02 
542	 9.28219249696942E-02 
543	 9.29331879259142E-02 
544	 9.30737172828136E-02 
545	 9.32303270118712E-02 
546	 9.33205984656569E-02 
547	 9.34000177314917E-02 
548	 9.35229707234257E-02 
549	 9.37288674477205E-02 
550	 9.38471099600246E-02 
551	 9.39559737372034E-02 
552	 9.41553014638025E-02 
553	 9.45078613955096E-02 
554	 9.46836961031694E-02 
555	 9.47490327528971E-02 
556	 9.49649277252186E-02 
557	 9.52431926438704E-02 
558	 9.54956039015831E-02 
559	 9.57105940438414E-02 
560	 9.60147489531318E-02 
561	 9.62933208912076E-02 
562	 9.65869732683953E-02 
563	 9.69687934742858E-02 
564	 9.73865872995224E-02 
565	 9.78076341785525E-02 
566	 9.82295620627364E-02 
567	 9.86824433167847E-02 
568	 9.91664895459438E-02 
569	 9.96502162502231E-02 
570	 0.100124657651433 
571	 0.100696640000905 
572	 0.101209143345796 
573	 0.101659899512448 
574	 0.102159227638631 
575	 0.102715152650539 
576	 0.103325425241908 
577	 0.10397363380378 
578	 0.104626007203484 
579	 0.105275284081037 
580	 0.105900912084518 
581	 0.106497954712536 
582	 0.107182092609325 
583	 0.107923462560724 
584	 0.108724691413743 
585	 0.109658506378704 
586	 0.110640148087483 
587	 0.111624516400355 
588	 0.112581052174743 
589	 0.113486653737168 
590	 0.114404695429704 
591	 0.115380863019925 
592	 0.116432109730639 
593	 0.117318446985915 
594	 0.118100607186954 
595	 0.118866714160604 
596	 0.119585009487123 
597	 0.120400241464423 
598	 0.121299599828578 
599	 0.122190945128243 
600	 0.123109926691531 
601	 0.124043548738274 
602	 0.124960677634 
603	 0.125806793442704 
604	 0.126643121050198 
605	 0.127507608199109 
606	 0.128403315533289 
607	 0.129196430989874 
608	 0.129956723520756 
609	 0.130741093255603 
610	 0.131576224150169 
611	 0.132325352912708 
612	 0.13300638265356 
613	 0.13366867373271 
614	 0.134341829028279 
615	 0.134912763067968 
616	 0.135414176843137 
617	 0.13597229279608 
618	 0.136533162452767 
619	 0.137045371616401 
620	 0.137495016724365 
621	 0.137936740953852 
622	 0.13842387768301 
623	 0.138871820957802 
624	 0.139182764184169 
625	 0.139597964811543 
626	 0.139998798608447 
627	 0.140340787589057 
628	 0.140715274561514 
629	 0.141057473317037 
630	 0.141415363434282 
631	 0.14181234644425 
632	 0.142048340319218 
633	 0.142322740647838 
634	 0.142678951904333 
635	 0.143025104877407 
636	 0.143372143837564 
637	 0.14366205874362 
638	 0.143892556167403 
639	 0.144223704051783 
640	 0.144536090263015 
641	 0.144837007495047 
642	 0.145176928372142 
643	 0.145470844595426 
644	 0.145780506897225 
645	 0.146123468015776 
646	 0.146433409613951 
647	 0.146734975460517 
648	 0.147032725419582 
649	 0.147330306311911 
650	 0.147642438479526 
651	 0.147985045087877 
652	 0.148341962118635 
653	 0.14867408561506 
654	 0.149037216517926 
655	 0.149401654464567 
656	 0.149751117740699 
657	 0.150139126790045 
658	 0.150551142603522 
659	 0.150962438652344 
660	 0.151346501372504 
661	 0.151717319342612 
662	 0.152132281183761 
663	 0.152581378962333 
664	 0.152951787144295 
665	 0.15333947348631 
666	 0.153795432317758 
667	 0.154319448110158 
668	 0.154762208806441 
669	 0.155199738496103 
670	 0.155691631881457 
671	 0.156264334990829 
672	 0.156746725240607 
673	 0.157220800241496 
674	 0.157750182925532 
675	 0.158238307788685 
676	 0.15877903908026 
677	 0.159348245387103 
678	 0.159881150466131 
679	 0.160417101800635 
680	 0.160990529677679 
681	 0.161613214952119 
682	 0.162269470559436 
683	 0.162873309031818 
684	 0.163469985323296 
685	 0.164120898311539 
686	 0.164809792877503 
687	 0.165482404976586 
688	 0.166129334326471 
689	 0.16677679574937 
690	 0.167446274548357 
691	 0.168125743079249 
692	 0.168816388989429 
693	 0.169562029911605 
694	 0.170296668063584 
695	 0.171008500130134 
696	 0.17171738500312 
697	 0.172489844086383 
698	 0.17328033963242 
699	 0.174039114819859 
700	 0.174725396660807 
701	 0.175531030898691 
702	 0.176358601271228 
703	 0.177113746958584 
704	 0.177899125677604 
705	 0.178677879890318 
706	 0.179452194860962 
707	 0.180239923744623 
708	 0.181026898353554 
709	 0.181803820579742 
710	 0.182578348962655 
711	 0.183384945467928 
712	 0.184173621958274 
713	 0.184950110882437 
714	 0.185721366399001 
715	 0.186425100235261 
716	 0.187141307142873 
717	 0.18788797034458 
718	 0.188632912656312 
719	 0.189374435273448 
720	 0.190083193932907 
721	 0.190750031941788 
722	 0.191407111264896 
723	 0.192102843732379 
724	 0.19277199699418 
725	 0.193333202069656 
726	 0.193834895491831 
727	 0.194374512078729 
728	 0.19495984262929 
729	 0.195513375438899 
730	 0.196048889395269 
731	 0.196510202727383 
732	 0.196888633757798 
733	 0.197313290213151 
734	 0.197695159857724 
735	 0.198036640444588 
736	 0.198365429778105 
737	 0.198620270530697 
738	 0.198892240678587 
739	 0.199166670531085 
740	 0.199306789444932 
741	 0.199380456825514 
742	 0.199462365412997 
743	 0.199586840375049 
744	 0.199682536824684 
745	 0.19972658122374 
746	 0.199719814608409 
747	 0.199679581548003 
748	 0.199630165171124 
749	 0.199523009389641 
750	 0.19935183069624 
751	 0.199168582181721 
752	 0.199011779850116 
753	 0.198812326891856 
754	 0.198534754877912 
755	 0.198322886951021 
756	 0.198076056994466 
757	 0.197763692340416 
758	 0.197400251572955 
759	 0.197032832291972 
760	 0.196660583221483 
761	 0.196286366631206 
762	 0.195923203498953 
763	 0.195494826170612 
764	 0.195040019175543 
765	 0.194599538908003 
766	 0.194133123527081 
767	 0.193655227947853 
768	 0.19316556150779 
769	 0.192664694587738 
770	 0.192219076778588 
771	 0.191731371186664 
772	 0.191169152141545 
773	 0.190595270064059 
774	 0.19007309958174 
775	 0.18955265591339 
776	 0.188993290642241 
777	 0.18845763625647 
778	 0.187923054749567 
779	 0.187385441403671 
780	 0.186843355198874 
781	 0.186264539927839 
782	 0.185693659689865 
783	 0.185149448903443 
784	 0.18461725805711 
785	 0.184070663142091 
786	 0.183507699857176 
787	 0.182940208229212 
788	 0.182396158835947 
789	 0.181863042820723 
790	 0.181356848886575 
791	 0.180883399633817 
792	 0.180357566183247 
793	 0.179773640188653 
794	 0.179188963963933 
795	 0.178700825770746 
796	 0.178232727876255 
797	 0.177755270398466 
798	 0.177259938806695 
799	 0.176759482836073 
800	 0.176287567452135 
801	 0.175809819828873 
802	 0.175305840398591 
803	 0.174904379556805 
804	 0.174435972969009 
805	 0.173914286898504 
806	 0.173467120633612 
807	 0.173081888138734 
808	 0.17268961691286 
809	 0.172260057619281 
810	 0.171822893798518 
811	 0.171413037372016 
812	 0.171008871732556 
813	 0.170601733120588 
814	 0.170265203126553 
815	 0.169884637430395 
816	 0.169492138504377 
817	 0.169158508365302 
818	 0.168799420687501 
819	 0.168456437285775 
820	 0.168137738626924 
821	 0.1678175314309 
822	 0.167485171572683 
823	 0.167166416336327 
824	 0.166870839048819 
825	 0.166570882953266 
826	 0.166339778845981 
827	 0.166127569165467 
828	 0.165869071962112 
829	 0.165562128261122 
830	 0.165253693816123 
831	 0.165000218695859 
832	 0.164830302821674 
833	 0.164609919127073 
834	 0.164344708568711 
835	 0.164075333361279 
836	 0.163859319059397 
837	 0.163656260783521 
838	 0.163489189393995 
839	 0.163362214920834 
840	 0.163234500258698 
841	 0.163050083892248 
842	 0.162823747822513 
843	 0.162611466720558 
844	 0.162521678907633 
845	 0.162452798082967 
846	 0.16232804089239 
847	 0.162127617968848 
848	 0.162055810282008 
849	 0.161954598656735 
850	 0.161816455592956 
851	 0.161766674937837 
852	 0.161707185901534 
853	 0.161615359738135 
854	 0.161517507929093 
855	 0.161491088161528 
856	 0.161442222451676 
857	 0.161387366625517 
858	 0.161351527766357 
859	 0.161309456131759 
860	 0.161295154593495 
861	 0.161305424161833 
862	 0.161328633895608 
863	 0.161389222721514 
864	 0.161404232370225 
865	 0.161387224948586 
866	 0.16140373007304 
867	 0.161403483660365 
868	 0.161423683827788 
869	 0.161478501059114 
870	 0.161549305076726 
871	 0.161609613587019 
872	 0.161673614964144 
873	 0.161760137918632 
874	 0.161881953791045 
875	 0.161977680468493 
876	 0.162023020897532 
877	 0.162044170094015 
878	 0.162160625604199 
879	 0.162340340279552 
880	 0.162515751866362 
881	 0.16263510250321 
882	 0.162771768008409 
883	 0.162938695167139 
884	 0.163112132396856 
885	 0.163260579368331 
886	 0.163442562713845 
887	 0.163628172572349 
888	 0.163803111201686 
889	 0.163976928665243 
890	 0.164194305145148 
891	 0.164423762754638 
892	 0.164647563586647 
893	 0.164880358177715 
894	 0.165180745097287 
895	 0.165444920309247 
896	 0.16564320253295 
897	 0.165932358567366 
898	 0.16621832614582 
899	 0.166488948959615 
900	 0.166764433233876 
901	 0.167097324940981 
902	 0.167390457820097 
903	 0.167680407755659 
904	 0.168015851790771 
905	 0.1682960817188 
906	 0.168645781533872 
907	 0.169024976474751 
908	 0.169360132190156 
909	 0.169861482231638 
910	 0.170273141216617 
911	 0.170581186352233 
912	 0.170944875666804 
913	 0.171391953791653 
914	 0.171831268062442 
915	 0.17221950748808 
916	 0.172586350524364 
917	 0.173081834728504 
918	 0.173595720395156 
919	 0.174078337892879 
920	 0.174583354884721 
921	 0.17502534114372 
922	 0.175456335901511 
923	 0.175946913645865 
924	 0.17655049218228 
925	 0.177124191984168 
926	 0.177674636285809 
927	 0.178207874245336 
928	 0.178663931491379 
929	 0.179228443180519 
930	 0.179876532427552 
931	 0.180530688725727 
932	 0.181136555333808 
933	 0.181784587710554 
934	 0.182418904670755 
935	 0.183003500159417 
936	 0.183683368587671 
937	 0.184366921017349 
938	 0.185034580417636 
939	 0.185708076331902 
940	 0.186460413452709 
941	 0.187225835868121 
942	 0.187980318352754 
943	 0.18872070636114 
944	 0.189447820468048 
945	 0.190155679224639 
946	 0.190880817645272 
947	 0.191660953212827 
948	 0.192454562504135 
949	 0.19330359282065 
950	 0.194083090789108 
951	 0.194713665457349 
952	 0.195733332517457 
953	 0.196734496057714 
954	 0.197595778930339 
955	 0.19840705447072 
956	 0.199241993692674 
957	 0.200151434051679 
958	 0.201089115524639 
959	 0.201965443203963 
960	 0.202789607979913 
961	 0.203783652862232 
962	 0.204894502983921 
963	 0.205898211496163 
964	 0.206784402619077 
965	 0.207677338295962 
966	 0.208639228092866 
967	 0.209669704087191 
968	 0.210735063214504 
969	 0.211837361612267 
970	 0.212910823601903 
971	 0.213880487926609 
972	 0.214905233569047 
973	 0.215963683951519 
974	 0.217014205142745 
975	 0.218046759395058 
976	 0.219260157240545 
977	 0.220450319139934 
978	 0.221571813303476 
979	 0.222697505131967 
980	 0.223794581385526 
981	 0.224927775691199 
982	 0.226129815000906 
983	 0.227373603898069 
984	 0.228475599557584 
985	 0.229612820751882 
986	 0.230776993383228 
987	 0.231870629629388 
988	 0.232977337645477 
989	 0.234201290967941 
990	 0.235507339334433 
991	 0.236802354590344 
992	 0.238136965165238 
993	 0.239243434999751 
994	 0.240284399018306 
995	 0.241510411880608 
996	 0.242654845475043 
997	 0.24375741186257 
998	 0.244975196098907 
999	 0.246391907429152 
1000	 0.247717183863035 
1001	 0.252625276541666 
1002	 0.253777354378549 
1003	 0.254982298283719 
1004	 0.256188176628277 
1005	 0.257473395277056 
1006	 0.258670610715297 
1007	 0.259818664883188 
1008	 0.260991704093078 
1009	 0.262144750125307 
1010	 0.263280214849974 
1011	 0.264392320721602 
1012	 0.265502947995773 
1013	 0.266581227939879 
1014	 0.267606037592805 
1015	 0.268701932760609 
1016	 0.269831643001545 
1017	 0.270939788690351 
1018	 0.272054189080738 
1019	 0.273202185183561 
1020	 0.27426727954606 
1021	 0.275235268338885 
1022	 0.276254217967142 
1023	 0.277279909317506 
1024	 0.278275982640236 
1025	 0.279360669848739 
1026	 0.280400809906215 
1027	 0.281376158722725 
1028	 0.282419236948806 
1029	 0.283416856958697 
1030	 0.284398707910429 
1031	 0.285394051402237 
1032	 0.286409245572615 
1033	 0.2873817213986 
1034	 0.288399433220756 
1035	 0.289435783319736 
1036	 0.290438969724853 
1037	 0.29142990602097 
1038	 0.292390917018972 
1039	 0.293371989258722 
1040	 0.29438620612453 
1041	 0.295410299890337 
1042	 0.296429527451817 
1043	 0.297401098578598 
1044	 0.298377537613588 
1045	 0.299323115442282 
1046	 0.300298913462101 
1047	 0.30130203517103 
1048	 0.302319507883534 
1049	 0.303306495190882 
1050	 0.304299963219024 
1051	 0.305292468799516 
1052	 0.306239846410122 
1053	 0.307213601458677 
1054	 0.30816013484595 
1055	 0.30907209613144 
1056	 0.31001295873529 
1057	 0.310919841175635 
1058	 0.311789804297392 
1059	 0.312683222378612 
1060	 0.313578931415474 
1061	 0.314447385296083 
1062	 0.315333992759526 
1063	 0.316199888600799 
1064	 0.317028978796788 
1065	 0.317789468086743 
1066	 0.318558604122011 
1067	 0.319355443095311 
1068	 0.320090902817988 
1069	 0.320886629237387 
1070	 0.321663398979862 
1071	 0.322406830016285 
1072	 0.323143445209418 
1073	 0.323899709202291 
1074	 0.32462376404905 
1075	 0.325294360044894 
1076	 0.326016626155539 
1077	 0.326751618757892 
1078	 0.32745527711391 
1079	 0.328147135425858 
1080	 0.328844844949189 
1081	 0.329574746232729 
1082	 0.330267695861844 
1083	 0.330958601965846 
1084	 0.331651627844776 
1085	 0.3323600211217 
1086	 0.333047301990107 
1087	 0.333761047340396 
1088	 0.334504877586826 
1089	 0.335243347082015 
1090	 0.33594720719491 
1091	 0.336672501373035 
1092	 0.337429158325835 
1093	 0.33815285013004 
1094	 0.338914866255603 
1095	 0.339645943272662 
1096	 0.340398947806397 
1097	 0.341241508570348 
1098	 0.342051121210678 
1099	 0.342884637075195 
1100	 0.343717216989872 
1101	 0.344503602764884 
1102	 0.345354053108998 
1103	 0.346246128206193 
1104	 0.347153970047143 
1105	 0.348062198300054 
1106	 0.349005834910257 
1107	 0.349942167036555 
1108	 0.350900043005269 
1109	 0.351869141015536 
1110	 0.352855200701881 
1111	 0.353858336697005 
1112	 0.354868417129809 
1113	 0.355885053144841 
1114	 0.356910878679161 
1115	 0.357970618708885 
1116	 0.359066598105581 
1117	 0.360144832332983 
1118	 0.361241682433465 
1119	 0.362333710203037 
1120	 0.363416356804108 
1121	 0.364482295450816 
1122	 0.365556685597953 
1123	 0.36668569477265 
1124	 0.367810806477138 
1125	 0.368937548750746 
1126	 0.370074901964533 
1127	 0.37123728646223 
1128	 0.372379349679993 
1129	 0.373525239925707 
1130	 0.374656492523185 
1131	 0.375763214780485 
1132	 0.376902549482176 
1133	 0.378058821543934 
1134	 0.379194973088807 
1135	 0.38033487368836 
1136	 0.381475950232946 
1137	 0.382617874187279 
1138	 0.383732513004346 
1139	 0.38484761562288 
1140	 0.385982703337785 
1141	 0.38708581741406 
1142	 0.388152835425604 
1143	 0.389237044312614 
1144	 0.390319342450769 
1145	 0.391391962699182 
1146	 0.392475360268954 
1147	 0.393529938178088 
1148	 0.394570159792261 
1149	 0.395603462976432 
1150	 0.396615307576711 
1151	 0.397621004723137 
1152	 0.398625547622556 
1153	 0.399626863683461 
1154	 0.400622385015649 
1155	 0.401619785742626 
1156	 0.402591943180004 
1157	 0.40355489720421 
1158	 0.404505645907253 
1159	 0.405436839942147 
1160	 0.406364880241397 
1161	 0.407296986517947 
1162	 0.408204853138688 
1163	 0.40909368756241 
1164	 0.409978501440992 
1165	 0.410850227255199 
1166	 0.411709933138711 
1167	 0.412591110000629 
1168	 0.413470155754353 
1169	 0.414305768613719 
1170	 0.415116422411336 
1171	 0.415944247335131 
1172	 0.41675845599595 
1173	 0.417551778849302 
1174	 0.418347071145133 
1175	 0.419143727217602 
1176	 0.419924835163044 
1177	 0.420688420622626 
1178	 0.421458619017882 
1179	 0.422218647738095 
1180	 0.422939628824158 
1181	 0.423671917761555 
1182	 0.424417999995503 
1183	 0.425175762898915 
1184	 0.425885720290234 
1185	 0.426576094068418 
1186	 0.427251775498524 
1187	 0.427891522456274 
1188	 0.428548262573642 
1189	 0.429212663953228 
1190	 0.429847279946289 
1191	 0.430471628323586 
1192	 0.431087353521879 
1193	 0.431676488741844 
1194	 0.432270548990307 
1195	 0.432861933542444 
1196	 0.43345324853139 
1197	 0.434044800842238 
1198	 0.434625762333037 
1199	 0.435202143168258 
1200	 0.435784647267562 
1201	 0.436343188412031 
1202	 0.436886692787662 
1203	 0.43742423977046 
1204	 0.437951677545703 
1205	 0.438469066577093 
1206	 0.438973846205048 
1207	 0.439477804915235 
1208	 0.439981094430525 
1209	 0.440466209541085 
1210	 0.44094650889696 
1211	 0.441411835506167 
1212	 0.441844335595229 
1213	 0.442292511098181 
1214	 0.442742886563028 
1215	 0.443189112679435 
1216	 0.443635522668156 
1217	 0.444090146737487 
1218	 0.444531341678797 
1219	 0.444967721703781 
1220	 0.445394442509006 
1221	 0.445817115097066 
1222	 0.44623037719772 
1223	 0.446635084879641 
1224	 0.447031454414002 
1225	 0.447415037273295 
1226	 0.447802773643331 
1227	 0.448190945298308 
1228	 0.44856655936488 
1229	 0.448946059883015 
1230	 0.449309307464642 
1231	 0.449644732843362 
1232	 0.449990361729485 
1233	 0.450335277682291 
1234	 0.45067129283775 
1235	 0.451023843359981 
1236	 0.45139765303594 
1237	 0.451738929791631 
1238	 0.452084646878554 
1239	 0.452403123731367 
1240	 0.452687838306381 
1241	 0.452982744212227 
1242	 0.453258257423059 
1243	 0.453553759604708 
1244	 0.453862944575108 
1245	 0.454162545969559 
1246	 0.454472972502558 
1247	 0.454771937654892 
1248	 0.455059407016175 
1249	 0.455347009005181 
1250	 0.455625591469888 
1251	 0.455890493356877 
1252	 0.456148477394705 
1253	 0.456386613158239 
1254	 0.456637925253418 
1255	 0.456911676027479 
1256	 0.457129169398953 
1257	 0.457318178534578 
1258	 0.457515703277191 
1259	 0.457649351830399 
1260	 0.457849866623682 
1261	 0.458099112298965 
1262	 0.458332564306242 
1263	 0.458590459550028 
1264	 0.458838130623622 
1265	 0.459079653534513 
1266	 0.459320971885833 
1267	 0.459571148821945 
1268	 0.459799735814461 
1269	 0.460040262867166 
1270	 0.460275078625563 
1271	 0.460527667543493 
1272	 0.460786748652864 
1273	 0.46105569083888 
1274	 0.461331713127102 
1275	 0.461619073929779 
1276	 0.46193339857426 
1277	 0.462219120818007 
1278	 0.462512962333342 
1279	 0.462786234406143 
1280	 0.463037929351946 
1281	 0.463277129887179 
1282	 0.463507541718649 
1283	 0.46372152527805 
1284	 0.463910598609145 
1285	 0.464094024392136 
1286	 0.464299807589001 
1287	 0.464487002813339 
1288	 0.464625736723633 
1289	 0.464759101045519 
1290	 0.464836073375196 
1291	 0.464849426887408 
1292	 0.464858799075203 
1293	 0.464842830682797 
1294	 0.464803297062784 
1295	 0.464737035101518 
1296	 0.46464848390164 
1297	 0.46453409368877 
1298	 0.464403528995622 
1299	 0.464250396291575 
1300	 0.464077548269679 
1301	 0.46387624235066 
1302	 0.463671270655123 
1303	 0.463448558216383 
1304	 0.463221055019005 
1305	 0.462975822273344 
1306	 0.462727101778045 
1307	 0.462477379002173 
1308	 0.462231766065265 
1309	 0.462004927731259 
1310	 0.461803237496838 
1311	 0.461588181891282 
1312	 0.46136839373062 
1313	 0.461169265147607 
1314	 0.460952418056218 
1315	 0.460791654051021 
1316	 0.460676947936538 
1317	 0.46055802136787 
1318	 0.460456788529291 
1319	 0.460379630415408 
1320	 0.460307571678705 
1321	 0.460264395716671 
1322	 0.460240459096147 
1323	 0.460258713259144 
1324	 0.46030026576313 
1325	 0.460349749208629 
1326	 0.46045528687948 
1327	 0.460581263347481 
1328	 0.460698623779094 
1329	 0.46085560954631 
1330	 0.461040297004517 
1331	 0.46124568987036 
1332	 0.461467431931525 
1333	 0.46172897648242 
1334	 0.461986642478467 
1335	 0.462240521722648 
1336	 0.462524631312839 
1337	 0.462843771894314 
1338	 0.463145452465055 
1339	 0.463447563748632 
1340	 0.463765226706251 
1341	 0.464073745434244 
1342	 0.464409450672647 
1343	 0.464769772227814 
1344	 0.465145402278468 
1345	 0.465512811355353 
1346	 0.465888249758636 
1347	 0.466261930590415 
1348	 0.466617323112328 
1349	 0.466975874852073 
1350	 0.467341665583523 
1351	 0.467714380155268 
1352	 0.468095803734103 
1353	 0.468465736491006 
1354	 0.468853883070389 
1355	 0.469205576575453 
1356	 0.469537316942281 
1357	 0.46986635314271 
1358	 0.470166403611277 
1359	 0.470486578863264 
1360	 0.470801437935245 
1361	 0.471126800780182 
1362	 0.471476398927324 
1363	 0.471806755916538 
1364	 0.472144019948069 
1365	 0.472462391508039 
1366	 0.472771403650184 
1367	 0.473055233700951 
1368	 0.473318485870432 
1369	 0.473584967538223 
1370	 0.473862083271569 
1371	 0.47412088633492 
1372	 0.474376469003788 
1373	 0.474631314818546 
1374	 0.474849125124886 
1375	 0.475029301707479 
1376	 0.475217420812884 
1377	 0.475407346724434 
1378	 0.475551762257654 
1379	 0.475693490037552 
1380	 0.475788042156608 
1381	 0.475821220203536 
1382	 0.4758625730207 
1383	 0.475891227200456 
1384	 0.475888516452932 
1385	 0.475882820734823 
1386	 0.475830895626399 
1387	 0.475729799782883 
1388	 0.47562290735978 
1389	 0.475499194710288 
1390	 0.475344417088116 
1391	 0.475163499509863 
1392	 0.474956125411112 
1393	 0.474707466542956 
1394	 0.474441174955155 
1395	 0.474157043248735 
1396	 0.473847754213265 
1397	 0.473528765992078 
1398	 0.473178412072622 
1399	 0.472847842076902 
1400	 0.472508020307711 
1401	 0.472188001341136 
1402	 0.47188303003183 
1403	 0.471571730154445 
1404	 0.471263444138793 
1405	 0.470957792361321 
1406	 0.470656917803069 
1407	 0.470349976403475 
1408	 0.47003890847465 
1409	 0.469737926696549 
1410	 0.469399415132532 
1411	 0.469132094909095 
1412	 0.468896813884196 
1413	 0.468691181184573 
1414	 0.46853010447237 
1415	 0.468426246719329 
1416	 0.468353143265241 
1417	 0.468295332231866 
1418	 0.468260918753986 
1419	 0.468232167783187 
1420	 0.468197016918685 
1421	 0.468174165196491 
1422	 0.468177116466309 
1423	 0.468155769862665 
1424	 0.468101879991063 
1425	 0.468018480975558 
1426	 0.467950368910202 
1427	 0.467849854807285 
1428	 0.467779349593614 
1429	 0.467737076456443 
1430	 0.467675484503384 
1431	 0.46760815364413 
1432	 0.467543500944654 
1433	 0.467476204224266 
1434	 0.467410474177466 
1435	 0.467346072832306 
1436	 0.467280788466497 
1437	 0.467207180621193 
1438	 0.467148628361179 
1439	 0.467101066676387 
1440	 0.46704989210754 
1441	 0.46698898349929 
1442	 0.466952266231648 
1443	 0.466903436417069 
1444	 0.466852471636764 
1445	 0.466846004572182 
1446	 0.466828347159391 
1447	 0.46679173709794 
1448	 0.466767371742443 
1449	 0.466739639713816 
1450	 0.4667007522754 
1451	 0.466673077623939 
1452	 0.466661581864161 
1453	 0.466648545536642 
1454	 0.466629458284829 
1455	 0.466617774420448 
1456	 0.466616752129761 
1457	 0.4666100968858 
1458	 0.466601879113412 
1459	 0.466597401424441 
1460	 0.466597262355721 
1461	 0.466596522818719 
1462	 0.46658059922072 
1463	 0.466593832927623 
1464	 0.46662698135697 
1465	 0.466655607268235 
1466	 0.466691358442918 
1467	 0.466743593574307 
1468	 0.466797374799098 
1469	 0.466861499664492 
1470	 0.466940793822858 
1471	 0.467041027604509 
1472	 0.467128519409851 
1473	 0.467225349577231 
1474	 0.467342833776449 
1475	 0.467442477767409 
1476	 0.467536705528724 
1477	 0.467648356827003 
1478	 0.467779973625785 
1479	 0.467922364162604 
1480	 0.468092415614893 
1481	 0.468267969079206 
1482	 0.468424131842136 
1483	 0.468566713187411 
1484	 0.468726267127169 
1485	 0.468884395571789 
1486	 0.469042971307103 
1487	 0.469208597642044 
1488	 0.469373129043515 
1489	 0.469536765595903 
1490	 0.469695359843195 
1491	 0.469862439396594 
1492	 0.470016682658954 
1493	 0.470151999163213 
1494	 0.470304052610859 
1495	 0.470465577296433 
1496	 0.470608365320664 
1497	 0.470749109866732 
1498	 0.470887517005101 
1499	 0.471013595844685 
1500	 0.471143534790442 
1501	 0.471279638429237 
1502	 0.4714053293327 
1503	 0.471515657477461 
1504	 0.471633276888474 
1505	 0.471767066096227 
1506	 0.471900554202419 
1507	 0.472043969965923 
1508	 0.472194863136319 
1509	 0.4723057672431 
1510	 0.472400368043694 
1511	 0.472510081297261 
1512	 0.472617891593444 
1513	 0.472753305550721 
1514	 0.47290420591585 
1515	 0.473030644602297 
1516	 0.473147075084943 
1517	 0.47325558967455 
1518	 0.473347481404971 
1519	 0.473451495295105 
1520	 0.473560494973141 
1521	 0.473645252137528 
1522	 0.473718810143135 
1523	 0.473799758580733 
1524	 0.473859787023187 
1525	 0.473945470725952 
1526	 0.474062052228349 
1527	 0.474144499879528 
1528	 0.474225563667693 
1529	 0.47428898484031 
1530	 0.474318702455781 
1531	 0.474372809543434 
1532	 0.474428745326422 
1533	 0.474480899274683 
1534	 0.474526823615414 
1535	 0.474596550363612 
1536	 0.474679267211642 
1537	 0.474760162313656 
1538	 0.474869721066255 
1539	 0.474960941012055 
1540	 0.475034002800717 
1541	 0.475108701871756 
1542	 0.475190940749455 
1543	 0.475254468041263 
1544	 0.475299841368814 
1545	 0.475353208902151 
1546	 0.47539602350915 
1547	 0.475434862736217 
1548	 0.475516469597385 
1549	 0.475614289103533 
1550	 0.475725198271261 
1551	 0.475831547616045 
1552	 0.47590336355746 
1553	 0.475961780136784 
1554	 0.476020879994678 
1555	 0.476084413585063 
1556	 0.476144566130018 
1557	 0.476200058336028 
1558	 0.476272072004071 
1559	 0.476353823209433 
1560	 0.476424011232236 
1561	 0.476513531399199 
1562	 0.476580179157554 
1563	 0.47661535360196 
1564	 0.476673269810383 
1565	 0.476735282050302 
1566	 0.47680775337831 
1567	 0.476889926927989 
1568	 0.476970338009578 
1569	 0.477066430224397 
1570	 0.477143488083753 
1571	 0.477211249949557 
1572	 0.477280020051397 
1573	 0.477342380486945 
1574	 0.477399043796596 
1575	 0.477444395284344 
1576	 0.477506366125718 
1577	 0.477583405691472 
1578	 0.477636987800387 
1579	 0.47769230200721 
1580	 0.477735202988786 
1581	 0.47773820223874 
1582	 0.477775267028933 
1583	 0.477828767614139 
1584	 0.477883255359433 
1585	 0.477953739668241 
1586	 0.478018256596239 
1587	 0.478082716338773 
1588	 0.47814677846943 
1589	 0.478211970417153 
1590	 0.478270130872711 
1591	 0.478321213066278 
1592	 0.478381228224964 
1593	 0.478434212003497 
1594	 0.478505475006041 
1595	 0.478603102362156 
1596	 0.47867735177109 
1597	 0.478755411503368 
1598	 0.478821623146382 
1599	 0.478870793210633 
1600	 0.47891630675269 
1601	 0.478954462642674 
1602	 0.478987905761738 
1603	 0.479006145811031 
1604	 0.479033438521196 
1605	 0.479058797537014 
1606	 0.47909409496399 
1607	 0.479142293029598 
1608	 0.479179915644201 
1609	 0.479234894455527 
1610	 0.479293825227978 
1611	 0.479350824133866 
1612	 0.479404631797305 
1613	 0.479438647401441 
1614	 0.479488706759431 
1615	 0.479540728661165 
1616	 0.479600076043175 
1617	 0.479682735032261 
1618	 0.479753536118438 
1619	 0.479844236746449 
1620	 0.479939942651244 
1621	 0.480022388648254 
1622	 0.480112398376646 
1623	 0.480180045416853 
1624	 0.480228673505558 
1625	 0.48027824488901 
1626	 0.480319590557301 
1627	 0.480360146510723 
1628	 0.480390175801886 
1629	 0.48043535809227 
1630	 0.480489117498114 
1631	 0.480531504924342 
1632	 0.480563351450004 
1633	 0.480629984137585 
1634	 0.480711859241261 
1635	 0.480771380525711 
1636	 0.480859411290648 
1637	 0.48090527758822 
1638	 0.480908283006819 
1639	 0.480928819243928 
1640	 0.480944283095703 
1641	 0.480967576522863 
1642	 0.48097737347485 
1643	 0.481020642609288 
1644	 0.481089776830586 
1645	 0.481144857473184 
1646	 0.481209802423452 
1647	 0.481277364390778 
1648	 0.481335469861435 
1649	 0.481411192593339 
1650	 0.481513210249433 
1651	 0.481590286369344 
1652	 0.48165884888949 
1653	 0.481731611442788 
1654	 0.481804541523556 
1655	 0.481861693856986 
1656	 0.481910807165666 
1657	 0.481967316994395 
1658	 0.482018758706525 
1659	 0.482058349195041 
1660	 0.482102772732571 
1661	 0.482137268199023 
1662	 0.482149996465777 
1663	 0.482168177195903 
1664	 0.482191121919217 
1665	 0.48220907959906 
1666	 0.482216210386286 
1667	 0.482228287998185 
1668	 0.482235779962058 
1669	 0.482262048365472 
1670	 0.482286094262511 
1671	 0.482334708606944 
1672	 0.482417484631337 
1673	 0.482481183884848 
1674	 0.482559606020546 
1675	 0.482611630140404 
1676	 0.482642159472192 
1677	 0.482681668033259 
1678	 0.482702280837932 
1679	 0.482749696153712 
1680	 0.482826357404332 
1681	 0.482868434944964 
1682	 0.482900408677057 
1683	 0.482941464966495 
1684	 0.482953326143362 
1685	 0.483006393527681 
1686	 0.483105777387006 
1687	 0.483166831044805 
1688	 0.48322175610234 
1689	 0.483279680108147 
1690	 0.483324490355886 
1691	 0.483370720588145 
1692	 0.483409628755939 
1693	 0.483475584353046 
1694	 0.483546818596903 
1695	 0.483626004731706 
1696	 0.483753625854328 
1697	 0.48382974094479 
1698	 0.483875124839192 
1699	 0.4839254804631 
1700	 0.48396962837815 
1701	 0.483989940684925 
1702	 0.484002215954337 
1703	 0.483999839990814 
1704	 0.483937566996556 
1705	 0.483949765636986 
1706	 0.483989937193089 
1707	 0.484033062558896 
1708	 0.48412360774169 
1709	 0.484188696665386 
1710	 0.48423890186871 
1711	 0.484304961155091 
1712	 0.484386757105591 
1713	 0.48444446914735 
1714	 0.484491282162812 
1715	 0.484547234346895 
1716	 0.484589894641305 
1717	 0.484651824366674 
1718	 0.484745645626529 
1719	 0.484796896128708 
1720	 0.48483745441721 
1721	 0.484865741219541 
1722	 0.484863090093163 
1723	 0.484871729523541 
1724	 0.484891265851751 
1725	 0.484875879516191 
1726	 0.484848030092806 
1727	 0.484806233768305 
1728	 0.484730386389888 
1729	 0.484667924949597 
1730	 0.484597829478619 
1731	 0.484537628875756 
1732	 0.484470739205424 
1733	 0.484434337363532 
1734	 0.484417622655907 
1735	 0.484397925667502 
1736	 0.48439951930661 
1737	 0.484392847669205 
1738	 0.484381867867427 
1739	 0.484369305526786 
1740	 0.484371681022296 
1741	 0.484335360549399 
1742	 0.484269571491854 
1743	 0.484230756203442 
1744	 0.484179031146337 
1745	 0.48413982341327 
1746	 0.484120478138062 
1747	 0.484080331715003 
1748	 0.484051996823757 
1749	 0.484041276613293 
1750	 0.484046254564358 
1751	 0.484052506410363 
1752	 0.484056561172732 
1753	 0.484046442067224 
1754	 0.484036541031214 
1755	 0.48403198568529 
1756	 0.484030889839983 
1757	 0.484039655155902 
1758	 0.48405750955115 
1759	 0.484058710782598 
1760	 0.484030687125901 
1761	 0.483998390635263 
1762	 0.483970967085667 
1763	 0.483969985728089 
1764	 0.483992848709527 
1765	 0.48402740936325 
1766	 0.484050250696505 
1767	 0.484046720527135 
1768	 0.48406805019588 
1769	 0.484087692370548 
1770	 0.484092549929426 
1771	 0.484127915021683 
1772	 0.484140969662723 
1773	 0.484140651165901 
1774	 0.484181733930873 
1775	 0.484205523448197 
1776	 0.48421226804823 
1777	 0.484235398743818 
1778	 0.484243865142858 
1779	 0.484244381574722 
1780	 0.48425116241842 
1781	 0.484273619968465 
1782	 0.48430141968416 
1783	 0.484356114805108 
1784	 0.484395586030004 
1785	 0.484420463550404 
1786	 0.484454602755229 
1787	 0.484471857074669 
1788	 0.484520360841898 
1789	 0.484602565835076 
1790	 0.484672209895531 
1791	 0.484753672260906 
1792	 0.484832620222483 
1793	 0.484904573584593 
1794	 0.484965692162953 
1795	 0.485051574082529 
1796	 0.485085523072445 
1797	 0.485068830405662 
1798	 0.48507713637157 
1799	 0.485064857704436 
1800	 0.485065015500632 
1801	 0.48256423359439 
1802	 0.482565236681022 
1803	 0.482597461000882 
1804	 0.48264653009285 
1805	 0.482745720548054 
1806	 0.482821825277536 
1807	 0.482855118761073 
1808	 0.482894719739414 
1809	 0.482913535128086 
1810	 0.482929290214964 
1811	 0.482935896038114 
1812	 0.482959033909833 
1813	 0.482981885438417 
1814	 0.48299574809387 
1815	 0.48300665724129 
1816	 0.483023096603782 
1817	 0.483018329450966 
1818	 0.482995895608987 
1819	 0.482957865120277 
1820	 0.482910191210646 
1821	 0.482846328023626 
1822	 0.482767469873243 
1823	 0.482696753855706 
1824	 0.482677681710653 
1825	 0.482635737252684 
1826	 0.482553179888717 
1827	 0.482486182750125 
1828	 0.482408719981629 
1829	 0.482293566079936 
1830	 0.482198546470406 
1831	 0.482123927628725 
1832	 0.482026936391277 
1833	 0.481933652550123 
1834	 0.48185907893597 
1835	 0.481785502164584 
1836	 0.481737348160871 
1837	 0.481683521449066 
1838	 0.481619431144466 
1839	 0.481569892863724 
1840	 0.481534646573958 
1841	 0.481501576383487 
1842	 0.481474734517781 
1843	 0.481432618518251 
1844	 0.481391404938163 
1845	 0.481326305377381 
1846	 0.481223715364237 
1847	 0.4811610419349 
1848	 0.481101489088151 
1849	 0.48103196940125 
1850	 0.480954380416971 
1851	 0.480883261342742 
1852	 0.480775307203768 
1853	 0.480671167587782 
1854	 0.480601963871359 
1855	 0.480543741228991 
1856	 0.480488460437789 
1857	 0.480478049253749 
1858	 0.480441328025378 
1859	 0.480367576558462 
1860	 0.48027412559031 
1861	 0.480187156923085 
1862	 0.480014295171642 
1863	 0.479792188690962 
1864	 0.479543007663148 
1865	 0.479261383858811 
1866	 0.478950929652537 
1867	 0.478638628442335 
1868	 0.478374010412753 
1869	 0.478105659636297 
1870	 0.477853305421909 
1871	 0.477585426345388 
1872	 0.47733106710391 
1873	 0.477040143786028 
1874	 0.476728728124634 
1875	 0.476375075721146 
1876	 0.476003144879974 
1877	 0.475568891760721 
1878	 0.475050613899847 
1879	 0.474489025205352 
1880	 0.473853009837341 
1881	 0.473115315137396 
1882	 0.472356446532799 
1883	 0.471551534608558 
1884	 0.470698894098364 
1885	 0.469789539148706 
1886	 0.468831401962142 
1887	 0.467812320954395 
1888	 0.466724375527517 
1889	 0.465593051954539 
1890	 0.464429826908551 
1891	 0.463266000853402 
1892	 0.462075660809952 
1893	 0.460884825173472 
1894	 0.459693173965804 
1895	 0.458480831453075 
1896	 0.457218748357785 
1897	 0.455935029495248 
1898	 0.454643857538601 
1899	 0.453366603872716 
1900	 0.452154050969327 
1901	 0.451005853226592 
1902	 0.449900192761648 
1903	 0.448883544489715 
1904	 0.447848885261216 
1905	 0.446844663858477 
1906	 0.445848020423574 
1907	 0.444856082713448 
1908	 0.443904424167861 
1909	 0.443058588311375 
1910	 0.442250745724611 
1911	 0.441495425941883 
1912	 0.44079410970138 
1913	 0.440108129030936 
1914	 0.439446573817024 
1915	 0.438813674875337 
1916	 0.438208833325991 
1917	 0.437632044858732 
1918	 0.437085549712722 
1919	 0.436586858767651 
1920	 0.436140745301949 
1921	 0.435729011515644 
1922	 0.435364639471622 
1923	 0.435011461829748 
1924	 0.434675229667185 
1925	 0.434355899552868 
1926	 0.434083281129123 
1927	 0.433831412406517 
1928	 0.433603547166731 
1929	 0.433454286676938 
1930	 0.433294620372306 
1931	 0.43314377720841 
1932	 0.43302821785864 
1933	 0.432910361684196 
1934	 0.43283861701559 
1935	 0.432798634593232 
1936	 0.432788381168826 
1937	 0.432811316725195 
1938	 0.432877759221944 
1939	 0.432954408132918 
1940	 0.433050449162262 
1941	 0.43319515745232 
1942	 0.433331812954737 
1943	 0.433477109215956 
1944	 0.433651000979415 
1945	 0.433821585996988 
1946	 0.433994353895923 
1947	 0.434168058323776 
1948	 0.434370290580376 
1949	 0.434575580762039 
1950	 0.434799869586064 
1951	 0.435060073937991 
1952	 0.435313545915697 
1953	 0.435568395898072 
1954	 0.435843202831314 
1955	 0.43609320880144 
1956	 0.436366080472188 
1957	 0.436648686501198 
1958	 0.436930682271367 
1959	 0.437224792383137 
1960	 0.437542831123237 
1961	 0.437852936939908 
1962	 0.438163709830066 
1963	 0.438486885984271 
1964	 0.43880788599285 
1965	 0.439154303054545 
1966	 0.439510252467245 
1967	 0.439849625234673 
1968	 0.440199184855913 
1969	 0.440544750519939 
1970	 0.440905912632452 
1971	 0.441287345991036 
1972	 0.441652841056693 
1973	 0.44201601827571 
1974	 0.442386387699202 
1975	 0.442751836700189 
1976	 0.443117366908447 
1977	 0.443503130049351 
1978	 0.443903405558188 
1979	 0.444281157989941 
1980	 0.44466777396299 
1981	 0.44507662039113 
1982	 0.44549509502913 
1983	 0.445913017360254 
1984	 0.446367003932511 
1985	 0.44679497194154 
1986	 0.447210535781639 
1987	 0.447621166700189 
1988	 0.448041737940966 
1989	 0.448422978472627 
1990	 0.448797469114336 
1991	 0.449174594384855 
1992	 0.44955459663933 
1993	 0.449926080256515 
1994	 0.450315213403979 
1995	 0.450716414005398 
1996	 0.451112366014774 
1997	 0.451520213048863 
1998	 0.451921372869761 
1999	 0.452309962806779 
2000	 0.452708416714139 
2001	 0.453125356064486 
2002	 0.453522103229352 
2003	 0.453889190260286 
2004	 0.454284155841679 
2005	 0.454655873418653 
2006	 0.454995609591791 
2007	 0.455357692168496 
2008	 0.45572386499534 
2009	 0.456094691648726 
2010	 0.456477658242504 
2011	 0.456852737355675 
2012	 0.457223469622748 
2013	 0.457603172953992 
2014	 0.457979268440536 
2015	 0.458363057386599 
2016	 0.458754520126453 
2017	 0.459153684229751 
2018	 0.459541504760341 
2019	 0.459925355245116 
2020	 0.460303296790869 
2021	 0.460674111288978 
2022	 0.461047466195992 
2023	 0.461432435220593 
2024	 0.461791767017074 
2025	 0.462127916924292 
2026	 0.462476145428063 
2027	 0.462820550997357 
2028	 0.463148911775682 
2029	 0.463488415259749 
2030	 0.463840217192277 
2031	 0.464189205020093 
2032	 0.464536400171775 
2033	 0.46487632842405 
2034	 0.465229814304541 
2035	 0.465560906920971 
2036	 0.465885311080547 
2037	 0.466184674181433 
2038	 0.466458701767578 
2039	 0.466733046294548 
2040	 0.467004504390346 
2041	 0.467239116190437 
2042	 0.467458376099295 
2043	 0.467692508241541 
2044	 0.467924760270671 
2045	 0.468122228474499 
2046	 0.468374084100856 
2047	 0.468668587107284 
2048	 0.468941156444303 
2049	 0.469230280867922 
2050	 0.469509943675206 
2051	 0.469781175404505 
2052	 0.470054234445016 
2053	 0.470341391698809 
2054	 0.470604518180461 
2055	 0.470866565660058 
2056	 0.471101411906742 
2057	 0.471322115325299 
2058	 0.471520671324836 
2059	 0.471716776198194 
2060	 0.471888572838378 
2061	 0.472076497368738 
2062	 0.472253972312424 
2063	 0.472448900188552 
2064	 0.472650582019081 
2065	 0.472862839191207 
2066	 0.47309598245582 
2067	 0.473319763174451 
2068	 0.473565461356584 
2069	 0.473786623092163 
2070	 0.473978235427179 
2071	 0.474147954361569 
2072	 0.474318255451587 
2073	 0.474441259267582 
2074	 0.474621305610766 
2075	 0.474835903801095 
2076	 0.47502510615142 
2077	 0.475225206507087 
2078	 0.475420413706781 
2079	 0.475596971444566 
2080	 0.47578189154081 
2081	 0.475979155511477 
2082	 0.476172290589513 
2083	 0.47635570760282 
2084	 0.476551546363109 
2085	 0.476739094604581 
2086	 0.476930554277258 
2087	 0.477112734852905 
2088	 0.477277452546762 
2089	 0.477468058164094 
2090	 0.477677590875577 
2091	 0.477865543667126 
2092	 0.478060322145318 
2093	 0.478243144817756 
2094	 0.478413441863853 
2095	 0.47857147332222 
2096	 0.478709894649537 
2097	 0.478866160402316 
2098	 0.479015361520412 
2099	 0.479158941079882 
2100	 0.479334489794485 
2101	 0.479545272914346 
2102	 0.479730962686979 
2103	 0.47991409991854 
2104	 0.480109726443267 
2105	 0.480295712865732 
2106	 0.480505244317248 
2107	 0.480737952923746 
2108	 0.480970684102626 
2109	 0.481212987634189 
2110	 0.481460795421948 
2111	 0.481715415483888 
2112	 0.481973223499037 
2113	 0.482245334431186 
2114	 0.482512509835248 
2115	 0.482765208760101 
2116	 0.483012891227605 
2117	 0.483263124099239 
2118	 0.483507147588236 
2119	 0.483740460041001 
2120	 0.483963847284636 
2121	 0.48420559226727 
2122	 0.48444168722124 
2123	 0.484682158966869 
2124	 0.484958032757373 
2125	 0.485197753369857 
2126	 0.485411887180594 
2127	 0.485628519364666 
2128	 0.485842001711622 
2129	 0.486039199284508 
2130	 0.486243667972125 
2131	 0.48641888554399 
2132	 0.486554996674175 
2133	 0.486661674773914 
2134	 0.486746464190292 
2135	 0.486812076211002 
2136	 0.486816652750527 
2137	 0.486787025564452 
2138	 0.486719823664112 
2139	 0.486557963615141 
2140	 0.486442794692516 
2141	 0.486321874280045 
2142	 0.486200692589578 
2143	 0.486104695514286 
2144	 0.485973247254377 
2145	 0.485815651996435 
2146	 0.485657599870863 
2147	 0.485472481901486 
2148	 0.485303222841986 
2149	 0.485113040831716 
2150	 0.484933100664928 
2151	 0.484700550857254 
2152	 0.484444515009789 
2153	 0.484158280423609 
2154	 0.483818649594598 
2155	 0.483500398522076 
2156	 0.483184462970564 
2157	 0.482832176821435 
2158	 0.482462607307513 
2159	 0.482084163333751 
2160	 0.481647142386289 
2161	 0.481252674334691 
2162	 0.48088390561579 
2163	 0.480509987480493 
2164	 0.480174145676079 
2165	 0.479791384521961 
2166	 0.479406320395085 
2167	 0.479003206072882 
2168	 0.478609291638204 
2169	 0.478216560413367 
2170	 0.477797596840668 
2171	 0.477374034734397 
2172	 0.476934081109514 
2173	 0.476455037977255 
2174	 0.475997522073179 
2175	 0.475540103940741 
2176	 0.475088547323778 
2177	 0.474640389151327 
2178	 0.47418972281937 
2179	 0.473727317875139 
2180	 0.473293795750171 
2181	 0.47287743505526 
2182	 0.47246127225711 
2183	 0.472072341123929 
2184	 0.471671956837269 
2185	 0.471271788540824 
2186	 0.470862252973126 
2187	 0.47046043557159 
2188	 0.470046223704388 
2189	 0.469675644024234 
2190	 0.469315360454518 
2191	 0.468977087894645 
2192	 0.468673629221298 
2193	 0.468382440770401 
2194	 0.46810360955967 
2195	 0.467842906600292 
2196	 0.467618460056217 
2197	 0.467383074436107 
2198	 0.467158254179646 
2199	 0.466929255364193 
2200	 0.466691576121883 
2201	 0.466471421064858 
2202	 0.466253377430819 
2203	 0.466039008587201 
2204	 0.465864160918516 
2205	 0.465711892162949 
2206	 0.465577821427416 
2207	 0.465463270786043 
2208	 0.465388685906542 
2209	 0.465339524940459 
2210	 0.465319009124799 
2211	 0.465350799623303 
2212	 0.465378790499259 
2213	 0.465431456311371 
2214	 0.465476503179299 
2215	 0.465548254070614 
2216	 0.465587341693289 
2217	 0.465644794069575 
2218	 0.465637879794838 
2219	 0.465578039651019 
2220	 0.465514208458385 
2221	 0.46540756873765 
2222	 0.46528497873676 
2223	 0.465182295768139 
2224	 0.465065115552393 
2225	 0.464961330691421 
2226	 0.464871889589611 
2227	 0.46473847015942 
2228	 0.464602335778217 
2229	 0.464434023642133 
2230	 0.464219465892188 
2231	 0.464009366058226 
2232	 0.463775831685446 
2233	 0.463570998955983 
2234	 0.463367627223282 
2235	 0.463157529108193 
2236	 0.462966119298448 
2237	 0.462760177584749 
2238	 0.462542261946195 
2239	 0.462314543630585 
2240	 0.462068155942464 
2241	 0.461842645942051 
2242	 0.461602802137658 
2243	 0.46138367851994 
2244	 0.461174974968246 
2245	 0.461006575644643 
2246	 0.4608310408419 
2247	 0.46068132466543 
2248	 0.460550756548524 
2249	 0.460443359769018 
2250	 0.460353502186046 
2251	 0.460300743180372 
2252	 0.460213630600542 
2253	 0.46012791433051 
2254	 0.460052572081797 
2255	 0.459948026110813 
2256	 0.459888860671284 
2257	 0.459879001899892 
2258	 0.459842361446719 
2259	 0.459792808917824 
2260	 0.459778576145749 
2261	 0.459775320639063 
2262	 0.459777620316802 
2263	 0.459815316366124 
2264	 0.459844901943953 
2265	 0.459872693488545 
2266	 0.459902529800701 
2267	 0.459953260632157 
2268	 0.459974757201809 
2269	 0.460000846173163 
2270	 0.459976825964385 
2271	 0.459928957704997 
2272	 0.459867448734305 
2273	 0.459810581999767 
2274	 0.459807764301524 
2275	 0.459818151506668 
2276	 0.459864838265825 
2277	 0.459922756547202 
2278	 0.459995490682703 
2279	 0.460082423189107 
2280	 0.460205049595421 
2281	 0.460319658490145 
2282	 0.460439717090564 
2283	 0.460565218255918 
2284	 0.460701580304063 
2285	 0.460828662290741 
2286	 0.460977673328491 
2287	 0.461089332231473 
2288	 0.461161442026367 
2289	 0.461258869111352 
2290	 0.461322905131011 
2291	 0.461437184606108 
2292	 0.46162276758943 
2293	 0.461756226814143 
2294	 0.461860585097088 
2295	 0.462006929579742 
2296	 0.462136453572428 
2297	 0.462295557209785 
2298	 0.462525146132262 
2299	 0.46275766813476 
2300	 0.462960692671908 
2301	 0.463144727894407 
2302	 0.463320715205875 
2303	 0.463499445047036 
2304	 0.46368914758554 
2305	 0.463879535135577 
2306	 0.464049679220825 
2307	 0.464226893002496 
2308	 0.464349542846781 
2309	 0.464430104098609 
2310	 0.464526708338662 
2311	 0.464575281348399 
2312	 0.46466473726461 
2313	 0.464763143604695 
2314	 0.464889379834203 
2315	 0.465055004423724 
2316	 0.465206888910729 
2317	 0.465398338779218 
2318	 0.465543811053721 
2319	 0.465634278253604 
2320	 0.465752807123724 
2321	 0.465852159995015 
2322	 0.465995160740305 
2323	 0.466197416185069 
2324	 0.466366705233002 
2325	 0.466533214704659 
2326	 0.466701485705577 
2327	 0.466877017200764 
2328	 0.467000403698812 
2329	 0.467143788609877 
2330	 0.467279745245714 
2331	 0.467367573062135 
2332	 0.467531957046242 
2333	 0.467691985564997 
2334	 0.467857457910561 
2335	 0.468027846575277 
2336	 0.468111351595332 
2337	 0.468189143911847 
2338	 0.468298286906305 
2339	 0.468353550841885 
2340	 0.468387100159828 
2341	 0.468459850286065 
2342	 0.468509594608759 
2343	 0.468512246446489 
2344	 0.468482856246166 
2345	 0.468418201769765 
2346	 0.468244543144943 
2347	 0.468164139950602 
2348	 0.468139961629047 
2349	 0.468046322765276 
2350	 0.467969192742011 
2351	 0.467837809378778 
2352	 0.467632113478423 
2353	 0.467431658731259 
2354	 0.467209117703697 
2355	 0.466990095318976 
2356	 0.466705312042854 
2357	 0.466511626009898 
2358	 0.466392798782155 
2359	 0.466237971772352 
2360	 0.466131931743598 
2361	 0.465971768068543 
2362	 0.465752491923358 
2363	 0.465567886282174 
2364	 0.465356345377385 
2365	 0.465201980766708 
2366	 0.465131583348603 
2367	 0.464973306279349 
2368	 0.464799683515842 
2369	 0.464632334998978 
2370	 0.464439659948333 
2371	 0.464198054702422 
2372	 0.463969739296306 
2373	 0.463641280603216 
2374	 0.463270921489074 
2375	 0.462907684949101 
2376	 0.462602445528965 
2377	 0.462366956909988 
2378	 0.462089053900408 
2379	 0.461823932954591 
2380	 0.461570214905619 
2381	 0.461313253172784 
2382	 0.461039561173019 
2383	 0.460753883317906 
2384	 0.460461790589931 
2385	 0.460080543216444 
2386	 0.459731200332567 
2387	 0.459455291701106 
2388	 0.459081838597315 
2389	 0.458734120698502 
2390	 0.458513833667207 
2391	 0.458192163184791 
2392	 0.457844767899618 
2393	 0.457536276221626 
2394	 0.457055494986596 
2395	 0.456615417127704 
2396	 0.45627722657944 
2397	 0.455842198320697 
2398	 0.455480680542077 
2399	 0.455100473865223 
2400	 0.454706554595341 
2401	 0.454451715063767 
2402	 0.454154898502602 
2403	 0.453869396255416 
2404	 0.453614365939267 
2405	 0.453259480891987 
2406	 0.452782131156041 
2407	 0.45236267388131 
2408	 0.451921949569272 
2409	 0.451402366210083 
2410	 0.451117770765118 
2411	 0.450780959898052 
2412	 0.450339825413107 
2413	 0.449975140278156 
2414	 0.449486983260062 
2415	 0.449053120906215 
2416	 0.448717283322226 
2417	 0.448489553683938 
2418	 0.448207432646691 
2419	 0.448019228440457 
2420	 0.447675021430488 
2421	 0.447232509392149 
2422	 0.446828244845304 
2423	 0.446324044350123 
2424	 0.445937816485472 
2425	 0.445661256725443 
2426	 0.445314642415186 
2427	 0.444983610788543 
2428	 0.444657252684258 
2429	 0.444233416773119 
2430	 0.443888626665195 
2431	 0.443636458607584 
2432	 0.443316237904837 
2433	 0.44302063430591 
2434	 0.442719234508692 
2435	 0.442350134055216 
2436	 0.442086276058632 
2437	 0.44191569680837 
2438	 0.44168145702667 
2439	 0.441466741317309 
2440	 0.441215525039104 
2441	 0.440870010075877 
2442	 0.440576143203274 
2443	 0.440347669411056 
2444	 0.440046319807672 
2445	 0.439737666100344 
2446	 0.439452785888479 
2447	 0.439105718438523 
2448	 0.438772619226929 
2449	 0.438484402652329 
2450	 0.438097602750666 
2451	 0.437650067255993 
2452	 0.437281452010278 
2453	 0.436885016888663 
2454	 0.4365474270557 
2455	 0.436279799837274 
2456	 0.436001880584919 
2457	 0.435706751502146 
2458	 0.435528175955233 
2459	 0.435492306361568 
2460	 0.435276273447059 
2461	 0.435020522299621 
2462	 0.434704259978201 
2463	 0.43427988199195 
2464	 0.433862051786695 
2465	 0.433408000849936 
2466	 0.433022532168869 
2467	 0.432620324094712 
2468	 0.432336737424233 
2469	 0.432217471820056 
2470	 0.43198355590796 
2471	 0.431598966790511 
2472	 0.431281162339256 
2473	 0.430896967285636 
2474	 0.430654429523016 
2475	 0.430375568226446 
2476	 0.429931690199363 
2477	 0.429621893817555 
2478	 0.429207750834817 
2479	 0.428993768783444 
2480	 0.428862457130184 
2481	 0.428500081047426 
2482	 0.428222000590864 
2483	 0.427807753205981 
2484	 0.427420503343792 
2485	 0.427243258406721 
2486	 0.427107425205587 
2487	 0.427043287088051 
2488	 0.426801355294042 
2489	 0.426385110215101 
2490	 0.425839529604531 
2491	 0.425245036514879 
2492	 0.424953031333396 
2493	 0.424682359624957 
2494	 0.42444260655637 
2495	 0.424567766625726 
2496	 0.424448725205628 
2497	 0.424207278325867 
2498	 0.424142529862015 
2499	 0.423685854126473 
2500	 0.423301651214135 
