Wavelength	MM800009.asd
350	 5.55367450614812E-02 
351	 5.43390389769534E-02 
352	 5.22422053421382E-02 
353	 5.04305643850811E-02 
354	 5.59221905182556E-02 
355	 5.81817699177116E-02 
356	 5.89156172231955E-02 
357	 6.11086969222792E-02 
358	 5.94829554877847E-02 
359	 5.54457489276073E-02 
360	 0.052333147095827 
361	 5.38866174236863E-02 
362	 5.64856765666521E-02 
363	 5.77374370596473E-02 
364	 5.76297810686519E-02 
365	 5.94711748666419E-02 
366	 5.86515889888184E-02 
367	 5.85427321045522E-02 
368	 6.18105482292855E-02 
369	 5.97510400744146E-02 
370	 5.79555361630877E-02 
371	 5.88621649618353E-02 
372	 6.19110131210096E-02 
373	 6.20708566133482E-02 
374	 6.14031840107907E-02 
375	 6.18665301953399E-02 
376	 6.36248983426076E-02 
377	 6.31378742814016E-02 
378	 6.35677397963858E-02 
379	 6.77102025686398E-02 
380	 6.80303724968511E-02 
381	 6.83537616308153E-02 
382	 6.96888578236843E-02 
383	 7.07262159677229E-02 
384	 7.31428148307109E-02 
385	 0.073898278324609 
386	 7.24897826262178E-02 
387	 7.42965449716533E-02 
388	 7.69706284879546E-02 
389	 7.97388477458387E-02 
390	 8.21730063052673E-02 
391	 8.35500031922038E-02 
392	 8.39095240587357E-02 
393	 8.45643195372399E-02 
394	 8.75244616521948E-02 
395	 8.93146012441888E-02 
396	 9.00837731757888E-02 
397	 9.08465783233528E-02 
398	 9.31048412172512E-02 
399	 9.55095416466735E-02 
400	 9.78153351458828E-02 
401	 0.100062057226752 
402	 0.101487760592146 
403	 0.103357969116454 
404	 0.105377770698652 
405	 0.105726437393192 
406	 0.108057966073803 
407	 0.111042685967767 
408	 0.112898890953874 
409	 0.113170299361173 
410	 0.113571966776991 
411	 0.114735988357299 
412	 0.116616316104958 
413	 0.118870629568243 
414	 0.119854371096342 
415	 0.119766109843655 
416	 0.121194816376705 
417	 0.121562635480672 
418	 0.121818991859592 
419	 0.122959463253699 
420	 0.12322577207966 
421	 0.123035653518107 
422	 0.123195977711932 
423	 0.124443880689264 
424	 0.124144424345715 
425	 0.123659776751317 
426	 0.123814889502116 
427	 0.123506599656365 
428	 0.12333615492543 
429	 0.123195289289997 
430	 0.122808783574771 
431	 0.122151916490803 
432	 0.121699408544512 
433	 0.121615434406952 
434	 0.12174053467174 
435	 0.121826341028105 
436	 0.121953573632463 
437	 0.122192887757222 
438	 0.122334620738791 
439	 0.122932772950901 
440	 0.123968670544996 
441	 0.125125673503758 
442	 0.126320539655232 
443	 0.127576681658256 
444	 0.128870300616839 
445	 0.130080906325182 
446	 0.131347157326601 
447	 0.132625493983218 
448	 0.13385391805968 
449	 0.13509005842768 
450	 0.136557368537686 
451	 0.138125133892385 
452	 0.139378860537079 
453	 0.140359499268995 
454	 0.141411643199791 
455	 0.142662174202079 
456	 0.143567327841704 
457	 0.144536923343302 
458	 0.145595773848452 
459	 0.146602612929903 
460	 0.147612796103237 
461	 0.148350311542482 
462	 0.148858549681935 
463	 0.149653010748206 
464	 0.150379861076419 
465	 0.151002631447084 
466	 0.151595685872529 
467	 0.152337408789351 
468	 0.152949492135453 
469	 0.15338770954738 
470	 0.153813909543604 
471	 0.154356050654613 
472	 0.154873441462223 
473	 0.155288032570663 
474	 0.155778697893533 
475	 0.156308041742972 
476	 0.156799197825094 
477	 0.157184710173709 
478	 0.1576201187526 
479	 0.158083158427753 
480	 0.158497422675528 
481	 0.1587290062985 
482	 0.159157591631054 
483	 0.159681560562129 
484	 0.160088568237429 
485	 0.160318443957548 
486	 0.160540962708244 
487	 0.160855407903191 
488	 0.161289590590799 
489	 0.16186061529172 
490	 0.16229881594685 
491	 0.162519189274108 
492	 0.163000589099477 
493	 0.163457626163268 
494	 0.163806124423593 
495	 0.164077454567363 
496	 0.164436496209224 
497	 0.164873582205648 
498	 0.165346406272868 
499	 0.165796671158465 
500	 0.166241871972043 
501	 0.166591914105863 
502	 0.166796016058949 
503	 0.167075012410877 
504	 0.167476046960228 
505	 0.167899699424171 
506	 0.168140298291894 
507	 0.168492860217111 
508	 0.168994495801833 
509	 0.169515820799547 
510	 0.169592587875228 
511	 0.169888962153657 
512	 0.170377544164974 
513	 0.170692854043359 
514	 0.171078562956612 
515	 0.171415614352544 
516	 0.171692195934804 
517	 0.172155867722164 
518	 0.172498784098202 
519	 0.172720552277346 
520	 0.172947172750796 
521	 0.173377252014195 
522	 0.173771925790273 
523	 0.174041401371503 
524	 0.174278881170756 
525	 0.174551699463791 
526	 0.174881673414804 
527	 0.175249835873448 
528	 0.175565121997343 
529	 0.175869154684342 
530	 0.176195682001316 
531	 0.17655903699764 
532	 0.176788670580507 
533	 0.177113362900389 
534	 0.177604633235951 
535	 0.177890536182933 
536	 0.17816522332034 
537	 0.178496225536445 
538	 0.178888151263208 
539	 0.17922924283216 
540	 0.179612664155117 
541	 0.180032030096675 
542	 0.180325891156507 
543	 0.18069024446566 
544	 0.181094233327294 
545	 0.181462871044532 
546	 0.181807883378245 
547	 0.182180658619613 
548	 0.182627544036455 
549	 0.183175735216149 
550	 0.183587288397654 
551	 0.183961219042367 
552	 0.184405811028483 
553	 0.184885569733627 
554	 0.185343497270712 
555	 0.185786374654815 
556	 0.186261066819704 
557	 0.186831100130835 
558	 0.187371073002603 
559	 0.187847200221179 
560	 0.18842274983242 
561	 0.188995963182225 
562	 0.189631381488143 
563	 0.190426618438169 
564	 0.1913603266859 
565	 0.192286906499947 
566	 0.193111278641948 
567	 0.193807596771022 
568	 0.194557873793129 
569	 0.195376086814132 
570	 0.196250487720037 
571	 0.19727433377731 
572	 0.198164708215975 
573	 0.198925334000817 
574	 0.199766768810201 
575	 0.200671626000899 
576	 0.201699091588598 
577	 0.202830545960454 
578	 0.203863574437515 
579	 0.204919492425761 
580	 0.205918580481753 
581	 0.206753345496664 
582	 0.207694839078931 
583	 0.208803905103518 
584	 0.210090038995221 
585	 0.211529607103431 
586	 0.213038045565118 
587	 0.214523754644426 
588	 0.215934560829743 
589	 0.217373738564531 
590	 0.218848567186903 
591	 0.220315902874836 
592	 0.221695090812328 
593	 0.222953915705232 
594	 0.224061266426674 
595	 0.225007713145738 
596	 0.225798585978487 
597	 0.226681820286102 
598	 0.227697077076679 
599	 0.228768894087812 
600	 0.229907362668577 
601	 0.231205682098976 
602	 0.23258896660923 
603	 0.23366371533302 
604	 0.234710003841124 
605	 0.235844787728953 
606	 0.237073026431608 
607	 0.238113058927966 
608	 0.239019610335213 
609	 0.239914044527261 
610	 0.240963881201372 
611	 0.241964736800323 
612	 0.242863374616737 
613	 0.243661344506466 
614	 0.244423637092894 
615	 0.245074591611298 
616	 0.245696378185036 
617	 0.246452877500256 
618	 0.247111278327598 
619	 0.247642491380096 
620	 0.248103883339673 
621	 0.248662646394803 
622	 0.249232014057004 
623	 0.24975363768949 
624	 0.250199636640697 
625	 0.250692085379935 
626	 0.251177327801608 
627	 0.251628370063851 
628	 0.252072399128197 
629	 0.252510421506012 
630	 0.252925871365709 
631	 0.253303206470964 
632	 0.253640827188562 
633	 0.254014487726522 
634	 0.254414822445681 
635	 0.254765037509353 
636	 0.255106895863314 
637	 0.255459525233346 
638	 0.255815368091829 
639	 0.256105677488329 
640	 0.25642880157801 
641	 0.256794988022756 
642	 0.25717257381687 
643	 0.257571016232999 
644	 0.257907743596589 
645	 0.258203853463536 
646	 0.258641780612846 
647	 0.25902625340468 
648	 0.259361929919642 
649	 0.25971028177311 
650	 0.260102933810483 
651	 0.260525824810286 
652	 0.260930479438767 
653	 0.261252387391727 
654	 0.261633563337674 
655	 0.262084407222407 
656	 0.26257099423837 
657	 0.263018052771316 
658	 0.263445639872154 
659	 0.263871729635029 
660	 0.264311716387598 
661	 0.264751031212597 
662	 0.26522084734572 
663	 0.265732534510876 
664	 0.266267610078953 
665	 0.266676507176459 
666	 0.267108171525794 
667	 0.267705252017346 
668	 0.268193573191895 
669	 0.268705542658616 
670	 0.269287569392099 
671	 0.269900064735359 
672	 0.270481314725029 
673	 0.271050215737276 
674	 0.271624365291978 
675	 0.272164092914593 
676	 0.272829216857842 
677	 0.273504688636489 
678	 0.274010518316766 
679	 0.274639329959127 
680	 0.275317057673126 
681	 0.275997959600378 
682	 0.276716629530224 
683	 0.277337892318814 
684	 0.277986044265055 
685	 0.278772222562519 
686	 0.27950725609252 
687	 0.280219503686509 
688	 0.280956920458411 
689	 0.281762619587183 
690	 0.282449287497014 
691	 0.283140711550353 
692	 0.283924522218932 
693	 0.28472964564322 
694	 0.285524318237565 
695	 0.286293240618612 
696	 0.287046734892479 
697	 0.287867338321612 
698	 0.288725610157847 
699	 0.289573036762627 
700	 0.290351878660212 
701	 0.291128417882853 
702	 0.291942009852738 
703	 0.292810672521258 
704	 0.293734272448254 
705	 0.294561169726394 
706	 0.295317457388324 
707	 0.296119588930869 
708	 0.296961387944515 
709	 0.297762786613266 
710	 0.298521105538813 
711	 0.299359786246914 
712	 0.300182050273386 
713	 0.301003813345869 
714	 0.301835130915345 
715	 0.302537765547654 
716	 0.303215286824664 
717	 0.30393537561389 
718	 0.30472479285541 
719	 0.305541069903404 
720	 0.306280423821183 
721	 0.306916775045208 
722	 0.307580686532562 
723	 0.308290350751984 
724	 0.308961164260788 
725	 0.309499883658069 
726	 0.309971083193882 
727	 0.31048546904275 
728	 0.311064850382735 
729	 0.311641079334003 
730	 0.312135601818657 
731	 0.312538626054685 
732	 0.312894149740861 
733	 0.313343254830474 
734	 0.313700484398449 
735	 0.31397519276702 
736	 0.314248736465335 
737	 0.314489645877901 
738	 0.314760684425865 
739	 0.314997958752597 
740	 0.31500600389964 
741	 0.31505520441441 
742	 0.315136466140107 
743	 0.31518773998153 
744	 0.315171887856382 
745	 0.31520385940462 
746	 0.31518431059876 
747	 0.314965789117183 
748	 0.314841092364401 
749	 0.314689135351289 
750	 0.314453320121158 
751	 0.314199617952743 
752	 0.313959906504601 
753	 0.313671784115767 
754	 0.313302723919028 
755	 0.312975417469956 
756	 0.312635196647197 
757	 0.312241070608306 
758	 0.311775767322269 
759	 0.311337255534229 
760	 0.310885766179539 
761	 0.310402010222604 
762	 0.309908605103887 
763	 0.309320605863848 
764	 0.308733445558358 
765	 0.308215028594054 
766	 0.307615145313126 
767	 0.307103088661785 
768	 0.306561323689299 
769	 0.305804854745964 
770	 0.305274989671658 
771	 0.304769461297749 
772	 0.304125660934439 
773	 0.303309967616689 
774	 0.302636375926762 
775	 0.302013866138188 
776	 0.301323362399147 
777	 0.300641437593465 
778	 0.299961703642765 
779	 0.299314581075457 
780	 0.298712238728658 
781	 0.29796512156759 
782	 0.297227131406135 
783	 0.296574530286754 
784	 0.295967893034436 
785	 0.295266862885753 
786	 0.294553532424978 
787	 0.293898715733661 
788	 0.293231845269568 
789	 0.292584280676559 
790	 0.291943748777904 
791	 0.291281141488843 
792	 0.290569165267426 
793	 0.289856091877989 
794	 0.289178887970371 
795	 0.288557806843539 
796	 0.287981418620798 
797	 0.287390192131426 
798	 0.28676215539441 
799	 0.286153663814748 
800	 0.285552373865536 
801	 0.284945861640609 
802	 0.284329877359752 
803	 0.283738164771354 
804	 0.28312538598673 
805	 0.282501107342908 
806	 0.281912167500656 
807	 0.281386533076222 
808	 0.280874573814583 
809	 0.28034529272994 
810	 0.279804124097803 
811	 0.279278288603748 
812	 0.278742536870974 
813	 0.278192069340379 
814	 0.277713273623379 
815	 0.277235938497834 
816	 0.276756699455058 
817	 0.276294911237214 
818	 0.27582949051844 
819	 0.275408995740778 
820	 0.27496906465885 
821	 0.274382203981106 
822	 0.273984245730906 
823	 0.273619447063164 
824	 0.273166816176754 
825	 0.272686788761025 
826	 0.27233599833133 
827	 0.272051301535735 
828	 0.271710441134595 
829	 0.271218442764189 
830	 0.2707448542377 
831	 0.270369552983531 
832	 0.270093263905096 
833	 0.269780824238425 
834	 0.269458033570605 
835	 0.26914382962447 
836	 0.268835940803998 
837	 0.268478140060265 
838	 0.268158740306524 
839	 0.267936167661436 
840	 0.267780982185469 
841	 0.267557199460035 
842	 0.267226340415487 
843	 0.266848498071484 
844	 0.26667642061179 
845	 0.266497898796212 
846	 0.266300917130362 
847	 0.266145644462406 
848	 0.265922834389228 
849	 0.265683830469902 
850	 0.265494376505523 
851	 0.265398312780231 
852	 0.265182653952324 
853	 0.264971066285766 
854	 0.2648402034852 
855	 0.264725923528497 
856	 0.264664867433758 
857	 0.264564107949493 
858	 0.264378021582478 
859	 0.264240875257926 
860	 0.264216608312138 
861	 0.264191745616516 
862	 0.264050286366888 
863	 0.263982222001568 
864	 0.263916022361101 
865	 0.263838931468001 
866	 0.263779055185952 
867	 0.263750417346053 
868	 0.263728362551943 
869	 0.263726626045355 
870	 0.263787749494383 
871	 0.263744242963393 
872	 0.263702706148852 
873	 0.26373478041382 
874	 0.263779474111704 
875	 0.263872976629415 
876	 0.263947189441459 
877	 0.263972429238512 
878	 0.264082845619816 
879	 0.264210297270534 
880	 0.264277222803573 
881	 0.264254776016649 
882	 0.264305944999498 
883	 0.264462184286092 
884	 0.26466896486906 
885	 0.264828728920287 
886	 0.264909732405545 
887	 0.265037560613862 
888	 0.26520685344675 
889	 0.265312151887021 
890	 0.265527314149982 
891	 0.265738982514879 
892	 0.265935105952457 
893	 0.266259019338472 
894	 0.266468052207415 
895	 0.266589053657526 
896	 0.266729735013803 
897	 0.267033242544908 
898	 0.267301096582807 
899	 0.267556211429326 
900	 0.267865188536176 
901	 0.268263911053282 
902	 0.268471960825171 
903	 0.268666802751706 
904	 0.26906207881882 
905	 0.269359787393969 
906	 0.269649398414421 
907	 0.269975357205602 
908	 0.270358473324482 
909	 0.270827909339896 
910	 0.271262064835211 
911	 0.271657619745389 
912	 0.272082915563372 
913	 0.272471270648896 
914	 0.272828860171846 
915	 0.273171344383803 
916	 0.27352698300378 
917	 0.273992344897283 
918	 0.274550805692741 
919	 0.275103663225245 
920	 0.275506366069972 
921	 0.276018001244577 
922	 0.276515678743944 
923	 0.276983579365599 
924	 0.277640056246394 
925	 0.278134075899398 
926	 0.27859594118226 
927	 0.279152918769434 
928	 0.27972589120439 
929	 0.280348754713023 
930	 0.281005743287541 
931	 0.281657893051602 
932	 0.282242502993129 
933	 0.282912756659322 
934	 0.283584239813249 
935	 0.284195672888132 
936	 0.284975636731716 
937	 0.285599237563785 
938	 0.286254130707326 
939	 0.287126670977115 
940	 0.287775528056329 
941	 0.288522354849355 
942	 0.289349275267548 
943	 0.290124766663123 
944	 0.290858931018736 
945	 0.291542633725454 
946	 0.292226170512853 
947	 0.292984351947545 
948	 0.293873644869717 
949	 0.294796241130688 
950	 0.295689956952808 
951	 0.296538347210521 
952	 0.297397596023737 
953	 0.298275254129958 
954	 0.299160962719015 
955	 0.300045318984923 
956	 0.300967628521437 
957	 0.301987036644819 
958	 0.303007960232416 
959	 0.303879331130206 
960	 0.304687149913707 
961	 0.305604657470898 
962	 0.306631233579283 
963	 0.307654971803979 
964	 0.308693104664731 
965	 0.309793068328627 
966	 0.31087771526404 
967	 0.31184035859879 
968	 0.312889291979734 
969	 0.313999026556056 
970	 0.315139703017495 
971	 0.316256372590421 
972	 0.317122253880349 
973	 0.318088246767844 
974	 0.319226516023947 
975	 0.320384180968259 
976	 0.321494551990409 
977	 0.322794326737913 
978	 0.324113648081656 
979	 0.325120842334284 
980	 0.326202623113483 
981	 0.32737445321143 
982	 0.328637719839575 
983	 0.329955642451138 
984	 0.331113709684075 
985	 0.332312164973316 
986	 0.333619465461137 
987	 0.334956233963244 
988	 0.336046040338537 
989	 0.337161725088907 
990	 0.338370537710152 
991	 0.339611638667144 
992	 0.340881351993845 
993	 0.342083218237187 
994	 0.343225390235889 
995	 0.34434217188471 
996	 0.345319186195178 
997	 0.346564740234963 
998	 0.348000279126178 
999	 0.349380887222344 
1000	 0.350691417921818 
1001	 0.356129801738236 
1002	 0.357386792434277 
1003	 0.358630831639432 
1004	 0.359835331780132 
1005	 0.360998121097475 
1006	 0.362131933578716 
1007	 0.363210215925949 
1008	 0.364337755490724 
1009	 0.365459996686107 
1010	 0.36659365276234 
1011	 0.367791655552283 
1012	 0.368973858868098 
1013	 0.370082117775512 
1014	 0.371157874905536 
1015	 0.372210773762868 
1016	 0.373251908293934 
1017	 0.374289264544562 
1018	 0.375332900344554 
1019	 0.376346822777584 
1020	 0.377374847965513 
1021	 0.378426461720545 
1022	 0.379496922471299 
1023	 0.380596170494581 
1024	 0.381644985693129 
1025	 0.382689356246482 
1026	 0.383742511888188 
1027	 0.384792127771006 
1028	 0.385877075391448 
1029	 0.386876186383747 
1030	 0.387841785941473 
1031	 0.388842147324309 
1032	 0.389844969432678 
1033	 0.390818859901802 
1034	 0.391875717008398 
1035	 0.392912052700365 
1036	 0.393853016331983 
1037	 0.394857329638386 
1038	 0.395864218016216 
1039	 0.396829070577938 
1040	 0.397850162292037 
1041	 0.398853799666573 
1042	 0.399817759043353 
1043	 0.400841034886039 
1044	 0.401831759983595 
1045	 0.402827572220986 
1046	 0.403785548696545 
1047	 0.404770354673739 
1048	 0.405762745950592 
1049	 0.40673563759083 
1050	 0.407763432583924 
1051	 0.408785102736015 
1052	 0.409693167828362 
1053	 0.410636418195904 
1054	 0.411579215148574 
1055	 0.412469617796593 
1056	 0.413382201816505 
1057	 0.414228874751116 
1058	 0.414987651743572 
1059	 0.415797162848067 
1060	 0.416597846218479 
1061	 0.417379820148442 
1062	 0.418175054706742 
1063	 0.419013404209412 
1064	 0.419801950850629 
1065	 0.420539021421288 
1066	 0.421356820467963 
1067	 0.422166516293677 
1068	 0.42289878173835 
1069	 0.42365497748901 
1070	 0.424378763788947 
1071	 0.425028124053571 
1072	 0.42571474336346 
1073	 0.426426945582191 
1074	 0.427103159478175 
1075	 0.427775172672712 
1076	 0.428399047023554 
1077	 0.429001319214074 
1078	 0.429595220998006 
1079	 0.430197738877561 
1080	 0.430862748947816 
1081	 0.431526460834617 
1082	 0.432198903103385 
1083	 0.432869012560631 
1084	 0.433536170345774 
1085	 0.434191555389739 
1086	 0.43483195603997 
1087	 0.435485348029825 
1088	 0.436129933491984 
1089	 0.436791301039517 
1090	 0.437458202079292 
1091	 0.438186519316045 
1092	 0.43885564972533 
1093	 0.439499512114041 
1094	 0.440217032905434 
1095	 0.440888002013804 
1096	 0.441617234700141 
1097	 0.442422199644576 
1098	 0.443180365311273 
1099	 0.443904364368589 
1100	 0.444684573309382 
1101	 0.445471068519305 
1102	 0.446276446441565 
1103	 0.44711279545243 
1104	 0.447969253232279 
1105	 0.448809827433799 
1106	 0.449697019953179 
1107	 0.450589777177767 
1108	 0.451495135191719 
1109	 0.452457459989354 
1110	 0.453410764428634 
1111	 0.454370797430967 
1112	 0.455360907323473 
1113	 0.456327971211277 
1114	 0.457259488320136 
1115	 0.458248161981813 
1116	 0.459267053582054 
1117	 0.460285864996831 
1118	 0.461335034137379 
1119	 0.462372000161882 
1120	 0.463429245302665 
1121	 0.464453689327292 
1122	 0.465469615985199 
1123	 0.46651596164227 
1124	 0.467568555278087 
1125	 0.468604382923399 
1126	 0.46967553171594 
1127	 0.470804320168704 
1128	 0.471878055056212 
1129	 0.472946261344262 
1130	 0.473998671735373 
1131	 0.474986238216131 
1132	 0.476034724954822 
1133	 0.47712152075922 
1134	 0.47818735143232 
1135	 0.479250355435311 
1136	 0.480360728018627 
1137	 0.481459172740723 
1138	 0.482477984938174 
1139	 0.483528198467857 
1140	 0.48459504668784 
1141	 0.485635459565397 
1142	 0.486665626765617 
1143	 0.48768363657843 
1144	 0.488697809866672 
1145	 0.489676374532387 
1146	 0.490614430828232 
1147	 0.491567463518761 
1148	 0.492506691583548 
1149	 0.493450529269344 
1150	 0.494408269887545 
1151	 0.49535743912548 
1152	 0.496267847629396 
1153	 0.497166177714825 
1154	 0.498081857469852 
1155	 0.499002189876531 
1156	 0.499890081763112 
1157	 0.500780689801274 
1158	 0.501652264717469 
1159	 0.502489678174556 
1160	 0.503335477147468 
1161	 0.504193268237738 
1162	 0.505028901776746 
1163	 0.505858899635027 
1164	 0.506657651370072 
1165	 0.507427895609955 
1166	 0.508207789617033 
1167	 0.50895430931476 
1168	 0.509693929509837 
1169	 0.510419867575052 
1170	 0.511137659334594 
1171	 0.511844589847935 
1172	 0.51253321635708 
1173	 0.513221752734354 
1174	 0.51389593820035 
1175	 0.514588253283302 
1176	 0.515296302760773 
1177	 0.515982253695819 
1178	 0.516690251289777 
1179	 0.517354508443597 
1180	 0.517978351392716 
1181	 0.518601493256988 
1182	 0.519200872845817 
1183	 0.519808239915175 
1184	 0.520390046610111 
1185	 0.520955886464923 
1186	 0.521530379821753 
1187	 0.522090342137179 
1188	 0.522656515363876 
1189	 0.523249071785359 
1190	 0.523795696098337 
1191	 0.524315357462697 
1192	 0.524838178820309 
1193	 0.525337144862297 
1194	 0.525843599157764 
1195	 0.526353232001332 
1196	 0.52685838341871 
1197	 0.527359319597674 
1198	 0.52785732093195 
1199	 0.528353373173264 
1200	 0.528854771370271 
1201	 0.529337624974778 
1202	 0.529813501507278 
1203	 0.530278985545632 
1204	 0.530734298846857 
1205	 0.531180316581602 
1206	 0.531614981646869 
1207	 0.532047987567779 
1208	 0.532478465972989 
1209	 0.532893705109059 
1210	 0.533296473571123 
1211	 0.533700182610606 
1212	 0.534079167920072 
1213	 0.534478782516179 
1214	 0.534907088002842 
1215	 0.535311132303416 
1216	 0.535708479998816 
1217	 0.53610624129433 
1218	 0.536497362235592 
1219	 0.536878712042725 
1220	 0.537245155209981 
1221	 0.537599521714929 
1222	 0.537967649685552 
1223	 0.538311621941345 
1224	 0.538686876342813 
1225	 0.539120842184767 
1226	 0.53949310968244 
1227	 0.539852207230712 
1228	 0.540193269439342 
1229	 0.54047005353491 
1230	 0.540787736914312 
1231	 0.541129475439769 
1232	 0.541455696109155 
1233	 0.541782320892198 
1234	 0.542118311328652 
1235	 0.542453869084862 
1236	 0.542788849239469 
1237	 0.543104277148288 
1238	 0.543439078136328 
1239	 0.543728213906283 
1240	 0.543963540181517 
1241	 0.54422743781817 
1242	 0.544474271409834 
1243	 0.544742334638153 
1244	 0.545042984423055 
1245	 0.545314318115748 
1246	 0.545568850608809 
1247	 0.545840425284404 
1248	 0.546121692890735 
1249	 0.546383637638405 
1250	 0.546629046546204 
1251	 0.546862351536021 
1252	 0.547089176371175 
1253	 0.547270262746173 
1254	 0.547484284175475 
1255	 0.547728740848133 
1256	 0.547942045564307 
1257	 0.548134876045102 
1258	 0.548339551031899 
1259	 0.548530529877355 
1260	 0.548741312892377 
1261	 0.548965515024608 
1262	 0.549189749694226 
1263	 0.549437290648178 
1264	 0.549664946868617 
1265	 0.549875447110782 
1266	 0.550098173303965 
1267	 0.55032352890042 
1268	 0.550525000316509 
1269	 0.550775839195707 
1270	 0.551060140743014 
1271	 0.551322218444914 
1272	 0.551601535488827 
1273	 0.551872366346675 
1274	 0.552121059303433 
1275	 0.552392480051161 
1276	 0.552679976433476 
1277	 0.552966441826521 
1278	 0.553265348271307 
1279	 0.553551222288521 
1280	 0.553852369526102 
1281	 0.554119909267605 
1282	 0.55436487887557 
1283	 0.554602976013228 
1284	 0.554834257248301 
1285	 0.555035981477365 
1286	 0.555222878497404 
1287	 0.555375911730227 
1288	 0.555500736666124 
1289	 0.555585611680647 
1290	 0.555662276430709 
1291	 0.555731678437154 
1292	 0.555744296095107 
1293	 0.55571723786962 
1294	 0.555674881982399 
1295	 0.555592021016862 
1296	 0.555489894298739 
1297	 0.555383161475309 
1298	 0.555228179906285 
1299	 0.555026744860621 
1300	 0.554807970164501 
1301	 0.554531690143583 
1302	 0.554277672426172 
1303	 0.554009626221595 
1304	 0.553748269460767 
1305	 0.553507535456963 
1306	 0.553261819213556 
1307	 0.552990755387383 
1308	 0.552736003227335 
1309	 0.552505114359155 
1310	 0.552279265779438 
1311	 0.552080646205754 
1312	 0.551906382305367 
1313	 0.551749525280612 
1314	 0.551602325730005 
1315	 0.55148065243809 
1316	 0.551399102858121 
1317	 0.551316905590661 
1318	 0.551235269893197 
1319	 0.551185331823605 
1320	 0.551133559373064 
1321	 0.551132196643214 
1322	 0.551170967808951 
1323	 0.55123078671262 
1324	 0.55132874928791 
1325	 0.551459195499309 
1326	 0.551608044552912 
1327	 0.551797096706112 
1328	 0.551974137063548 
1329	 0.552165674286763 
1330	 0.552393304287582 
1331	 0.552625329097739 
1332	 0.552894804249611 
1333	 0.553229231684702 
1334	 0.553527840577484 
1335	 0.553820253013797 
1336	 0.554135307182807 
1337	 0.554443786240676 
1338	 0.554776545680964 
1339	 0.555138168929845 
1340	 0.555499205821394 
1341	 0.555858464909569 
1342	 0.556245312499381 
1343	 0.556656035266794 
1344	 0.557069578576831 
1345	 0.557483822520988 
1346	 0.557896246889557 
1347	 0.558288152314379 
1348	 0.558670994956156 
1349	 0.559054893654317 
1350	 0.559455735486325 
1351	 0.55985704964077 
1352	 0.560268641452269 
1353	 0.560658527387209 
1354	 0.561056327375085 
1355	 0.561424066451726 
1356	 0.561768802820284 
1357	 0.562113790862728 
1358	 0.562437681453027 
1359	 0.562778641141595 
1360	 0.563103149107967 
1361	 0.563453145388141 
1362	 0.563844021341271 
1363	 0.564199068260677 
1364	 0.564558519379887 
1365	 0.564900641129243 
1366	 0.565216029178715 
1367	 0.56551844555874 
1368	 0.56583235808359 
1369	 0.566159741760162 
1370	 0.566488062346388 
1371	 0.566794727826647 
1372	 0.567083703264503 
1373	 0.567352087584021 
1374	 0.567612514988955 
1375	 0.567858394477726 
1376	 0.568096464458642 
1377	 0.56833724231864 
1378	 0.568540077682117 
1379	 0.568726299240457 
1380	 0.568878483028309 
1381	 0.568988573377648 
1382	 0.569105004451669 
1383	 0.569203336117209 
1384	 0.569291517675596 
1385	 0.569405369984821 
1386	 0.569444769373389 
1387	 0.569419478462282 
1388	 0.569407035539691 
1389	 0.569357268816161 
1390	 0.569303315077749 
1391	 0.56928519371283 
1392	 0.569237006568412 
1393	 0.569130138010542 
1394	 0.569020517983028 
1395	 0.568889286392313 
1396	 0.56874321807603 
1397	 0.568611699227401 
1398	 0.568500241536778 
1399	 0.568354522151606 
1400	 0.56819580391215 
1401	 0.568035492815041 
1402	 0.567854959455156 
1403	 0.567687662161228 
1404	 0.567520094435007 
1405	 0.567356829862598 
1406	 0.567197351633103 
1407	 0.56703484734851 
1408	 0.566862498298784 
1409	 0.566715500588265 
1410	 0.566557908279091 
1411	 0.566450541787662 
1412	 0.566371096810434 
1413	 0.566315694371079 
1414	 0.56631698388455 
1415	 0.566346559048507 
1416	 0.566422963524807 
1417	 0.566504913130983 
1418	 0.566580318415454 
1419	 0.566670198113707 
1420	 0.566737586240747 
1421	 0.566808931257671 
1422	 0.566888783159002 
1423	 0.566928752944365 
1424	 0.566951795292084 
1425	 0.56695568271795 
1426	 0.566955844220837 
1427	 0.566926899766668 
1428	 0.56691011059917 
1429	 0.56688708410464 
1430	 0.566874851467452 
1431	 0.566867407320661 
1432	 0.566855728668105 
1433	 0.566869847543736 
1434	 0.566841469116561 
1435	 0.566775670007659 
1436	 0.566731561717934 
1437	 0.56666699401304 
1438	 0.566622950073601 
1439	 0.566605871361771 
1440	 0.566579180733342 
1441	 0.566527393108048 
1442	 0.566477248855276 
1443	 0.566412790653571 
1444	 0.566331473699233 
1445	 0.566278923848739 
1446	 0.56622998073664 
1447	 0.56618342426268 
1448	 0.566148165210726 
1449	 0.566075998788942 
1450	 0.56598429414712 
1451	 0.565892687597512 
1452	 0.565782614187407 
1453	 0.565671233948601 
1454	 0.56555213688426 
1455	 0.565449535870244 
1456	 0.565341354396114 
1457	 0.565231963933865 
1458	 0.565131894468279 
1459	 0.565040530363004 
1460	 0.564941932733624 
1461	 0.564859989680072 
1462	 0.564798256709987 
1463	 0.56473592987461 
1464	 0.564677873945989 
1465	 0.564617104216005 
1466	 0.564562346328644 
1467	 0.564514917668371 
1468	 0.564459484767991 
1469	 0.564417715312725 
1470	 0.564388725741497 
1471	 0.564360183516983 
1472	 0.564360136833328 
1473	 0.564376670650026 
1474	 0.56440757342 
1475	 0.564461018102382 
1476	 0.564527540580946 
1477	 0.564632206458001 
1478	 0.564774640936269 
1479	 0.564935947301375 
1480	 0.565129083226566 
1481	 0.565310068031843 
1482	 0.56548261709892 
1483	 0.565663595020155 
1484	 0.565835178179071 
1485	 0.565987186993946 
1486	 0.566154654309878 
1487	 0.566336727407769 
1488	 0.566497907503788 
1489	 0.566642307506431 
1490	 0.566801014731708 
1491	 0.566960485497375 
1492	 0.567117223625566 
1493	 0.56729554387582 
1494	 0.567444976780623 
1495	 0.567587421328669 
1496	 0.567697140207625 
1497	 0.567771026750956 
1498	 0.567850922996015 
1499	 0.56789529149594 
1500	 0.567970428149575 
1501	 0.568068014995909 
1502	 0.568153739871696 
1503	 0.568243319268219 
1504	 0.56833509253484 
1505	 0.568414224213573 
1506	 0.568487903991247 
1507	 0.56856549641885 
1508	 0.568632793547243 
1509	 0.568683072987712 
1510	 0.568747074826754 
1511	 0.568823232568586 
1512	 0.568893982570819 
1513	 0.56899298939992 
1514	 0.569105873970445 
1515	 0.569214196927335 
1516	 0.569320629928405 
1517	 0.569398769976664 
1518	 0.569456535724649 
1519	 0.56951444887009 
1520	 0.569555839706888 
1521	 0.569596245217093 
1522	 0.569624785477475 
1523	 0.569675523230037 
1524	 0.569708018466894 
1525	 0.569788113883564 
1526	 0.569924754327124 
1527	 0.570018981041968 
1528	 0.570125770309787 
1529	 0.570211034752864 
1530	 0.570266367707499 
1531	 0.570325276846642 
1532	 0.570392229867753 
1533	 0.570431775523129 
1534	 0.570437553331102 
1535	 0.570466673725307 
1536	 0.570485295923014 
1537	 0.570519015604779 
1538	 0.570573895005267 
1539	 0.570625704064071 
1540	 0.57066780241857 
1541	 0.570732513086317 
1542	 0.570828233101512 
1543	 0.570898939179218 
1544	 0.570983193551104 
1545	 0.571046218524432 
1546	 0.57108123411659 
1547	 0.571099921104433 
1548	 0.571157178675025 
1549	 0.571235053273737 
1550	 0.571337890701404 
1551	 0.571459190315982 
1552	 0.571575690947074 
1553	 0.571659156778797 
1554	 0.57173698631162 
1555	 0.571812628641899 
1556	 0.571861427089443 
1557	 0.571914841685325 
1558	 0.57195752478022 
1559	 0.572006405568152 
1560	 0.572062347274585 
1561	 0.572123435277651 
1562	 0.572193051094646 
1563	 0.572269201430509 
1564	 0.572342378111272 
1565	 0.572421142824516 
1566	 0.572500888987377 
1567	 0.572580819073422 
1568	 0.572667229078313 
1569	 0.572772695805301 
1570	 0.572844562097307 
1571	 0.572897122793544 
1572	 0.572965578553819 
1573	 0.573021777814043 
1574	 0.573081027916473 
1575	 0.573141146669899 
1576	 0.57322534425554 
1577	 0.573332654294775 
1578	 0.57340455526245 
1579	 0.573490867976635 
1580	 0.573549597785155 
1581	 0.573563671800805 
1582	 0.573582277342098 
1583	 0.573591580926658 
1584	 0.573615363481329 
1585	 0.57361384913348 
1586	 0.57365546721329 
1587	 0.573734368362205 
1588	 0.573811472331012 
1589	 0.573930261783857 
1590	 0.573999932274812 
1591	 0.574049409442518 
1592	 0.574103909498351 
1593	 0.574111418513404 
1594	 0.574161233898019 
1595	 0.574250335885123 
1596	 0.574317659218032 
1597	 0.574392811455363 
1598	 0.57446335103414 
1599	 0.5745121522927 
1600	 0.57457966825111 
1601	 0.574667078937595 
1602	 0.574742056105625 
1603	 0.574820096799913 
1604	 0.574893148968292 
1605	 0.574969890813073 
1606	 0.575023699321527 
1607	 0.575063366693195 
1608	 0.575097882306285 
1609	 0.575118934377112 
1610	 0.575120723948596 
1611	 0.575165640434515 
1612	 0.575220257076066 
1613	 0.575254078741562 
1614	 0.575327621814445 
1615	 0.575392248679171 
1616	 0.575436805823911 
1617	 0.575517115304009 
1618	 0.575590130036116 
1619	 0.575656402136862 
1620	 0.575743839722927 
1621	 0.575832276767928 
1622	 0.575932751545268 
1623	 0.576012473435489 
1624	 0.576094155435631 
1625	 0.576163456828529 
1626	 0.576217280816266 
1627	 0.576264355644816 
1628	 0.576304678374668 
1629	 0.576350023959498 
1630	 0.576381254482936 
1631	 0.576428446616601 
1632	 0.576483249961789 
1633	 0.576546969589117 
1634	 0.576626191574207 
1635	 0.576678946046908 
1636	 0.576724103686818 
1637	 0.57678722706258 
1638	 0.5768394062622 
1639	 0.57690055917726 
1640	 0.576994132621041 
1641	 0.577053634305188 
1642	 0.577080202743596 
1643	 0.577138455702357 
1644	 0.57720251976084 
1645	 0.577270664970913 
1646	 0.577354125656003 
1647	 0.577432188248131 
1648	 0.577510316825688 
1649	 0.577585920779786 
1650	 0.577668921480721 
1651	 0.577735865939543 
1652	 0.577785588263415 
1653	 0.577852668177157 
1654	 0.577914515850554 
1655	 0.577991445751566 
1656	 0.578087492676763 
1657	 0.578174353255517 
1658	 0.578263983187045 
1659	 0.578351807245623 
1660	 0.578445832589545 
1661	 0.578521604629626 
1662	 0.578598985227373 
1663	 0.578649692278884 
1664	 0.57866475536096 
1665	 0.578705291377044 
1666	 0.578732170243448 
1667	 0.578784353127784 
1668	 0.578860626813215 
1669	 0.578932332854525 
1670	 0.579021067882625 
1671	 0.579087333339612 
1672	 0.579141084468256 
1673	 0.579207079021082 
1674	 0.579266742408459 
1675	 0.579329675975814 
1676	 0.579411432304656 
1677	 0.57947050638802 
1678	 0.579507546215155 
1679	 0.579561011411008 
1680	 0.579612681437077 
1681	 0.57967003889463 
1682	 0.579736499153501 
1683	 0.579801353369543 
1684	 0.579858828397493 
1685	 0.579938471285585 
1686	 0.580030895392938 
1687	 0.580123500555119 
1688	 0.580226513653441 
1689	 0.580336390186813 
1690	 0.580462459797783 
1691	 0.580565916387705 
1692	 0.580665439941573 
1693	 0.580764796687482 
1694	 0.580848524738083 
1695	 0.580935960475553 
1696	 0.581045019847012 
1697	 0.581119644558232 
1698	 0.581171052161223 
1699	 0.581216023776708 
1700	 0.581244242326221 
1701	 0.581268944431525 
1702	 0.581274493952453 
1703	 0.581298436638713 
1704	 0.58131450257194 
1705	 0.581357924500682 
1706	 0.581437235145067 
1707	 0.581481325475736 
1708	 0.581517705853699 
1709	 0.581559904837591 
1710	 0.581561442230408 
1711	 0.581633250760575 
1712	 0.581746839747349 
1713	 0.581868659538501 
1714	 0.582041919654983 
1715	 0.582178635409021 
1716	 0.582324934097816 
1717	 0.582434870438209 
1718	 0.582516044795931 
1719	 0.582594094831879 
1720	 0.582653401503201 
1721	 0.582708851587487 
1722	 0.582760084517732 
1723	 0.582801573485676 
1724	 0.582830319155569 
1725	 0.582851272814691 
1726	 0.582866236678607 
1727	 0.582869563460103 
1728	 0.582864549321387 
1729	 0.58283565639507 
1730	 0.582779898971257 
1731	 0.582743620748113 
1732	 0.582701816531162 
1733	 0.582657694869416 
1734	 0.582621077638713 
1735	 0.582584971238218 
1736	 0.582514167109511 
1737	 0.582517697411563 
1738	 0.582573657913476 
1739	 0.58259409101449 
1740	 0.582648768032242 
1741	 0.582665349724805 
1742	 0.582638907738202 
1743	 0.582642627113108 
1744	 0.582670659750003 
1745	 0.582648387181742 
1746	 0.582599987151774 
1747	 0.582549572556582 
1748	 0.582516075400962 
1749	 0.582527362107966 
1750	 0.582533506209524 
1751	 0.58255675631591 
1752	 0.582570744651383 
1753	 0.582560922674405 
1754	 0.582596310135189 
1755	 0.582633609868587 
1756	 0.58263787964257 
1757	 0.582660911864559 
1758	 0.582718511193624 
1759	 0.582810342657007 
1760	 0.582905268489663 
1761	 0.582979411125928 
1762	 0.583022839406839 
1763	 0.583025321548423 
1764	 0.583022484464435 
1765	 0.583008963209648 
1766	 0.583018374059155 
1767	 0.583044929576322 
1768	 0.583074222428588 
1769	 0.583136491668556 
1770	 0.583182489356089 
1771	 0.583245711374654 
1772	 0.583289693894572 
1773	 0.583307100041811 
1774	 0.583369615959909 
1775	 0.583395360000105 
1776	 0.583421563851269 
1777	 0.583477479686982 
1778	 0.5835053858786 
1779	 0.583533831069528 
1780	 0.583548418871576 
1781	 0.583531659536944 
1782	 0.583552705912958 
1783	 0.583593863433207 
1784	 0.583629633845564 
1785	 0.583704817840234 
1786	 0.583761616184192 
1787	 0.583781685545429 
1788	 0.583854582996123 
1789	 0.583969912965994 
1790	 0.584043416386706 
1791	 0.584131121736727 
1792	 0.584196601019049 
1793	 0.58423329311535 
1794	 0.584276779255429 
1795	 0.58432572588278 
1796	 0.584342970796426 
1797	 0.584310461084209 
1798	 0.584313092941972 
1799	 0.584314544063055 
1800	 0.584330286809535 
1801	 0.578677639711868 
1802	 0.578747913165963 
1803	 0.57881578645502 
1804	 0.578851181692144 
1805	 0.578924912022439 
1806	 0.579026928020826 
1807	 0.579103119442973 
1808	 0.579198029730297 
1809	 0.579396132114256 
1810	 0.579472200134334 
1811	 0.579481511624004 
1812	 0.579484572081153 
1813	 0.579493769122363 
1814	 0.579449753215833 
1815	 0.579402968992289 
1816	 0.579425947985761 
1817	 0.579432074296865 
1818	 0.579422392914296 
1819	 0.579422887504448 
1820	 0.579471023812112 
1821	 0.579456393863994 
1822	 0.579373768887295 
1823	 0.579294822474538 
1824	 0.579172250417827 
1825	 0.579024463925237 
1826	 0.578869352301565 
1827	 0.578693010884421 
1828	 0.578525613154885 
1829	 0.578339892909296 
1830	 0.578170166800407 
1831	 0.578006511660919 
1832	 0.57785131814332 
1833	 0.577704005091134 
1834	 0.577533834279447 
1835	 0.577391437468407 
1836	 0.577265965233078 
1837	 0.577116615338668 
1838	 0.576984335271315 
1839	 0.57683820293118 
1840	 0.576670891381698 
1841	 0.576511737765683 
1842	 0.576382640927134 
1843	 0.576253636456157 
1844	 0.576148374042249 
1845	 0.576063727867824 
1846	 0.576010380335391 
1847	 0.575943350384659 
1848	 0.575891999903958 
1849	 0.575885638014901 
1850	 0.575872057909548 
1851	 0.575850162535095 
1852	 0.575870116768086 
1853	 0.575908847246773 
1854	 0.575944510374403 
1855	 0.576024724266699 
1856	 0.576132016796622 
1857	 0.576288654825367 
1858	 0.576434735863442 
1859	 0.576549200338367 
1860	 0.576658230301294 
1861	 0.576763533556933 
1862	 0.576825781218212 
1863	 0.576875158748622 
1864	 0.57691358538191 
1865	 0.576949090110866 
1866	 0.576973690254841 
1867	 0.576974953330457 
1868	 0.577027857370235 
1869	 0.577110297928614 
1870	 0.577165185246797 
1871	 0.577219888484008 
1872	 0.577295737197206 
1873	 0.577362228814563 
1874	 0.577360625034937 
1875	 0.577372194775117 
1876	 0.577398664964754 
1877	 0.577348892278215 
1878	 0.577264458472796 
1879	 0.577136677996391 
1880	 0.576983209217349 
1881	 0.576767868530486 
1882	 0.576564189229361 
1883	 0.57635442014688 
1884	 0.576129750600247 
1885	 0.575855043720983 
1886	 0.575523409349255 
1887	 0.575164786723497 
1888	 0.574789234328286 
1889	 0.574411362921685 
1890	 0.573998691751789 
1891	 0.573585492653747 
1892	 0.573157321067564 
1893	 0.572728171655102 
1894	 0.572281328846174 
1895	 0.571858302795782 
1896	 0.571402996695816 
1897	 0.570923609797228 
1898	 0.570479097110387 
1899	 0.570051308196306 
1900	 0.569680023303704 
1901	 0.56937087563608 
1902	 0.569069742091336 
1903	 0.568808832547965 
1904	 0.568549347434657 
1905	 0.568317230186513 
1906	 0.568076224156676 
1907	 0.567838557916087 
1908	 0.567589322094225 
1909	 0.567360234520416 
1910	 0.567134975896275 
1911	 0.566909248778218 
1912	 0.566708479251948 
1913	 0.566493533396489 
1914	 0.56625933262724 
1915	 0.566049567865611 
1916	 0.565864295149802 
1917	 0.565653140783057 
1918	 0.565414451324486 
1919	 0.56519913225905 
1920	 0.564971767946163 
1921	 0.564742984749938 
1922	 0.564570522322546 
1923	 0.564406348217365 
1924	 0.56423525936619 
1925	 0.564063408273296 
1926	 0.563911280253494 
1927	 0.563768911010229 
1928	 0.563611350797402 
1929	 0.563494722309232 
1930	 0.563387596953991 
1931	 0.563282939290984 
1932	 0.563215736127283 
1933	 0.563167815114259 
1934	 0.563130478690167 
1935	 0.563102012716239 
1936	 0.563084454684676 
1937	 0.563085013473554 
1938	 0.563090570273445 
1939	 0.563120981446735 
1940	 0.563186533645878 
1941	 0.563248643285457 
1942	 0.563298920521008 
1943	 0.563361269596459 
1944	 0.56341236324706 
1945	 0.563484523378567 
1946	 0.563571134389612 
1947	 0.563698983273296 
1948	 0.563790345475241 
1949	 0.563886528791067 
1950	 0.563964094182536 
1951	 0.564013943675281 
1952	 0.564071322982419 
1953	 0.564154912876451 
1954	 0.564208298684438 
1955	 0.564264604273248 
1956	 0.564330829961711 
1957	 0.564398807332255 
1958	 0.564437140538968 
1959	 0.564534554512001 
1960	 0.564677260199243 
1961	 0.564798001793256 
1962	 0.564949594343334 
1963	 0.565085813891145 
1964	 0.565201017890023 
1965	 0.565320402942422 
1966	 0.565481397327819 
1967	 0.565613054946785 
1968	 0.565749099074879 
1969	 0.565886324235459 
1970	 0.56603328439747 
1971	 0.566175085262764 
1972	 0.566325914412739 
1973	 0.566487271355955 
1974	 0.56665679805262 
1975	 0.566830467944492 
1976	 0.567005377848518 
1977	 0.567197917731041 
1978	 0.567382829524128 
1979	 0.567576094228805 
1980	 0.56777751367925 
1981	 0.567998894339389 
1982	 0.568254355530709 
1983	 0.568485350349218 
1984	 0.568724997024008 
1985	 0.56895424539745 
1986	 0.569176383943194 
1987	 0.569384039748009 
1988	 0.569593902416678 
1989	 0.569775992033772 
1990	 0.569953980446831 
1991	 0.570129638378372 
1992	 0.570305345923609 
1993	 0.570477837829175 
1994	 0.570664830164907 
1995	 0.570849040192913 
1996	 0.571044700513896 
1997	 0.571242198862319 
1998	 0.571466233740779 
1999	 0.571716524087721 
2000	 0.571955201710284 
2001	 0.572210879604457 
2002	 0.5724782255626 
2003	 0.572704553541561 
2004	 0.572910603088116 
2005	 0.573115622398123 
2006	 0.573294924456686 
2007	 0.573496892416725 
2008	 0.573701720997882 
2009	 0.573909519129107 
2010	 0.574123439251921 
2011	 0.574343691453587 
2012	 0.574554965185789 
2013	 0.574788975797343 
2014	 0.57504107284252 
2015	 0.575303618809449 
2016	 0.575573257608293 
2017	 0.575839925263223 
2018	 0.576093895252045 
2019	 0.576337556476267 
2020	 0.576584236112864 
2021	 0.576812621905597 
2022	 0.577063535098629 
2023	 0.577332342880694 
2024	 0.577590684940327 
2025	 0.577839120795811 
2026	 0.578112836360817 
2027	 0.578403947721874 
2028	 0.578681361689216 
2029	 0.57896438495991 
2030	 0.579273777085764 
2031	 0.579554896253064 
2032	 0.579816726855609 
2033	 0.580081887166704 
2034	 0.580360065728597 
2035	 0.580603761542605 
2036	 0.580833679914531 
2037	 0.581042543252758 
2038	 0.581214466478248 
2039	 0.581391858347022 
2040	 0.581559239361748 
2041	 0.581720607468358 
2042	 0.581869994777256 
2043	 0.582028849603416 
2044	 0.582174339789667 
2045	 0.582294962235833 
2046	 0.582452209332024 
2047	 0.582628069908964 
2048	 0.582788624316837 
2049	 0.582961783479617 
2050	 0.583131435515683 
2051	 0.583286084073717 
2052	 0.583446651462652 
2053	 0.583631603408674 
2054	 0.583790097203616 
2055	 0.58393252934555 
2056	 0.584072552000496 
2057	 0.584197745798403 
2058	 0.584301506305635 
2059	 0.584421920036357 
2060	 0.584541127888941 
2061	 0.584655393493417 
2062	 0.58477370143192 
2063	 0.584886254137421 
2064	 0.584976366630466 
2065	 0.585091843668707 
2066	 0.585225177890807 
2067	 0.585351092387227 
2068	 0.585486940617294 
2069	 0.585624635942385 
2070	 0.58574429850154 
2071	 0.585846779569262 
2072	 0.585969259406633 
2073	 0.586092244653802 
2074	 0.586213524527451 
2075	 0.586345443255964 
2076	 0.586468688379385 
2077	 0.586574437236949 
2078	 0.586699586278064 
2079	 0.586852334614429 
2080	 0.586973352607083 
2081	 0.587084608637832 
2082	 0.587195973574528 
2083	 0.587290951722375 
2084	 0.587381956134655 
2085	 0.587468505705874 
2086	 0.587540212338266 
2087	 0.587656088589489 
2088	 0.587788689770834 
2089	 0.587907568431276 
2090	 0.588071125138929 
2091	 0.588188858657669 
2092	 0.58824257302078 
2093	 0.588347295261643 
2094	 0.588479771840144 
2095	 0.588593686806486 
2096	 0.588708348421548 
2097	 0.5888375348272 
2098	 0.588976394093431 
2099	 0.589085724542934 
2100	 0.589220132461209 
2101	 0.589380617655426 
2102	 0.589520176094494 
2103	 0.589646649621603 
2104	 0.589785127122335 
2105	 0.589893505822323 
2106	 0.59007570685609 
2107	 0.590302873990875 
2108	 0.590524826814494 
2109	 0.590811360961218 
2110	 0.591061428020395 
2111	 0.591278771400464 
2112	 0.591512877781803 
2113	 0.591747247794894 
2114	 0.591997155731385 
2115	 0.592233452990616 
2116	 0.592472638633832 
2117	 0.592707327339251 
2118	 0.592932734683732 
2119	 0.593163391054936 
2120	 0.593408278171274 
2121	 0.593627314779466 
2122	 0.593828360790545 
2123	 0.594038803958578 
2124	 0.594251222972132 
2125	 0.594441161294982 
2126	 0.594641364932009 
2127	 0.594809063151746 
2128	 0.594952522080657 
2129	 0.595069385667646 
2130	 0.59514935494627 
2131	 0.595235810067349 
2132	 0.59529038029046 
2133	 0.595315981141548 
2134	 0.595326764181689 
2135	 0.59534076993104 
2136	 0.5952884087446 
2137	 0.59518751401116 
2138	 0.595077952828303 
2139	 0.594922094932088 
2140	 0.594757321783471 
2141	 0.594573887013083 
2142	 0.594384057978171 
2143	 0.594178081229589 
2144	 0.593954739026938 
2145	 0.593721977036167 
2146	 0.593475241041493 
2147	 0.59319059657715 
2148	 0.592913912857169 
2149	 0.592644302050751 
2150	 0.592400854696353 
2151	 0.592087342114408 
2152	 0.591778582698848 
2153	 0.591387249412885 
2154	 0.590901231498382 
2155	 0.590449010122766 
2156	 0.589973011892328 
2157	 0.589480149117841 
2158	 0.588986675750051 
2159	 0.588467526226823 
2160	 0.587899614396779 
2161	 0.5873504506886 
2162	 0.58680507505982 
2163	 0.586249250548329 
2164	 0.585714092013522 
2165	 0.585127627423909 
2166	 0.584540475515848 
2167	 0.583930552237242 
2168	 0.583335471235972 
2169	 0.582725973891975 
2170	 0.582130121625875 
2171	 0.581551350835962 
2172	 0.580955289509701 
2173	 0.580361658136685 
2174	 0.579750635235546 
2175	 0.57909691577144 
2176	 0.578495808817754 
2177	 0.57792214091188 
2178	 0.577324279184237 
2179	 0.576767622729601 
2180	 0.576173798817759 
2181	 0.575522865389281 
2182	 0.574892868679582 
2183	 0.574271781061448 
2184	 0.573627589152755 
2185	 0.573007433366996 
2186	 0.572393936216241 
2187	 0.571786484411477 
2188	 0.57117069290145 
2189	 0.570602855268509 
2190	 0.570060114615717 
2191	 0.569524749037329 
2192	 0.569008493255718 
2193	 0.568525529116626 
2194	 0.568040672413356 
2195	 0.567611970096471 
2196	 0.567256807096671 
2197	 0.566890433978304 
2198	 0.566563621468603 
2199	 0.56621718052592 
2200	 0.565849001504151 
2201	 0.565515273830191 
2202	 0.565181118085547 
2203	 0.564867460958612 
2204	 0.564613249365729 
2205	 0.564410504680241 
2206	 0.564213393985253 
2207	 0.564059297318481 
2208	 0.563907581025691 
2209	 0.563752444749214 
2210	 0.563654503932615 
2211	 0.563590904248325 
2212	 0.563556345210633 
2213	 0.563582822900678 
2214	 0.563589569497496 
2215	 0.563628243675867 
2216	 0.56364174310669 
2217	 0.563681164585834 
2218	 0.563654644497864 
2219	 0.56360088278644 
2220	 0.563506810127836 
2221	 0.563344403406887 
2222	 0.563173407894171 
2223	 0.562996905001942 
2224	 0.562815652140052 
2225	 0.562618063907899 
2226	 0.562420316566852 
2227	 0.562191266803197 
2228	 0.561931998556227 
2229	 0.561666490347003 
2230	 0.56138253941148 
2231	 0.561093367050742 
2232	 0.560775199364165 
2233	 0.560496736897777 
2234	 0.560235356455152 
2235	 0.559952945585955 
2236	 0.559711508738565 
2237	 0.559402345880245 
2238	 0.559057743595378 
2239	 0.55868268502138 
2240	 0.558240052600947 
2241	 0.55782573332968 
2242	 0.557386970973668 
2243	 0.556961680715031 
2244	 0.556571723638993 
2245	 0.556155592017471 
2246	 0.555699827618008 
2247	 0.555248662104432 
2248	 0.554771433206186 
2249	 0.554240826409458 
2250	 0.553779417483624 
2251	 0.553330588376705 
2252	 0.552901434070442 
2253	 0.55250263307704 
2254	 0.552116949740244 
2255	 0.551717325188089 
2256	 0.551393376857481 
2257	 0.551130335918971 
2258	 0.55086785705305 
2259	 0.550630082039939 
2260	 0.550436230840791 
2261	 0.550248521869369 
2262	 0.550125026570008 
2263	 0.550045711285045 
2264	 0.550046848446157 
2265	 0.550104923668312 
2266	 0.550225243005718 
2267	 0.550480334830299 
2268	 0.550698398391018 
2269	 0.55094467261495 
2270	 0.551189477551376 
2271	 0.551454102152935 
2272	 0.55171702178401 
2273	 0.551997621758273 
2274	 0.552356792678878 
2275	 0.552722749188592 
2276	 0.553105726883044 
2277	 0.553525682970351 
2278	 0.55399509840589 
2279	 0.554455439340585 
2280	 0.554945340161284 
2281	 0.55543270124421 
2282	 0.555916057959932 
2283	 0.556423943534983 
2284	 0.556963951165335 
2285	 0.557475596248213 
2286	 0.558012180140649 
2287	 0.558508184608763 
2288	 0.558950551818027 
2289	 0.55942441216834 
2290	 0.55990137251206 
2291	 0.560366737321923 
2292	 0.560844967033198 
2293	 0.561306108105371 
2294	 0.561754621434908 
2295	 0.562186990017278 
2296	 0.562600693797722 
2297	 0.56301398256927 
2298	 0.563453645605555 
2299	 0.563874254717815 
2300	 0.56428064671851 
2301	 0.564705872121773 
2302	 0.565092327200274 
2303	 0.565458968515978 
2304	 0.565856574141967 
2305	 0.566263800732378 
2306	 0.566658019550442 
2307	 0.567052920490649 
2308	 0.567429902953101 
2309	 0.567785517826994 
2310	 0.568167006010484 
2311	 0.568557830341031 
2312	 0.568923395387029 
2313	 0.569294905763796 
2314	 0.569643695028532 
2315	 0.569973937465901 
2316	 0.570282919320138 
2317	 0.57057192719667 
2318	 0.570873586597955 
2319	 0.571125699275044 
2320	 0.57142933842169 
2321	 0.571778877699397 
2322	 0.572110617473565 
2323	 0.572467962457617 
2324	 0.572804335237791 
2325	 0.573098794118037 
2326	 0.573442896439946 
2327	 0.573816024961358 
2328	 0.574169917078086 
2329	 0.574566071924953 
2330	 0.57495389480789 
2331	 0.575302584773566 
2332	 0.575711491864091 
2333	 0.576042066349999 
2334	 0.576323766141251 
2335	 0.576610375125203 
2336	 0.576749196886922 
2337	 0.576910336247039 
2338	 0.577150007345656 
2339	 0.577328759065003 
2340	 0.577522936105077 
2341	 0.57771490082366 
2342	 0.577833569710011 
2343	 0.5779667420313 
2344	 0.578092120905104 
2345	 0.578153664731181 
2346	 0.578179207786609 
2347	 0.578174331268599 
2348	 0.578108888012287 
2349	 0.57803423308676 
2350	 0.577910283113107 
2351	 0.577820659085557 
2352	 0.577732103346495 
2353	 0.577628719713077 
2354	 0.577532601093643 
2355	 0.577444917066352 
2356	 0.577335949920071 
2357	 0.577224725867346 
2358	 0.577133326644088 
2359	 0.577036230106737 
2360	 0.576923864751464 
2361	 0.576809706291171 
2362	 0.576721340474603 
2363	 0.576591325495961 
2364	 0.576403435199925 
2365	 0.57627798953905 
2366	 0.576175689600398 
2367	 0.576028997627375 
2368	 0.57592960743951 
2369	 0.575751242211038 
2370	 0.575502661505971 
2371	 0.575240047910842 
2372	 0.57493674700011 
2373	 0.574614271374738 
2374	 0.574260691070941 
2375	 0.573924444149678 
2376	 0.573627014357151 
2377	 0.573325875699558 
2378	 0.573039898113993 
2379	 0.57271049898675 
2380	 0.57237722833947 
2381	 0.572107237997387 
2382	 0.57178093059174 
2383	 0.571516712949288 
2384	 0.571296131644915 
2385	 0.570903876552459 
2386	 0.570473722076013 
2387	 0.570119816173833 
2388	 0.569727305380309 
2389	 0.569376282698074 
2390	 0.569084701019565 
2391	 0.568689314418981 
2392	 0.568288390596912 
2393	 0.567875518279925 
2394	 0.567403478514158 
2395	 0.567002297825055 
2396	 0.566633211475356 
2397	 0.566203169171611 
2398	 0.565781573420801 
2399	 0.565349611396656 
2400	 0.564855621916877 
2401	 0.564426408498286 
2402	 0.564061461298218 
2403	 0.563664093193128 
2404	 0.563318673959549 
2405	 0.562993160724302 
2406	 0.562575939064781 
2407	 0.562272849936074 
2408	 0.56194996676068 
2409	 0.561516427788574 
2410	 0.56123157025665 
2411	 0.560868268573573 
2412	 0.560469293821095 
2413	 0.560134398920028 
2414	 0.559706075701483 
2415	 0.559333839658131 
2416	 0.559033366292822 
2417	 0.558832278852773 
2418	 0.558571808242263 
2419	 0.558346939926879 
2420	 0.558049416011384 
2421	 0.55766540904171 
2422	 0.557413475319918 
2423	 0.55721196396604 
2424	 0.556995543877381 
2425	 0.556871499954258 
2426	 0.556639367303999 
2427	 0.556323270960845 
2428	 0.556060456846871 
2429	 0.555765697755674 
2430	 0.555486930954679 
2431	 0.555249069344632 
2432	 0.554936787845233 
2433	 0.554606697593169 
2434	 0.554307212630453 
2435	 0.553979401635919 
2436	 0.553700405268931 
2437	 0.553452387787103 
2438	 0.553183252714767 
2439	 0.5529052117792 
2440	 0.55266920634254 
2441	 0.552506965165871 
2442	 0.552202839116608 
2443	 0.55179995849503 
2444	 0.551481669080844 
2445	 0.551128197117329 
2446	 0.550849514907124 
2447	 0.550686504057608 
2448	 0.550419685633318 
2449	 0.550131515245698 
2450	 0.549771760902633 
2451	 0.549305129258221 
2452	 0.549009014122409 
2453	 0.548732952936808 
2454	 0.548460429305008 
2455	 0.548403292162383 
2456	 0.548098288455443 
2457	 0.54750323828606 
2458	 0.547225644519418 
2459	 0.547022872030667 
2460	 0.546786682908229 
2461	 0.546729581616611 
2462	 0.546576334704332 
2463	 0.546327838509165 
2464	 0.546142726981519 
2465	 0.546063792759627 
2466	 0.545860288541788 
2467	 0.545519500698036 
2468	 0.545312904856846 
2469	 0.545079142788536 
2470	 0.544997273562661 
2471	 0.544935806616328 
2472	 0.544783429914027 
2473	 0.544725699817321 
2474	 0.544612009428915 
2475	 0.544272251853189 
2476	 0.543809710154447 
2477	 0.543382757651642 
2478	 0.543091690129528 
2479	 0.542984039918656 
2480	 0.542871000826756 
2481	 0.542677590852452 
2482	 0.542422433574859 
2483	 0.542064447424514 
2484	 0.541768041673021 
2485	 0.541690502441932 
2486	 0.54175047343574 
2487	 0.541593440449797 
2488	 0.541313225056133 
2489	 0.54106326314366 
2490	 0.540705096995963 
2491	 0.540428541689799 
2492	 0.540301521828699 
2493	 0.540092188576577 
2494	 0.539957606893394 
2495	 0.539745049150919 
2496	 0.539051652563693 
2497	 0.538725698562599 
2498	 0.5384521848899 
2499	 0.538021266834569 
2500	 0.538252062922095 
