Wavelength	MM800004.asd
350	 5.42932502685255E-02 
351	 6.12157729215417E-02 
352	 5.96493199349405E-02 
353	 4.94728749015491E-02 
354	 5.62004909241482E-02 
355	 5.66160549618517E-02 
356	 5.35200503801968E-02 
357	 5.44084563358588E-02 
358	 5.87586850796632E-02 
359	 5.84461696109636E-02 
360	 5.55089656135303E-02 
361	 5.74086652200758E-02 
362	 5.34577694290634E-02 
363	 5.35375371588922E-02 
364	 5.97268998112608E-02 
365	 5.86274109826242E-02 
366	 5.89579692340697E-02 
367	 5.96201624973269E-02 
368	 5.82836560453874E-02 
369	 5.77129647091596E-02 
370	 6.13332089309053E-02 
371	 6.55492057593624E-02 
372	 6.31596841213114E-02 
373	 6.20327107809159E-02 
374	 6.24575609100342E-02 
375	 6.35648327708837E-02 
376	 6.45641519741538E-02 
377	 6.33796513326815E-02 
378	 6.42869202604142E-02 
379	 7.02492587064233E-02 
380	 7.09218985311105E-02 
381	 7.02014023744653E-02 
382	 7.07586937785258E-02 
383	 7.34820774563164E-02 
384	 7.39042005384303E-02 
385	 7.27537106944924E-02 
386	 7.22052529234741E-02 
387	 0.075762743748086 
388	 7.85219839875754E-02 
389	 0.079881191110234 
390	 8.06234228089982E-02 
391	 8.02652958214998E-02 
392	 8.24738628233976E-02 
393	 8.65508601107167E-02 
394	 8.82658393433126E-02 
395	 8.89216340278337E-02 
396	 9.04526072960332E-02 
397	 9.33190140087642E-02 
398	 9.45863048960653E-02 
399	 9.66852322336906E-02 
400	 9.92820387180946E-02 
401	 0.101101692504898 
402	 0.101627906905496 
403	 0.102412551408007 
404	 0.104072070413026 
405	 0.106144400668524 
406	 0.108669315549764 
407	 0.111081475717439 
408	 0.112841175024096 
409	 0.113557679981273 
410	 0.114773118383856 
411	 0.116241853915351 
412	 0.117096442008634 
413	 0.118725550236484 
414	 0.119832973652582 
415	 0.120264772317014 
416	 0.12160143941274 
417	 0.121771808375533 
418	 0.122026625334804 
419	 0.123416223105873 
420	 0.123587940344796 
421	 0.123325393392687 
422	 0.123382282770084 
423	 0.124266803121054 
424	 0.124534524177843 
425	 0.124184253537082 
426	 0.123612630946001 
427	 0.123570238841457 
428	 0.123154025781782 
429	 0.122699024070404 
430	 0.122689059670624 
431	 0.12228601260887 
432	 0.121749881515987 
433	 0.121348944486923 
434	 0.121283193171478 
435	 0.121293682101874 
436	 0.121522909537759 
437	 0.121969102424174 
438	 0.121931684714032 
439	 0.122846552902405 
440	 0.12433972243004 
441	 0.125257728601706 
442	 0.126224901233674 
443	 0.127431760513424 
444	 0.128765076329274 
445	 0.129708497119924 
446	 0.131074894903261 
447	 0.132622908338364 
448	 0.133921972635071 
449	 0.135101152485598 
450	 0.136499630669641 
451	 0.137980035974276 
452	 0.139040297650427 
453	 0.140206475926721 
454	 0.141352941167612 
455	 0.142388034710337 
456	 0.143628183270096 
457	 0.144569511907642 
458	 0.145345754753408 
459	 0.146326514537945 
460	 0.147275421383771 
461	 0.148030264669983 
462	 0.148643535985765 
463	 0.149451737870168 
464	 0.150173304593132 
465	 0.150785503005033 
466	 0.151374209791076 
467	 0.152186457350909 
468	 0.152768345567549 
469	 0.153113225413416 
470	 0.153578805291452 
471	 0.154050073358465 
472	 0.154573442791924 
473	 0.155146401087624 
474	 0.155606502812759 
475	 0.155998869668911 
476	 0.156315662928595 
477	 0.156588802429306 
478	 0.157261986424047 
479	 0.157839370436189 
480	 0.158141337643416 
481	 0.158528829373692 
482	 0.158974802059526 
483	 0.159542249214218 
484	 0.160175908528937 
485	 0.160289812161503 
486	 0.160494797065398 
487	 0.160910342344436 
488	 0.161228720007548 
489	 0.161523408240885 
490	 0.161918066973169 
491	 0.162426509097827 
492	 0.162773080385088 
493	 0.163064750083747 
494	 0.163454424495436 
495	 0.164057306559714 
496	 0.164516113636872 
497	 0.164818029313772 
498	 0.165082569259871 
499	 0.165569205465778 
500	 0.166006135946657 
501	 0.166357018828426 
502	 0.166666026776768 
503	 0.166992846429968 
504	 0.167348036670433 
505	 0.167751334688252 
506	 0.168222999790526 
507	 0.168535678550618 
508	 0.168830540498165 
509	 0.169209219959733 
510	 0.169457354166955 
511	 0.169754895647338 
512	 0.17011272171119 
513	 0.170450858236744 
514	 0.170744951473862 
515	 0.171062896318353 
516	 0.171431663567479 
517	 0.171792337831968 
518	 0.17217834052416 
519	 0.172524833357084 
520	 0.172787120129747 
521	 0.173187198181129 
522	 0.173552214503962 
523	 0.173824097226158 
524	 0.174087436582431 
525	 0.174352488669677 
526	 0.174705684663159 
527	 0.175158976805975 
528	 0.175455903183123 
529	 0.175755129750199 
530	 0.176083135102929 
531	 0.176375345439076 
532	 0.17656772266571 
533	 0.17686972883723 
534	 0.177340769534384 
535	 0.17765017084686 
536	 0.177994624991506 
537	 0.17838869627944 
538	 0.178774367575198 
539	 0.179088271022668 
540	 0.179399725988653 
541	 0.179745427741442 
542	 0.18010316476389 
543	 0.180498483655003 
544	 0.180913971959686 
545	 0.181317979187581 
546	 0.181681457917598 
547	 0.181980351847634 
548	 0.18231203754017 
549	 0.18285439417363 
550	 0.183302234442344 
551	 0.183735505331854 
552	 0.184236089629104 
553	 0.184699008875671 
554	 0.18514772230309 
555	 0.185599266777508 
556	 0.186074468373868 
557	 0.186647755499016 
558	 0.187163994848378 
559	 0.187595082332796 
560	 0.188179271167579 
561	 0.188764965105981 
562	 0.18940775888938 
563	 0.190205299212378 
564	 0.191106366312939 
565	 0.19203214473236 
566	 0.192887550656409 
567	 0.193568512084292 
568	 0.194372965479588 
569	 0.195224326655868 
570	 0.196037068781302 
571	 0.197050339378193 
572	 0.197957676245094 
573	 0.198746616399815 
574	 0.199614751712299 
575	 0.200508199091241 
576	 0.201530303138151 
577	 0.202688897526514 
578	 0.203750772475283 
579	 0.204751764914299 
580	 0.205682605139536 
581	 0.206551526352431 
582	 0.207517144703055 
583	 0.208669618401921 
584	 0.210007468932407 
585	 0.211420687679018 
586	 0.21291414202554 
587	 0.214410286038738 
588	 0.215838135819791 
589	 0.217243259816046 
590	 0.218692221825248 
591	 0.220164249008602 
592	 0.22156233645362 
593	 0.222838787510927 
594	 0.223942398280401 
595	 0.224863347407749 
596	 0.225657320096782 
597	 0.226540727071261 
598	 0.227556385870078 
599	 0.228645677424311 
600	 0.229786332481704 
601	 0.231057439855373 
602	 0.232406198630057 
603	 0.233526802979716 
604	 0.234575728620483 
605	 0.235678442973397 
606	 0.236890102991769 
607	 0.237919601757912 
608	 0.23886006048232 
609	 0.239803799331199 
610	 0.240813309334849 
611	 0.241752426759893 
612	 0.242619954562776 
613	 0.243444712602526 
614	 0.244254456495931 
615	 0.244942764064764 
616	 0.24556963828973 
617	 0.246288688030407 
618	 0.24689578771258 
619	 0.247431290147451 
620	 0.247962943990736 
621	 0.24853742178329 
622	 0.249086204154326 
623	 0.249574329866746 
624	 0.250003154621013 
625	 0.250511953788557 
626	 0.250986784277493 
627	 0.251392035117652 
628	 0.25182157635209 
629	 0.252240711826478 
630	 0.252650739910543 
631	 0.253050812513068 
632	 0.253391076632902 
633	 0.253755179143104 
634	 0.25415294331421 
635	 0.254530069573409 
636	 0.254858923620957 
637	 0.255205201521833 
638	 0.255596206218373 
639	 0.255925758048124 
640	 0.256244670511718 
641	 0.256591210474469 
642	 0.256986846214882 
643	 0.257366826794417 
644	 0.257701763818689 
645	 0.258025345108448 
646	 0.258457661059982 
647	 0.258823595527551 
648	 0.259118426299426 
649	 0.259416936589879 
650	 0.259898703041931 
651	 0.260327679838802 
652	 0.26065014328979 
653	 0.260986108753623 
654	 0.261403613024792 
655	 0.261862559261733 
656	 0.262309500734391 
657	 0.262709048700091 
658	 0.263155754800244 
659	 0.263615498932628 
660	 0.264012959893034 
661	 0.264476790022772 
662	 0.264989793211455 
663	 0.265519304704064 
664	 0.266035220636128 
665	 0.266450241793546 
666	 0.26688826221074 
667	 0.26745984773062 
668	 0.267940720348659 
669	 0.268466071596475 
670	 0.269057713650566 
671	 0.269636547879487 
672	 0.270228965521499 
673	 0.270812665870796 
674	 0.271376337919965 
675	 0.271940408240356 
676	 0.272590896853206 
677	 0.273226524357935 
678	 0.273723341650544 
679	 0.27443885235958 
680	 0.275110789258383 
681	 0.275690157351431 
682	 0.276473407146106 
683	 0.277108000093444 
684	 0.27772148991776 
685	 0.278485205422566 
686	 0.279263176614741 
687	 0.280000780369499 
688	 0.280711516495781 
689	 0.281453214224649 
690	 0.282167605778841 
691	 0.282911683970123 
692	 0.283701961101598 
693	 0.284440365418292 
694	 0.285207432711661 
695	 0.286005678811379 
696	 0.286809025635866 
697	 0.287593733244715 
698	 0.288437045369115 
699	 0.289299211715221 
700	 0.290020122398985 
701	 0.290779282517255 
702	 0.291626628155643 
703	 0.292543066571791 
704	 0.293420760392886 
705	 0.294214007333172 
706	 0.294987909103449 
707	 0.295847207222598 
708	 0.296681252756578 
709	 0.297492514082019 
710	 0.298290899458394 
711	 0.299081308841476 
712	 0.299902970513909 
713	 0.300750923581318 
714	 0.301587556011913 
715	 0.30230560879127 
716	 0.302984170743525 
717	 0.303705255751692 
718	 0.304530722509186 
719	 0.305335955301868 
720	 0.306070885286307 
721	 0.306729526899909 
722	 0.30735655750108 
723	 0.308052622037445 
724	 0.308710979533827 
725	 0.309203415781929 
726	 0.309683216189506 
727	 0.310201658123955 
728	 0.310772706038937 
729	 0.311370570277942 
730	 0.311844052888846 
731	 0.312248248053068 
732	 0.312659267592805 
733	 0.313112464915879 
734	 0.313484783434326 
735	 0.31376862958986 
736	 0.314008671790443 
737	 0.314216946835117 
738	 0.314460261466651 
739	 0.314687642973527 
740	 0.314727094699755 
741	 0.31480482055872 
742	 0.314905512120659 
743	 0.314968124420306 
744	 0.314952886681898 
745	 0.31495195348688 
746	 0.314910700554645 
747	 0.314736735959208 
748	 0.314608580055298 
749	 0.314435706268309 
750	 0.314203037280204 
751	 0.314012212751946 
752	 0.313757365411366 
753	 0.313429074801634 
754	 0.313064398154687 
755	 0.312771258604273 
756	 0.312405638280788 
757	 0.311968800587131 
758	 0.311534955222859 
759	 0.311097348970419 
760	 0.310641659872446 
761	 0.310154684687589 
762	 0.309627052261222 
763	 0.309035015565663 
764	 0.308462191144227 
765	 0.307952091397172 
766	 0.307347358698018 
767	 0.306843045395086 
768	 0.306316843868933 
769	 0.305561817711202 
770	 0.30500093036967 
771	 0.304458559176887 
772	 0.303793744829571 
773	 0.302982203129782 
774	 0.30234303344803 
775	 0.301761352885191 
776	 0.301091952410801 
777	 0.30039401004534 
778	 0.299712825188738 
779	 0.299071806204535 
780	 0.298459529804233 
781	 0.29775488268954 
782	 0.297017887421926 
783	 0.296305468406203 
784	 0.295651486077419 
785	 0.294966688834797 
786	 0.294271750500389 
787	 0.293596244815335 
788	 0.292933947246127 
789	 0.292296256499843 
790	 0.291652381084446 
791	 0.290965899352189 
792	 0.290264416311027 
793	 0.289543884068355 
794	 0.288843417801353 
795	 0.288232827138785 
796	 0.287660433461376 
797	 0.287091687337976 
798	 0.286497934591227 
799	 0.285853342293496 
800	 0.285212213466559 
801	 0.284599674771842 
802	 0.284017635665982 
803	 0.283425909023066 
804	 0.282819746830177 
805	 0.282224219261303 
806	 0.281676355589464 
807	 0.281142423136748 
808	 0.280622279339591 
809	 0.280099383664923 
810	 0.279532989714956 
811	 0.279004381278185 
812	 0.278472252675239 
813	 0.27790569533037 
814	 0.27737690767629 
815	 0.276892187120208 
816	 0.276415496865767 
817	 0.275911211362361 
818	 0.275453032122308 
819	 0.27505937516336 
820	 0.274642300319793 
821	 0.27406591985517 
822	 0.273701409990016 
823	 0.273339486546636 
824	 0.272854024477725 
825	 0.272399373287743 
826	 0.272065144296523 
827	 0.271775756648536 
828	 0.271420663582937 
829	 0.270944631651597 
830	 0.270480421113868 
831	 0.27011325063482 
832	 0.269859363245016 
833	 0.269523336850856 
834	 0.269195070763731 
835	 0.268901079035506 
836	 0.268589680439273 
837	 0.268256852260305 
838	 0.267931040169568 
839	 0.267658710823878 
840	 0.2675073939897 
841	 0.267308748919502 
842	 0.266975026508249 
843	 0.266552461437033 
844	 0.266409783808863 
845	 0.266239895818315 
846	 0.266020738528438 
847	 0.265842543390097 
848	 0.265597483076724 
849	 0.265360021596619 
850	 0.265179607775708 
851	 0.265057414434163 
852	 0.264838079445958 
853	 0.264635266537297 
854	 0.264505546905611 
855	 0.264366120491556 
856	 0.264301744027285 
857	 0.264221862461048 
858	 0.264066028773075 
859	 0.263945326228857 
860	 0.263903287660622 
861	 0.26385697152325 
862	 0.263729262534133 
863	 0.263697906430177 
864	 0.26363100079552 
865	 0.263529448980349 
866	 0.26347149170676 
867	 0.263409052163226 
868	 0.26338652022935 
869	 0.263419588903398 
870	 0.263478354922647 
871	 0.263427929808378 
872	 0.263389926107495 
873	 0.263450392825128 
874	 0.263564774362825 
875	 0.263630414051142 
876	 0.263646986729488 
877	 0.263661914029227 
878	 0.26376328464854 
879	 0.2638890146153 
880	 0.263962448698052 
881	 0.263954073318754 
882	 0.264029129815704 
883	 0.264164078888116 
884	 0.264341706862654 
885	 0.26453811002102 
886	 0.264677646150474 
887	 0.264804922375135 
888	 0.264933883097424 
889	 0.265055195983818 
890	 0.265284928375557 
891	 0.265495407195746 
892	 0.265669113162146 
893	 0.265950528747677 
894	 0.266112250387699 
895	 0.266248609707441 
896	 0.266454556098031 
897	 0.266706776981249 
898	 0.266991359795178 
899	 0.267282754721339 
900	 0.267572336561268 
901	 0.267909692065785 
902	 0.268145128990059 
903	 0.268363717027056 
904	 0.268683338816699 
905	 0.269010042539725 
906	 0.269350305495525 
907	 0.269685923655832 
908	 0.270019433629733 
909	 0.270512683078165 
910	 0.27095660250471 
911	 0.271326008230526 
912	 0.271725330003239 
913	 0.272137571330879 
914	 0.272534872775316 
915	 0.27288385933356 
916	 0.273176994816272 
917	 0.273626437437611 
918	 0.274227379701599 
919	 0.274829240026505 
920	 0.275194650513016 
921	 0.275694082608008 
922	 0.276217067560552 
923	 0.276714751433361 
924	 0.277340189222274 
925	 0.277874580600752 
926	 0.278387518288978 
927	 0.27894412563569 
928	 0.279481110508891 
929	 0.280068710853726 
930	 0.280731183795537 
931	 0.281426918992264 
932	 0.282000071586766 
933	 0.282662167615229 
934	 0.283383104476325 
935	 0.284077249814118 
936	 0.284727698719146 
937	 0.285311320021348 
938	 0.285953019893598 
939	 0.286747250442612 
940	 0.287522126182582 
941	 0.2882760041953 
942	 0.289028802183323 
943	 0.289797455990011 
944	 0.29053801635759 
945	 0.291226637754865 
946	 0.291931699214562 
947	 0.292750999731798 
948	 0.293729976776354 
949	 0.294599619908413 
950	 0.295386651498572 
951	 0.296264347934646 
952	 0.297242637065836 
953	 0.298144483542257 
954	 0.298988227378961 
955	 0.299903648006416 
956	 0.300916788780733 
957	 0.301927514290015 
958	 0.302863176629362 
959	 0.303699228796452 
960	 0.304493226921442 
961	 0.30540998135543 
962	 0.306461765706746 
963	 0.307542875713559 
964	 0.308564380191207 
965	 0.309620628516239 
966	 0.310694185908502 
967	 0.311714507233043 
968	 0.312800669828835 
969	 0.313962362675186 
970	 0.315081445891945 
971	 0.316011960616148 
972	 0.316929743427008 
973	 0.317978742680355 
974	 0.319139645641585 
975	 0.320291225370227 
976	 0.321421936677735 
977	 0.322711225373294 
978	 0.324042396385379 
979	 0.32516811611627 
980	 0.326306511148823 
981	 0.327431459263471 
982	 0.328615892630007 
983	 0.329945590420016 
984	 0.331239204385395 
985	 0.332429744551771 
986	 0.333564080099515 
987	 0.334731383365133 
988	 0.335879506217864 
989	 0.337090521350126 
990	 0.33840140812495 
991	 0.339761916437759 
992	 0.340907901627697 
993	 0.342030009630011 
994	 0.343225409243363 
995	 0.344476076564777 
996	 0.345544173762944 
997	 0.346850832758279 
998	 0.34824005091264 
999	 0.349435621943494 
1000	 0.350643023065171 
1001	 0.355914769455241 
1002	 0.357150831158882 
1003	 0.358312171541151 
1004	 0.359482328493567 
1005	 0.360682249021588 
1006	 0.361858586472067 
1007	 0.362998755458018 
1008	 0.364114990309765 
1009	 0.365303922467443 
1010	 0.366456077079605 
1011	 0.367535048591905 
1012	 0.368720032705256 
1013	 0.369920986869297 
1014	 0.371013328468184 
1015	 0.372139055493346 
1016	 0.373326545993639 
1017	 0.374420399348665 
1018	 0.375464124603334 
1019	 0.37645921224449 
1020	 0.377476788491308 
1021	 0.378459208278418 
1022	 0.379485153626158 
1023	 0.380567774057797 
1024	 0.381623935188699 
1025	 0.382656392225905 
1026	 0.383675178218666 
1027	 0.38474550188018 
1028	 0.385795619638481 
1029	 0.386805830887332 
1030	 0.387846767571058 
1031	 0.388861688556629 
1032	 0.389855618140574 
1033	 0.390833063145788 
1034	 0.391829565033208 
1035	 0.392804734271153 
1036	 0.393776593430815 
1037	 0.394762156943876 
1038	 0.395728440582747 
1039	 0.396734112207753 
1040	 0.397749326255841 
1041	 0.398780638598367 
1042	 0.399872154004666 
1043	 0.400880073599825 
1044	 0.401863366627051 
1045	 0.402799882220129 
1046	 0.403762722250834 
1047	 0.404722333634279 
1048	 0.40571570631488 
1049	 0.406710282834066 
1050	 0.40770475685732 
1051	 0.408647016592033 
1052	 0.409550900029922 
1053	 0.410519441927632 
1054	 0.411455277509755 
1055	 0.412302462984199 
1056	 0.413174215377661 
1057	 0.414046838935187 
1058	 0.414862578609239 
1059	 0.41570682711196 
1060	 0.41660791072377 
1061	 0.417445530243602 
1062	 0.41823554675627 
1063	 0.419036944146978 
1064	 0.419793487992642 
1065	 0.420610969953704 
1066	 0.421416509953809 
1067	 0.422148034608071 
1068	 0.422848799076788 
1069	 0.423518592445142 
1070	 0.424207272113955 
1071	 0.424870271159023 
1072	 0.425553152975077 
1073	 0.426248038548531 
1074	 0.426944290482079 
1075	 0.427640050065312 
1076	 0.428337981366419 
1077	 0.42901076385098 
1078	 0.429661990139026 
1079	 0.43023772906238 
1080	 0.430815242526378 
1081	 0.431461756000589 
1082	 0.432093982828535 
1083	 0.432748804830405 
1084	 0.433465631043803 
1085	 0.434133564236913 
1086	 0.43477254622051 
1087	 0.435431470044877 
1088	 0.436103472112692 
1089	 0.436718148582425 
1090	 0.437373021095618 
1091	 0.438063454093582 
1092	 0.438741390702552 
1093	 0.439448940653503 
1094	 0.440189079757167 
1095	 0.440891921496146 
1096	 0.44159764149811 
1097	 0.442362843045922 
1098	 0.443128502819656 
1099	 0.44390623489043 
1100	 0.444682190448791 
1101	 0.445457987488919 
1102	 0.446263285276435 
1103	 0.447071864038258 
1104	 0.447905489783667 
1105	 0.448757237271662 
1106	 0.449680549959721 
1107	 0.450598775375355 
1108	 0.45149386196476 
1109	 0.452394014761579 
1110	 0.45328023211616 
1111	 0.454220198547145 
1112	 0.455171663612527 
1113	 0.456144739400536 
1114	 0.457176490921157 
1115	 0.458190658017506 
1116	 0.459193216627134 
1117	 0.460220368107986 
1118	 0.46128979707065 
1119	 0.462305124327238 
1120	 0.463355343252305 
1121	 0.46439988534614 
1122	 0.465399779806415 
1123	 0.466475462211398 
1124	 0.467547226645662 
1125	 0.468627873343728 
1126	 0.469705565373133 
1127	 0.470817705650841 
1128	 0.471881740438091 
1129	 0.472902962489638 
1130	 0.473948090501429 
1131	 0.474982885915902 
1132	 0.476043270822716 
1133	 0.477147374962547 
1134	 0.478215456302415 
1135	 0.479277493499619 
1136	 0.480314542870684 
1137	 0.481353560001969 
1138	 0.482389813288781 
1139	 0.483444958110586 
1140	 0.484543579367903 
1141	 0.485576478212995 
1142	 0.486585563063041 
1143	 0.487593922738173 
1144	 0.488575909265314 
1145	 0.489556648225337 
1146	 0.490534463818749 
1147	 0.491509784447008 
1148	 0.492474955818108 
1149	 0.493430249757165 
1150	 0.494377479760085 
1151	 0.495346316612318 
1152	 0.496270150872122 
1153	 0.49717209473956 
1154	 0.498067728452355 
1155	 0.498950983544976 
1156	 0.499814017551342 
1157	 0.500651887950388 
1158	 0.501506985931065 
1159	 0.502350490277989 
1160	 0.503200876691103 
1161	 0.50408641633713 
1162	 0.504926064066411 
1163	 0.505765230415708 
1164	 0.506559139923364 
1165	 0.507306387191774 
1166	 0.508045766866064 
1167	 0.508773422045867 
1168	 0.509511498811022 
1169	 0.51024181793813 
1170	 0.510985113380851 
1171	 0.511704013185182 
1172	 0.512414610402459 
1173	 0.513102671151858 
1174	 0.513774549021329 
1175	 0.514445723431838 
1176	 0.515091687461066 
1177	 0.51575006260474 
1178	 0.516424120885134 
1179	 0.517077619273345 
1180	 0.51773342856943 
1181	 0.518367676917716 
1182	 0.51898539407212 
1183	 0.519593937863294 
1184	 0.520180008880411 
1185	 0.520750263792309 
1186	 0.521303821979164 
1187	 0.521818185906855 
1188	 0.522370101353005 
1189	 0.522934450572091 
1190	 0.523475149649097 
1191	 0.524030761649134 
1192	 0.524565431168922 
1193	 0.525070296711556 
1194	 0.525577164016773 
1195	 0.526075045771847 
1196	 0.526579868262049 
1197	 0.52708071470093 
1198	 0.527579589812587 
1199	 0.5280801201847 
1200	 0.52859820645832 
1201	 0.529085558666604 
1202	 0.52955795749006 
1203	 0.53002727897498 
1204	 0.530488066089997 
1205	 0.530938385098826 
1206	 0.53137731128548 
1207	 0.531817723628277 
1208	 0.532250042941333 
1209	 0.53267955418042 
1210	 0.533116772031357 
1211	 0.533536387640455 
1212	 0.533938517349324 
1213	 0.534343017161578 
1214	 0.53475638613005 
1215	 0.535142256641632 
1216	 0.535514136225817 
1217	 0.535871917858764 
1218	 0.536237383169117 
1219	 0.536589584066666 
1220	 0.536935125835272 
1221	 0.537276239524486 
1222	 0.53763235856167 
1223	 0.537979546420884 
1224	 0.53833319011795 
1225	 0.538712034097614 
1226	 0.539077848812191 
1227	 0.539441088432242 
1228	 0.539788198967096 
1229	 0.540137806907142 
1230	 0.54047239932417 
1231	 0.540771158248672 
1232	 0.541085357173017 
1233	 0.541402055603198 
1234	 0.541715158613166 
1235	 0.542043910696246 
1236	 0.542396251043666 
1237	 0.542715179397778 
1238	 0.543045019104146 
1239	 0.543335002130588 
1240	 0.543573111650779 
1241	 0.543847240216688 
1242	 0.544117047051483 
1243	 0.544389368109544 
1244	 0.544680600422534 
1245	 0.544962802122694 
1246	 0.545252463951919 
1247	 0.545514210223465 
1248	 0.545762742252897 
1249	 0.546007227238435 
1250	 0.546227024212182 
1251	 0.546440215094291 
1252	 0.546662873788293 
1253	 0.54689767532386 
1254	 0.54711149276161 
1255	 0.547317890614885 
1256	 0.547521126371026 
1257	 0.547707833883173 
1258	 0.547909942014625 
1259	 0.548108129132021 
1260	 0.548320332408165 
1261	 0.548544167447644 
1262	 0.548768660860104 
1263	 0.549012486936273 
1264	 0.5492424110257 
1265	 0.549478194596314 
1266	 0.549697740559401 
1267	 0.549888716717171 
1268	 0.550090771340023 
1269	 0.550314365523091 
1270	 0.55053382372077 
1271	 0.550778513154762 
1272	 0.551058149147569 
1273	 0.551323570904984 
1274	 0.551593616243888 
1275	 0.551861150290246 
1276	 0.552129040808273 
1277	 0.552404627285816 
1278	 0.552683031450696 
1279	 0.552961304533287 
1280	 0.553266852486942 
1281	 0.553530830956721 
1282	 0.553772646904123 
1283	 0.554009426189471 
1284	 0.554228655430764 
1285	 0.554431347355523 
1286	 0.554641907424852 
1287	 0.554830923787369 
1288	 0.554971111776932 
1289	 0.555083857589371 
1290	 0.555159725760562 
1291	 0.555186226940353 
1292	 0.555202270382626 
1293	 0.555195218147448 
1294	 0.555160576181771 
1295	 0.555106403238988 
1296	 0.55501286333222 
1297	 0.554884883169928 
1298	 0.554730612339872 
1299	 0.554530505919977 
1300	 0.554326991522742 
1301	 0.554096613957335 
1302	 0.553864286980242 
1303	 0.553612911935242 
1304	 0.553369173039202 
1305	 0.553129433498174 
1306	 0.552875283281656 
1307	 0.552629785422576 
1308	 0.552382621777881 
1309	 0.552144512113466 
1310	 0.55189893965831 
1311	 0.551685584482197 
1312	 0.551480740769787 
1313	 0.551309073984894 
1314	 0.551160835719226 
1315	 0.551032697711913 
1316	 0.550931676439794 
1317	 0.550846532361666 
1318	 0.550771549994631 
1319	 0.550732759290905 
1320	 0.550719288158093 
1321	 0.550728259254202 
1322	 0.550767571740478 
1323	 0.550824447682019 
1324	 0.550898810376576 
1325	 0.551009642165715 
1326	 0.55114699156284 
1327	 0.551299733159722 
1328	 0.551458061796813 
1329	 0.551643682486467 
1330	 0.551869670446502 
1331	 0.552121147950669 
1332	 0.552398627748602 
1333	 0.552731988629275 
1334	 0.553042487435184 
1335	 0.553348767704362 
1336	 0.553682434391472 
1337	 0.554035323918661 
1338	 0.554380525074623 
1339	 0.554742391245328 
1340	 0.555100839763998 
1341	 0.555451809004806 
1342	 0.555811326934131 
1343	 0.556177973053333 
1344	 0.556541234522573 
1345	 0.556943450968609 
1346	 0.557333186061387 
1347	 0.557727145469457 
1348	 0.558154622175083 
1349	 0.55854715020529 
1350	 0.558944367811089 
1351	 0.55934704161993 
1352	 0.559759345564865 
1353	 0.560154024020502 
1354	 0.560554702369101 
1355	 0.56092748289501 
1356	 0.561287591068538 
1357	 0.561640227532056 
1358	 0.561968959761548 
1359	 0.562307918108224 
1360	 0.562627916824739 
1361	 0.562970039725558 
1362	 0.563333463266124 
1363	 0.563681963958313 
1364	 0.564043817199041 
1365	 0.564389622784308 
1366	 0.564715825742207 
1367	 0.565045284249634 
1368	 0.565360049147061 
1369	 0.565679127442174 
1370	 0.566017656239064 
1371	 0.566330307424568 
1372	 0.566640115330848 
1373	 0.566940866431518 
1374	 0.567211784472475 
1375	 0.56745440543602 
1376	 0.567691968838999 
1377	 0.567921642697192 
1378	 0.568120949312773 
1379	 0.568303964743942 
1380	 0.568458358437576 
1381	 0.568576310682605 
1382	 0.568694904544571 
1383	 0.568794668340256 
1384	 0.568886549823597 
1385	 0.568995005989567 
1386	 0.569046250573336 
1387	 0.569051827851576 
1388	 0.56905892356978 
1389	 0.56904200042425 
1390	 0.569002121757596 
1391	 0.56895414231432 
1392	 0.568891607310858 
1393	 0.568797135316758 
1394	 0.568680280100069 
1395	 0.568554730589118 
1396	 0.568428427365162 
1397	 0.568289177836665 
1398	 0.568129944022229 
1399	 0.567979217169472 
1400	 0.567824170579499 
1401	 0.567670581170567 
1402	 0.567522664744998 
1403	 0.567363099538969 
1404	 0.567193363496 
1405	 0.567033172223119 
1406	 0.566871903479598 
1407	 0.566703793459906 
1408	 0.566524708909608 
1409	 0.56637186333581 
1410	 0.566190009083844 
1411	 0.56608236812632 
1412	 0.566019066291529 
1413	 0.565986959991388 
1414	 0.56599671863863 
1415	 0.56603333685415 
1416	 0.566080448771487 
1417	 0.566144626086655 
1418	 0.5662413067485 
1419	 0.56634145881727 
1420	 0.566417742889443 
1421	 0.566475006207541 
1422	 0.566526966029422 
1423	 0.566554100956739 
1424	 0.566567520705122 
1425	 0.566579532812212 
1426	 0.566580012297458 
1427	 0.566542097818496 
1428	 0.566525637360182 
1429	 0.566513945281216 
1430	 0.566501798067456 
1431	 0.566496225519957 
1432	 0.566485631614455 
1433	 0.566484419361774 
1434	 0.566463165852042 
1435	 0.566423765923551 
1436	 0.566385621145064 
1437	 0.56633660964112 
1438	 0.566296251284709 
1439	 0.566265625378713 
1440	 0.56622198643321 
1441	 0.566168699993472 
1442	 0.566090193987525 
1443	 0.565998831311254 
1444	 0.565919031797766 
1445	 0.565862421259865 
1446	 0.565811828728826 
1447	 0.565763755261301 
1448	 0.565699126883189 
1449	 0.565609977160959 
1450	 0.565517452129009 
1451	 0.565422652805523 
1452	 0.565318445432385 
1453	 0.565222276670089 
1454	 0.565125718514994 
1455	 0.565024452001729 
1456	 0.564921753807524 
1457	 0.56481353268911 
1458	 0.564697260359382 
1459	 0.564600138320749 
1460	 0.56450289889089 
1461	 0.564417991359577 
1462	 0.564343044579034 
1463	 0.564275067529666 
1464	 0.564226123171815 
1465	 0.564166508609033 
1466	 0.564102613434227 
1467	 0.564054305859969 
1468	 0.563997409281651 
1469	 0.563956215771734 
1470	 0.563924846510326 
1471	 0.563921210813582 
1472	 0.563931233982945 
1473	 0.563955096616374 
1474	 0.564016206317101 
1475	 0.564085919406887 
1476	 0.56414212304513 
1477	 0.564252773669804 
1478	 0.564416388883691 
1479	 0.564583249875066 
1480	 0.56478336035474 
1481	 0.564983240343628 
1482	 0.565158220737404 
1483	 0.565310774089514 
1484	 0.565473375687967 
1485	 0.56562944049806 
1486	 0.565786113865262 
1487	 0.565945536504801 
1488	 0.56609278645539 
1489	 0.566228673848291 
1490	 0.566373337922909 
1491	 0.566522561650131 
1492	 0.566657171617158 
1493	 0.566801423376935 
1494	 0.566918976821398 
1495	 0.56700349827959 
1496	 0.567094262888747 
1497	 0.56716892882556 
1498	 0.56725957312946 
1499	 0.567345443490326 
1500	 0.567457829481323 
1501	 0.567605839936837 
1502	 0.567724359126707 
1503	 0.567847872435791 
1504	 0.567957556195581 
1505	 0.568060939714849 
1506	 0.568152471675595 
1507	 0.568245749731742 
1508	 0.568355943319398 
1509	 0.568405546150792 
1510	 0.568442116168388 
1511	 0.568519250660776 
1512	 0.568594353120081 
1513	 0.568708579447001 
1514	 0.568842941709736 
1515	 0.568948485999265 
1516	 0.569030285633196 
1517	 0.569103116126234 
1518	 0.569163336985792 
1519	 0.569215724023525 
1520	 0.569246008348591 
1521	 0.569288475914118 
1522	 0.5693192336073 
1523	 0.569370767054443 
1524	 0.569432498676655 
1525	 0.569506623571272 
1526	 0.569594661269571 
1527	 0.569683688726646 
1528	 0.56979363051495 
1529	 0.569876945410967 
1530	 0.569967025998581 
1531	 0.570025885534155 
1532	 0.570057835015615 
1533	 0.570081619435758 
1534	 0.570060504815247 
1535	 0.570082542437158 
1536	 0.570110293529555 
1537	 0.570152632047268 
1538	 0.570225703019611 
1539	 0.570297640522197 
1540	 0.570377774149717 
1541	 0.570453164554298 
1542	 0.570541260822583 
1543	 0.570616776544636 
1544	 0.570691653363375 
1545	 0.570752106199239 
1546	 0.570797455861354 
1547	 0.570835127840397 
1548	 0.570889066922042 
1549	 0.570951371252358 
1550	 0.571047230112562 
1551	 0.571163647247058 
1552	 0.571270045283002 
1553	 0.571337677840809 
1554	 0.571378081103098 
1555	 0.571412941871728 
1556	 0.571417372121182 
1557	 0.571426413649301 
1558	 0.571446805256144 
1559	 0.57147573756181 
1560	 0.571528602582401 
1561	 0.57160585863279 
1562	 0.571687696468612 
1563	 0.571786566344215 
1564	 0.571879113221444 
1565	 0.571977155843415 
1566	 0.572078476430459 
1567	 0.572190654032689 
1568	 0.572286177248352 
1569	 0.572389366543581 
1570	 0.572465751139945 
1571	 0.572514669180176 
1572	 0.572575249554705 
1573	 0.572628134763493 
1574	 0.572680415431561 
1575	 0.57271477512977 
1576	 0.572791030318893 
1577	 0.572896540462768 
1578	 0.57297319774616 
1579	 0.573090249201697 
1580	 0.573143360426064 
1581	 0.573123423337174 
1582	 0.573149061443553 
1583	 0.57315691894721 
1584	 0.573196702372359 
1585	 0.573278963417528 
1586	 0.573339144537368 
1587	 0.573391500016696 
1588	 0.573462472290378 
1589	 0.573543543082372 
1590	 0.573611742139452 
1591	 0.573695170539274 
1592	 0.573766172824941 
1593	 0.573801900548836 
1594	 0.573872202077827 
1595	 0.573976217143931 
1596	 0.574051640546151 
1597	 0.574131014749563 
1598	 0.574197725485282 
1599	 0.574227778277405 
1600	 0.574280421866402 
1601	 0.574345178445846 
1602	 0.574407211813956 
1603	 0.574483094798637 
1604	 0.574544443985196 
1605	 0.574594260953557 
1606	 0.57465203676879 
1607	 0.574720953550114 
1608	 0.574760937516093 
1609	 0.57480169633892 
1610	 0.574823081685316 
1611	 0.574864694091476 
1612	 0.574919726283693 
1613	 0.574976920031819 
1614	 0.57506426029808 
1615	 0.575153099036242 
1616	 0.575237726612349 
1617	 0.575314827661215 
1618	 0.575401926671308 
1619	 0.5754919544508 
1620	 0.575569267507998 
1621	 0.57567423212742 
1622	 0.575825115151414 
1623	 0.575914921280628 
1624	 0.575993467509504 
1625	 0.576042430698557 
1626	 0.576053527076253 
1627	 0.576073505950328 
1628	 0.576072627168568 
1629	 0.576090630544471 
1630	 0.576106955421335 
1631	 0.576141545398067 
1632	 0.576185305297033 
1633	 0.57624071278896 
1634	 0.576321571752916 
1635	 0.576368019476183 
1636	 0.576406944945033 
1637	 0.576451431232974 
1638	 0.576466737034559 
1639	 0.576529604546239 
1640	 0.576621663062807 
1641	 0.576712097934924 
1642	 0.576825646811443 
1643	 0.576923213418403 
1644	 0.577029378912442 
1645	 0.577107882671598 
1646	 0.577166003514843 
1647	 0.577236806120165 
1648	 0.577293632946911 
1649	 0.577362683517293 
1650	 0.57745903249645 
1651	 0.577512194986287 
1652	 0.577528427597901 
1653	 0.577587603111151 
1654	 0.577643703566603 
1655	 0.577710984097097 
1656	 0.57781425445296 
1657	 0.577897458760144 
1658	 0.577961568430365 
1659	 0.578044749022682 
1660	 0.578160908607328 
1661	 0.578226405485713 
1662	 0.578269362099537 
1663	 0.578316345538217 
1664	 0.578325729789388 
1665	 0.578367623816256 
1666	 0.578429094920529 
1667	 0.578488596331835 
1668	 0.578556247726435 
1669	 0.578618779312289 
1670	 0.578682536925618 
1671	 0.57874896903763 
1672	 0.578807160818039 
1673	 0.57888305941071 
1674	 0.578993228900167 
1675	 0.579052356137553 
1676	 0.579089227875747 
1677	 0.579137178394533 
1678	 0.579143894791069 
1679	 0.579195618572925 
1680	 0.579297118796775 
1681	 0.579356066574996 
1682	 0.579403673826325 
1683	 0.579457587452463 
1684	 0.579478275261046 
1685	 0.57955024903703 
1686	 0.579656543467414 
1687	 0.57975592150765 
1688	 0.579880555825317 
1689	 0.579992817103648 
1690	 0.580106441441833 
1691	 0.580207932592414 
1692	 0.580297442763105 
1693	 0.580400363840904 
1694	 0.580506022606314 
1695	 0.580600482166743 
1696	 0.58070870268674 
1697	 0.580793246433581 
1698	 0.580847915133899 
1699	 0.580915567923206 
1700	 0.580988831645494 
1701	 0.58104195849999 
1702	 0.581085111323601 
1703	 0.581129829098297 
1704	 0.581145410219537 
1705	 0.581202663697324 
1706	 0.58129995816166 
1707	 0.581349566077065 
1708	 0.581402988111115 
1709	 0.581436792377459 
1710	 0.581404336894714 
1711	 0.581451471772518 
1712	 0.5815199375252 
1713	 0.581618993459504 
1714	 0.581777841153148 
1715	 0.581907237639028 
1716	 0.582056752661683 
1717	 0.582180603520826 
1718	 0.582294307809295 
1719	 0.582391443747542 
1720	 0.582479592153603 
1721	 0.582539271314298 
1722	 0.582565662792815 
1723	 0.582609051246197 
1724	 0.582652477737535 
1725	 0.582667730999357 
1726	 0.582680074282822 
1727	 0.582674868399919 
1728	 0.582635246977116 
1729	 0.582593440053756 
1730	 0.582542739996847 
1731	 0.582496269250247 
1732	 0.582421981652205 
1733	 0.582392790270826 
1734	 0.58239486356711 
1735	 0.582384432912877 
1736	 0.582397833211767 
1737	 0.582380263708669 
1738	 0.582326685867154 
1739	 0.582332811048332 
1740	 0.582349759772152 
1741	 0.582376909660436 
1742	 0.582464683283161 
1743	 0.582476838709181 
1744	 0.582461050614807 
1745	 0.582437432546188 
1746	 0.582367136447323 
1747	 0.582357590236339 
1748	 0.582343479734799 
1749	 0.582351028310262 
1750	 0.582347629063328 
1751	 0.582333617361303 
1752	 0.582351299234356 
1753	 0.582373401180705 
1754	 0.582407490342228 
1755	 0.582432752006941 
1756	 0.58244582339295 
1757	 0.582466527108857 
1758	 0.582495572149895 
1759	 0.582542659747806 
1760	 0.582597358575138 
1761	 0.582644543762152 
1762	 0.582678971305971 
1763	 0.582723372970801 
1764	 0.58275528767699 
1765	 0.582753045603672 
1766	 0.582755175487004 
1767	 0.582757354786242 
1768	 0.582757216512645 
1769	 0.58276812832865 
1770	 0.582807302827658 
1771	 0.582862640559325 
1772	 0.582884602732968 
1773	 0.582911497139081 
1774	 0.582966610304626 
1775	 0.582998147141507 
1776	 0.583026330235815 
1777	 0.58309668391301 
1778	 0.583158551700894 
1779	 0.583201188493751 
1780	 0.583254128434549 
1781	 0.583294175185003 
1782	 0.58333818103656 
1783	 0.583416506518843 
1784	 0.583461456818814 
1785	 0.583482921735619 
1786	 0.583511549505761 
1787	 0.58350427490547 
1788	 0.583547054726889 
1789	 0.58363757714818 
1790	 0.583703800384826 
1791	 0.58378731977521 
1792	 0.583861059355706 
1793	 0.583917994221139 
1794	 0.583978583023235 
1795	 0.5840584223317 
1796	 0.58408399934583 
1797	 0.584056789717543 
1798	 0.584070985975013 
1799	 0.584064531364651 
1800	 0.584092714472619 
1801	 0.578366202562283 
1802	 0.578440599313633 
1803	 0.578505663457804 
1804	 0.578570750853418 
1805	 0.578664153711745 
1806	 0.578763056096331 
1807	 0.578806033138519 
1808	 0.57886897694113 
1809	 0.578990384197741 
1810	 0.579046358071094 
1811	 0.579064955308743 
1812	 0.579073549477715 
1813	 0.579071891645684 
1814	 0.578978501843218 
1815	 0.578890014024835 
1816	 0.578873342820771 
1817	 0.578878325758524 
1818	 0.578957007234538 
1819	 0.578955997169854 
1820	 0.578976132597634 
1821	 0.578923080064669 
1822	 0.578795418883694 
1823	 0.578688962868989 
1824	 0.578606655121414 
1825	 0.578508524232557 
1826	 0.578401276639827 
1827	 0.578259289870961 
1828	 0.578115012681864 
1829	 0.577945409466715 
1830	 0.577778004590775 
1831	 0.577599953544921 
1832	 0.577435771067559 
1833	 0.577267979144763 
1834	 0.577091074203792 
1835	 0.576968461918647 
1836	 0.576834606285574 
1837	 0.576676333728242 
1838	 0.576539527559175 
1839	 0.576389314467853 
1840	 0.576213934526954 
1841	 0.576064262731908 
1842	 0.575936080924533 
1843	 0.575807087676669 
1844	 0.575709835499412 
1845	 0.575609341803351 
1846	 0.575528619940469 
1847	 0.575451017193521 
1848	 0.575344545973139 
1849	 0.575285096247821 
1850	 0.575263041979722 
1851	 0.575265069100939 
1852	 0.575274562950217 
1853	 0.575353618399783 
1854	 0.57546503978964 
1855	 0.575550445851873 
1856	 0.575681273823157 
1857	 0.575871378548959 
1858	 0.576016682820293 
1859	 0.576141715891931 
1860	 0.576255444186467 
1861	 0.576362938626664 
1862	 0.576426586289428 
1863	 0.57647410155238 
1864	 0.57649771102387 
1865	 0.576540422732422 
1866	 0.576558538110742 
1867	 0.576557574737065 
1868	 0.576626593779327 
1869	 0.576717503127938 
1870	 0.576765588088762 
1871	 0.576827178934601 
1872	 0.576913839932819 
1873	 0.576999235859329 
1874	 0.577013538808446 
1875	 0.577033610241723 
1876	 0.57701776083949 
1877	 0.576936921578235 
1878	 0.576835076034463 
1879	 0.576711768747415 
1880	 0.576572879528825 
1881	 0.576414032836547 
1882	 0.576229649446302 
1883	 0.576023358796217 
1884	 0.575814913766745 
1885	 0.575559332715825 
1886	 0.575255113025789 
1887	 0.574924307472633 
1888	 0.574549037925914 
1889	 0.574149551397483 
1890	 0.573732713861621 
1891	 0.57331393172261 
1892	 0.572873289832522 
1893	 0.572449171273367 
1894	 0.572020173291454 
1895	 0.571600707846698 
1896	 0.571198838374609 
1897	 0.57074899467776 
1898	 0.570291026149562 
1899	 0.569855689557193 
1900	 0.569422275614201 
1901	 0.56905353186914 
1902	 0.568720309965187 
1903	 0.568448023356677 
1904	 0.568174163116282 
1905	 0.56795626276042 
1906	 0.567701255156666 
1907	 0.567410734329294 
1908	 0.567158494469262 
1909	 0.566899647994746 
1910	 0.566645012558057 
1911	 0.566447174660494 
1912	 0.566246013660765 
1913	 0.566047114696841 
1914	 0.565856479610262 
1915	 0.565669117597828 
1916	 0.5654967234554 
1917	 0.565312913272645 
1918	 0.56508835133148 
1919	 0.564851801714251 
1920	 0.564605971737405 
1921	 0.564334472426351 
1922	 0.564107075296769 
1923	 0.563916575196025 
1924	 0.563712015279868 
1925	 0.56349986318032 
1926	 0.563327712946852 
1927	 0.563178221612958 
1928	 0.563011126525112 
1929	 0.562879209716629 
1930	 0.562784350746578 
1931	 0.562693456328923 
1932	 0.562619439438669 
1933	 0.562585438828051 
1934	 0.562556458117346 
1935	 0.562534449886726 
1936	 0.562505298933273 
1937	 0.562524402263277 
1938	 0.562576493666209 
1939	 0.562630955129374 
1940	 0.562732289424976 
1941	 0.562806971347718 
1942	 0.562859704567545 
1943	 0.56290883773551 
1944	 0.562940930559585 
1945	 0.562988048892193 
1946	 0.563048859159255 
1947	 0.563124526463818 
1948	 0.563195319972391 
1949	 0.563282327975691 
1950	 0.56336904898701 
1951	 0.563458911760639 
1952	 0.563532784501615 
1953	 0.563644979636155 
1954	 0.563722966151595 
1955	 0.563801864416794 
1956	 0.563914821625208 
1957	 0.564013129194575 
1958	 0.564098846192198 
1959	 0.564206141227696 
1960	 0.564322470770601 
1961	 0.564441185372993 
1962	 0.564577998669366 
1963	 0.564714425629771 
1964	 0.564845367361733 
1965	 0.564978729419968 
1966	 0.565161110851723 
1967	 0.565330430441446 
1968	 0.565488324151405 
1969	 0.565655430496622 
1970	 0.565815579478985 
1971	 0.565958395996794 
1972	 0.566100461908895 
1973	 0.566236750633173 
1974	 0.566391239736414 
1975	 0.56654665757288 
1976	 0.566693962856432 
1977	 0.566878987452523 
1978	 0.567066560522333 
1979	 0.567231599447532 
1980	 0.567408112586108 
1981	 0.567606338278097 
1982	 0.567817859158167 
1983	 0.568031468698247 
1984	 0.568276563520859 
1985	 0.568503117874509 
1986	 0.568744631198244 
1987	 0.568946837612523 
1988	 0.569139900876673 
1989	 0.569290186090122 
1990	 0.569439852504727 
1991	 0.56958480828098 
1992	 0.569764001939248 
1993	 0.569976926456897 
1994	 0.57017903789277 
1995	 0.570382649758377 
1996	 0.570600264759387 
1997	 0.570822732920361 
1998	 0.571054396404432 
1999	 0.571312039362993 
2000	 0.571557512498747 
2001	 0.57181977238839 
2002	 0.572056018864109 
2003	 0.572251052897037 
2004	 0.572463053592057 
2005	 0.57264817603855 
2006	 0.572779361957635 
2007	 0.572965638282713 
2008	 0.573162280011377 
2009	 0.573365477109744 
2010	 0.573579084236434 
2011	 0.573820040094142 
2012	 0.574080569952597 
2013	 0.574351353149949 
2014	 0.57466004487173 
2015	 0.574963291816894 
2016	 0.575255459025932 
2017	 0.575514576774972 
2018	 0.575779160226776 
2019	 0.576029491803015 
2020	 0.576281702399249 
2021	 0.576524132267604 
2022	 0.576777714811604 
2023	 0.577039721493573 
2024	 0.577292443785857 
2025	 0.577534714345304 
2026	 0.577792724346864 
2027	 0.578068140822018 
2028	 0.578304394876629 
2029	 0.578574510994935 
2030	 0.57888183556378 
2031	 0.579145790521829 
2032	 0.579392732698791 
2033	 0.579654526883715 
2034	 0.579906685491461 
2035	 0.580154953010834 
2036	 0.580431550836912 
2037	 0.580660569364596 
2038	 0.580859657859644 
2039	 0.581052521009451 
2040	 0.58122566501069 
2041	 0.5813803797472 
2042	 0.581527475863513 
2043	 0.581675474834553 
2044	 0.58182637989614 
2045	 0.581972497053864 
2046	 0.582122890941949 
2047	 0.582278633422316 
2048	 0.582431342172677 
2049	 0.582585515891282 
2050	 0.582733239435972 
2051	 0.582877126679974 
2052	 0.583023223630479 
2053	 0.583176831396012 
2054	 0.583310138664549 
2055	 0.583429494577151 
2056	 0.583558568658597 
2057	 0.583672387528667 
2058	 0.583759909556692 
2059	 0.583873039819073 
2060	 0.583993010046845 
2061	 0.584110879828628 
2062	 0.584222054413663 
2063	 0.584359380182916 
2064	 0.584522671572403 
2065	 0.584665809138444 
2066	 0.584809422698437 
2067	 0.584963890647199 
2068	 0.585116433798106 
2069	 0.585263590951804 
2070	 0.585407342684688 
2071	 0.585571400151702 
2072	 0.585710803925209 
2073	 0.585824064724985 
2074	 0.585949884035236 
2075	 0.586079355686545 
2076	 0.586204041492242 
2077	 0.586323583101738 
2078	 0.586441157752663 
2079	 0.586552608310403 
2080	 0.586673130159734 
2081	 0.586794094854434 
2082	 0.586915643686378 
2083	 0.587034864034413 
2084	 0.58718440217603 
2085	 0.587293127410038 
2086	 0.587377135822542 
2087	 0.587489333253568 
2088	 0.587589943183564 
2089	 0.587709061721958 
2090	 0.587872842656402 
2091	 0.587989498019069 
2092	 0.588073629097484 
2093	 0.588183310630743 
2094	 0.588277120390913 
2095	 0.588390602778938 
2096	 0.588531687367769 
2097	 0.588668756879966 
2098	 0.588805759140036 
2099	 0.58895186982996 
2100	 0.589092543872589 
2101	 0.589235783514528 
2102	 0.589381791869919 
2103	 0.589527881396635 
2104	 0.58966862544029 
2105	 0.589798279698929 
2106	 0.589956686784338 
2107	 0.590096653348522 
2108	 0.590296198444761 
2109	 0.590562718430405 
2110	 0.590801743888434 
2111	 0.591069618336222 
2112	 0.591321416349866 
2113	 0.591561260958128 
2114	 0.591797189810535 
2115	 0.59201990951655 
2116	 0.59223303149977 
2117	 0.592460521120412 
2118	 0.59267643567415 
2119	 0.592903265945182 
2120	 0.593163158199348 
2121	 0.593382054795959 
2122	 0.593573675795266 
2123	 0.593776240391922 
2124	 0.593972461384904 
2125	 0.594161600744523 
2126	 0.594357536328869 
2127	 0.594538341856684 
2128	 0.594733320135786 
2129	 0.594871835415838 
2130	 0.594958543908301 
2131	 0.59506399542893 
2132	 0.595129084532915 
2133	 0.595136704361309 
2134	 0.595170686316966 
2135	 0.595244976480103 
2136	 0.595211746510078 
2137	 0.595135187768865 
2138	 0.595028142490248 
2139	 0.594824940000018 
2140	 0.594655054945669 
2141	 0.59449171513035 
2142	 0.59429950013196 
2143	 0.594091042122045 
2144	 0.59386819703864 
2145	 0.593616250941331 
2146	 0.593364694280723 
2147	 0.593093261879924 
2148	 0.592840731007005 
2149	 0.59255988538164 
2150	 0.592288935605415 
2151	 0.591948693544938 
2152	 0.591593618610686 
2153	 0.591163555847092 
2154	 0.59064313093649 
2155	 0.590151804295565 
2156	 0.589616879605565 
2157	 0.589089192118474 
2158	 0.588574308121694 
2159	 0.588034106438733 
2160	 0.587463431832371 
2161	 0.586901907536589 
2162	 0.586322604275561 
2163	 0.5857596210815 
2164	 0.585234544630771 
2165	 0.58465982616577 
2166	 0.584078603600361 
2167	 0.58350325039275 
2168	 0.582894395628084 
2169	 0.58224029159252 
2170	 0.581606133130983 
2171	 0.580952691323695 
2172	 0.580326470754859 
2173	 0.579692467690481 
2174	 0.579098676189822 
2175	 0.57855388677972 
2176	 0.577983964861699 
2177	 0.577448938529224 
2178	 0.576866693637012 
2179	 0.576236728255526 
2180	 0.575627653558074 
2181	 0.575006538180381 
2182	 0.574385472273373 
2183	 0.573776971270205 
2184	 0.573160797174292 
2185	 0.572539975400345 
2186	 0.571899298075782 
2187	 0.571285694329421 
2188	 0.570660594479125 
2189	 0.570090448514825 
2190	 0.569546604989742 
2191	 0.569024478081753 
2192	 0.568535811082104 
2193	 0.568071815781964 
2194	 0.567617114488853 
2195	 0.567210061866558 
2196	 0.566856736128299 
2197	 0.566510435413334 
2198	 0.566201542589612 
2199	 0.565897695897345 
2200	 0.565637980740767 
2201	 0.565345233890272 
2202	 0.565038029897396 
2203	 0.564724725868776 
2204	 0.564458865610233 
2205	 0.564181454146996 
2206	 0.563954712734167 
2207	 0.563778325027406 
2208	 0.563625077253054 
2209	 0.563491086876857 
2210	 0.563381401733751 
2211	 0.563309145146576 
2212	 0.563272884163552 
2213	 0.563281020597039 
2214	 0.56326421702159 
2215	 0.563297073542592 
2216	 0.563292076268822 
2217	 0.563267627553712 
2218	 0.563217342367438 
2219	 0.563162528439531 
2220	 0.563072608435149 
2221	 0.562941680065376 
2222	 0.562793167581826 
2223	 0.562625222394543 
2224	 0.562425301299717 
2225	 0.56220133603267 
2226	 0.561933305566269 
2227	 0.561688180051124 
2228	 0.561433328485218 
2229	 0.561166379580466 
2230	 0.560891157782752 
2231	 0.560616867175999 
2232	 0.560321785539073 
2233	 0.56004784776098 
2234	 0.559803062953513 
2235	 0.559523601276361 
2236	 0.559233720668559 
2237	 0.558936886787671 
2238	 0.55864579260263 
2239	 0.558302760593823 
2240	 0.55794664627569 
2241	 0.55754853746947 
2242	 0.557052125829529 
2243	 0.556609038225607 
2244	 0.55617570591326 
2245	 0.555738628716408 
2246	 0.555305431956812 
2247	 0.554870784830977 
2248	 0.55440511916943 
2249	 0.553883504841239 
2250	 0.553443452239106 
2251	 0.553017985155988 
2252	 0.552607869653753 
2253	 0.552232096180965 
2254	 0.551872458962137 
2255	 0.551513492670872 
2256	 0.55119928141459 
2257	 0.550936089819907 
2258	 0.550669668117837 
2259	 0.550400864544988 
2260	 0.550180951344519 
2261	 0.549968905523023 
2262	 0.549830735005545 
2263	 0.549725854411971 
2264	 0.549707831473774 
2265	 0.549772576246097 
2266	 0.549882261940463 
2267	 0.550087091975675 
2268	 0.550304809628093 
2269	 0.550584692978832 
2270	 0.550852627287322 
2271	 0.551152798792322 
2272	 0.551467560073714 
2273	 0.551758698744742 
2274	 0.552073524645603 
2275	 0.552440755388805 
2276	 0.552823906993083 
2277	 0.553261982491877 
2278	 0.553801626332398 
2279	 0.554266215517999 
2280	 0.554703262582585 
2281	 0.555199323123382 
2282	 0.555695730928615 
2283	 0.556208005402628 
2284	 0.556812489165477 
2285	 0.557338215513128 
2286	 0.557824456331848 
2287	 0.558298738922385 
2288	 0.558745481265576 
2289	 0.559177223959861 
2290	 0.559559770666021 
2291	 0.559991677258904 
2292	 0.560416413768718 
2293	 0.560877670635036 
2294	 0.56143658435428 
2295	 0.561909354141622 
2296	 0.56234213242959 
2297	 0.562783388254302 
2298	 0.563213464850795 
2299	 0.563615658497374 
2300	 0.564004253789298 
2301	 0.564389562700505 
2302	 0.564775362633489 
2303	 0.56517325514734 
2304	 0.565619846521896 
2305	 0.566043576944255 
2306	 0.566465774598154 
2307	 0.566887589451718 
2308	 0.5672537622546 
2309	 0.567592497103173 
2310	 0.567956116295529 
2311	 0.568260393385608 
2312	 0.568606723844416 
2313	 0.56902378030618 
2314	 0.569375283752592 
2315	 0.569682950167176 
2316	 0.570023227013612 
2317	 0.570352525780218 
2318	 0.570691253408957 
2319	 0.571077371835337 
2320	 0.571404151240667 
2321	 0.571688599779771 
2322	 0.571996459037155 
2323	 0.572253418382393 
2324	 0.572558564711381 
2325	 0.572906099030749 
2326	 0.5732513494584 
2327	 0.573607695875198 
2328	 0.57400192875849 
2329	 0.574351404275506 
2330	 0.57470214807174 
2331	 0.575044616290103 
2332	 0.575390801128139 
2333	 0.575742504716942 
2334	 0.576065126211307 
2335	 0.576321239424565 
2336	 0.576520928894815 
2337	 0.576760884079859 
2338	 0.577003653230531 
2339	 0.577213465249977 
2340	 0.577395710624305 
2341	 0.577533550293568 
2342	 0.577631927272783 
2343	 0.577706211929971 
2344	 0.577794845294246 
2345	 0.577826701173633 
2346	 0.577797895597698 
2347	 0.577772472390384 
2348	 0.577724969778455 
2349	 0.577646969027083 
2350	 0.577523005904752 
2351	 0.577425556813802 
2352	 0.57731669828263 
2353	 0.577226006477753 
2354	 0.577162641276024 
2355	 0.577082088529382 
2356	 0.577008061598798 
2357	 0.576895839509212 
2358	 0.576734136585454 
2359	 0.576625738878656 
2360	 0.576543091917768 
2361	 0.576422112166501 
2362	 0.576311896598885 
2363	 0.576191101060064 
2364	 0.576004540710407 
2365	 0.575849449646626 
2366	 0.575749615725287 
2367	 0.575628441530126 
2368	 0.575530639035812 
2369	 0.575364392244499 
2370	 0.575173780989084 
2371	 0.574926864042588 
2372	 0.574605711322657 
2373	 0.574235872404477 
2374	 0.573872652796396 
2375	 0.573507066025435 
2376	 0.573181287987653 
2377	 0.572899460871252 
2378	 0.572614304375787 
2379	 0.572334940417302 
2380	 0.572121188263262 
2381	 0.571896549102932 
2382	 0.571595830552662 
2383	 0.57131010485191 
2384	 0.570991338119127 
2385	 0.57055254826381 
2386	 0.570130515471277 
2387	 0.569749545309679 
2388	 0.56923972977989 
2389	 0.568812632997862 
2390	 0.568535915094228 
2391	 0.56815624201016 
2392	 0.567759411460244 
2393	 0.567391301121556 
2394	 0.566958813268258 
2395	 0.566550253604167 
2396	 0.566232214158505 
2397	 0.565857416619914 
2398	 0.565399657980421 
2399	 0.564963771223246 
2400	 0.564540613305464 
2401	 0.564157442888081 
2402	 0.563834955353475 
2403	 0.563511302865609 
2404	 0.563152958346982 
2405	 0.562749278246398 
2406	 0.562345302068757 
2407	 0.56197448366875 
2408	 0.561535093045064 
2409	 0.561222925894631 
2410	 0.561007593108225 
2411	 0.560678003208964 
2412	 0.560471243579751 
2413	 0.560123240233929 
2414	 0.559548096692136 
2415	 0.559123815402792 
2416	 0.558756061691085 
2417	 0.558386515927775 
2418	 0.558112738153432 
2419	 0.558032030875072 
2420	 0.557759097573147 
2421	 0.557413608405316 
2422	 0.557143127660746 
2423	 0.556791189661622 
2424	 0.556513552764009 
2425	 0.556404416050783 
2426	 0.556165382573972 
2427	 0.555867286970987 
2428	 0.55559536939166 
2429	 0.555254622220927 
2430	 0.554861736487954 
2431	 0.554463225244166 
2432	 0.554106964447065 
2433	 0.553721403249804 
2434	 0.553421544465189 
2435	 0.553176960353968 
2436	 0.552972740269184 
2437	 0.552860765013142 
2438	 0.552638803793935 
2439	 0.55235073713877 
2440	 0.552095049592362 
2441	 0.551792763057325 
2442	 0.551600861723364 
2443	 0.551601535255375 
2444	 0.551398559640924 
2445	 0.551078816050689 
2446	 0.550767045273578 
2447	 0.550333313864576 
2448	 0.549966703286605 
2449	 0.549685831875095 
2450	 0.549415591445988 
2451	 0.549141302101393 
2452	 0.548841955469286 
2453	 0.548507768916843 
2454	 0.548264969384235 
2455	 0.548086497469988 
2456	 0.547806469814585 
2457	 0.547568062561821 
2458	 0.547353235464619 
2459	 0.547023584131032 
2460	 0.54673381756091 
2461	 0.546495062411385 
2462	 0.546315823106695 
2463	 0.546137867220293 
2464	 0.545943524870882 
2465	 0.545916411665266 
2466	 0.545704290033732 
2467	 0.545241358613489 
2468	 0.545066943485403 
2469	 0.545035180071141 
2470	 0.544836880498915 
2471	 0.544806905858012 
2472	 0.544648915189582 
2473	 0.544376447491061 
2474	 0.544307852588057 
2475	 0.54397784075261 
2476	 0.543434910675283 
2477	 0.543159524212083 
2478	 0.542905097116506 
2479	 0.542775378139237 
2480	 0.542830028504023 
2481	 0.54265574596912 
2482	 0.542423636583425 
2483	 0.542149972561322 
2484	 0.541747474702324 
2485	 0.54143327399349 
2486	 0.541135851369418 
2487	 0.540811651843346 
2488	 0.540570471794359 
2489	 0.54041297741681 
2490	 0.540289233392117 
2491	 0.540081423526563 
2492	 0.539866244073092 
2493	 0.539686977420284 
2494	 0.539387226736884 
2495	 0.539127854810065 
2496	 0.538960693198839 
2497	 0.538797820219008 
2498	 0.538580113226112 
2499	 0.538308110039612 
2500	 0.538050275167604 
