Wavelength	MM900001.asd
350	 6.81402607186372E-02 
351	 7.08411794409178E-02 
352	 6.47964859732175E-02 
353	 4.98056859629866E-02 
354	 5.17708178438642E-02 
355	 5.95265274183542E-02 
356	 6.36947366240624E-02 
357	 6.01945513959334E-02 
358	 0.062876152182873 
359	 6.19974015415045E-02 
360	 6.05756876244872E-02 
361	 6.78569801298022E-02 
362	 6.40447254764505E-02 
363	 6.02255460650073E-02 
364	 6.15161907845349E-02 
365	 5.72972276149617E-02 
366	 5.87270062017938E-02 
367	 6.13766341520206E-02 
368	 6.00391575108982E-02 
369	 6.46925848998957E-02 
370	 6.41580164629334E-02 
371	 0.060098427621374 
372	 6.22563847363402E-02 
373	 0.062417398086548 
374	 0.061483899799882 
375	 6.15677435696668E-02 
376	 6.52689626970852E-02 
377	 6.25982698470068E-02 
378	 6.05746970881219E-02 
379	 6.66449092463591E-02 
380	 0.067781392720607 
381	 6.44482581190296E-02 
382	 6.17376154138411E-02 
383	 6.66635960363397E-02 
384	 6.84952987312325E-02 
385	 6.76108333243628E-02 
386	 6.65155167601881E-02 
387	 6.85408425378702E-02 
388	 6.99927940605761E-02 
389	 6.97277739148897E-02 
390	 6.79626583124941E-02 
391	 6.65605411771224E-02 
392	 6.67218838293866E-02 
393	 6.83723074480455E-02 
394	 7.04070938159559E-02 
395	 0.072430297951364 
396	 7.27457885991854E-02 
397	 7.15432672033502E-02 
398	 7.33972426729997E-02 
399	 0.073963462383917 
400	 7.37590987321949E-02 
401	 7.46954867130049E-02 
402	 7.59765741179265E-02 
403	 7.64849712928632E-02 
404	 7.62328046749605E-02 
405	 7.63371857249324E-02 
406	 7.68173796376127E-02 
407	 0.077062992238186 
408	 0.076843860706859 
409	 7.72245282768382E-02 
410	 7.75887395565822E-02 
411	 7.80686051569288E-02 
412	 7.89639695083127E-02 
413	 7.91956598504344E-02 
414	 7.93187287590423E-02 
415	 7.97668811832938E-02 
416	 8.06400606502888E-02 
417	 8.11401093357731E-02 
418	 8.15905493812576E-02 
419	 8.22926593377395E-02 
420	 8.25022377531281E-02 
421	 8.23348397936024E-02 
422	 0.082188436943392 
423	 8.25243302311642E-02 
424	 8.25404096225486E-02 
425	 8.23593445182543E-02 
426	 8.22144416044388E-02 
427	 8.23479436129976E-02 
428	 8.21174317171234E-02 
429	 8.18609114669229E-02 
430	 8.20712640249764E-02 
431	 8.23791861367403E-02 
432	 8.23314394368107E-02 
433	 8.19154072174454E-02 
434	 8.15375397590967E-02 
435	 8.18102353785586E-02 
436	 8.19748384713572E-02 
437	 8.15235249979394E-02 
438	 8.12596426211497E-02 
439	 8.13973741561739E-02 
440	 8.17783394930399E-02 
441	 8.20593256483512E-02 
442	 8.22400098379034E-02 
443	 8.23965601567952E-02 
444	 8.25921128714876E-02 
445	 8.28593863891581E-02 
446	 0.083020857378496 
447	 8.31416101723446E-02 
448	 8.33545763161287E-02 
449	 8.37522586562208E-02 
450	 8.41753666050465E-02 
451	 8.44892100879315E-02 
452	 8.46061482009295E-02 
453	 8.47367085543306E-02 
454	 8.47139917403798E-02 
455	 0.084627851013378 
456	 8.54492095371645E-02 
457	 8.57885065933608E-02 
458	 8.57910313329211E-02 
459	 8.61810268368723E-02 
460	 8.62522142590517E-02 
461	 8.63553399264208E-02 
462	 8.66220974416427E-02 
463	 8.67526845132593E-02 
464	 8.69418569655576E-02 
465	 0.086991859693121 
466	 8.67881127846979E-02 
467	 8.69390551159737E-02 
468	 0.087219092786164 
469	 8.74125029716436E-02 
470	 8.73595631022158E-02 
471	 8.73715496847373E-02 
472	 8.74646739857931E-02 
473	 8.75980775495055E-02 
474	 8.77487690270789E-02 
475	 0.087751570348452 
476	 8.77052300349726E-02 
477	 8.77964839657447E-02 
478	 8.78838152145619E-02 
479	 8.79527874118516E-02 
480	 8.80427883245025E-02 
481	 8.82573742207949E-02 
482	 8.82607260933771E-02 
483	 8.83243084297183E-02 
484	 8.86648214995247E-02 
485	 8.85721667374357E-02 
486	 8.84224498945653E-02 
487	 8.84166647968674E-02 
488	 8.85711259970534E-02 
489	 8.87508584679288E-02 
490	 8.88302688311181E-02 
491	 8.87963596002333E-02 
492	 8.89035308067114E-02 
493	 8.88719879236546E-02 
494	 8.87932172791204E-02 
495	 8.89037284330286E-02 
496	 0.089124745768918 
497	 8.92075623624126E-02 
498	 8.91159565411761E-02 
499	 8.91409611971684E-02 
500	 8.92040444484575E-02 
501	 0.089289000216051 
502	 8.93712999904705E-02 
503	 8.93409777507419E-02 
504	 8.93228931694865E-02 
505	 8.93245398637554E-02 
506	 0.089248425583139 
507	 8.92598511172935E-02 
508	 8.93884272339379E-02 
509	 8.95694180060335E-02 
510	 0.089584298797178 
511	 8.94455856726238E-02 
512	 8.93308660704148E-02 
513	 8.94657052239727E-02 
514	 8.96430517892215E-02 
515	 0.089628894795799 
516	 8.94910772286375E-02 
517	 0.089832334575145 
518	 8.98927284154182E-02 
519	 8.97857981764316E-02 
520	 8.98429369433359E-02 
521	 8.99193679682493E-02 
522	 8.99042855407138E-02 
523	 8.98346174516331E-02 
524	 8.98938311664867E-02 
525	 0.089871768564595 
526	 8.98185468265293E-02 
527	 8.98252061951389E-02 
528	 8.99280248716375E-02 
529	 9.00203076565638E-02 
530	 9.00685846847369E-02 
531	 9.00932056598608E-02 
532	 9.01157503957724E-02 
533	 9.01593347898761E-02 
534	 9.02280120905508E-02 
535	 9.02874151407848E-02 
536	 9.03794107002172E-02 
537	 9.04690693036957E-02 
538	 0.090505472703488 
539	 9.05452754276892E-02 
540	 9.05901917046102E-02 
541	 9.06720756046609E-02 
542	 9.08736240841927E-02 
543	 9.09213297932513E-02 
544	 9.09089783501739E-02 
545	 9.09914606786414E-02 
546	 9.11242729506864E-02 
547	 9.12462435012297E-02 
548	 9.13517385457124E-02 
549	 9.14814520313096E-02 
550	 9.16118895199733E-02 
551	 9.17064191295001E-02 
552	 9.17724862030644E-02 
553	 9.19415975123946E-02 
554	 9.20969288767835E-02 
555	 9.21974699078721E-02 
556	 9.22615858590441E-02 
557	 9.24507299204585E-02 
558	 0.092657749650961 
559	 9.28307831716254E-02 
560	 9.30684661812711E-02 
561	 9.33444428265705E-02 
562	 9.36658342701416E-02 
563	 9.40431431234519E-02 
564	 9.44675398856425E-02 
565	 9.48666594810451E-02 
566	 9.52453821512408E-02 
567	 9.56953322879574E-02 
568	 0.096092008270808 
569	 9.64010088428259E-02 
570	 9.66386767268532E-02 
571	 9.68915803877881E-02 
572	 0.09721335939506 
573	 9.76367345610158E-02 
574	 9.81623837250308E-02 
575	 9.86310782471688E-02 
576	 9.91191443378818E-02 
577	 9.96797008174541E-02 
578	 0.100213705789286 
579	 0.100889711509204 
580	 0.101707033675353 
581	 0.102581300544689 
582	 0.103427832024734 
583	 0.104250497042953 
584	 0.105068612518854 
585	 0.105910033695295 
586	 0.106815312829838 
587	 0.107726356589782 
588	 0.108591379255581 
589	 0.109533566689621 
590	 0.110448212426255 
591	 0.111284040482658 
592	 0.112050680976923 
593	 0.11273954872805 
594	 0.1134176618967 
595	 0.114164343948269 
596	 0.115071444844862 
597	 0.115969428471702 
598	 0.116863777102799 
599	 0.117852877714168 
600	 0.118901128059573 
601	 0.119882177676056 
602	 0.120746646482231 
603	 0.121598563720915 
604	 0.122443581532627 
605	 0.12330656047458 
606	 0.124194931189024 
607	 0.125026758308452 
608	 0.125772247386206 
609	 0.126455329663299 
610	 0.127156904213982 
611	 0.127858355109284 
612	 0.128548339687306 
613	 0.129216513028936 
614	 0.129879999681424 
615	 0.130430095390484 
616	 0.130923060585645 
617	 0.131509976345592 
618	 0.132009844746415 
619	 0.132447519137914 
620	 0.132864302599021 
621	 0.133261330166705 
622	 0.133683114726962 
623	 0.134105245977755 
624	 0.134483864814919 
625	 0.13486302818138 
626	 0.13522502255559 
627	 0.135573429016115 
628	 0.135945142504413 
629	 0.136333733672622 
630	 0.136683816752454 
631	 0.13695621109275 
632	 0.13721826662454 
633	 0.137501092377863 
634	 0.137812456399049 
635	 0.138136669074622 
636	 0.138400552966539 
637	 0.138671295369632 
638	 0.138987126415296 
639	 0.139251719806199 
640	 0.139531190804123 
641	 0.139836051091543 
642	 0.140149399912044 
643	 0.14045489199462 
644	 0.140748749803193 
645	 0.141019161189745 
646	 0.141236185936937 
647	 0.141544730261455 
648	 0.141875243980423 
649	 0.142142166144613 
650	 0.142488718709617 
651	 0.142832962238435 
652	 0.14314784927064 
653	 0.143462390131105 
654	 0.143818010152287 
655	 0.144164106615133 
656	 0.14447746239281 
657	 0.144845700658014 
658	 0.145234720960825 
659	 0.145626543035035 
660	 0.146012457301597 
661	 0.146415974664089 
662	 0.14680605951721 
663	 0.147176898499793 
664	 0.147565592567499 
665	 0.147957797647889 
666	 0.148380289556781 
667	 0.148857113602838 
668	 0.149360897757817 
669	 0.149843156422536 
670	 0.150308154185888 
671	 0.150801161607001 
672	 0.15128584030263 
673	 0.151785078130784 
674	 0.152314347120439 
675	 0.152857235159315 
676	 0.153349100824111 
677	 0.153826183941258 
678	 0.154366116846433 
679	 0.154969943994422 
680	 0.155581721306325 
681	 0.156174649455399 
682	 0.15676720738919 
683	 0.157350451319007 
684	 0.157945666186542 
685	 0.158577663120143 
686	 0.159259036301758 
687	 0.159961995181667 
688	 0.160658555073688 
689	 0.161321938024386 
690	 0.161942173330369 
691	 0.162609677186555 
692	 0.163357368188361 
693	 0.164082733874864 
694	 0.164765696903224 
695	 0.165439810393663 
696	 0.16615936977518 
697	 0.166949843135118 
698	 0.167685193619116 
699	 0.168380272329393 
700	 0.169199587377495 
701	 0.169982327050698 
702	 0.170739634214348 
703	 0.17151168594821 
704	 0.172316912834587 
705	 0.173110974630186 
706	 0.173900541965627 
707	 0.174709017373224 
708	 0.175453061511354 
709	 0.176219894364675 
710	 0.177027089582514 
711	 0.177765463864843 
712	 0.178597667445767 
713	 0.179424111470798 
714	 0.180145964862093 
715	 0.180956838483243 
716	 0.181721581824415 
717	 0.182424754582481 
718	 0.183142219176667 
719	 0.183880146003205 
720	 0.184615336966087 
721	 0.185321353503673 
722	 0.18597499692572 
723	 0.18664313792911 
724	 0.187286226364204 
725	 0.187861732964689 
726	 0.188505853681982 
727	 0.189094282680815 
728	 0.18960789361516 
729	 0.190132239718092 
730	 0.190613958625906 
731	 0.191078603832687 
732	 0.191541234893796 
733	 0.191959459670522 
734	 0.192363840305978 
735	 0.192717684787406 
736	 0.192980894284963 
737	 0.193266721553386 
738	 0.193517363834755 
739	 0.193725477586103 
740	 0.193948887989893 
741	 0.194105109477512 
742	 0.194181616859375 
743	 0.194206093134318 
744	 0.194273547156947 
745	 0.194270275461724 
746	 0.194238744604924 
747	 0.194265978875721 
748	 0.194190591869645 
749	 0.194062547721693 
750	 0.193915542211279 
751	 0.193740103673183 
752	 0.193557515994991 
753	 0.193340354726341 
754	 0.19306621027685 
755	 0.192750651972946 
756	 0.192492374182214 
757	 0.192232436433361 
758	 0.191854439945768 
759	 0.191487162964028 
760	 0.191081054110059 
761	 0.190639198877306 
762	 0.190248546165936 
763	 0.189830656168716 
764	 0.189388109436816 
765	 0.188928532892854 
766	 0.188412842773231 
767	 0.187879039938935 
768	 0.187361695798943 
769	 0.186881327522486 
770	 0.186389348541214 
771	 0.185871681515508 
772	 0.185320203466882 
773	 0.184732131649477 
774	 0.184180191673872 
775	 0.183622958959796 
776	 0.183030862027772 
777	 0.182485342284178 
778	 0.181913638733132 
779	 0.181336904134592 
780	 0.180799663947756 
781	 0.180207817073753 
782	 0.179599449472305 
783	 0.179008085604629 
784	 0.178451487763457 
785	 0.177929358866159 
786	 0.177378275977312 
787	 0.176775372743781 
788	 0.176221790275535 
789	 0.175635925257979 
790	 0.175044654985121 
791	 0.174498605342214 
792	 0.1739497979224 
793	 0.173440635567491 
794	 0.172966150557816 
795	 0.17247398109521 
796	 0.171884041284789 
797	 0.171324039341283 
798	 0.170857770814507 
799	 0.170376654814249 
800	 0.169851116859463 
801	 0.169308083585851 
802	 0.168795006367113 
803	 0.168347389149514 
804	 0.16792575712272 
805	 0.167473049431869 
806	 0.166950411373892 
807	 0.166539799679018 
808	 0.166116705220897 
809	 0.165643467130945 
810	 0.165235515400009 
811	 0.164852302049605 
812	 0.164434665505428 
813	 0.163969691414219 
814	 0.163576702356783 
815	 0.163223389766479 
816	 0.162867227848207 
817	 0.162477552582441 
818	 0.162124884274097 
819	 0.161769015345755 
820	 0.161409230082807 
821	 0.161081233000878 
822	 0.16077906484176 
823	 0.160438452408327 
824	 0.16006580424612 
825	 0.159794416523632 
826	 0.159495226434218 
827	 0.159182143447361 
828	 0.158900087003874 
829	 0.158664138022617 
830	 0.158407405099911 
831	 0.158128436126267 
832	 0.157866111342364 
833	 0.157684760113885 
834	 0.157437217756084 
835	 0.157143528199736 
836	 0.156977792477313 
837	 0.156802244518742 
838	 0.156613868284507 
839	 0.15643341131755 
840	 0.156285943950671 
841	 0.156076777101665 
842	 0.155876095548427 
843	 0.155748901508006 
844	 0.155595566530043 
845	 0.155436261205144 
846	 0.15529360052045 
847	 0.155185784625173 
848	 0.155093540967374 
849	 0.15499270432445 
850	 0.154876903587154 
851	 0.154755506285215 
852	 0.154620026186057 
853	 0.154514027069699 
854	 0.154478657378031 
855	 0.154537576065795 
856	 0.154502789270042 
857	 0.154402053815588 
858	 0.154309204767756 
859	 0.154264921775869 
860	 0.154238881560684 
861	 0.154219383428703 
862	 0.154207078392374 
863	 0.15423116587535 
864	 0.154231595314628 
865	 0.15421740400382 
866	 0.154237722254127 
867	 0.154282040546659 
868	 0.154330577236852 
869	 0.154361866095502 
870	 0.154364320425288 
871	 0.154455186871071 
872	 0.154571033716867 
873	 0.15466254876811 
874	 0.154755187344957 
875	 0.154854453674055 
876	 0.154902925062662 
877	 0.154907789824401 
878	 0.155087108775694 
879	 0.155250759113058 
880	 0.155347339011865 
881	 0.155410197698721 
882	 0.155592388411275 
883	 0.155737014116816 
884	 0.155879365992097 
885	 0.156124125840668 
886	 0.156266668403298 
887	 0.156449555458842 
888	 0.156675295294811 
889	 0.156824514018495 
890	 0.157023691723236 
891	 0.157213092180023 
892	 0.157384898629789 
893	 0.157619205617864 
894	 0.157861858540724 
895	 0.158139048495318 
896	 0.15844393139589 
897	 0.158688487065906 
898	 0.158926537519875 
899	 0.159186329285658 
900	 0.159477725368335 
901	 0.159778718406165 
902	 0.160093429502039 
903	 0.16043375471392 
904	 0.160797408164275 
905	 0.161123289279597 
906	 0.161429796501947 
907	 0.161737690989906 
908	 0.162072436721169 
909	 0.162483305007052 
910	 0.162835657373258 
911	 0.163188483472936 
912	 0.163685060852019 
913	 0.164074540473609 
914	 0.164497826899902 
915	 0.164959330277644 
916	 0.165339783978761 
917	 0.165820081383651 
918	 0.166307809970295 
919	 0.166760279234839 
920	 0.167230158643784 
921	 0.167692764047756 
922	 0.168175867123193 
923	 0.168711217782612 
924	 0.169318945797469 
925	 0.169865009626289 
926	 0.170409990897961 
927	 0.170970755761104 
928	 0.171403317302195 
929	 0.171976558381216 
930	 0.172625668230693 
931	 0.173248588472477 
932	 0.173873441220686 
933	 0.174541769008707 
934	 0.175187584533956 
935	 0.175772120612099 
936	 0.176428094416882 
937	 0.177041011911976 
938	 0.17766722522605 
939	 0.178382647360621 
940	 0.179131155455746 
941	 0.179864458911366 
942	 0.180566920537181 
943	 0.181258084906198 
944	 0.18200337298142 
945	 0.182851858404241 
946	 0.183677797466857 
947	 0.184353380754692 
948	 0.185116409641311 
949	 0.18588493146959 
950	 0.186725108088067 
951	 0.187706385115317 
952	 0.18852756910968 
953	 0.189329681142914 
954	 0.190166388379023 
955	 0.191025069194496 
956	 0.1918921645922 
957	 0.19283389804324 
958	 0.193757320428034 
959	 0.194547724824786 
960	 0.195535492290926 
961	 0.196610062036512 
962	 0.197650221309549 
963	 0.198583205347528 
964	 0.199529228777141 
965	 0.200482895017399 
966	 0.201498810237935 
967	 0.202629280594698 
968	 0.203645990283839 
969	 0.20462398623973 
970	 0.205643984748861 
971	 0.206743529328708 
972	 0.207802988569543 
973	 0.208826769653217 
974	 0.209870997259497 
975	 0.211005120384763 
976	 0.212210049434329 
977	 0.213436503761199 
978	 0.214616849707609 
979	 0.215699668011042 
980	 0.216751467310123 
981	 0.217915813102291 
982	 0.219137281450078 
983	 0.220278704819539 
984	 0.221495071658463 
985	 0.222713176493109 
986	 0.223879362186776 
987	 0.225004417888596 
988	 0.226295776216553 
989	 0.227492867090873 
990	 0.228606939506651 
991	 0.229796963239206 
992	 0.231117164729482 
993	 0.232409521538386 
994	 0.23360951645114 
995	 0.234736414230952 
996	 0.235896160251843 
997	 0.237210189379541 
998	 0.23854839195393 
999	 0.239745407801144 
1000	 0.2408849405212 
1001	 0.248790869701144 
1002	 0.250089527746199 
1003	 0.251342014281719 
1004	 0.252576730013615 
1005	 0.253812423467872 
1006	 0.255035122816406 
1007	 0.256219329672498 
1008	 0.257398356115861 
1009	 0.258605927007754 
1010	 0.25980652239842 
1011	 0.261023041986981 
1012	 0.262265945974034 
1013	 0.263524962874471 
1014	 0.264693891571152 
1015	 0.265891404668715 
1016	 0.267140242252638 
1017	 0.268318862958481 
1018	 0.269452579811214 
1019	 0.270638689772176 
1020	 0.271814179020064 
1021	 0.272924072711076 
1022	 0.274065013207157 
1023	 0.27520232815179 
1024	 0.276326895378499 
1025	 0.277403796059995 
1026	 0.278486392103994 
1027	 0.279618288111084 
1028	 0.280648444492513 
1029	 0.281679704598932 
1030	 0.282797602131713 
1031	 0.283846884888895 
1032	 0.284861298733163 
1033	 0.28585515069562 
1034	 0.286847551664881 
1035	 0.287788681154053 
1036	 0.288783154424566 
1037	 0.289845105993121 
1038	 0.290844581612968 
1039	 0.291831155747391 
1040	 0.292773724026404 
1041	 0.293654347641443 
1042	 0.294621287055454 
1043	 0.295605548586614 
1044	 0.296562628617478 
1045	 0.29750764911643 
1046	 0.298482347318265 
1047	 0.299450763860648 
1048	 0.300409184063887 
1049	 0.30138909847444 
1050	 0.302388676241543 
1051	 0.303358981561344 
1052	 0.304295741060256 
1053	 0.30525413850664 
1054	 0.306251144561706 
1055	 0.307262228130422 
1056	 0.308284870876752 
1057	 0.309308892369679 
1058	 0.310351513040529 
1059	 0.311368231854431 
1060	 0.312375229127506 
1061	 0.313359437806511 
1062	 0.314370613922281 
1063	 0.315426114041377 
1064	 0.316485844261616 
1065	 0.317608032035287 
1066	 0.318674732844685 
1067	 0.319682760340315 
1068	 0.32072794804382 
1069	 0.321768272724165 
1070	 0.322856579546716 
1071	 0.32403962429365 
1072	 0.325142035004473 
1073	 0.326213044034752 
1074	 0.327296786330498 
1075	 0.328362448138875 
1076	 0.32938498418329 
1077	 0.330468067845928 
1078	 0.33155377632226 
1079	 0.33258933988204 
1080	 0.333674389417595 
1081	 0.334759654134335 
1082	 0.33582000462315 
1083	 0.336886351849965 
1084	 0.337958064414573 
1085	 0.339024953229027 
1086	 0.340055170972733 
1087	 0.341143417603152 
1088	 0.342268886983315 
1089	 0.343380638665717 
1090	 0.344477686122786 
1091	 0.345517633231579 
1092	 0.346520372879971 
1093	 0.347529722345232 
1094	 0.348590548756488 
1095	 0.34968104019215 
1096	 0.350752555222364 
1097	 0.35181800148811 
1098	 0.352873873991402 
1099	 0.353891736595336 
1100	 0.354947768838407 
1101	 0.356047092148982 
1102	 0.357099099078169 
1103	 0.358145516308918 
1104	 0.359163699910158 
1105	 0.360197212508248 
1106	 0.361237472974077 
1107	 0.362291582210989 
1108	 0.363354915170362 
1109	 0.364394433656676 
1110	 0.365423330033114 
1111	 0.366478007536135 
1112	 0.367554839812737 
1113	 0.368627830357221 
1114	 0.36971672971761 
1115	 0.370785251672291 
1116	 0.371840933018663 
1117	 0.372903330218656 
1118	 0.373961555595407 
1119	 0.375020701971881 
1120	 0.376096333296761 
1121	 0.377146919038285 
1122	 0.378191121139297 
1123	 0.379272845395428 
1124	 0.380374667626716 
1125	 0.381509313206404 
1126	 0.382616472936488 
1127	 0.383746853634905 
1128	 0.384841372279 
1129	 0.385895743081401 
1130	 0.386972397727894 
1131	 0.388039439975233 
1132	 0.389123450303568 
1133	 0.390208781555037 
1134	 0.391314002786095 
1135	 0.392436818460377 
1136	 0.393568035065214 
1137	 0.394704307312001 
1138	 0.395814631801473 
1139	 0.396929760469731 
1140	 0.3980309320017 
1141	 0.399143743020053 
1142	 0.400271358902488 
1143	 0.401384622087696 
1144	 0.402477478558971 
1145	 0.403594008327513 
1146	 0.404724452957281 
1147	 0.405833194714013 
1148	 0.406942076243674 
1149	 0.408060766558391 
1150	 0.409173466763483 
1151	 0.410277989813454 
1152	 0.411400761194681 
1153	 0.41251469258346 
1154	 0.413619424943235 
1155	 0.414712149713194 
1156	 0.415799643180991 
1157	 0.416886623102555 
1158	 0.417961788259132 
1159	 0.419001802286977 
1160	 0.420090877202405 
1161	 0.421207910628277 
1162	 0.422307146307476 
1163	 0.423444404358749 
1164	 0.424541396781103 
1165	 0.425602512506078 
1166	 0.426675290590605 
1167	 0.427726089532876 
1168	 0.428765610460251 
1169	 0.429809056081813 
1170	 0.430840052258595 
1171	 0.431884335514691 
1172	 0.432953797483467 
1173	 0.433981595050995 
1174	 0.434992192247395 
1175	 0.436005012515597 
1176	 0.437000707345526 
1177	 0.437994631009091 
1178	 0.438991530275277 
1179	 0.439985043072077 
1180	 0.440959874545244 
1181	 0.441945138613718 
1182	 0.442943747971055 
1183	 0.443948759954522 
1184	 0.44491439392763 
1185	 0.445878865148849 
1186	 0.446803989819969 
1187	 0.447683276132559 
1188	 0.44857842888229 
1189	 0.449452083969782 
1190	 0.45034272896972 
1191	 0.451255741133236 
1192	 0.452136647411609 
1193	 0.453005972692437 
1194	 0.453873653997561 
1195	 0.454728897535801 
1196	 0.455570250618838 
1197	 0.456420173600944 
1198	 0.457244897591421 
1199	 0.458050494805811 
1200	 0.458824267661354 
1201	 0.459615551779473 
1202	 0.460413271029029 
1203	 0.461172818260503 
1204	 0.461911337375301 
1205	 0.462659984992976 
1206	 0.463384300798778 
1207	 0.464117961732116 
1208	 0.464888384294197 
1209	 0.465610155667013 
1210	 0.466302870786835 
1211	 0.466988203593418 
1212	 0.4676491415977 
1213	 0.468306695097785 
1214	 0.468950358995075 
1215	 0.469594979861601 
1216	 0.470235682976377 
1217	 0.470876028711312 
1218	 0.47149611062502 
1219	 0.472116163378372 
1220	 0.472710343704387 
1221	 0.473273716100824 
1222	 0.47384973882305 
1223	 0.474427642149989 
1224	 0.474984988128471 
1225	 0.475530645567202 
1226	 0.476077305306578 
1227	 0.47661453121795 
1228	 0.477141779817406 
1229	 0.47768197504628 
1230	 0.478194465829842 
1231	 0.47867243560197 
1232	 0.47915596739718 
1233	 0.479633524065338 
1234	 0.480105340606708 
1235	 0.480559570503362 
1236	 0.481006408137144 
1237	 0.481449302682332 
1238	 0.481868490775481 
1239	 0.482304086385179 
1240	 0.48276408007231 
1241	 0.483185996298595 
1242	 0.483585999084316 
1243	 0.48399510672681 
1244	 0.484385404645815 
1245	 0.484782913841419 
1246	 0.485203930520403 
1247	 0.48560049816092 
1248	 0.485997623009718 
1249	 0.486360685395654 
1250	 0.486702946913163 
1251	 0.487040267580251 
1252	 0.48739912819415 
1253	 0.487756482426816 
1254	 0.488115712836526 
1255	 0.488499631848552 
1256	 0.488860480197586 
1257	 0.489211074580115 
1258	 0.489550594033678 
1259	 0.489886289136309 
1260	 0.49021079854181 
1261	 0.490525218795089 
1262	 0.490821508241275 
1263	 0.491107978128901 
1264	 0.491383017142057 
1265	 0.491630537971027 
1266	 0.491881355745185 
1267	 0.492129731725862 
1268	 0.492366423342236 
1269	 0.492612599487791 
1270	 0.492852399176661 
1271	 0.493109030932474 
1272	 0.493380888232066 
1273	 0.493642595581176 
1274	 0.49391065401873 
1275	 0.494170579039839 
1276	 0.494418510489515 
1277	 0.494672873397855 
1278	 0.494924017225659 
1279	 0.495183068649714 
1280	 0.49543638181321 
1281	 0.495713789303109 
1282	 0.496010583549614 
1283	 0.496304945500934 
1284	 0.496614886274166 
1285	 0.496919276359851 
1286	 0.497221267825826 
1287	 0.497562154419103 
1288	 0.497887034059877 
1289	 0.498218646451356 
1290	 0.49855883593467 
1291	 0.498900342036414 
1292	 0.499239030602572 
1293	 0.499577546524487 
1294	 0.499943530402526 
1295	 0.500319643940935 
1296	 0.500693561206268 
1297	 0.501098047302906 
1298	 0.501485247022486 
1299	 0.501870500170264 
1300	 0.502231465963853 
1301	 0.502584050402089 
1302	 0.502926398829298 
1303	 0.503246728191011 
1304	 0.503549267685538 
1305	 0.503866434936831 
1306	 0.504176647219888 
1307	 0.504427839481735 
1308	 0.50468569474625 
1309	 0.504959312055074 
1310	 0.50522856796194 
1311	 0.50548217368629 
1312	 0.50576459033464 
1313	 0.505995850461399 
1314	 0.506178290097677 
1315	 0.506367969908019 
1316	 0.506549615342256 
1317	 0.506718401466947 
1318	 0.506872384056417 
1319	 0.507022528409495 
1320	 0.507147743446256 
1321	 0.507290214362939 
1322	 0.50743827947916 
1323	 0.507585648656607 
1324	 0.507723765240602 
1325	 0.507863462883892 
1326	 0.507952468004794 
1327	 0.50798544581812 
1328	 0.508033185653683 
1329	 0.508053509564364 
1330	 0.508084641117885 
1331	 0.508125194662069 
1332	 0.508158124378323 
1333	 0.508172670076691 
1334	 0.508207244926724 
1335	 0.508256902031003 
1336	 0.508283854405122 
1337	 0.50831055105824 
1338	 0.508338122201073 
1339	 0.50835003949696 
1340	 0.508368728555646 
1341	 0.508395699421768 
1342	 0.508411877663962 
1343	 0.508415381086137 
1344	 0.508432755138791 
1345	 0.508434380417615 
1346	 0.5084656664531 
1347	 0.508526836691928 
1348	 0.508572886904706 
1349	 0.508626159011738 
1350	 0.508690239882962 
1351	 0.508733032232925 
1352	 0.508759611571642 
1353	 0.508786972000795 
1354	 0.508803046726211 
1355	 0.508831881837292 
1356	 0.50884789450789 
1357	 0.508891114747435 
1358	 0.508956712985667 
1359	 0.509017902470349 
1360	 0.509105744212189 
1361	 0.509162319872293 
1362	 0.50921471667143 
1363	 0.509250663172781 
1364	 0.509254512378964 
1365	 0.509270245480535 
1366	 0.509296768479994 
1367	 0.509288177362854 
1368	 0.509291429543465 
1369	 0.509298761758487 
1370	 0.509271568595635 
1371	 0.509234346019787 
1372	 0.509173800852637 
1373	 0.509103329817194 
1374	 0.50903809260183 
1375	 0.508954420434344 
1376	 0.508908122643274 
1377	 0.508871778045178 
1378	 0.508847874193514 
1379	 0.508859088646048 
1380	 0.508850401646502 
1381	 0.508846859255072 
1382	 0.508828768028189 
1383	 0.508799468401587 
1384	 0.508772908912144 
1385	 0.508735053515421 
1386	 0.508703714954458 
1387	 0.508684176530006 
1388	 0.508650685422317 
1389	 0.508605024977066 
1390	 0.508578677033072 
1391	 0.508527461080101 
1392	 0.508446890088841 
1393	 0.50836665547143 
1394	 0.508255758512342 
1395	 0.508140662363887 
1396	 0.508024848260695 
1397	 0.50791379562032 
1398	 0.507798375683648 
1399	 0.507695142146159 
1400	 0.507600034409277 
1401	 0.507511016227167 
1402	 0.507419044098913 
1403	 0.507341486857867 
1404	 0.507295306171389 
1405	 0.507206947628122 
1406	 0.507105041362235 
1407	 0.507013218963843 
1408	 0.506888329616651 
1409	 0.506792481664359 
1410	 0.50671507174775 
1411	 0.506651780724456 
1412	 0.506586699064087 
1413	 0.506555304080424 
1414	 0.506572642267132 
1415	 0.506564966827278 
1416	 0.506564818271334 
1417	 0.50658714931609 
1418	 0.50657800818943 
1419	 0.506566305526271 
1420	 0.506579101617463 
1421	 0.506581626953308 
1422	 0.506582579511522 
1423	 0.506592934711179 
1424	 0.506600343212917 
1425	 0.506602989767875 
1426	 0.50661244319594 
1427	 0.506628819593881 
1428	 0.506644914718554 
1429	 0.506655850203986 
1430	 0.506670880758307 
1431	 0.506693681726166 
1432	 0.506711991578773 
1433	 0.506735155632245 
1434	 0.506751744762272 
1435	 0.506758708914924 
1436	 0.506772917776225 
1437	 0.506779478636803 
1438	 0.506799753143655 
1439	 0.506839439387298 
1440	 0.506867956849955 
1441	 0.506878184583953 
1442	 0.506895543237899 
1443	 0.506886831259424 
1444	 0.506875898501805 
1445	 0.506896012175818 
1446	 0.506910504418573 
1447	 0.50690537254924 
1448	 0.50689248150333 
1449	 0.506854936999994 
1450	 0.50680607525734 
1451	 0.506783543319294 
1452	 0.506781121256492 
1453	 0.50676201034898 
1454	 0.506749187439919 
1455	 0.506729506777441 
1456	 0.506689533132827 
1457	 0.506672832004528 
1458	 0.50667769893103 
1459	 0.506660201527245 
1460	 0.506636886707794 
1461	 0.506623189070822 
1462	 0.506594762951278 
1463	 0.50658183605461 
1464	 0.506584069592381 
1465	 0.506589034201786 
1466	 0.506594060397477 
1467	 0.506612107919998 
1468	 0.506645290915085 
1469	 0.506677998609944 
1470	 0.506710326329244 
1471	 0.506756380067267 
1472	 0.506813935856111 
1473	 0.506884250305383 
1474	 0.506976152639808 
1475	 0.50706948791919 
1476	 0.507163318024459 
1477	 0.507272312712915 
1478	 0.507390539178325 
1479	 0.507501255056106 
1480	 0.507614736930713 
1481	 0.507730036702786 
1482	 0.507866134196293 
1483	 0.508016793791378 
1484	 0.508164326107743 
1485	 0.5083362741596 
1486	 0.508481526402813 
1487	 0.508608630468438 
1488	 0.508744037046268 
1489	 0.508871286737687 
1490	 0.509010266384917 
1491	 0.509154746316582 
1492	 0.509296754298424 
1493	 0.509458032785003 
1494	 0.509589246374026 
1495	 0.509704811775409 
1496	 0.50982036345097 
1497	 0.50990232148435 
1498	 0.510011471423817 
1499	 0.510133897095734 
1500	 0.510261928802722 
1501	 0.51041952216639 
1502	 0.51055424808581 
1503	 0.510689571794592 
1504	 0.510805502049264 
1505	 0.510904221080996 
1506	 0.510977006383814 
1507	 0.51104968725961 
1508	 0.511124678029325 
1509	 0.511196850121214 
1510	 0.511285762640765 
1511	 0.511377099333197 
1512	 0.511461563901812 
1513	 0.511555665294286 
1514	 0.511647637191274 
1515	 0.511747566156431 
1516	 0.511857070378801 
1517	 0.511958129161516 
1518	 0.512062596689824 
1519	 0.512155725503392 
1520	 0.512243565479953 
1521	 0.512322446738989 
1522	 0.512389506321001 
1523	 0.512466479011156 
1524	 0.512537667450387 
1525	 0.512612346060943 
1526	 0.512679360294779 
1527	 0.512773842461297 
1528	 0.512887824960459 
1529	 0.512992925034326 
1530	 0.513133968518416 
1531	 0.513231791175056 
1532	 0.513295544729534 
1533	 0.51336496597643 
1534	 0.513413195340952 
1535	 0.513472419912373 
1536	 0.513531723819439 
1537	 0.513599898429745 
1538	 0.51366890501983 
1539	 0.513749725256182 
1540	 0.51386021332067 
1541	 0.513940726260978 
1542	 0.51399331833264 
1543	 0.514077448333748 
1544	 0.514147666495032 
1545	 0.514244270329792 
1546	 0.514383873816554 
1547	 0.514526120767101 
1548	 0.514638634725247 
1549	 0.514746245132978 
1550	 0.514857554989126 
1551	 0.514956628720064 
1552	 0.51502929245497 
1553	 0.515097739396697 
1554	 0.515120817282908 
1555	 0.515140845274996 
1556	 0.515208279525344 
1557	 0.515284515648539 
1558	 0.515383275652731 
1559	 0.515490513592582 
1560	 0.515587037410524 
1561	 0.515691604714939 
1562	 0.515763063018123 
1563	 0.515828065819687 
1564	 0.515860185440651 
1565	 0.515839499368738 
1566	 0.515877904646553 
1567	 0.51591954952322 
1568	 0.515966518299067 
1569	 0.516040574955838 
1570	 0.516114821630727 
1571	 0.516189472858537 
1572	 0.516260509643119 
1573	 0.516351663045105 
1574	 0.516424827413287 
1575	 0.516470487252922 
1576	 0.516534339634407 
1577	 0.516605647343662 
1578	 0.51668132638686 
1579	 0.516769068260367 
1580	 0.51683774242354 
1581	 0.516914930938916 
1582	 0.516969943513616 
1583	 0.516992597809526 
1584	 0.517032044134951 
1585	 0.517058323004904 
1586	 0.517105438598182 
1587	 0.517165522599617 
1588	 0.51722962485247 
1589	 0.517316602741119 
1590	 0.51738678322244 
1591	 0.517456754675943 
1592	 0.51751807457687 
1593	 0.517575038862231 
1594	 0.517617521162391 
1595	 0.517635884488045 
1596	 0.517674043043583 
1597	 0.517714151432252 
1598	 0.517748511440668 
1599	 0.517796036998366 
1600	 0.517833935254604 
1601	 0.517850681077964 
1602	 0.517882547824587 
1603	 0.517928846098122 
1604	 0.517962198636789 
1605	 0.517974899117602 
1606	 0.518020420397382 
1607	 0.518090349464885 
1608	 0.518143995879515 
1609	 0.518209489629877 
1610	 0.518260338165078 
1611	 0.518260771741431 
1612	 0.518295631083611 
1613	 0.518358043353537 
1614	 0.518398561113505 
1615	 0.518452461421027 
1616	 0.518497696840939 
1617	 0.518538348897298 
1618	 0.518601601042987 
1619	 0.518650349765392 
1620	 0.518691124141798 
1621	 0.518731739107097 
1622	 0.518758810861399 
1623	 0.518797872388285 
1624	 0.51884055512443 
1625	 0.518893995881565 
1626	 0.518954140280016 
1627	 0.519009541137003 
1628	 0.519078091230582 
1629	 0.519122569457676 
1630	 0.519150533073548 
1631	 0.519188040281877 
1632	 0.519221018643919 
1633	 0.519255928906568 
1634	 0.51929392777678 
1635	 0.51933182519456 
1636	 0.519363300274433 
1637	 0.519406301947128 
1638	 0.519456189219608 
1639	 0.519506129936777 
1640	 0.519569581845572 
1641	 0.519609682879269 
1642	 0.519640600981778 
1643	 0.519672970414472 
1644	 0.5196808470116 
1645	 0.519722704988662 
1646	 0.519786751671748 
1647	 0.519838864924853 
1648	 0.519899612340906 
1649	 0.519958852856494 
1650	 0.52001525026163 
1651	 0.520067067107228 
1652	 0.520126571202097 
1653	 0.520172900581435 
1654	 0.520206546539844 
1655	 0.520239179996894 
1656	 0.520275074059919 
1657	 0.520290635477043 
1658	 0.52027885141721 
1659	 0.520296155948364 
1660	 0.520302176289089 
1661	 0.52034200215758 
1662	 0.520433738787815 
1663	 0.520475535414079 
1664	 0.520506513443232 
1665	 0.520540976131201 
1666	 0.520548641359183 
1667	 0.52057520833169 
1668	 0.520620903707275 
1669	 0.520656763266105 
1670	 0.520681437522225 
1671	 0.520721135924086 
1672	 0.520773941753013 
1673	 0.520816775712016 
1674	 0.520871698200594 
1675	 0.520900045902779 
1676	 0.52089592424806 
1677	 0.520926362380652 
1678	 0.520961140501562 
1679	 0.520995411653228 
1680	 0.521058884802929 
1681	 0.521095045611781 
1682	 0.521109935256579 
1683	 0.521127873387923 
1684	 0.521131956753524 
1685	 0.52115757690126 
1686	 0.52119354404369 
1687	 0.521221785318442 
1688	 0.521239651064461 
1689	 0.521302180665894 
1690	 0.521383253993469 
1691	 0.521458444427861 
1692	 0.521588787700249 
1693	 0.521660467812393 
1694	 0.521693990593301 
1695	 0.521728453769968 
1696	 0.521747465186454 
1697	 0.521761136725385 
1698	 0.521761048128461 
1699	 0.521759681444961 
1700	 0.521728250503719 
1701	 0.521750523659224 
1702	 0.521800585400243 
1703	 0.521837282104936 
1704	 0.521906222627985 
1705	 0.521955948333275 
1706	 0.5219717544604 
1707	 0.522028212425234 
1708	 0.522131838802196 
1709	 0.522172659055916 
1710	 0.522199172018862 
1711	 0.522218226295206 
1712	 0.522189287812851 
1713	 0.522196294375865 
1714	 0.522226477227181 
1715	 0.522236386945057 
1716	 0.522242805573847 
1717	 0.522246690757768 
1718	 0.522237438291008 
1719	 0.522246832411504 
1720	 0.522262857719181 
1721	 0.5222752595249 
1722	 0.522297703235456 
1723	 0.522309766254189 
1724	 0.522325833441305 
1725	 0.522319490186239 
1726	 0.522308479043407 
1727	 0.522274295524433 
1728	 0.522193437976566 
1729	 0.5221665942052 
1730	 0.522153082438486 
1731	 0.52213173394144 
1732	 0.522134283989515 
1733	 0.522124052641735 
1734	 0.522111206439884 
1735	 0.522071334043753 
1736	 0.522039597623259 
1737	 0.52196804030577 
1738	 0.521828806891948 
1739	 0.521748628907243 
1740	 0.521684583619931 
1741	 0.521619768320709 
1742	 0.521564104600285 
1743	 0.521526203432825 
1744	 0.521498524347206 
1745	 0.521450741667976 
1746	 0.521418020783033 
1747	 0.521375281188252 
1748	 0.521328037374344 
1749	 0.521321177740239 
1750	 0.521304610409022 
1751	 0.52127609561818 
1752	 0.521232182980889 
1753	 0.521179181367251 
1754	 0.521141692534962 
1755	 0.521121063241908 
1756	 0.521109719303175 
1757	 0.521092281892286 
1758	 0.521099712285932 
1759	 0.521108473219606 
1760	 0.521089787868556 
1761	 0.521054779053606 
1762	 0.520984277340235 
1763	 0.520888603288854 
1764	 0.520798426517701 
1765	 0.52073289739184 
1766	 0.520658770788582 
1767	 0.520577330985006 
1768	 0.520552868459489 
1769	 0.520565931851562 
1770	 0.520576592484494 
1771	 0.520571364889345 
1772	 0.520536066250528 
1773	 0.520489910595091 
1774	 0.520442898487452 
1775	 0.520431628845904 
1776	 0.520423305207869 
1777	 0.520351644837668 
1778	 0.520312123208253 
1779	 0.520299693544972 
1780	 0.520279318017967 
1781	 0.520331343779376 
1782	 0.520397052761476 
1783	 0.520437220896135 
1784	 0.520437573588979 
1785	 0.520369440916807 
1786	 0.520318497035549 
1787	 0.520256301649693 
1788	 0.520217672343276 
1789	 0.520185287142652 
1790	 0.520179219984336 
1791	 0.520189494900357 
1792	 0.520192165441983 
1793	 0.520210123196821 
1794	 0.520229133751034 
1795	 0.520249017897489 
1796	 0.520281309947679 
1797	 0.520354933079957 
1798	 0.520360665832939 
1799	 0.520312683250906 
1800	 0.52030518960637 
1801	 0.534392525557237 
1802	 0.534468854241151 
1803	 0.534528798732925 
1804	 0.534536699031823 
1805	 0.534584110531326 
1806	 0.534597841443115 
1807	 0.53456907875443 
1808	 0.534560160163064 
1809	 0.534567656480474 
1810	 0.534564460027325 
1811	 0.534542882075569 
1812	 0.534538566769295 
1813	 0.53452588786557 
1814	 0.534542111741755 
1815	 0.534580054054528 
1816	 0.534584587950661 
1817	 0.534602936970944 
1818	 0.534650416884345 
1819	 0.534677075574751 
1820	 0.534678789238025 
1821	 0.534711155305233 
1822	 0.534745437327384 
1823	 0.534740510021093 
1824	 0.534719275035456 
1825	 0.53469288356638 
1826	 0.534637302889665 
1827	 0.534571616117228 
1828	 0.534522796815878 
1829	 0.534481273672789 
1830	 0.534419270464207 
1831	 0.534348822845228 
1832	 0.534299358722509 
1833	 0.534249377241152 
1834	 0.534177393745214 
1835	 0.534120157799403 
1836	 0.534060614410656 
1837	 0.533971177460961 
1838	 0.533905902593496 
1839	 0.53384552967096 
1840	 0.533795790793107 
1841	 0.533748213802545 
1842	 0.533712842604279 
1843	 0.533661466305353 
1844	 0.533628129406324 
1845	 0.533622440698316 
1846	 0.533646114734582 
1847	 0.533667028282788 
1848	 0.533699423091812 
1849	 0.533752243267432 
1850	 0.533753193739756 
1851	 0.533715104326201 
1852	 0.533686712789507 
1853	 0.533637343278593 
1854	 0.533541743001739 
1855	 0.533501942804505 
1856	 0.533439823380887 
1857	 0.533362287699645 
1858	 0.533325390258597 
1859	 0.533257356478566 
1860	 0.533180111642423 
1861	 0.533102108165347 
1862	 0.533030934796578 
1863	 0.532910722443207 
1864	 0.532774633630373 
1865	 0.532670526807985 
1866	 0.532601430830622 
1867	 0.532565571852486 
1868	 0.532555548356175 
1869	 0.532519971367318 
1870	 0.532447641087776 
1871	 0.532335647802587 
1872	 0.532188579005257 
1873	 0.532003754362392 
1874	 0.531757197282033 
1875	 0.53143071365467 
1876	 0.531122195643482 
1877	 0.530790876446291 
1878	 0.530432177589388 
1879	 0.530117973788479 
1880	 0.529769432400492 
1881	 0.529391532039309 
1882	 0.529002642628604 
1883	 0.528618617768063 
1884	 0.528181696130056 
1885	 0.52773320078124 
1886	 0.527214156379593 
1887	 0.526637629724213 
1888	 0.5260196608734 
1889	 0.525337020423679 
1890	 0.524602267232527 
1891	 0.523872823486728 
1892	 0.523102581044503 
1893	 0.522353422856943 
1894	 0.521600567985241 
1895	 0.520852253321585 
1896	 0.520095781630181 
1897	 0.519391492531634 
1898	 0.518669098447124 
1899	 0.517945742380228 
1900	 0.517276962910434 
1901	 0.516605925180283 
1902	 0.51595787760912 
1903	 0.5153722482611 
1904	 0.514753464241075 
1905	 0.514126227433443 
1906	 0.513499920442256 
1907	 0.512897691364854 
1908	 0.512283655283742 
1909	 0.511700896188161 
1910	 0.511169888963655 
1911	 0.510655558256032 
1912	 0.510176380099203 
1913	 0.509729116600703 
1914	 0.509322532465474 
1915	 0.508933487216854 
1916	 0.508563893336555 
1917	 0.508236830432375 
1918	 0.507938911940434 
1919	 0.507654267099685 
1920	 0.507377732656336 
1921	 0.507086214794089 
1922	 0.506794266387717 
1923	 0.50652233212443 
1924	 0.506290343446178 
1925	 0.50608273008426 
1926	 0.505908455472055 
1927	 0.505769563964443 
1928	 0.505657192287121 
1929	 0.505574628725851 
1930	 0.50554302784647 
1931	 0.505520935076876 
1932	 0.505508218678466 
1933	 0.505516273405749 
1934	 0.505513852930728 
1935	 0.505544397570465 
1936	 0.505596536925122 
1937	 0.505675705351355 
1938	 0.505784655472918 
1939	 0.505903849488573 
1940	 0.506051010125913 
1941	 0.506204579269281 
1942	 0.506358203338099 
1943	 0.506507426186624 
1944	 0.506673579345636 
1945	 0.506860135271564 
1946	 0.50703912799148 
1947	 0.507213020194229 
1948	 0.507411632258265 
1949	 0.507618029009736 
1950	 0.507833866529968 
1951	 0.508058591729495 
1952	 0.508327115362533 
1953	 0.508587166250586 
1954	 0.508814435797932 
1955	 0.509041787892462 
1956	 0.50925938531882 
1957	 0.509485691462964 
1958	 0.509690113621269 
1959	 0.509928539653425 
1960	 0.510192376192557 
1961	 0.510451562702487 
1962	 0.510717380969189 
1963	 0.51099629089326 
1964	 0.511290652453234 
1965	 0.511580387880608 
1966	 0.511865079183172 
1967	 0.512145644254444 
1968	 0.512424316975346 
1969	 0.512691889920595 
1970	 0.512953668393519 
1971	 0.513203054437304 
1972	 0.513477223245327 
1973	 0.513754448242072 
1974	 0.514037024588101 
1975	 0.514333484514079 
1976	 0.514639168728953 
1977	 0.514970113349906 
1978	 0.515262110026344 
1979	 0.515567174989147 
1980	 0.515914478805345 
1981	 0.516224701679211 
1982	 0.516497941064044 
1983	 0.516805880545524 
1984	 0.517116880716834 
1985	 0.517437773443068 
1986	 0.517781614227731 
1987	 0.518119898705508 
1988	 0.518478124037644 
1989	 0.518806316453448 
1990	 0.519123920311777 
1991	 0.519450384032536 
1992	 0.519761489518577 
1993	 0.520044559436605 
1994	 0.520363195706604 
1995	 0.520682080955731 
1996	 0.521018863083418 
1997	 0.521375632261627 
1998	 0.5217435752777 
1999	 0.522125719878799 
2000	 0.52251400670167 
2001	 0.522929907716568 
2002	 0.523330487596308 
2003	 0.523728484214241 
2004	 0.524129099943365 
2005	 0.524503056086246 
2006	 0.524866443480328 
2007	 0.52520775081535 
2008	 0.525525835982743 
2009	 0.525837561567736 
2010	 0.526106668806893 
2011	 0.526413325744648 
2012	 0.526725491089646 
2013	 0.527042218103552 
2014	 0.527358384810212 
2015	 0.527727437833024 
2016	 0.528073458785924 
2017	 0.528398415452352 
2018	 0.5287231729315 
2019	 0.529048999879925 
2020	 0.529351419621517 
2021	 0.529629116215847 
2022	 0.529926296195515 
2023	 0.530225832056294 
2024	 0.53051626003345 
2025	 0.530811324789306 
2026	 0.53109659425091 
2027	 0.53135315222114 
2028	 0.531626418652493 
2029	 0.531922908528005 
2030	 0.53223800429859 
2031	 0.532544027873499 
2032	 0.532871239584221 
2033	 0.533176101144561 
2034	 0.533453088926993 
2035	 0.53376279118464 
2036	 0.534109707475451 
2037	 0.534412374816013 
2038	 0.534728147434968 
2039	 0.535002567314249 
2040	 0.535252866276716 
2041	 0.535441465214781 
2042	 0.535632495577644 
2043	 0.535818569646276 
2044	 0.536006751998214 
2045	 0.536172383474838 
2046	 0.536370568459611 
2047	 0.536579183094338 
2048	 0.536799438566662 
2049	 0.537048657802967 
2050	 0.537278337451259 
2051	 0.537506031309879 
2052	 0.537738717989989 
2053	 0.537968854216414 
2054	 0.53819485295728 
2055	 0.538447567762306 
2056	 0.538654535803872 
2057	 0.538870899849796 
2058	 0.539064938756922 
2059	 0.539294019064017 
2060	 0.539533358855517 
2061	 0.53977714949861 
2062	 0.540068410285848 
2063	 0.540293966883857 
2064	 0.540470071657917 
2065	 0.54067794861552 
2066	 0.540866311429435 
2067	 0.54106534221141 
2068	 0.541279450984436 
2069	 0.541511887590634 
2070	 0.541732386693447 
2071	 0.541942738273247 
2072	 0.542155289823975 
2073	 0.542378075731449 
2074	 0.542592548727947 
2075	 0.54280234909073 
2076	 0.542997875355693 
2077	 0.543175620873053 
2078	 0.543376723271227 
2079	 0.543557997641473 
2080	 0.543774736988818 
2081	 0.544044004046006 
2082	 0.544285395513276 
2083	 0.54453635095876 
2084	 0.544782086485477 
2085	 0.544982905152176 
2086	 0.54514542703996 
2087	 0.545334369133778 
2088	 0.545497945868841 
2089	 0.545679152602364 
2090	 0.54587767092765 
2091	 0.546076590340432 
2092	 0.546282676639017 
2093	 0.546471833591702 
2094	 0.546666148867885 
2095	 0.546851013974721 
2096	 0.546991110215413 
2097	 0.547170528918635 
2098	 0.547371896308267 
2099	 0.547580729531481 
2100	 0.547790412267638 
2101	 0.548021412724361 
2102	 0.548234199097205 
2103	 0.54843614011949 
2104	 0.548650159452906 
2105	 0.548859963933034 
2106	 0.549087744179579 
2107	 0.549323480730365 
2108	 0.549568335437348 
2109	 0.549841407189622 
2110	 0.550093904648852 
2111	 0.550332224604698 
2112	 0.55058888480915 
2113	 0.550848643067911 
2114	 0.551105971132367 
2115	 0.551370438070127 
2116	 0.551665048603859 
2117	 0.551915192714813 
2118	 0.55214833409719 
2119	 0.552369837825398 
2120	 0.552545665454186 
2121	 0.552775678917972 
2122	 0.553019796066961 
2123	 0.553266871562503 
2124	 0.553563903172915 
2125	 0.553817747604487 
2126	 0.554046148261533 
2127	 0.554276768161532 
2128	 0.554510316105477 
2129	 0.554715195574969 
2130	 0.554916206972336 
2131	 0.555087495484428 
2132	 0.555237246471297 
2133	 0.555363475219116 
2134	 0.555453598159297 
2135	 0.555524538028606 
2136	 0.555555569508696 
2137	 0.555521268088829 
2138	 0.555513345123381 
2139	 0.555499553540553 
2140	 0.55545977508406 
2141	 0.555437812704158 
2142	 0.55535604678591 
2143	 0.555212011294713 
2144	 0.555073257845021 
2145	 0.554928684006704 
2146	 0.554737029564179 
2147	 0.554522693202469 
2148	 0.554270160834217 
2149	 0.554022772540331 
2150	 0.553720433400808 
2151	 0.553463686965141 
2152	 0.553256469553479 
2153	 0.552975149723368 
2154	 0.552668799897395 
2155	 0.552352366204082 
2156	 0.551989636914951 
2157	 0.551637199980102 
2158	 0.55129448382488 
2159	 0.550925979723307 
2160	 0.550533420260856 
2161	 0.550138910507624 
2162	 0.549727331651432 
2163	 0.549317079153402 
2164	 0.548901058114511 
2165	 0.54849009973653 
2166	 0.548061846114768 
2167	 0.547629974929908 
2168	 0.547184212248471 
2169	 0.54671005510478 
2170	 0.54626459441099 
2171	 0.545828025590885 
2172	 0.545381444661058 
2173	 0.544936625052109 
2174	 0.544502031308014 
2175	 0.544060659744127 
2176	 0.54362600211403 
2177	 0.543222279132367 
2178	 0.542788938721935 
2179	 0.54233191590508 
2180	 0.541885270806729 
2181	 0.541437827232599 
2182	 0.540981639429501 
2183	 0.540531956543292 
2184	 0.540058779311946 
2185	 0.539606336082883 
2186	 0.539120658703852 
2187	 0.538720742344378 
2188	 0.538377059746525 
2189	 0.538014409378006 
2190	 0.537696451553699 
2191	 0.537355934364848 
2192	 0.53699718516678 
2193	 0.536648162588292 
2194	 0.536320784545323 
2195	 0.535971071802954 
2196	 0.535584557920737 
2197	 0.535238946010023 
2198	 0.534892120283275 
2199	 0.534573626164815 
2200	 0.534296838605452 
2201	 0.534023209444655 
2202	 0.533765792161801 
2203	 0.533511125894683 
2204	 0.533276191895692 
2205	 0.533048156517725 
2206	 0.532849016939461 
2207	 0.532678748685854 
2208	 0.532509579278368 
2209	 0.532364452612726 
2210	 0.532210831347455 
2211	 0.532051982195851 
2212	 0.531912008116102 
2213	 0.531788177607214 
2214	 0.531661992067506 
2215	 0.531573614420821 
2216	 0.531433553602786 
2217	 0.531270327534541 
2218	 0.531096233265363 
2219	 0.530863268521541 
2220	 0.530667045338558 
2221	 0.530479740823066 
2222	 0.530304826550442 
2223	 0.530126809347538 
2224	 0.529980388230843 
2225	 0.529772898525515 
2226	 0.529546440103652 
2227	 0.529294063546791 
2228	 0.528998834423363 
2229	 0.528710050763576 
2230	 0.528410886300131 
2231	 0.528093367086438 
2232	 0.527758283296228 
2233	 0.527420068509971 
2234	 0.52706235247522 
2235	 0.526705609865399 
2236	 0.526319765902166 
2237	 0.525981641173504 
2238	 0.525637624995077 
2239	 0.525346880580282 
2240	 0.525127242523215 
2241	 0.524893218431157 
2242	 0.524687406357423 
2243	 0.524471382216218 
2244	 0.524274301434049 
2245	 0.524025043695555 
2246	 0.52378384936753 
2247	 0.523583678997155 
2248	 0.523448382149117 
2249	 0.523366217758509 
2250	 0.523269561518124 
2251	 0.523246230771547 
2252	 0.523154900687206 
2253	 0.522999708108678 
2254	 0.522912674908663 
2255	 0.522838383996593 
2256	 0.522786224824929 
2257	 0.522741086010542 
2258	 0.522764567603069 
2259	 0.522839198859111 
2260	 0.522916974711682 
2261	 0.523081430552503 
2262	 0.523190114123383 
2263	 0.523286709113451 
2264	 0.523357408127334 
2265	 0.523415930225566 
2266	 0.523441820737812 
2267	 0.523415761022299 
2268	 0.523406356578509 
2269	 0.523373557466029 
2270	 0.523349754111162 
2271	 0.523363455849768 
2272	 0.523376300203188 
2273	 0.523409278088778 
2274	 0.523506011288305 
2275	 0.523593479591706 
2276	 0.523694313139222 
2277	 0.523824743819429 
2278	 0.523984314984597 
2279	 0.524132279834474 
2280	 0.524330107559256 
2281	 0.524459267658644 
2282	 0.524531372970072 
2283	 0.524645376600573 
2284	 0.524742841811079 
2285	 0.524859490872505 
2286	 0.525002303109773 
2287	 0.525159677608781 
2288	 0.525295226146348 
2289	 0.525482962836591 
2290	 0.525724835202217 
2291	 0.525964209248122 
2292	 0.526224686693938 
2293	 0.52650848402757 
2294	 0.526817689427172 
2295	 0.527125110811189 
2296	 0.527450485458734 
2297	 0.527779178244063 
2298	 0.528136976454803 
2299	 0.528479147869518 
2300	 0.528798021108275 
2301	 0.529113069555564 
2302	 0.529344869067825 
2303	 0.529560818674098 
2304	 0.529814806363968 
2305	 0.530076038127204 
2306	 0.53038888416036 
2307	 0.530792077307657 
2308	 0.531097524567675 
2309	 0.531396294238 
2310	 0.531673236667378 
2311	 0.531871027279673 
2312	 0.532138149428863 
2313	 0.532449365564336 
2314	 0.532716569356437 
2315	 0.532995214432777 
2316	 0.533239032949771 
2317	 0.533426153179833 
2318	 0.533661462952191 
2319	 0.533884931091479 
2320	 0.534145302610641 
2321	 0.534427540023739 
2322	 0.534741629690055 
2323	 0.535098039791081 
2324	 0.53546781313626 
2325	 0.535877732690588 
2326	 0.536276555618816 
2327	 0.53669892644839 
2328	 0.537094597234557 
2329	 0.537464267729002 
2330	 0.53782371602144 
2331	 0.538163006937563 
2332	 0.538485862986731 
2333	 0.538768778218548 
2334	 0.539062932977903 
2335	 0.53934223940034 
2336	 0.539576619578165 
2337	 0.539834020137717 
2338	 0.540081890569828 
2339	 0.540216645217181 
2340	 0.540323766643098 
2341	 0.540490030351177 
2342	 0.540584115228648 
2343	 0.540733471436246 
2344	 0.54089303668942 
2345	 0.540994255617794 
2346	 0.541060024206959 
2347	 0.541086949788897 
2348	 0.54105359058164 
2349	 0.541065618371794 
2350	 0.541049656772804 
2351	 0.541022602571858 
2352	 0.541024370994359 
2353	 0.540999298346188 
2354	 0.540933405339158 
2355	 0.540878176895118 
2356	 0.540857399753238 
2357	 0.540750137453244 
2358	 0.540579332638837 
2359	 0.540431306847806 
2360	 0.540215720271441 
2361	 0.540070976315961 
2362	 0.539972864055667 
2363	 0.53985175000139 
2364	 0.539761480144927 
2365	 0.539653372061214 
2366	 0.539572397595356 
2367	 0.539443394216809 
2368	 0.539225514319132 
2369	 0.539067647895206 
2370	 0.538961884120784 
2371	 0.538737425077177 
2372	 0.538534573970086 
2373	 0.538349578277672 
2374	 0.538103817788764 
2375	 0.537819410435722 
2376	 0.537526355219323 
2377	 0.537351902373264 
2378	 0.537162571004796 
2379	 0.536932358882709 
2380	 0.536684805599859 
2381	 0.536418615843789 
2382	 0.536136989175567 
2383	 0.535817197034839 
2384	 0.535541576682663 
2385	 0.53526544438734 
2386	 0.534969466096321 
2387	 0.534647641477511 
2388	 0.534272563153173 
2389	 0.534009958553175 
2390	 0.533716151394714 
2391	 0.533379120649644 
2392	 0.533163299365958 
2393	 0.53285930375852 
2394	 0.532582376025157 
2395	 0.532314578084906 
2396	 0.531969542878811 
2397	 0.531625584038051 
2398	 0.531152464392667 
2399	 0.530690157626622 
2400	 0.530278568262859 
2401	 0.529873038024508 
2402	 0.529565251972794 
2403	 0.529265560082878 
2404	 0.528976156387744 
2405	 0.528590070560666 
2406	 0.52806176907887 
2407	 0.527647603135885 
2408	 0.527291963770413 
2409	 0.526994176279359 
2410	 0.526867548129605 
2411	 0.526727486388816 
2412	 0.526506606166339 
2413	 0.526271345367337 
2414	 0.525907131024733 
2415	 0.525497716611725 
2416	 0.525174213244412 
2417	 0.524806214074754 
2418	 0.524551540004877 
2419	 0.524511993252539 
2420	 0.524271476005666 
2421	 0.523997812223842 
2422	 0.5237064309582 
2423	 0.523262138893003 
2424	 0.522919170561114 
2425	 0.522611768069512 
2426	 0.522344991698751 
2427	 0.522111921669725 
2428	 0.52191297521186 
2429	 0.521830203080612 
2430	 0.521621723654589 
2431	 0.521319119072435 
2432	 0.521100609116297 
2433	 0.520839044308456 
2434	 0.520668194276861 
2435	 0.520677929658876 
2436	 0.520577669666639 
2437	 0.520422000887422 
2438	 0.520229010221264 
2439	 0.519961745051265 
2440	 0.519690213181015 
2441	 0.519443937569317 
2442	 0.519226607541598 
2443	 0.518955297015128 
2444	 0.518788877628871 
2445	 0.518684344505657 
2446	 0.518514722894849 
2447	 0.518440473648913 
2448	 0.518282845331383 
2449	 0.518028308651237 
2450	 0.517769226421484 
2451	 0.517411950142968 
2452	 0.517149242681584 
2453	 0.516930214234164 
2454	 0.51672943022238 
2455	 0.516658781865604 
2456	 0.516476992768983 
2457	 0.516231601390899 
2458	 0.516013311826796 
2459	 0.515749416855822 
2460	 0.515487886881297 
2461	 0.515148580090638 
2462	 0.515025276614059 
2463	 0.515024137633066 
2464	 0.514884938395469 
2465	 0.514936752206613 
2466	 0.51474103067245 
2467	 0.5142775779902 
2468	 0.514012634395671 
2469	 0.513759568109168 
2470	 0.513480228480001 
2471	 0.513243618091592 
2472	 0.51308809227003 
2473	 0.512868642110276 
2474	 0.512693662781746 
2475	 0.5124821546645 
2476	 0.512388199210534 
2477	 0.51230506984727 
2478	 0.511958455896668 
2479	 0.511730060991044 
2480	 0.511474129875044 
2481	 0.511150248056359 
2482	 0.511096293341993 
2483	 0.510945168829749 
2484	 0.510533381160331 
2485	 0.510133677596928 
2486	 0.509734638385472 
2487	 0.50936220065112 
2488	 0.509422567671628 
2489	 0.50955480285407 
2490	 0.509474614255652 
2491	 0.509623927411409 
2492	 0.509356555628371 
2493	 0.509039520426816 
2494	 0.509013734712058 
2495	 0.508686354231271 
2496	 0.50852411824551 
2497	 0.508227834683843 
2498	 0.507674336561757 
2499	 0.507449571275279 
2500	 0.507394309720011 
