Wavelength	MM900005.asd
350	 0.061861908104066 
351	 6.54725905026445E-02 
352	 6.00844331660895E-02 
353	 4.82321170022418E-02 
354	 4.58472216914095E-02 
355	 5.35389722883575E-02 
356	 5.96102918219286E-02 
357	 0.056618659330294 
358	 6.73065522740866E-02 
359	 6.62786338633409E-02 
360	 5.80216432131402E-02 
361	 6.37895408180911E-02 
362	 5.99895987010093E-02 
363	 5.67876231446494E-02 
364	 5.93260123268403E-02 
365	 5.85313729885189E-02 
366	 5.71490298413047E-02 
367	 5.66971920484746E-02 
368	 5.81813908370515E-02 
369	 6.21381462827401E-02 
370	 6.19514772651316E-02 
371	 6.00296809216176E-02 
372	 0.063935111825866 
373	 6.46416893663952E-02 
374	 6.25107328701831E-02 
375	 6.08295273759195E-02 
376	 6.61672707931291E-02 
377	 6.54704341391189E-02 
378	 6.32969354949469E-02 
379	 6.65001367178798E-02 
380	 6.80225284114964E-02 
381	 6.56396150873758E-02 
382	 6.31709850059389E-02 
383	 6.75680168241552E-02 
384	 6.59866249090903E-02 
385	 6.28043717608031E-02 
386	 6.30531533669962E-02 
387	 0.068831440873177 
388	 6.97842065830655E-02 
389	 6.76128379873944E-02 
390	 6.71084429876431E-02 
391	 6.62950611417068E-02 
392	 6.82631529233022E-02 
393	 7.18383079157032E-02 
394	 7.24373851415399E-02 
395	 7.12497246474344E-02 
396	 7.08896715127517E-02 
397	 7.24098063307744E-02 
398	 7.33477723479246E-02 
399	 7.27228834691408E-02 
400	 7.25047992569281E-02 
401	 7.47137962958722E-02 
402	 7.48764541054896E-02 
403	 7.47460782757413E-02 
404	 0.075227949709552 
405	 7.59518735788336E-02 
406	 7.62756904591862E-02 
407	 7.70250804892164E-02 
408	 7.82039853470626E-02 
409	 7.66620398502769E-02 
410	 7.69615538060906E-02 
411	 7.86530876611873E-02 
412	 7.92241647376227E-02 
413	 8.00804976860742E-02 
414	 8.03902257915589E-02 
415	 0.080205760978102 
416	 8.09143922244723E-02 
417	 8.09788100597693E-02 
418	 8.11424147513168E-02 
419	 8.20394840379806E-02 
420	 8.21016889285835E-02 
421	 8.16273993837564E-02 
422	 8.15664003343351E-02 
423	 8.29236235676766E-02 
424	 8.27593642990878E-02 
425	 8.23670295777854E-02 
426	 8.25750292723337E-02 
427	 8.23169212194908E-02 
428	 8.26117938539826E-02 
429	 8.29332920617765E-02 
430	 8.25890538107536E-02 
431	 8.26245967741932E-02 
432	 8.27135796029761E-02 
433	 8.26721505171127E-02 
434	 8.25266336672012E-02 
435	 8.24284556856918E-02 
436	 8.22603348182208E-02 
437	 8.19832930530764E-02 
438	 8.18856144691316E-02 
439	 8.19475019195916E-02 
440	 8.21844300353045E-02 
441	 8.25551179976523E-02 
442	 8.24526856930904E-02 
443	 8.25646124655112E-02 
444	 8.29917086333925E-02 
445	 8.27481935734153E-02 
446	 8.30815789937535E-02 
447	 8.36596161988959E-02 
448	 0.083872637636709 
449	 8.39678047429133E-02 
450	 8.43592800461967E-02 
451	 8.48299115339611E-02 
452	 8.46977617154272E-02 
453	 8.49622195187529E-02 
454	 8.51503135275245E-02 
455	 8.50432861950525E-02 
456	 8.57552133335966E-02 
457	 8.60358500469062E-02 
458	 8.59621620094512E-02 
459	 8.61546128888928E-02 
460	 8.63626679866713E-02 
461	 8.64663002454781E-02 
462	 8.65295278410785E-02 
463	 8.68608333578573E-02 
464	 0.087075833581401 
465	 0.087186155436817 
466	 8.72713455348779E-02 
467	 8.71807656795427E-02 
468	 8.71940388913715E-02 
469	 8.73601471674559E-02 
470	 8.75288303663639E-02 
471	 8.76499926252691E-02 
472	 8.76585480032754E-02 
473	 8.75866881941477E-02 
474	 8.76823828684075E-02 
475	 8.78226459393021E-02 
476	 8.79025396234214E-02 
477	 8.78588843427884E-02 
478	 0.087890026131108 
479	 8.79581683649101E-02 
480	 8.80596502073276E-02 
481	 0.08826647958696 
482	 8.86384913873175E-02 
483	 0.088894602520364 
484	 8.88214107524662E-02 
485	 8.88532326359609E-02 
486	 8.88653007855302E-02 
487	 8.88582319477118E-02 
488	 8.89352474316532E-02 
489	 8.89489674289603E-02 
490	 8.89291434149488E-02 
491	 8.89295143206239E-02 
492	 8.89822763194118E-02 
493	 8.90718881040588E-02 
494	 8.91125954231343E-02 
495	 8.90364810327481E-02 
496	 8.91689213353534E-02 
497	 8.93749809537463E-02 
498	 8.95262773467829E-02 
499	 8.95808038238804E-02 
500	 8.94060516872003E-02 
501	 8.92931798614078E-02 
502	 8.94945435800027E-02 
503	 0.089528172599998 
504	 8.95278272173434E-02 
505	 8.95592122790185E-02 
506	 8.96021353552652E-02 
507	 8.95329553814967E-02 
508	 8.95519538013407E-02 
509	 8.97307412177265E-02 
510	 8.96163312402532E-02 
511	 8.96030101657631E-02 
512	 8.96732471903877E-02 
513	 0.089616837647783 
514	 8.95897884364059E-02 
515	 8.97116002741429E-02 
516	 8.99550277488526E-02 
517	 9.00784824305208E-02 
518	 8.99211998603779E-02 
519	 8.97921830942483E-02 
520	 9.00151250761435E-02 
521	 9.01033714466422E-02 
522	 9.00778705061154E-02 
523	 9.00283787282274E-02 
524	 9.00807966034769E-02 
525	 9.01279036545581E-02 
526	 9.01108380145541E-02 
527	 9.00501939480888E-02 
528	 0.090191613587565 
529	 9.02445760794414E-02 
530	 9.02085306488034E-02 
531	 9.02657190899736E-02 
532	 9.03207504132214E-02 
533	 9.03576747268208E-02 
534	 9.03964167191768E-02 
535	 0.090518526954747 
536	 9.06035580465648E-02 
537	 9.06552162395463E-02 
538	 0.090718152297372 
539	 9.07411754288235E-02 
540	 9.08049875074287E-02 
541	 9.09163811600095E-02 
542	 9.09748668189046E-02 
543	 9.09455011882149E-02 
544	 9.09834058066839E-02 
545	 9.11955040197172E-02 
546	 9.12772229064016E-02 
547	 9.13855900237801E-02 
548	 9.15411286278673E-02 
549	 9.16410260024143E-02 
550	 9.16882799202646E-02 
551	 9.17655014133562E-02 
552	 9.19157190490701E-02 
553	 9.20481488650486E-02 
554	 9.21417188774225E-02 
555	 9.22416170746586E-02 
556	 9.24185745682221E-02 
557	 9.26099308270881E-02 
558	 0.092759894090984 
559	 9.28998919897812E-02 
560	 9.32214186320073E-02 
561	 9.34509340179815E-02 
562	 0.093699949817066 
563	 9.41524994953194E-02 
564	 9.46189937941779E-02 
565	 9.50430817718274E-02 
566	 9.54270474921693E-02 
567	 9.58283854849138E-02 
568	 9.62143577166539E-02 
569	 9.65155828191692E-02 
570	 9.67149367679522E-02 
571	 9.69829852226715E-02 
572	 9.73001632450502E-02 
573	 9.77243441166494E-02 
574	 9.83364434091405E-02 
575	 9.88118976123333E-02 
576	 9.92420594854019E-02 
577	 9.97450322920309E-02 
578	 0.100342412736918 
579	 0.101028984126703 
580	 0.101787990601957 
581	 0.102595063883385 
582	 0.103429514165999 
583	 0.1042696570522 
584	 0.105096825561789 
585	 0.105895487585633 
586	 0.106780352287743 
587	 0.107717048380896 
588	 0.108636826834212 
589	 0.109553240178314 
590	 0.110406429661078 
591	 0.11120009504243 
592	 0.111996489943469 
593	 0.112710352438253 
594	 0.113410214809963 
595	 0.114170688216331 
596	 0.115006717392731 
597	 0.115888129912589 
598	 0.116825774431778 
599	 0.117844289957595 
600	 0.118845974180391 
601	 0.119798798682396 
602	 0.120692510408154 
603	 0.121536266240175 
604	 0.122406727884951 
605	 0.123306576994824 
606	 0.124196372984532 
607	 0.124993839929423 
608	 0.125746214959458 
609	 0.126473403070433 
610	 0.127157216789989 
611	 0.127832396821737 
612	 0.128543930373152 
613	 0.129281270363257 
614	 0.129860361554627 
615	 0.130388448686358 
616	 0.1309328991732 
617	 0.131517532567469 
618	 0.132043106024316 
619	 0.132504343587721 
620	 0.132917723867056 
621	 0.133298576167928 
622	 0.133740466133991 
623	 0.134183710016325 
624	 0.134530501383052 
625	 0.134904689874043 
626	 0.135289544208286 
627	 0.135666673389467 
628	 0.136030180651218 
629	 0.136411266227139 
630	 0.136750494867114 
631	 0.137007962679943 
632	 0.13731275281021 
633	 0.137605087154627 
634	 0.137892194276205 
635	 0.138232669595795 
636	 0.138550112239433 
637	 0.138831316467251 
638	 0.139096927866673 
639	 0.139428406318652 
640	 0.139713432059697 
641	 0.139975671979899 
642	 0.140288616757679 
643	 0.140581828207027 
644	 0.140856542343081 
645	 0.141116620095092 
646	 0.14135764918626 
647	 0.141635364081066 
648	 0.141941042182017 
649	 0.142257115766292 
650	 0.142632604313974 
651	 0.142959474747526 
652	 0.143246799798797 
653	 0.143603942292472 
654	 0.143973369320273 
655	 0.144294942807186 
656	 0.14457367380909 
657	 0.144979697040386 
658	 0.145394004913383 
659	 0.145782957104003 
660	 0.146154993624594 
661	 0.146526186760109 
662	 0.14689766564796 
663	 0.147283127406085 
664	 0.147718699981591 
665	 0.148104034420524 
666	 0.148499585331274 
667	 0.148974220799582 
668	 0.149421018970927 
669	 0.149903253881687 
670	 0.150411233634951 
671	 0.150878666498463 
672	 0.151415326945095 
673	 0.151954564577644 
674	 0.152446264581328 
675	 0.15295190529328 
676	 0.153453437904001 
677	 0.153969895156851 
678	 0.154527075631007 
679	 0.155078930126447 
680	 0.155671017063109 
681	 0.156311741210236 
682	 0.156953286034878 
683	 0.157516685803988 
684	 0.158077228346402 
685	 0.158713183257188 
686	 0.159345570193925 
687	 0.160049301664192 
688	 0.160787204532788 
689	 0.161447808715215 
690	 0.162079397743016 
691	 0.16272656610651 
692	 0.163419393311799 
693	 0.164168572586492 
694	 0.164865260809042 
695	 0.165543400301505 
696	 0.166279865577422 
697	 0.167057369364424 
698	 0.167816056898674 
699	 0.168562028828108 
700	 0.169370103501553 
701	 0.170143665737606 
702	 0.170886685599555 
703	 0.171629694386844 
704	 0.172411269512665 
705	 0.17321894975349 
706	 0.17403700777858 
707	 0.174842392245515 
708	 0.175576278726929 
709	 0.176320352711066 
710	 0.177107466819013 
711	 0.177878445836367 
712	 0.178708304222371 
713	 0.179512327908975 
714	 0.180225296333207 
715	 0.181023450874912 
716	 0.181790439895962 
717	 0.182510887106043 
718	 0.183243443511739 
719	 0.183947701922516 
720	 0.184662219520922 
721	 0.185395006130879 
722	 0.186082765566258 
723	 0.186691374157306 
724	 0.187265241427415 
725	 0.187872759164285 
726	 0.188538661984812 
727	 0.189119616339055 
728	 0.189610645455432 
729	 0.190136863209677 
730	 0.190637477830706 
731	 0.191112625180287 
732	 0.191561438907071 
733	 0.191954321176171 
734	 0.192333281195749 
735	 0.192676554576265 
736	 0.19295267891013 
737	 0.19324781110177 
738	 0.193485474964393 
739	 0.193666526628848 
740	 0.193885153963551 
741	 0.194104487962632 
742	 0.194215238746391 
743	 0.194192492530651 
744	 0.194285808932551 
745	 0.194279439105938 
746	 0.194212036502091 
747	 0.194216259807616 
748	 0.194168700925402 
749	 0.194062858834438 
750	 0.193911426110786 
751	 0.19373751397089 
752	 0.193560316818186 
753	 0.193351357770775 
754	 0.193085400498009 
755	 0.192773348150516 
756	 0.192502663347895 
757	 0.192231245560572 
758	 0.191866481996581 
759	 0.191493587281649 
760	 0.191096373479136 
761	 0.190678624969186 
762	 0.190279724891671 
763	 0.189854495421672 
764	 0.189409493392498 
765	 0.188953184220704 
766	 0.188460837122971 
767	 0.187936281265585 
768	 0.187429718848281 
769	 0.186987002313154 
770	 0.186456368565557 
771	 0.185913879193717 
772	 0.185387157422685 
773	 0.184822846946426 
774	 0.184264808750519 
775	 0.183709189197676 
776	 0.183143852278684 
777	 0.182561674832882 
778	 0.181989530538695 
779	 0.181436219562552 
780	 0.180892030914495 
781	 0.180301857350182 
782	 0.179702866291813 
783	 0.179115452956457 
784	 0.178537146479635 
785	 0.178017297315351 
786	 0.177473815787377 
787	 0.176868049233217 
788	 0.176323234490909 
789	 0.175778622503032 
790	 0.175220860732036 
791	 0.174655396220841 
792	 0.174099836119285 
793	 0.173562110770354 
794	 0.173055812982047 
795	 0.172588573148433 
796	 0.172007560445652 
797	 0.17145983973049 
798	 0.17101124860795 
799	 0.170494885315692 
800	 0.169962956079101 
801	 0.169452001052025 
802	 0.168979712516235 
803	 0.168500576500153 
804	 0.168037790721812 
805	 0.167581510287594 
806	 0.167111229246012 
807	 0.16670934502473 
808	 0.166280224692727 
809	 0.165798533150623 
810	 0.165352194703654 
811	 0.164941878017146 
812	 0.164529961752398 
813	 0.164100600966737 
814	 0.163724134983424 
815	 0.163373092335457 
816	 0.163011518449829 
817	 0.162618696832496 
818	 0.162276082759675 
819	 0.161940169173117 
820	 0.161608017424039 
821	 0.161310181257593 
822	 0.160976874707796 
823	 0.160615600955419 
824	 0.16026092504866 
825	 0.159968628417516 
826	 0.159679269749091 
827	 0.159379243454747 
828	 0.159085446289608 
829	 0.158873147586618 
830	 0.158608561021558 
831	 0.158316537489645 
832	 0.158086056052427 
833	 0.157873506872824 
834	 0.157597543836411 
835	 0.157313579706752 
836	 0.157183845378844 
837	 0.156996527966342 
838	 0.156786695390484 
839	 0.156599344759828 
840	 0.156425259106099 
841	 0.156233482306205 
842	 0.156058728322534 
843	 0.155922209351787 
844	 0.155744057351906 
845	 0.155574017172689 
846	 0.155430429990665 
847	 0.155316297990148 
848	 0.155243619517012 
849	 0.155144079642828 
850	 0.155016437205492 
851	 0.154916342846501 
852	 0.154812371368639 
853	 0.154710691016933 
854	 0.15464495050406 
855	 0.154676841888812 
856	 0.154661516987452 
857	 0.154585991404274 
858	 0.154494512444445 
859	 0.154488593976483 
860	 0.154447633141232 
861	 0.154391683757433 
862	 0.154383800796741 
863	 0.154441639873675 
864	 0.154442858897853 
865	 0.154393654925099 
866	 0.154383656182376 
867	 0.154443027134582 
868	 0.154504789030843 
869	 0.154538126158701 
870	 0.154562517325349 
871	 0.154598547346258 
872	 0.154681867767272 
873	 0.154809679957528 
874	 0.154918606195554 
875	 0.15501656259051 
876	 0.155075694877017 
877	 0.155111865203283 
878	 0.155274332016903 
879	 0.155421073606276 
880	 0.155503917076405 
881	 0.155546516863123 
882	 0.155697375984181 
883	 0.155899575409748 
884	 0.156085433186812 
885	 0.156212937330918 
886	 0.156408649977123 
887	 0.156601544576778 
888	 0.156769315180642 
889	 0.156943408920043 
890	 0.157123415337942 
891	 0.157330310887574 
892	 0.157564886548485 
893	 0.157800435056049 
894	 0.158020231006821 
895	 0.158263833440501 
896	 0.158550203697532 
897	 0.158842874295624 
898	 0.15909045927917 
899	 0.159335459856159 
900	 0.159626369662098 
901	 0.159956908068543 
902	 0.160253382684778 
903	 0.160568580117535 
904	 0.16094947389085 
905	 0.161247158816439 
906	 0.161531761327734 
907	 0.161838132176105 
908	 0.162183156072079 
909	 0.162598527938939 
910	 0.162990858980922 
911	 0.163358060796421 
912	 0.163754141407156 
913	 0.164124605959419 
914	 0.164567244981819 
915	 0.165036399425643 
916	 0.165386268763927 
917	 0.165853579345747 
918	 0.166377544644661 
919	 0.166869066447988 
920	 0.167269062055701 
921	 0.167721223272496 
922	 0.168201326747063 
923	 0.16872207072831 
924	 0.169380296827253 
925	 0.169860996653485 
926	 0.170333746693249 
927	 0.170909712017559 
928	 0.171393038134306 
929	 0.171970479345468 
930	 0.172603643437511 
931	 0.173223377877028 
932	 0.173830704612629 
933	 0.17448596755454 
934	 0.175124539855758 
935	 0.175706133647935 
936	 0.176370504520988 
937	 0.17698059153448 
938	 0.177617849266806 
939	 0.178373383209343 
940	 0.179122241556279 
941	 0.179797955068469 
942	 0.180505445806468 
943	 0.181336135960967 
944	 0.182034383367127 
945	 0.182779945540384 
946	 0.183575799428388 
947	 0.184348446767039 
948	 0.185106930490156 
949	 0.185906777743178 
950	 0.186728268456823 
951	 0.187521519247858 
952	 0.188285883241963 
953	 0.18913004992077 
954	 0.190030320331767 
955	 0.190903910671689 
956	 0.191815716369495 
957	 0.192764346978079 
958	 0.193698924526678 
959	 0.194571629204966 
960	 0.195506953248701 
961	 0.196515701865254 
962	 0.197517815665651 
963	 0.1984193766749 
964	 0.199377894195914 
965	 0.200332685559077 
966	 0.201264515361557 
967	 0.202209178684592 
968	 0.203253901779207 
969	 0.204340062998411 
970	 0.205422295068054 
971	 0.206489247761341 
972	 0.207625424551232 
973	 0.208646558522083 
974	 0.20959375053552 
975	 0.210659707506451 
976	 0.21188401242542 
977	 0.213136925745045 
978	 0.214296192113134 
979	 0.215326718939701 
980	 0.216539121859355 
981	 0.2177905585155 
982	 0.218907886772832 
983	 0.219840739368043 
984	 0.221101244165875 
985	 0.222400956906107 
986	 0.223552829052789 
987	 0.224555915778705 
988	 0.225793573591333 
989	 0.226999539300461 
990	 0.228195612435556 
991	 0.229504687094742 
992	 0.230716777650309 
993	 0.231922236024824 
994	 0.233161624316238 
995	 0.234408088674101 
996	 0.235507370484886 
997	 0.236656310060886 
998	 0.237925221432717 
999	 0.239259710957427 
1000	 0.240420015922942 
1001	 0.248427411551678 
1002	 0.249669811194881 
1003	 0.250875820301225 
1004	 0.252094062308001 
1005	 0.253314643661097 
1006	 0.25455841176737 
1007	 0.255818159517436 
1008	 0.257073182178665 
1009	 0.258272625110058 
1010	 0.259429783459377 
1011	 0.260589302861451 
1012	 0.26176077669759 
1013	 0.262972139667502 
1014	 0.264182329274911 
1015	 0.265351649718712 
1016	 0.266495639991613 
1017	 0.267651045990601 
1018	 0.268788630005069 
1019	 0.269974759737265 
1020	 0.27114435553731 
1021	 0.272273700185491 
1022	 0.273425294165526 
1023	 0.274550457526124 
1024	 0.27568385450463 
1025	 0.276814468639281 
1026	 0.277871395336465 
1027	 0.278960154404733 
1028	 0.280017359781241 
1029	 0.281003269584457 
1030	 0.28202970293732 
1031	 0.283073452990018 
1032	 0.284100024283481 
1033	 0.285144721044208 
1034	 0.286251776858145 
1035	 0.287297215317918 
1036	 0.288250738838931 
1037	 0.289187653066721 
1038	 0.290099869611671 
1039	 0.291078285851406 
1040	 0.292112333785503 
1041	 0.293077102719825 
1042	 0.294030750468501 
1043	 0.294929943013109 
1044	 0.295860609395563 
1045	 0.296764060967094 
1046	 0.297756355390236 
1047	 0.298741955134389 
1048	 0.299747977363277 
1049	 0.300734183325447 
1050	 0.301675173086913 
1051	 0.302683027919453 
1052	 0.303707615524598 
1053	 0.304694795921177 
1054	 0.305703711545227 
1055	 0.306691268898586 
1056	 0.307659454398587 
1057	 0.30866746777042 
1058	 0.309751217164101 
1059	 0.31075350573405 
1060	 0.311724403319861 
1061	 0.312701186657072 
1062	 0.313675190014208 
1063	 0.314675471269387 
1064	 0.315693449122249 
1065	 0.316779414539715 
1066	 0.31784927997328 
1067	 0.318938564536833 
1068	 0.320060267196111 
1069	 0.321078812691467 
1070	 0.322146702305465 
1071	 0.323229083564576 
1072	 0.324274475596011 
1073	 0.325284184324155 
1074	 0.326361924925542 
1075	 0.327438053396846 
1076	 0.328493991859866 
1077	 0.329652454817 
1078	 0.330801387762722 
1079	 0.331855503973281 
1080	 0.332915785765 
1081	 0.333974130174491 
1082	 0.335015527574777 
1083	 0.336084281729773 
1084	 0.337214045173285 
1085	 0.338276551459423 
1086	 0.339270989843475 
1087	 0.340327652363859 
1088	 0.341403085507443 
1089	 0.342443048590675 
1090	 0.343515717861404 
1091	 0.344649734714426 
1092	 0.345693318620621 
1093	 0.346715379835932 
1094	 0.347798713742925 
1095	 0.348840707129414 
1096	 0.349883711996576 
1097	 0.350973459410343 
1098	 0.352033812641814 
1099	 0.353061922755445 
1100	 0.354111409889416 
1101	 0.355176353418619 
1102	 0.356233133676368 
1103	 0.357315950055279 
1104	 0.358326114236083 
1105	 0.359337772750687 
1106	 0.360374961169096 
1107	 0.361357610877665 
1108	 0.362396986866046 
1109	 0.363488103146981 
1110	 0.364545542696377 
1111	 0.365614599200447 
1112	 0.366707831565695 
1113	 0.367782849182202 
1114	 0.368843270116171 
1115	 0.369916611457452 
1116	 0.371002753161844 
1117	 0.372078908352331 
1118	 0.373165731816788 
1119	 0.37421336468985 
1120	 0.375286590017491 
1121	 0.376307814132405 
1122	 0.37732452449378 
1123	 0.378407297808492 
1124	 0.379481896054837 
1125	 0.38056976354853 
1126	 0.38165760504854 
1127	 0.382755977457942 
1128	 0.383848404910325 
1129	 0.384926301973542 
1130	 0.386027733810038 
1131	 0.387164512274816 
1132	 0.388264692027206 
1133	 0.389345527071915 
1134	 0.390448612589653 
1135	 0.391550284106135 
1136	 0.392622339484116 
1137	 0.393762715516635 
1138	 0.39488948690942 
1139	 0.395999767373173 
1140	 0.397104800441357 
1141	 0.398208420807484 
1142	 0.399292302938078 
1143	 0.400397037208155 
1144	 0.401510801430987 
1145	 0.40262426026386 
1146	 0.40374088357016 
1147	 0.404854172701143 
1148	 0.40597008944916 
1149	 0.407088540024073 
1150	 0.408221511435409 
1151	 0.409329390786275 
1152	 0.41043641905688 
1153	 0.41152531411148 
1154	 0.41262305525119 
1155	 0.413712556398633 
1156	 0.414805154479267 
1157	 0.415907431011267 
1158	 0.416999580610269 
1159	 0.418075617196077 
1160	 0.419168470577995 
1161	 0.420277576999885 
1162	 0.421370262938826 
1163	 0.42245602174401 
1164	 0.42355029630896 
1165	 0.42464286839556 
1166	 0.425743176939227 
1167	 0.426824471503694 
1168	 0.427919227574882 
1169	 0.42898334882628 
1170	 0.430014517426598 
1171	 0.431064050787315 
1172	 0.43213917891484 
1173	 0.433151241762479 
1174	 0.43411948236157 
1175	 0.435125083963381 
1176	 0.436104163588114 
1177	 0.437100246251946 
1178	 0.438140461353488 
1179	 0.439159319594614 
1180	 0.440166901241856 
1181	 0.441163996438994 
1182	 0.442151469587114 
1183	 0.443156894375651 
1184	 0.444133491991504 
1185	 0.445103880112966 
1186	 0.446036614874292 
1187	 0.4469311142614 
1188	 0.447857062676522 
1189	 0.448767236624956 
1190	 0.449683578447483 
1191	 0.450654616619064 
1192	 0.451553951450997 
1193	 0.452402383822404 
1194	 0.453260490760337 
1195	 0.454084563579963 
1196	 0.454922102204777 
1197	 0.455786579210143 
1198	 0.456615990161982 
1199	 0.457429445915295 
1200	 0.458230686964114 
1201	 0.459023593401877 
1202	 0.459803047258657 
1203	 0.460557389906752 
1204	 0.461292870756958 
1205	 0.462033399761103 
1206	 0.462750217788018 
1207	 0.463472126505681 
1208	 0.464212018911298 
1209	 0.46492882129952 
1210	 0.465632938452298 
1211	 0.466321950496319 
1212	 0.466998936335576 
1213	 0.467667404510082 
1214	 0.468304765128896 
1215	 0.468957667189493 
1216	 0.469613760231353 
1217	 0.470283487465428 
1218	 0.47091648731861 
1219	 0.471549210916345 
1220	 0.472157524754075 
1221	 0.472726594625845 
1222	 0.473313631192601 
1223	 0.473918303100722 
1224	 0.474481105333268 
1225	 0.475025246726235 
1226	 0.475560747701436 
1227	 0.476051902989227 
1228	 0.476568943202885 
1229	 0.47711268009067 
1230	 0.477626075618635 
1231	 0.478139190987708 
1232	 0.478634532181118 
1233	 0.479112437568297 
1234	 0.479556168656789 
1235	 0.480019696481391 
1236	 0.480482957993694 
1237	 0.480939043931018 
1238	 0.481395578024672 
1239	 0.481846775644677 
1240	 0.48230289113144 
1241	 0.482730799030056 
1242	 0.483143027348178 
1243	 0.483553504491704 
1244	 0.483936738411604 
1245	 0.484331595002101 
1246	 0.484733043368072 
1247	 0.485132770830001 
1248	 0.48553982150861 
1249	 0.48593384317405 
1250	 0.486322924381767 
1251	 0.486692042961127 
1252	 0.487055350395727 
1253	 0.487396880384301 
1254	 0.487747023687253 
1255	 0.488100478629752 
1256	 0.488437952547059 
1257	 0.488764231428718 
1258	 0.489094591256355 
1259	 0.489417556737846 
1260	 0.48973884008064 
1261	 0.49007750669205 
1262	 0.49038111472586 
1263	 0.490655953308724 
1264	 0.490940845041984 
1265	 0.491210322332249 
1266	 0.491480039416784 
1267	 0.491768737702758 
1268	 0.492024064901859 
1269	 0.49228711734851 
1270	 0.492540735268484 
1271	 0.492798689630461 
1272	 0.493057736594123 
1273	 0.493312813655275 
1274	 0.49357052323567 
1275	 0.493810410324981 
1276	 0.494021286946528 
1277	 0.494272304896301 
1278	 0.494522574300522 
1279	 0.494790557613261 
1280	 0.495104391250546 
1281	 0.49539542548792 
1282	 0.495678940173193 
1283	 0.495964840567507 
1284	 0.4962493960333 
1285	 0.496528097404741 
1286	 0.496821999795605 
1287	 0.49712495399557 
1288	 0.497444612777044 
1289	 0.497777471106285 
1290	 0.498128286145038 
1291	 0.498513253173243 
1292	 0.498861455251711 
1293	 0.499204476250993 
1294	 0.499556953029731 
1295	 0.499876617113271 
1296	 0.500242494042677 
1297	 0.50066544656022 
1298	 0.50104419561601 
1299	 0.501430236770119 
1300	 0.501791997314081 
1301	 0.502117697572939 
1302	 0.502446419128882 
1303	 0.502773261445438 
1304	 0.503080763406751 
1305	 0.503396750362757 
1306	 0.50370463509326 
1307	 0.503954505966887 
1308	 0.504207551075824 
1309	 0.50446709298028 
1310	 0.504699084502544 
1311	 0.504948508761507 
1312	 0.50524031726959 
1313	 0.505469986249989 
1314	 0.505656981434859 
1315	 0.505857682930462 
1316	 0.506047203763139 
1317	 0.506224072858337 
1318	 0.50640625005714 
1319	 0.50656616614177 
1320	 0.506682437188943 
1321	 0.50682654443007 
1322	 0.506988328858351 
1323	 0.507116497705931 
1324	 0.50726945068919 
1325	 0.507417211445592 
1326	 0.507512255264019 
1327	 0.507604554357469 
1328	 0.507682494542569 
1329	 0.507722654470702 
1330	 0.507772820604345 
1331	 0.507823939753903 
1332	 0.507856328637357 
1333	 0.507867884211038 
1334	 0.507899244025592 
1335	 0.507928643956875 
1336	 0.507954079405488 
1337	 0.507992723484727 
1338	 0.508016446867173 
1339	 0.508018967723517 
1340	 0.508035825663585 
1341	 0.508056246965788 
1342	 0.508075046867862 
1343	 0.508090589078823 
1344	 0.508123055222761 
1345	 0.508139376183131 
1346	 0.508162967305614 
1347	 0.508230295965978 
1348	 0.508272973011802 
1349	 0.508299131926119 
1350	 0.508340989365711 
1351	 0.508366714414534 
1352	 0.508354325299188 
1353	 0.508380347813988 
1354	 0.508423725320335 
1355	 0.508474822202216 
1356	 0.508536328757091 
1357	 0.508596867848644 
1358	 0.508685140764159 
1359	 0.508738193103237 
1360	 0.508770302242056 
1361	 0.508810058590384 
1362	 0.508846461192252 
1363	 0.508866249016938 
1364	 0.508881079192751 
1365	 0.508890326827314 
1366	 0.508883675128328 
1367	 0.508870773034798 
1368	 0.508865100288257 
1369	 0.508867780827389 
1370	 0.508862370697137 
1371	 0.508821346958606 
1372	 0.508757044354784 
1373	 0.508693098015992 
1374	 0.508634563687833 
1375	 0.508556045482395 
1376	 0.508516653366095 
1377	 0.508502196012211 
1378	 0.508478947372613 
1379	 0.508475209562459 
1380	 0.508455618520189 
1381	 0.50843474771795 
1382	 0.508400971745677 
1383	 0.508355012662544 
1384	 0.508313602576931 
1385	 0.508266704794114 
1386	 0.508215545718891 
1387	 0.508174640958573 
1388	 0.508114418670666 
1389	 0.508036313794779 
1390	 0.507958068363918 
1391	 0.507884327653561 
1392	 0.507785329054349 
1393	 0.50769162041278 
1394	 0.507575501743499 
1395	 0.507422019047224 
1396	 0.507287796824965 
1397	 0.5071537018096 
1398	 0.507011933389061 
1399	 0.50688164848903 
1400	 0.506756132292191 
1401	 0.506643229518167 
1402	 0.506535718870568 
1403	 0.506433828748091 
1404	 0.506367771958533 
1405	 0.506254844351043 
1406	 0.506108822418887 
1407	 0.505987197395425 
1408	 0.505835884551066 
1409	 0.505728100573321 
1410	 0.505644731524889 
1411	 0.505585421756271 
1412	 0.505551112710092 
1413	 0.505535203824337 
1414	 0.505526648662472 
1415	 0.505518712171069 
1416	 0.505519024863362 
1417	 0.50550767883707 
1418	 0.505494705445638 
1419	 0.50548649997384 
1420	 0.505461594516722 
1421	 0.50544315836593 
1422	 0.505452427810185 
1423	 0.505457551116721 
1424	 0.505465841293427 
1425	 0.505491471962294 
1426	 0.505501359433818 
1427	 0.505500433558177 
1428	 0.505504412908148 
1429	 0.505497008183835 
1430	 0.505512201779722 
1431	 0.50553795316567 
1432	 0.5055656645664 
1433	 0.505624187016858 
1434	 0.505645801421416 
1435	 0.505643976133378 
1436	 0.50565240423397 
1437	 0.505643473631918 
1438	 0.505649984966178 
1439	 0.505670069652244 
1440	 0.505690701237017 
1441	 0.505700978701343 
1442	 0.505692482415349 
1443	 0.505658274968882 
1444	 0.505639629196752 
1445	 0.505646040155492 
1446	 0.50565391272281 
1447	 0.50568317188894 
1448	 0.505697543623355 
1449	 0.505688076903578 
1450	 0.505686071790141 
1451	 0.505671743598411 
1452	 0.505649002407286 
1453	 0.505622569376085 
1454	 0.50558052444881 
1455	 0.505558265038715 
1456	 0.505536599897907 
1457	 0.505524808551333 
1458	 0.505535464511046 
1459	 0.505525432502264 
1460	 0.505508005446232 
1461	 0.505500026315744 
1462	 0.50548298234071 
1463	 0.505473179843059 
1464	 0.505469297691869 
1465	 0.505472370589934 
1466	 0.505477790745625 
1467	 0.505493816735697 
1468	 0.505513578507021 
1469	 0.50555077520783 
1470	 0.505595094739377 
1471	 0.505658567439418 
1472	 0.505735497532855 
1473	 0.505824164270986 
1474	 0.505938372052822 
1475	 0.50604595497619 
1476	 0.506153449428829 
1477	 0.506274552687898 
1478	 0.506389339993888 
1479	 0.506508737507424 
1480	 0.506641850706389 
1481	 0.506776413803009 
1482	 0.506917913100048 
1483	 0.507060828544864 
1484	 0.507216411922407 
1485	 0.507385048826222 
1486	 0.50755147049821 
1487	 0.50773088975093 
1488	 0.507887050372052 
1489	 0.508038490053277 
1490	 0.508187118298362 
1491	 0.508322071209276 
1492	 0.508456013815944 
1493	 0.508592253099548 
1494	 0.508718597807051 
1495	 0.5088274038503 
1496	 0.50894968469046 
1497	 0.509073224053749 
1498	 0.50919588682132 
1499	 0.509326989778665 
1500	 0.509452067766102 
1501	 0.509567287803815 
1502	 0.509694180649152 
1503	 0.509834988507836 
1504	 0.509961925545288 
1505	 0.5100662251614 
1506	 0.510165813834473 
1507	 0.510238781451444 
1508	 0.510301303497396 
1509	 0.510398506380789 
1510	 0.510505416955899 
1511	 0.510600968448425 
1512	 0.510712455516171 
1513	 0.51081919392655 
1514	 0.510907194316177 
1515	 0.511011028522074 
1516	 0.511120628223004 
1517	 0.511232595169573 
1518	 0.511356224360478 
1519	 0.51146146595087 
1520	 0.511567476664194 
1521	 0.511652554809385 
1522	 0.511713637906976 
1523	 0.511786276649484 
1524	 0.511846213848017 
1525	 0.511927361995883 
1526	 0.512007948401058 
1527	 0.512112055172485 
1528	 0.512246040573806 
1529	 0.512364446382818 
1530	 0.512508604006232 
1531	 0.512619085820314 
1532	 0.512695843094086 
1533	 0.512787044497763 
1534	 0.512867237506925 
1535	 0.512953822002765 
1536	 0.513058240104268 
1537	 0.513148712116758 
1538	 0.513224118606611 
1539	 0.513308687483054 
1540	 0.513396209940938 
1541	 0.513478337266314 
1542	 0.513556307936537 
1543	 0.513646352549701 
1544	 0.513726880190096 
1545	 0.513823153537959 
1546	 0.513939121199619 
1547	 0.514058062311319 
1548	 0.514176552683726 
1549	 0.514310560791404 
1550	 0.514428117289465 
1551	 0.514519815342604 
1552	 0.514607594659974 
1553	 0.514673764978617 
1554	 0.51471180793313 
1555	 0.514770969179613 
1556	 0.514846144385456 
1557	 0.514918594186936 
1558	 0.515013041900142 
1559	 0.515122152164033 
1560	 0.515221709878556 
1561	 0.515324881426965 
1562	 0.515398064252866 
1563	 0.515474750564582 
1564	 0.515509976548595 
1565	 0.515494839578346 
1566	 0.515509893188127 
1567	 0.515511278422426 
1568	 0.515528218200722 
1569	 0.515547206394652 
1570	 0.515596642098931 
1571	 0.515668821776581 
1572	 0.515731820801667 
1573	 0.515819667409339 
1574	 0.515891985720723 
1575	 0.515938282747996 
1576	 0.516008246296052 
1577	 0.516091717140495 
1578	 0.516179206051773 
1579	 0.516283521753931 
1580	 0.516373043860379 
1581	 0.51647314943126 
1582	 0.516544738419489 
1583	 0.51660112667005 
1584	 0.516645586907342 
1585	 0.516662634721729 
1586	 0.516689090481555 
1587	 0.516691421128265 
1588	 0.516726009556666 
1589	 0.516784237594755 
1590	 0.516835956412065 
1591	 0.516903305000444 
1592	 0.516966278428746 
1593	 0.517030912028182 
1594	 0.517082320576685 
1595	 0.51712737552276 
1596	 0.51717645096571 
1597	 0.517226224047516 
1598	 0.517256424698301 
1599	 0.517274806413105 
1600	 0.51730282297881 
1601	 0.517300138057183 
1602	 0.51733130640426 
1603	 0.517400080405421 
1604	 0.517455806331542 
1605	 0.517525887661253 
1606	 0.517584210224485 
1607	 0.517639456807583 
1608	 0.517680276587667 
1609	 0.517708068228056 
1610	 0.517751918488923 
1611	 0.517808700237244 
1612	 0.517863727630698 
1613	 0.517924950236139 
1614	 0.517975960302234 
1615	 0.517995758726122 
1616	 0.518035611659977 
1617	 0.518109327492861 
1618	 0.518163389430937 
1619	 0.518209424178652 
1620	 0.518262302193782 
1621	 0.518298055697778 
1622	 0.518304639403753 
1623	 0.518341060255157 
1624	 0.518384597508109 
1625	 0.518433498013477 
1626	 0.518495198429525 
1627	 0.518543965883242 
1628	 0.518598197247614 
1629	 0.518635067948353 
1630	 0.518658953374342 
1631	 0.518682871857662 
1632	 0.518690708353366 
1633	 0.518727078447658 
1634	 0.518771408739328 
1635	 0.518820116235276 
1636	 0.518884859609287 
1637	 0.518944358952787 
1638	 0.51900927974497 
1639	 0.519058939502771 
1640	 0.519107669337039 
1641	 0.519154082171098 
1642	 0.519190258381626 
1643	 0.519219999593478 
1644	 0.519239153891292 
1645	 0.519281759599594 
1646	 0.519322690545133 
1647	 0.519371756338948 
1648	 0.51944461173787 
1649	 0.519510024918587 
1650	 0.519570636647037 
1651	 0.519629897410554 
1652	 0.519708131429776 
1653	 0.519753531014208 
1654	 0.519771836236898 
1655	 0.519803097654922 
1656	 0.519826908729179 
1657	 0.51984953069164 
1658	 0.519866359109004 
1659	 0.519901727250884 
1660	 0.519941677701599 
1661	 0.519980268726004 
1662	 0.520044660412686 
1663	 0.520078221397474 
1664	 0.520083015371669 
1665	 0.520109611145701 
1666	 0.520133167806572 
1667	 0.520165577947549 
1668	 0.52021814860028 
1669	 0.520251131653518 
1670	 0.520262682360859 
1671	 0.520307942262487 
1672	 0.520378692343643 
1673	 0.520413085173027 
1674	 0.520453517445779 
1675	 0.520481115044984 
1676	 0.520448676946627 
1677	 0.520484318620606 
1678	 0.520578882645251 
1679	 0.520622832778581 
1680	 0.520682297171439 
1681	 0.520703985502731 
1682	 0.52065964048594 
1683	 0.520669582322607 
1684	 0.520693160869278 
1685	 0.520717359416228 
1686	 0.520774430939976 
1687	 0.520799241869796 
1688	 0.520779011935202 
1689	 0.520824135212364 
1690	 0.520901556112097 
1691	 0.520957844075107 
1692	 0.521045893970771 
1693	 0.521117540622724 
1694	 0.521161300638473 
1695	 0.52121431482356 
1696	 0.521305744698253 
1697	 0.521336418815476 
1698	 0.521318124714206 
1699	 0.521321437833146 
1700	 0.521271582657089 
1701	 0.521305518024903 
1702	 0.521401994839059 
1703	 0.521465878619724 
1704	 0.521567958161323 
1705	 0.52163666291469 
1706	 0.521660495211436 
1707	 0.521719931543775 
1708	 0.521808736076614 
1709	 0.521860500666564 
1710	 0.521911803845152 
1711	 0.52194322677761 
1712	 0.521939007162701 
1713	 0.52195120559721 
1714	 0.521958619560884 
1715	 0.521970418635655 
1716	 0.521983593114767 
1717	 0.521996802332613 
1718	 0.522015100120036 
1719	 0.522032698619206 
1720	 0.522049670356304 
1721	 0.522063691607021 
1722	 0.522080751095582 
1723	 0.522089236052604 
1724	 0.522105449925492 
1725	 0.522082586601614 
1726	 0.522033235168655 
1727	 0.521989552184625 
1728	 0.521919184819661 
1729	 0.521868412803479 
1730	 0.52182677368715 
1731	 0.52178169254674 
1732	 0.521731911333336 
1733	 0.521698802465794 
1734	 0.521689090677576 
1735	 0.521645827629356 
1736	 0.521594835468454 
1737	 0.521530791435565 
1738	 0.521439304417944 
1739	 0.521371171767826 
1740	 0.521298559695208 
1741	 0.521253867762617 
1742	 0.521220085658335 
1743	 0.521201989404081 
1744	 0.521224977745862 
1745	 0.521208829899443 
1746	 0.521186638573213 
1747	 0.521145843766289 
1748	 0.521085530139285 
1749	 0.521008009588723 
1750	 0.520935297697249 
1751	 0.520839630069978 
1752	 0.520767184523317 
1753	 0.520747960644826 
1754	 0.520729225650237 
1755	 0.520742167315919 
1756	 0.520762064312197 
1757	 0.520743412881919 
1758	 0.520733623108324 
1759	 0.520703797595522 
1760	 0.520647734738662 
1761	 0.520566381819712 
1762	 0.52049654914656 
1763	 0.520488024964852 
1764	 0.520442014566809 
1765	 0.520383810342445 
1766	 0.520334347893684 
1767	 0.520216308200546 
1768	 0.520138836989751 
1769	 0.520134592863803 
1770	 0.52012109455698 
1771	 0.520131461539766 
1772	 0.520115666633577 
1773	 0.520080119773221 
1774	 0.520052501300516 
1775	 0.519988656190503 
1776	 0.519971151546957 
1777	 0.519960349077222 
1778	 0.519940518276734 
1779	 0.519952702659587 
1780	 0.519942008338162 
1781	 0.519946222036059 
1782	 0.519961234508472 
1783	 0.519975243066375 
1784	 0.519965312023102 
1785	 0.519919590048747 
1786	 0.519894594644685 
1787	 0.519874208976167 
1788	 0.519844883540113 
1789	 0.519805761708857 
1790	 0.519788974641754 
1791	 0.519761129066842 
1792	 0.519777830738683 
1793	 0.519856929941032 
1794	 0.519878835820813 
1795	 0.519893908252039 
1796	 0.519903901145914 
1797	 0.51990375708966 
1798	 0.519878553517749 
1799	 0.519831081441459 
1800	 0.519785299997204 
1801	 0.533835066650066 
1802	 0.53385774502214 
1803	 0.533879775768977 
1804	 0.533885230193975 
1805	 0.533870223136353 
1806	 0.533882776879297 
1807	 0.533893700784717 
1808	 0.533884577548228 
1809	 0.533873414555859 
1810	 0.533864711664926 
1811	 0.533832725902395 
1812	 0.533817743729049 
1813	 0.533785213790554 
1814	 0.533803023020931 
1815	 0.533841473095257 
1816	 0.533803285674536 
1817	 0.533818684385675 
1818	 0.53388498202508 
1819	 0.533916795403114 
1820	 0.533935315650176 
1821	 0.533980463599187 
1822	 0.534000847978929 
1823	 0.533971537678047 
1824	 0.533916714924831 
1825	 0.533891272336672 
1826	 0.533859592421822 
1827	 0.533806805205262 
1828	 0.533756212481207 
1829	 0.533707078767081 
1830	 0.53364608446872 
1831	 0.533559811991116 
1832	 0.533504925052312 
1833	 0.533476211448159 
1834	 0.533427810213765 
1835	 0.533392261044263 
1836	 0.533326883321366 
1837	 0.533257680125642 
1838	 0.533202564651912 
1839	 0.533139880614901 
1840	 0.533078840502262 
1841	 0.533034008821365 
1842	 0.532932133583014 
1843	 0.532842983085501 
1844	 0.532796857778263 
1845	 0.532764482663301 
1846	 0.532820150428071 
1847	 0.532834189849515 
1848	 0.53280753664593 
1849	 0.532816965920412 
1850	 0.532811087195647 
1851	 0.532781794981337 
1852	 0.532789871962022 
1853	 0.53276484824651 
1854	 0.532710546305282 
1855	 0.532674046157901 
1856	 0.5325838583982 
1857	 0.53254244666602 
1858	 0.53251329518081 
1859	 0.532413268983047 
1860	 0.532323998814385 
1861	 0.532240306802759 
1862	 0.532133485192123 
1863	 0.532025471558216 
1864	 0.531924702664053 
1865	 0.531768179415638 
1866	 0.531632411350048 
1867	 0.531520529892809 
1868	 0.531433244384038 
1869	 0.531383673640141 
1870	 0.531324299202777 
1871	 0.531193733749864 
1872	 0.531017960064648 
1873	 0.530774444286979 
1874	 0.530494381639493 
1875	 0.530136798845143 
1876	 0.529770416254204 
1877	 0.529412506077675 
1878	 0.529013970007587 
1879	 0.528635452747992 
1880	 0.528225701661812 
1881	 0.527809741735888 
1882	 0.527333437098665 
1883	 0.526827602092313 
1884	 0.526282687812738 
1885	 0.525698103029451 
1886	 0.525040369696185 
1887	 0.524333444607903 
1888	 0.52354678020833 
1889	 0.52272032908755 
1890	 0.521891806439896 
1891	 0.521040557768305 
1892	 0.520151876270842 
1893	 0.519291382565975 
1894	 0.518422358860894 
1895	 0.517529834504846 
1896	 0.516689299555726 
1897	 0.515921345715743 
1898	 0.515129578589028 
1899	 0.51434088694813 
1900	 0.513585370122099 
1901	 0.512822873891104 
1902	 0.512085793221644 
1903	 0.511390925825834 
1904	 0.510694534859775 
1905	 0.510014787993436 
1906	 0.509321547793787 
1907	 0.508625691038897 
1908	 0.507985394951798 
1909	 0.507371420388419 
1910	 0.506793457713052 
1911	 0.506283902684344 
1912	 0.505800087322394 
1913	 0.50535051497337 
1914	 0.504950823928371 
1915	 0.504556545423776 
1916	 0.504180676481619 
1917	 0.50384070480587 
1918	 0.503525922700481 
1919	 0.503203209204702 
1920	 0.502921963371141 
1921	 0.502653503710413 
1922	 0.50238764301924 
1923	 0.502148976571927 
1924	 0.501931635307982 
1925	 0.501717917776641 
1926	 0.501559333386708 
1927	 0.501432024066773 
1928	 0.501343269303124 
1929	 0.501291924367561 
1930	 0.501289424899209 
1931	 0.501288168282724 
1932	 0.501284430777099 
1933	 0.501297165951345 
1934	 0.501310470296212 
1935	 0.50134546123587 
1936	 0.501385821192256 
1937	 0.501457419454213 
1938	 0.501560481198742 
1939	 0.501666709030409 
1940	 0.501776988115497 
1941	 0.501930512485586 
1942	 0.502096750286593 
1943	 0.502262075617884 
1944	 0.502468031504345 
1945	 0.502703561791013 
1946	 0.502925866975635 
1947	 0.503141615619855 
1948	 0.503383977287279 
1949	 0.503640433221486 
1950	 0.503897829524494 
1951	 0.504156508541402 
1952	 0.504467835258631 
1953	 0.504761327424693 
1954	 0.505023169256941 
1955	 0.505284359463309 
1956	 0.505520530572127 
1957	 0.505779270444793 
1958	 0.506016161622728 
1959	 0.506297455932948 
1960	 0.5066110415022 
1961	 0.506929217481638 
1962	 0.507289566399321 
1963	 0.507618764668213 
1964	 0.507939236707401 
1965	 0.508269544177876 
1966	 0.508581122538453 
1967	 0.50886250961351 
1968	 0.509145026171952 
1969	 0.50940138002721 
1970	 0.509689146350846 
1971	 0.509976325257855 
1972	 0.510280348358713 
1973	 0.510620055350464 
1974	 0.510946411846886 
1975	 0.511273158962576 
1976	 0.511586495988951 
1977	 0.511932913081027 
1978	 0.51228020521556 
1979	 0.512625850032891 
1980	 0.512999080913174 
1981	 0.513350938218723 
1982	 0.513682229963357 
1983	 0.514036873269802 
1984	 0.514391010955902 
1985	 0.514759361598875 
1986	 0.5151633200451 
1987	 0.515538577383595 
1988	 0.515920056137184 
1989	 0.516280064509164 
1990	 0.516602911341492 
1991	 0.516922416593558 
1992	 0.517263784868437 
1993	 0.517609006548173 
1994	 0.517947032977501 
1995	 0.518291356498277 
1996	 0.518641378830716 
1997	 0.518967799533075 
1998	 0.519333152069331 
1999	 0.519739581027255 
2000	 0.520133883535976 
2001	 0.520552458199619 
2002	 0.520943387368817 
2003	 0.521332091296166 
2004	 0.521720753458709 
2005	 0.5220838912972 
2006	 0.522430755386384 
2007	 0.522770568172779 
2008	 0.523080529692067 
2009	 0.523406511760615 
2010	 0.523719622724602 
2011	 0.524054604088716 
2012	 0.52440366191728 
2013	 0.524756889691025 
2014	 0.525123779756795 
2015	 0.525497203240514 
2016	 0.525873918612113 
2017	 0.526220706308357 
2018	 0.526571177281708 
2019	 0.526913744251958 
2020	 0.527260467473824 
2021	 0.527609980490898 
2022	 0.527945953612519 
2023	 0.528266943938191 
2024	 0.528599437801154 
2025	 0.528936911942669 
2026	 0.529256072218191 
2027	 0.529561663041026 
2028	 0.529890036111679 
2029	 0.530212318106297 
2030	 0.530517262913689 
2031	 0.530838192448183 
2032	 0.531192478360163 
2033	 0.531502820673634 
2034	 0.531778227802578 
2035	 0.532080384973565 
2036	 0.532383770703935 
2037	 0.532681441341238 
2038	 0.533008389813242 
2039	 0.5332975979914 
2040	 0.533589378182081 
2041	 0.533814774609755 
2042	 0.534016385703894 
2043	 0.534223574360341 
2044	 0.534436400548024 
2045	 0.534629815009354 
2046	 0.53484824474796 
2047	 0.535087188524422 
2048	 0.535319478905538 
2049	 0.535556146675216 
2050	 0.535788755448378 
2051	 0.536030332626498 
2052	 0.536261163330599 
2053	 0.536490753378666 
2054	 0.536706899948625 
2055	 0.536925567054593 
2056	 0.537101288449325 
2057	 0.53730751418118 
2058	 0.537486656684536 
2059	 0.5377395618896 
2060	 0.53805429873612 
2061	 0.5383231734018 
2062	 0.538635921218405 
2063	 0.538888477961249 
2064	 0.539070039155533 
2065	 0.539290123798499 
2066	 0.53951544571011 
2067	 0.539731878375071 
2068	 0.539943406286489 
2069	 0.540169980525567 
2070	 0.540391867516006 
2071	 0.540607418082035 
2072	 0.540815663624287 
2073	 0.541030303858509 
2074	 0.54123634113053 
2075	 0.54142420766294 
2076	 0.541620594270947 
2077	 0.54179412816131 
2078	 0.54202227594143 
2079	 0.542291663011878 
2080	 0.542534822155043 
2081	 0.542827360659562 
2082	 0.543075832951056 
2083	 0.543271589277735 
2084	 0.543471925761668 
2085	 0.543686424180656 
2086	 0.543915272218732 
2087	 0.544105524823833 
2088	 0.544289659737986 
2089	 0.544460216320172 
2090	 0.544576530179446 
2091	 0.54474601566243 
2092	 0.544934630254867 
2093	 0.545127764674853 
2094	 0.545351337445558 
2095	 0.545556917250963 
2096	 0.545770103897782 
2097	 0.545967053070284 
2098	 0.546155545332829 
2099	 0.546323996563846 
2100	 0.546512366548123 
2101	 0.546697171876805 
2102	 0.546884428232528 
2103	 0.547067059982064 
2104	 0.547286709688251 
2105	 0.547509208401284 
2106	 0.547754751767712 
2107	 0.548048450897194 
2108	 0.548324835742331 
2109	 0.548607247161848 
2110	 0.548885322811418 
2111	 0.549176571788733 
2112	 0.549450241692698 
2113	 0.549717707655129 
2114	 0.549964875330408 
2115	 0.550222942874081 
2116	 0.550478227647161 
2117	 0.550724267043234 
2118	 0.550965779766052 
2119	 0.551210978480731 
2120	 0.551433808568023 
2121	 0.551688667476576 
2122	 0.551968011373141 
2123	 0.552239068358497 
2124	 0.552534844081324 
2125	 0.552804409157874 
2126	 0.553065107345863 
2127	 0.553314210149047 
2128	 0.553575381734851 
2129	 0.553783337129443 
2130	 0.5539537422827 
2131	 0.554115514547116 
2132	 0.554244345835318 
2133	 0.554324427417355 
2134	 0.554405934367602 
2135	 0.554488365096189 
2136	 0.554521242630853 
2137	 0.554511487080119 
2138	 0.554500990170409 
2139	 0.554468408295215 
2140	 0.554414806245188 
2141	 0.554351505857983 
2142	 0.554263391160992 
2143	 0.554142844195782 
2144	 0.554006667013615 
2145	 0.553843194247138 
2146	 0.553679961705101 
2147	 0.553506090872657 
2148	 0.553322575255673 
2149	 0.553108373837712 
2150	 0.552887256179469 
2151	 0.552634304125262 
2152	 0.552341350982596 
2153	 0.552045351321466 
2154	 0.551747335618959 
2155	 0.551409071434216 
2156	 0.551024167809599 
2157	 0.550656173693764 
2158	 0.550275414298574 
2159	 0.549882762470581 
2160	 0.549500222578315 
2161	 0.549091440753469 
2162	 0.548626520062254 
2163	 0.548195673604486 
2164	 0.547770473735098 
2165	 0.547355526815849 
2166	 0.546933260180706 
2167	 0.54652696286386 
2168	 0.546113251825483 
2169	 0.545690250072486 
2170	 0.545266352993132 
2171	 0.54485837165681 
2172	 0.544422334652986 
2173	 0.543942124703333 
2174	 0.543508545264909 
2175	 0.543079845190269 
2176	 0.54266806024058 
2177	 0.542308911421975 
2178	 0.541909938179999 
2179	 0.541512389349115 
2180	 0.541087606253041 
2181	 0.540620974881434 
2182	 0.54016901066562 
2183	 0.539723561229989 
2184	 0.539232320672402 
2185	 0.538790722820812 
2186	 0.538365165837863 
2187	 0.53794830056329 
2188	 0.537546322586907 
2189	 0.537156310219264 
2190	 0.536776010473165 
2191	 0.536407111729564 
2192	 0.536070671705418 
2193	 0.535706433009145 
2194	 0.535321858101199 
2195	 0.534967944424154 
2196	 0.534613346277952 
2197	 0.534270397421566 
2198	 0.533948274631033 
2199	 0.533640045536258 
2200	 0.533326003324977 
2201	 0.533041722176792 
2202	 0.532798925004572 
2203	 0.532551309979903 
2204	 0.532324455015096 
2205	 0.532117356056376 
2206	 0.53191539537912 
2207	 0.531718646254784 
2208	 0.531552260258794 
2209	 0.53141253013743 
2210	 0.531261239148273 
2211	 0.531125357561916 
2212	 0.530997674058702 
2213	 0.530880707603332 
2214	 0.53074680849223 
2215	 0.530646994342242 
2216	 0.530488801950121 
2217	 0.530259058679901 
2218	 0.530072385210774 
2219	 0.52987998408017 
2220	 0.529690681158597 
2221	 0.529512504479141 
2222	 0.529354164782069 
2223	 0.529182691225495 
2224	 0.52901476492347 
2225	 0.528814896464072 
2226	 0.528623954658006 
2227	 0.528380687866923 
2228	 0.528078939916764 
2229	 0.527801596011723 
2230	 0.52751807905131 
2231	 0.527215645972063 
2232	 0.526919354117906 
2233	 0.526583342941577 
2234	 0.526193739042563 
2235	 0.525838187273585 
2236	 0.525442229631467 
2237	 0.525111581846344 
2238	 0.524817528676494 
2239	 0.524543198670717 
2240	 0.524319083980758 
2241	 0.524095768538541 
2242	 0.523916783605884 
2243	 0.523702616137947 
2244	 0.523487916545813 
2245	 0.523235234476737 
2246	 0.523020076068431 
2247	 0.522786424706495 
2248	 0.522617664163245 
2249	 0.522504649352879 
2250	 0.522385351791283 
2251	 0.522287676131911 
2252	 0.522203802657844 
2253	 0.522134128099614 
2254	 0.522072474124425 
2255	 0.522030989866699 
2256	 0.521989655195645 
2257	 0.521934094777216 
2258	 0.521937415534484 
2259	 0.521979397168763 
2260	 0.522024474941922 
2261	 0.522115952096303 
2262	 0.522193844591752 
2263	 0.522269149165119 
2264	 0.522343401263894 
2265	 0.522444101632933 
2266	 0.522505963115048 
2267	 0.522559771468419 
2268	 0.52259036143426 
2269	 0.522571018138727 
2270	 0.522571815486504 
2271	 0.522575535975344 
2272	 0.522539948588662 
2273	 0.522550662100593 
2274	 0.522624925703169 
2275	 0.52269833354359 
2276	 0.522799038810585 
2277	 0.522924807408554 
2278	 0.52309245087406 
2279	 0.523203842126129 
2280	 0.523339605246641 
2281	 0.52341902614479 
2282	 0.523413348948081 
2283	 0.523480046921843 
2284	 0.523545759246948 
2285	 0.523644081770487 
2286	 0.523782636368312 
2287	 0.523925842554931 
2288	 0.524081203705879 
2289	 0.524256504513792 
2290	 0.524417938400247 
2291	 0.524647606766349 
2292	 0.524949952020027 
2293	 0.525240704096446 
2294	 0.525599126760596 
2295	 0.525918121083653 
2296	 0.526226434552238 
2297	 0.526475902689125 
2298	 0.526772694245416 
2299	 0.527134555435113 
2300	 0.527553233581511 
2301	 0.527945180809844 
2302	 0.52823685825579 
2303	 0.52848732785859 
2304	 0.528695207506734 
2305	 0.528913926066482 
2306	 0.529194327895195 
2307	 0.529559734452745 
2308	 0.529853784556086 
2309	 0.530170706219794 
2310	 0.530420466431368 
2311	 0.530576898625671 
2312	 0.530841286936057 
2313	 0.531113696318392 
2314	 0.531398143112458 
2315	 0.531779652428105 
2316	 0.532077500845593 
2317	 0.532326248018795 
2318	 0.532587981390638 
2319	 0.532818678555236 
2320	 0.533068390074837 
2321	 0.533292395340827 
2322	 0.533581278431869 
2323	 0.53390168906887 
2324	 0.534258965224806 
2325	 0.534719873297106 
2326	 0.535106753112702 
2327	 0.535491152629674 
2328	 0.535835169817437 
2329	 0.536190880943833 
2330	 0.536507182707887 
2331	 0.536785297366744 
2332	 0.537112673632604 
2333	 0.537449893269802 
2334	 0.537763725125401 
2335	 0.538084940958313 
2336	 0.538407837655893 
2337	 0.538614867474312 
2338	 0.538797215301044 
2339	 0.539068735981516 
2340	 0.539274040017118 
2341	 0.539535623464638 
2342	 0.539779181838391 
2343	 0.539859239164528 
2344	 0.539945418444991 
2345	 0.540010911221176 
2346	 0.540004237378064 
2347	 0.540011470165659 
2348	 0.540044638103426 
2349	 0.540017121555735 
2350	 0.539899933197056 
2351	 0.539850559282378 
2352	 0.539819243593002 
2353	 0.539771100852659 
2354	 0.539748473236247 
2355	 0.539704837823136 
2356	 0.539643615996917 
2357	 0.539581357037289 
2358	 0.539559985060054 
2359	 0.53941173336942 
2360	 0.539140647907526 
2361	 0.53895123723747 
2362	 0.538718706199861 
2363	 0.538541555279941 
2364	 0.538465518986476 
2365	 0.53832529088099 
2366	 0.538155709075803 
2367	 0.537978154113144 
2368	 0.537792590310049 
2369	 0.537588566014736 
2370	 0.537396277213768 
2371	 0.537105515515169 
2372	 0.536802737283667 
2373	 0.536554025088837 
2374	 0.536277462963773 
2375	 0.536096854443272 
2376	 0.53590361543596 
2377	 0.535625308310498 
2378	 0.535362317712168 
2379	 0.535035492369612 
2380	 0.534695373861786 
2381	 0.534445315111364 
2382	 0.53422682122957 
2383	 0.533948477903977 
2384	 0.533646418869401 
2385	 0.533395527011734 
2386	 0.533150388050265 
2387	 0.532866903837772 
2388	 0.53263250466768 
2389	 0.532377911563932 
2390	 0.531992780686832 
2391	 0.531691453310258 
2392	 0.53145402344278 
2393	 0.5311009033712 
2394	 0.530772771369018 
2395	 0.5304416360039 
2396	 0.530035983991514 
2397	 0.529713873296695 
2398	 0.529377934813331 
2399	 0.528935880457549 
2400	 0.528507642811352 
2401	 0.52810803611638 
2402	 0.527686239490592 
2403	 0.527302699391107 
2404	 0.526959051705576 
2405	 0.526518507075433 
2406	 0.5260972192323 
2407	 0.525767973432243 
2408	 0.525498065994489 
2409	 0.525273654838851 
2410	 0.525012884099924 
2411	 0.524798432441635 
2412	 0.524522508479852 
2413	 0.524157820245302 
2414	 0.523878830009387 
2415	 0.523590904153483 
2416	 0.523274697619107 
2417	 0.52293803803798 
2418	 0.52262413293408 
2419	 0.522274773469451 
2420	 0.521950662185816 
2421	 0.521661591409964 
2422	 0.521345017643565 
2423	 0.521073706237265 
2424	 0.520754565394543 
2425	 0.520355087166955 
2426	 0.520023589315609 
2427	 0.519664291454011 
2428	 0.519409001211317 
2429	 0.519232422559249 
2430	 0.519089595291338 
2431	 0.519044670954081 
2432	 0.518881242880864 
2433	 0.518699341342355 
2434	 0.518519820430491 
2435	 0.518344914664896 
2436	 0.518133274893594 
2437	 0.517876288623856 
2438	 0.517628414868021 
2439	 0.517271125800343 
2440	 0.517013429149337 
2441	 0.516899575087825 
2442	 0.516695349592507 
2443	 0.51652382408219 
2444	 0.516313337785921 
2445	 0.515966003302749 
2446	 0.515780721673344 
2447	 0.51566726200654 
2448	 0.515403172924675 
2449	 0.515178435348586 
2450	 0.514897302006535 
2451	 0.514434287534999 
2452	 0.514195152888383 
2453	 0.514140344532563 
2454	 0.513930549067377 
2455	 0.513740363658377 
2456	 0.513532442442274 
2457	 0.513186938685626 
2458	 0.512939054336348 
2459	 0.51269973299843 
2460	 0.512511044205944 
2461	 0.512425522084799 
2462	 0.512297391300771 
2463	 0.512276562813977 
2464	 0.51207241018933 
2465	 0.511671584769572 
2466	 0.511445378381568 
2467	 0.511233911946073 
2468	 0.510952230859257 
2469	 0.510761702445392 
2470	 0.510492627391069 
2471	 0.510117310557473 
2472	 0.509796010176909 
2473	 0.509642166710173 
2474	 0.509459257815181 
2475	 0.509306471501837 
2476	 0.509272547351234 
2477	 0.508804911995982 
2478	 0.50820547503602 
2479	 0.507896979697351 
2480	 0.507681493215035 
2481	 0.507604676473649 
2482	 0.507619378431937 
2483	 0.507558166879434 
2484	 0.507107410103147 
2485	 0.506605770413058 
2486	 0.506315427092577 
2487	 0.505912105777802 
2488	 0.50579320696091 
2489	 0.506012751595164 
2490	 0.506081418241245 
2491	 0.50603793699783 
2492	 0.505677650338287 
2493	 0.505203235010967 
2494	 0.504973010902947 
2495	 0.50490921972473 
2496	 0.50488966025244 
2497	 0.504637026539576 
2498	 0.504214279641342 
2499	 0.503624797306934 
2500	 0.503187276285622 
