Wavelength	MM900004.asd
350	 5.44650929281735E-02 
351	 5.77368383881516E-02 
352	 5.43277713471967E-02 
353	 4.58083558628377E-02 
354	 5.81974326256357E-02 
355	 6.86479851232968E-02 
356	 7.07392341986835E-02 
357	 6.58174587714074E-02 
358	 6.53319578116083E-02 
359	 6.47860297189491E-02 
360	 6.23419697741111E-02 
361	 5.85888352446308E-02 
362	 5.70272190088909E-02 
363	 0.058344073233976 
364	 6.00294376281845E-02 
365	 5.48126013476037E-02 
366	 5.74221272687849E-02 
367	 6.25580372320826E-02 
368	 6.22338508307857E-02 
369	 6.12708912229565E-02 
370	 6.21175733192742E-02 
371	 6.32764390459966E-02 
372	 0.061338946989655 
373	 6.42165242630946E-02 
374	 6.37740284006704E-02 
375	 5.84022996871212E-02 
376	 6.10880841510972E-02 
377	 6.28581198363017E-02 
378	 6.42339217253688E-02 
379	 6.70447991460421E-02 
380	 6.70054770941477E-02 
381	 6.46226980347332E-02 
382	 6.28196382171173E-02 
383	 6.54404297403892E-02 
384	 6.51815888754158E-02 
385	 6.48268322081735E-02 
386	 6.64184841440828E-02 
387	 0.067811296093458 
388	 6.98666827214144E-02 
389	 7.10901278836418E-02 
390	 6.99555918660443E-02 
391	 6.78008684045238E-02 
392	 6.68316634375877E-02 
393	 6.80874886940044E-02 
394	 7.13200700734932E-02 
395	 7.27546032411977E-02 
396	 7.23485520989326E-02 
397	 7.16662738809938E-02 
398	 7.43885344314056E-02 
399	 7.52285347367586E-02 
400	 7.44364777366581E-02 
401	 7.41370271495493E-02 
402	 7.42009809006056E-02 
403	 7.48127955841529E-02 
404	 7.53842815832046E-02 
405	 7.46822981974496E-02 
406	 7.57412403265447E-02 
407	 7.81417412000155E-02 
408	 8.00645350391059E-02 
409	 7.75696026934713E-02 
410	 7.71066429121266E-02 
411	 7.86234630828695E-02 
412	 7.92190456937006E-02 
413	 7.99970640508527E-02 
414	 8.04175264732798E-02 
415	 8.03364887809821E-02 
416	 8.02281398327124E-02 
417	 8.07332191655326E-02 
418	 8.15993364085483E-02 
419	 8.22642656385341E-02 
420	 0.082040808804545 
421	 8.12746997665032E-02 
422	 0.08090203758869 
423	 8.19820225595348E-02 
424	 0.083034220723126 
425	 8.32082571811355E-02 
426	 8.25575681318336E-02 
427	 8.25046620282194E-02 
428	 8.22691697959725E-02 
429	 8.20810110167708E-02 
430	 0.082336151572628 
431	 8.28273569241463E-02 
432	 8.25211841235239E-02 
433	 8.17855381979031E-02 
434	 0.082243442567724 
435	 8.24679785293267E-02 
436	 8.23174596568522E-02 
437	 8.19832586579503E-02 
438	 8.17895708478885E-02 
439	 8.18212773616572E-02 
440	 8.20800761039302E-02 
441	 8.24630680733245E-02 
442	 0.082503918037058 
443	 8.25551344861218E-02 
444	 8.27857117182777E-02 
445	 8.29811676979413E-02 
446	 8.28086410046178E-02 
447	 8.29140992720799E-02 
448	 8.37789142775696E-02 
449	 8.39616722942154E-02 
450	 8.41433881092952E-02 
451	 8.45411390934498E-02 
452	 8.49238985891771E-02 
453	 8.53646168422558E-02 
454	 8.54338521722725E-02 
455	 8.51097912406039E-02 
456	 8.55648313896092E-02 
457	 8.59326306063512E-02 
458	 8.60643239220471E-02 
459	 8.61463027147133E-02 
460	 8.63113775355301E-02 
461	 8.64081662417431E-02 
462	 0.086456027431621 
463	 8.67517946481614E-02 
464	 0.086957835704606 
465	 8.70760197560577E-02 
466	 8.71920493510184E-02 
467	 8.73323735814667E-02 
468	 8.73177966600789E-02 
469	 0.087277010349932 
470	 0.087547214566769 
471	 8.76033061275685E-02 
472	 8.76874700226713E-02 
473	 8.79193962120734E-02 
474	 8.77948278158586E-02 
475	 0.087799087694609 
476	 8.79302764260139E-02 
477	 8.79954628813759E-02 
478	 8.80998745400284E-02 
479	 8.81932818933561E-02 
480	 8.82429819735647E-02 
481	 8.82532197692774E-02 
482	 8.83520549519759E-02 
483	 8.85419138840964E-02 
484	 8.87379696730123E-02 
485	 8.86634922080789E-02 
486	 8.87469801445927E-02 
487	 8.88828186491891E-02 
488	 8.85696347135078E-02 
489	 8.86283899324575E-02 
490	 8.88653126427185E-02 
491	 8.90168662865799E-02 
492	 0.08913373658824 
493	 8.90047817049765E-02 
494	 8.88787945263986E-02 
495	 0.089121986543108 
496	 8.91610595897213E-02 
497	 8.92525540290486E-02 
498	 8.94305716260684E-02 
499	 8.92748834352699E-02 
500	 8.92425970444093E-02 
501	 8.93038405314875E-02 
502	 8.93255729774864E-02 
503	 8.94082031191654E-02 
504	 8.94490148833095E-02 
505	 0.089393315929777 
506	 8.92513432124229E-02 
507	 8.93969435054618E-02 
508	 8.95750452470922E-02 
509	 0.089560320493173 
510	 8.95381295457348E-02 
511	 8.95657846507736E-02 
512	 8.96663172628143E-02 
513	 8.98100260247634E-02 
514	 0.089725456312227 
515	 8.96902368791952E-02 
516	 0.089820481208949 
517	 8.98570696022198E-02 
518	 8.99097048009295E-02 
519	 8.99300217499492E-02 
520	 8.98761231171307E-02 
521	 8.99911366208715E-02 
522	 9.00545272757392E-02 
523	 0.090015036771247 
524	 0.090022346157071 
525	 9.00430560712215E-02 
526	 9.00659217629782E-02 
527	 9.00826982358992E-02 
528	 9.00824298805164E-02 
529	 9.01132687649596E-02 
530	 0.090186403455573 
531	 9.02784874433902E-02 
532	 9.02666457317517E-02 
533	 9.02944539195335E-02 
534	 9.04212321421805E-02 
535	 9.04491018816535E-02 
536	 9.05016722922473E-02 
537	 9.06149910129035E-02 
538	 0.090759996467748 
539	 9.07033524820075E-02 
540	 9.06851130492958E-02 
541	 9.08039983156517E-02 
542	 9.09268582549095E-02 
543	 9.09671087612556E-02 
544	 9.10086024400221E-02 
545	 0.091128940464923 
546	 9.11474680484856E-02 
547	 9.12781717839672E-02 
548	 9.14936696790779E-02 
549	 9.15671110992451E-02 
550	 9.16647838172529E-02 
551	 9.17594498107927E-02 
552	 9.18461678510929E-02 
553	 0.092084489780563 
554	 9.22643367567709E-02 
555	 0.092326422019583 
556	 9.23207066833074E-02 
557	 9.24728816210184E-02 
558	 9.26783964376829E-02 
559	 9.28787576366789E-02 
560	 9.31735812570768E-02 
561	 9.34353101037666E-02 
562	 9.36990157581925E-02 
563	 9.40468902586178E-02 
564	 9.44831770762858E-02 
565	 0.094943620424235 
566	 9.53903319462814E-02 
567	 9.58202470456729E-02 
568	 9.61902495587959E-02 
569	 9.64353232892844E-02 
570	 9.65688016899197E-02 
571	 9.68466282662669E-02 
572	 9.72688393887844E-02 
573	 9.77744326761218E-02 
574	 9.82605694643152E-02 
575	 0.098729891520602 
576	 9.92162306664575E-02 
577	 9.97457916708576E-02 
578	 0.100304471466225 
579	 0.100973108496471 
580	 0.101767766300217 
581	 0.102652811839303 
582	 0.103477567392202 
583	 0.104283445899233 
584	 0.105092701107011 
585	 0.105872780096885 
586	 0.106741299405623 
587	 0.107670380106101 
588	 0.108594912798183 
589	 0.109510555092234 
590	 0.110402421479821 
591	 0.111257599922859 
592	 0.112067092344572 
593	 0.112766923487915 
594	 0.11344717643201 
595	 0.114194221426393 
596	 0.114999466477164 
597	 0.11590556734274 
598	 0.116870982367159 
599	 0.117823202067667 
600	 0.118837014698484 
601	 0.119819422347433 
602	 0.120711601914811 
603	 0.121544083458545 
604	 0.122421112069259 
605	 0.123315983222546 
606	 0.12416119921042 
607	 0.12497743563182 
608	 0.125744363383196 
609	 0.126462455391775 
610	 0.127159798060538 
611	 0.127874843737631 
612	 0.128557234824569 
613	 0.129172591574689 
614	 0.129838086316113 
615	 0.130419139570733 
616	 0.130934104009714 
617	 0.13149746954765 
618	 0.132023007896246 
619	 0.132474921561245 
620	 0.132873128409912 
621	 0.133339616965075 
622	 0.133809044836259 
623	 0.134216593006983 
624	 0.134526458059515 
625	 0.134904506988195 
626	 0.135299140563363 
627	 0.135676917939307 
628	 0.136053292001694 
629	 0.136377447888355 
630	 0.136678448112586 
631	 0.136996615573266 
632	 0.137323000530582 
633	 0.137615407179778 
634	 0.137888925161381 
635	 0.138203887111459 
636	 0.138542186176606 
637	 0.138858411167358 
638	 0.139131741161584 
639	 0.139415636615609 
640	 0.139667982026463 
641	 0.139914954563377 
642	 0.140208789736295 
643	 0.140554095981175 
644	 0.140810101993885 
645	 0.140981915985677 
646	 0.141302922071633 
647	 0.14161272364088 
648	 0.141915975172902 
649	 0.142252773359685 
650	 0.142621882927233 
651	 0.142927648256972 
652	 0.143201356091552 
653	 0.14357826641696 
654	 0.143969266590929 
655	 0.144279601526638 
656	 0.144514043336415 
657	 0.144928659492132 
658	 0.145337789061852 
659	 0.145714971025529 
660	 0.146105743874481 
661	 0.146512886124897 
662	 0.146894503526042 
663	 0.147262598726774 
664	 0.147714697917787 
665	 0.148104687620515 
666	 0.148508453989156 
667	 0.1490086082945 
668	 0.149432993912271 
669	 0.149890146392256 
670	 0.150394117804327 
671	 0.150878258090637 
672	 0.151407047917742 
673	 0.151935872654483 
674	 0.152430235452662 
675	 0.152920166179039 
676	 0.153422263985143 
677	 0.15394604221764 
678	 0.154496297129157 
679	 0.155073880809376 
680	 0.155679893384875 
681	 0.156295293500157 
682	 0.156875895172731 
683	 0.157467100316689 
684	 0.158078701450458 
685	 0.158708506924123 
686	 0.159343970314813 
687	 0.160039199364598 
688	 0.160763294449656 
689	 0.16142529968873 
690	 0.16200721546397 
691	 0.162653948735925 
692	 0.16342049782806 
693	 0.164143679099403 
694	 0.164819705857677 
695	 0.165521441175825 
696	 0.166318920279554 
697	 0.167068201950529 
698	 0.167809051233091 
699	 0.168566504515509 
700	 0.169338482182975 
701	 0.170099349641985 
702	 0.170847634583208 
703	 0.171600675150761 
704	 0.172417992452215 
705	 0.173204462764689 
706	 0.17397250849545 
707	 0.17477766309847 
708	 0.175517501536601 
709	 0.176272260424087 
710	 0.177071688225852 
711	 0.177846481169679 
712	 0.178645424230987 
713	 0.179434781864863 
714	 0.180186736518038 
715	 0.180979343652829 
716	 0.18173532418273 
717	 0.182450021946088 
718	 0.183172610017053 
719	 0.183893459442606 
720	 0.184621265442468 
721	 0.185345629847632 
722	 0.186020724275703 
723	 0.186648449959994 
724	 0.187243369764528 
725	 0.187831946589016 
726	 0.188461093359637 
727	 0.18903746585346 
728	 0.189557906959177 
729	 0.190102541591084 
730	 0.190572491274356 
731	 0.191039222940571 
732	 0.191538158717487 
733	 0.191944742839974 
734	 0.192337420962506 
735	 0.192688862637597 
736	 0.192951595332877 
737	 0.193226532388815 
738	 0.193469156656687 
739	 0.193671461499379 
740	 0.193875291351607 
741	 0.194073317928073 
742	 0.194180191875004 
743	 0.194175660401628 
744	 0.194266031569336 
745	 0.194252312667859 
746	 0.194189815217586 
747	 0.194218784854653 
748	 0.194156096442716 
749	 0.194058517463834 
750	 0.193940483350066 
751	 0.19374213696362 
752	 0.193585046760581 
753	 0.193387116417657 
754	 0.193080141354825 
755	 0.192770898084563 
756	 0.192500310786049 
757	 0.192222514041618 
758	 0.191858429109359 
759	 0.19146362779508 
760	 0.19105912898675 
761	 0.190657962260655 
762	 0.190266694263536 
763	 0.189840906214078 
764	 0.189396269338075 
765	 0.188946826951541 
766	 0.188455084292911 
767	 0.187929841587955 
768	 0.187416124820591 
769	 0.186956377206632 
770	 0.186444705297531 
771	 0.185911100707948 
772	 0.185372336843903 
773	 0.184814901308577 
774	 0.184232679276411 
775	 0.183652873600838 
776	 0.183096086313756 
777	 0.18254805168103 
778	 0.181975221158659 
779	 0.18140856796138 
780	 0.180883063803991 
781	 0.180255621947378 
782	 0.17963209046382 
783	 0.179058578567185 
784	 0.178499359307235 
785	 0.177981412943423 
786	 0.177433275625504 
787	 0.17682486127323 
788	 0.176260744231967 
789	 0.175724575440034 
790	 0.175181472922045 
791	 0.174605747396371 
792	 0.174080412069729 
793	 0.173552197465347 
794	 0.173023510660332 
795	 0.172540999242972 
796	 0.171980139305978 
797	 0.171445189001409 
798	 0.170974139977196 
799	 0.170417525591267 
800	 0.169913483825718 
801	 0.1694335077789 
802	 0.168926421183881 
803	 0.168460335666929 
804	 0.168013394588883 
805	 0.167564792175958 
806	 0.167102375523864 
807	 0.166673019833956 
808	 0.166219466107999 
809	 0.165741269209344 
810	 0.165321562475287 
811	 0.16492933419982 
812	 0.164508889765078 
813	 0.164051232987985 
814	 0.163685772085003 
815	 0.163355138211941 
816	 0.163004273252544 
817	 0.162599767550788 
818	 0.162218943813492 
819	 0.161878618087053 
820	 0.161561620826807 
821	 0.161226221608114 
822	 0.160871032432771 
823	 0.160507106199716 
824	 0.160163230726285 
825	 0.159891072588982 
826	 0.159611733851744 
827	 0.15931263524247 
828	 0.159016646112939 
829	 0.158796883617259 
830	 0.158533885022233 
831	 0.15826195669125 
832	 0.158068652090531 
833	 0.157870999391117 
834	 0.157584811277697 
835	 0.157289231225172 
836	 0.15718417892621 
837	 0.156975999801802 
838	 0.156752500448493 
839	 0.156577940512404 
840	 0.156367578116719 
841	 0.156169283054994 
842	 0.1560212165767 
843	 0.155919478380241 
844	 0.15574391839359 
845	 0.155556069971347 
846	 0.155403108902949 
847	 0.155313023276097 
848	 0.155254543473111 
849	 0.155162746595994 
850	 0.155034514046221 
851	 0.154918167231912 
852	 0.154783348699063 
853	 0.154668977376757 
854	 0.154618745829061 
855	 0.154665855122783 
856	 0.154651093441098 
857	 0.154576908829402 
858	 0.15448989927934 
859	 0.154432980998704 
860	 0.154394165579791 
861	 0.154372383923068 
862	 0.154370953164288 
863	 0.15440648183758 
864	 0.154417605954407 
865	 0.154394870978784 
866	 0.154371044878329 
867	 0.154402678895229 
868	 0.154451149193833 
869	 0.154491265748238 
870	 0.154524495935699 
871	 0.154573126882967 
872	 0.154669918180573 
873	 0.154791714616648 
874	 0.154829547496957 
875	 0.154921554197999 
876	 0.155008543063074 
877	 0.155055451472442 
878	 0.155225966175182 
879	 0.15537716517766 
880	 0.155470911484058 
881	 0.155538161299614 
882	 0.155715124885439 
883	 0.155893351287227 
884	 0.156053653771136 
885	 0.156223783460571 
886	 0.15635402727482 
887	 0.156548195842784 
888	 0.156782233331612 
889	 0.156932471860653 
890	 0.157106451296791 
891	 0.157298367012177 
892	 0.157518166981007 
893	 0.157804217882223 
894	 0.158023949363986 
895	 0.158252927888503 
896	 0.158531349946399 
897	 0.158761163338335 
898	 0.159047385207911 
899	 0.159349573197481 
900	 0.159620904813021 
901	 0.159901679067948 
902	 0.160158337244191 
903	 0.160479898387925 
904	 0.160910255187793 
905	 0.161169995138398 
906	 0.161512702397858 
907	 0.161892084395423 
908	 0.162174041906809 
909	 0.162595773946078 
910	 0.16295375456914 
911	 0.163268438751256 
912	 0.163692037051542 
913	 0.164089396670188 
914	 0.164529113967382 
915	 0.164990574925328 
916	 0.165383302789324 
917	 0.165854205773442 
918	 0.166337687546506 
919	 0.166794323133874 
920	 0.167244821002802 
921	 0.167639507099582 
922	 0.168110079316895 
923	 0.168699832810184 
924	 0.169282858840216 
925	 0.169809619375013 
926	 0.170343064775231 
927	 0.170908479108826 
928	 0.171409346068864 
929	 0.171971641539952 
930	 0.172631758011066 
931	 0.17334315698427 
932	 0.173941707515522 
933	 0.174548298875749 
934	 0.175127179389409 
935	 0.17566736326109 
936	 0.176358031276472 
937	 0.177006247639098 
938	 0.177648640845322 
939	 0.178373851368658 
940	 0.179176973295494 
941	 0.179875744241062 
942	 0.18052719756872 
943	 0.181251222247744 
944	 0.181972878280582 
945	 0.182776924897518 
946	 0.183585099165005 
947	 0.184297742675628 
948	 0.185080370959955 
949	 0.185883826635232 
950	 0.186734273402344 
951	 0.187648921007691 
952	 0.188392715859562 
953	 0.189206447237453 
954	 0.190100410005491 
955	 0.19095230428648 
956	 0.191767658430565 
957	 0.192714136873653 
958	 0.193700964816656 
959	 0.194548956395716 
960	 0.195572692151991 
961	 0.196603829867733 
962	 0.197545896726572 
963	 0.198418288859683 
964	 0.199483256754844 
965	 0.200418795703305 
966	 0.201295427711712 
967	 0.202396265689017 
968	 0.203406359099802 
969	 0.204366208460115 
970	 0.205423782185108 
971	 0.206677238800303 
972	 0.207625781613616 
973	 0.208568869646511 
974	 0.209641177453998 
975	 0.210812009393389 
976	 0.21209339004216 
977	 0.213226165375932 
978	 0.214242781671294 
979	 0.215348988022928 
980	 0.21647944250651 
981	 0.217675782490073 
982	 0.218854630932954 
983	 0.219931090614859 
984	 0.221231846296986 
985	 0.222482437600292 
986	 0.22358769012182 
987	 0.22463443347311 
988	 0.225883920996829 
989	 0.227144021980156 
990	 0.228315146407201 
991	 0.229426897755268 
992	 0.230750093320209 
993	 0.2320378430409 
994	 0.233316238429347 
995	 0.234627671359321 
996	 0.23550353269165 
997	 0.236755869506243 
998	 0.238131023286189 
999	 0.239186217748012 
1000	 0.240486364674299 
1001	 0.248485626157719 
1002	 0.249761070928348 
1003	 0.25102710670107 
1004	 0.252238737543808 
1005	 0.253327241411336 
1006	 0.254543366380651 
1007	 0.255800445512245 
1008	 0.257055367366841 
1009	 0.258318101014653 
1010	 0.259495149634792 
1011	 0.260651840535629 
1012	 0.261808769424438 
1013	 0.263017408504087 
1014	 0.264321947725078 
1015	 0.265532316026103 
1016	 0.26667106613588 
1017	 0.267845007737187 
1018	 0.268996797732241 
1019	 0.270110175030792 
1020	 0.271244085231985 
1021	 0.272416237566235 
1022	 0.273548661873805 
1023	 0.274625406919514 
1024	 0.275726301725371 
1025	 0.276855862865182 
1026	 0.277971849913666 
1027	 0.279070564832285 
1028	 0.280132069490017 
1029	 0.281182520661128 
1030	 0.282186536724454 
1031	 0.283207081810286 
1032	 0.284217346459182 
1033	 0.285290162961154 
1034	 0.286345667242865 
1035	 0.287366932587682 
1036	 0.288383326057261 
1037	 0.289377181067425 
1038	 0.290285761543151 
1039	 0.29122604795701 
1040	 0.292211422782307 
1041	 0.293136341847488 
1042	 0.294080078556592 
1043	 0.295022309042963 
1044	 0.295978888230437 
1045	 0.296914621089479 
1046	 0.297894677623881 
1047	 0.29887401722113 
1048	 0.299887248326942 
1049	 0.300879932489109 
1050	 0.301831739291762 
1051	 0.302790421928069 
1052	 0.303773347451491 
1053	 0.304761416759268 
1054	 0.305672492347559 
1055	 0.306644650797049 
1056	 0.307625925392147 
1057	 0.30861833055137 
1058	 0.30965371000834 
1059	 0.310680134314304 
1060	 0.311716271420179 
1061	 0.312709851154744 
1062	 0.313725720573063 
1063	 0.314722187275561 
1064	 0.315758505089288 
1065	 0.316862210985815 
1066	 0.317947035365857 
1067	 0.319013437173888 
1068	 0.320150063695317 
1069	 0.321251518267327 
1070	 0.322320939383578 
1071	 0.323373175764529 
1072	 0.324441954004077 
1073	 0.325467226324657 
1074	 0.326524000488742 
1075	 0.327606801653935 
1076	 0.328664675138379 
1077	 0.329756252568818 
1078	 0.330842238237628 
1079	 0.33191216540722 
1080	 0.333028828853398 
1081	 0.334095063311229 
1082	 0.335110385350043 
1083	 0.336175504016283 
1084	 0.337240128858035 
1085	 0.338327459150951 
1086	 0.339450207000555 
1087	 0.340561914744254 
1088	 0.341685411188873 
1089	 0.342794822492202 
1090	 0.343845559357388 
1091	 0.344860642099405 
1092	 0.345888054540897 
1093	 0.346902442499784 
1094	 0.347939804417657 
1095	 0.348976193349919 
1096	 0.349972214613081 
1097	 0.351014331216864 
1098	 0.352078347024979 
1099	 0.35319342806681 
1100	 0.354261286457802 
1101	 0.355341674099072 
1102	 0.356396294433837 
1103	 0.357406723488466 
1104	 0.358444724291587 
1105	 0.359514202329159 
1106	 0.360596577286121 
1107	 0.361649891372333 
1108	 0.362683766362565 
1109	 0.363696718413906 
1110	 0.364675112619502 
1111	 0.365714564546327 
1112	 0.366785666625105 
1113	 0.367855021273774 
1114	 0.368974902726323 
1115	 0.370054078032757 
1116	 0.371103206853927 
1117	 0.372172228647864 
1118	 0.373257938154089 
1119	 0.37429571026852 
1120	 0.375361649034839 
1121	 0.376435154375941 
1122	 0.377492433148327 
1123	 0.378569876803371 
1124	 0.379648809184088 
1125	 0.380738235138031 
1126	 0.38182347275898 
1127	 0.382907191407635 
1128	 0.383994073195609 
1129	 0.385081438055699 
1130	 0.386164577261858 
1131	 0.387239844775517 
1132	 0.388339475999374 
1133	 0.389461968757644 
1134	 0.39056430040095 
1135	 0.391673738156518 
1136	 0.392750376783298 
1137	 0.393886168108183 
1138	 0.394997400268296 
1139	 0.396111936802666 
1140	 0.397268006368657 
1141	 0.398389786743689 
1142	 0.399470408088497 
1143	 0.400577664133675 
1144	 0.40169361201859 
1145	 0.402799732726429 
1146	 0.403908014950615 
1147	 0.405006222721201 
1148	 0.406086206993949 
1149	 0.407194846958353 
1150	 0.408322158859746 
1151	 0.409428627272575 
1152	 0.410544816590524 
1153	 0.411658200218018 
1154	 0.412769602339763 
1155	 0.413876990038225 
1156	 0.414963274887115 
1157	 0.416047100077429 
1158	 0.417126053596353 
1159	 0.41815989575817 
1160	 0.419242145923171 
1161	 0.420367617710914 
1162	 0.421465030943789 
1163	 0.422576357579393 
1164	 0.423669626881577 
1165	 0.424742000187183 
1166	 0.425812140879727 
1167	 0.426895063592122 
1168	 0.427985066801524 
1169	 0.429050582676704 
1170	 0.430112374312727 
1171	 0.431163608138053 
1172	 0.432203469511013 
1173	 0.433229794653751 
1174	 0.434242723244119 
1175	 0.435265910300611 
1176	 0.436295162548417 
1177	 0.437293306063229 
1178	 0.438282717436584 
1179	 0.439272501607571 
1180	 0.440232373271848 
1181	 0.441200240522621 
1182	 0.442172575787428 
1183	 0.443164188723651 
1184	 0.444132284829116 
1185	 0.445086505444654 
1186	 0.446046722378917 
1187	 0.447019421332537 
1188	 0.447953111429044 
1189	 0.4488691023817 
1190	 0.449783086299804 
1191	 0.450682714630136 
1192	 0.45156760877286 
1193	 0.452448064969468 
1194	 0.453318016824444 
1195	 0.454159041039137 
1196	 0.455004772082938 
1197	 0.455873152197823 
1198	 0.456705060429506 
1199	 0.457517732864925 
1200	 0.458314358771305 
1201	 0.45909733501584 
1202	 0.459858416304854 
1203	 0.460605809001147 
1204	 0.461333574345733 
1205	 0.462068606788651 
1206	 0.462784338578607 
1207	 0.463510706249038 
1208	 0.464265438691424 
1209	 0.46497993804171 
1210	 0.465665840457975 
1211	 0.466361803661045 
1212	 0.467055465860931 
1213	 0.467728140230932 
1214	 0.468397809973333 
1215	 0.469058673060528 
1216	 0.46970613700918 
1217	 0.470331045724068 
1218	 0.470948994211741 
1219	 0.471566763819791 
1220	 0.472164744349865 
1221	 0.472737226429566 
1222	 0.473313568383145 
1223	 0.473887888508601 
1224	 0.474451233090663 
1225	 0.475005246110533 
1226	 0.475553640697909 
1227	 0.476103870311455 
1228	 0.476632398989828 
1229	 0.477146788181728 
1230	 0.477654159317022 
1231	 0.478139752699092 
1232	 0.478626552778872 
1233	 0.47910994786151 
1234	 0.479594704695794 
1235	 0.48006360192455 
1236	 0.480529744881349 
1237	 0.480976812914404 
1238	 0.48140077940635 
1239	 0.481837125296691 
1240	 0.482267880749294 
1241	 0.482698271017143 
1242	 0.483137537388661 
1243	 0.483564124577008 
1244	 0.483984206830145 
1245	 0.484395876546725 
1246	 0.484804714190004 
1247	 0.485203204747245 
1248	 0.485599891605169 
1249	 0.485972567313422 
1250	 0.486339384022116 
1251	 0.486695103180283 
1252	 0.487054796428918 
1253	 0.487403180199243 
1254	 0.487761481256697 
1255	 0.488132988133473 
1256	 0.488482584398977 
1257	 0.488835304563486 
1258	 0.489161476074806 
1259	 0.489463980614331 
1260	 0.489768747233015 
1261	 0.490065456540272 
1262	 0.49034620789768 
1263	 0.490604876827604 
1264	 0.490876000642971 
1265	 0.491141881373501 
1266	 0.491404764492216 
1267	 0.491675684076851 
1268	 0.49194289776572 
1269	 0.492212443576812 
1270	 0.49247074290703 
1271	 0.492740340683752 
1272	 0.493032478260407 
1273	 0.493291001539477 
1274	 0.49353011219219 
1275	 0.493777736942136 
1276	 0.494001371376883 
1277	 0.494254041422571 
1278	 0.494527267631038 
1279	 0.49479324779834 
1280	 0.495066623879662 
1281	 0.495342768203544 
1282	 0.495616341371534 
1283	 0.495894955760761 
1284	 0.496181330536169 
1285	 0.496454150880389 
1286	 0.496785925125008 
1287	 0.497122573801811 
1288	 0.497442244331173 
1289	 0.497777631825254 
1290	 0.498123795279825 
1291	 0.498441356535992 
1292	 0.49880232920555 
1293	 0.49921582213876 
1294	 0.499603433030533 
1295	 0.499990116450578 
1296	 0.500374732677344 
1297	 0.500770979690608 
1298	 0.501145849058378 
1299	 0.501515285717736 
1300	 0.501871665029091 
1301	 0.502224552437527 
1302	 0.502545497560891 
1303	 0.502856356453976 
1304	 0.503112652057625 
1305	 0.503376338822578 
1306	 0.503654434496869 
1307	 0.503907103360403 
1308	 0.504202081406276 
1309	 0.504465477703056 
1310	 0.50470811898201 
1311	 0.504953369832772 
1312	 0.5052009122567 
1313	 0.505430736589722 
1314	 0.505647769478761 
1315	 0.505863455445851 
1316	 0.506082808879886 
1317	 0.506273435257493 
1318	 0.506447613307088 
1319	 0.506614881369998 
1320	 0.50675097076347 
1321	 0.506893897997203 
1322	 0.507035835649018 
1323	 0.507180171742656 
1324	 0.50731154030352 
1325	 0.507431303904682 
1326	 0.507537572758461 
1327	 0.50760244379191 
1328	 0.507647262067285 
1329	 0.507683693215034 
1330	 0.507723207121052 
1331	 0.507759223651223 
1332	 0.507784666332253 
1333	 0.507797867053413 
1334	 0.50782727909751 
1335	 0.507845522241554 
1336	 0.507876465510451 
1337	 0.507941485910829 
1338	 0.507976895569746 
1339	 0.507994643125139 
1340	 0.508017425359526 
1341	 0.508025430980194 
1342	 0.508043159643756 
1343	 0.5080532600601 
1344	 0.508095704006682 
1345	 0.508141019790565 
1346	 0.508182575311965 
1347	 0.508241260044605 
1348	 0.508286283944953 
1349	 0.508337520524621 
1350	 0.508387933921516 
1351	 0.508406844202664 
1352	 0.508398562829071 
1353	 0.508419545591806 
1354	 0.508411020182487 
1355	 0.508453152369889 
1356	 0.508540040539298 
1357	 0.508611687042088 
1358	 0.508713039470858 
1359	 0.508779506728479 
1360	 0.508838600171981 
1361	 0.508882354084255 
1362	 0.50890714495108 
1363	 0.508920800598005 
1364	 0.508908770913921 
1365	 0.508907681825306 
1366	 0.50890119725236 
1367	 0.508898937632666 
1368	 0.508887080530406 
1369	 0.508877808205547 
1370	 0.508842787082755 
1371	 0.508773366160398 
1372	 0.50871065778005 
1373	 0.508671003905608 
1374	 0.508626063327424 
1375	 0.508581702666277 
1376	 0.508547990517968 
1377	 0.50851488268846 
1378	 0.508490944788777 
1379	 0.508491031342308 
1380	 0.508476701574105 
1381	 0.508464066080168 
1382	 0.508440427601333 
1383	 0.508406018986268 
1384	 0.508368214976698 
1385	 0.508317267657594 
1386	 0.508277829977455 
1387	 0.508256764050818 
1388	 0.508209595412847 
1389	 0.508155762990639 
1390	 0.508099390309776 
1391	 0.508013230068983 
1392	 0.507900421936232 
1393	 0.507805714412079 
1394	 0.507704400015562 
1395	 0.507564974162544 
1396	 0.507441200801411 
1397	 0.50731741882718 
1398	 0.507176042096788 
1399	 0.507050258870081 
1400	 0.506937621413137 
1401	 0.506827819519123 
1402	 0.506713613322819 
1403	 0.506610601977196 
1404	 0.506533048363874 
1405	 0.506434473251691 
1406	 0.506327710051767 
1407	 0.50622409607026 
1408	 0.50610210644742 
1409	 0.506005071708721 
1410	 0.505912967957052 
1411	 0.505841481478791 
1412	 0.505784048305933 
1413	 0.505752324325812 
1414	 0.505716888121402 
1415	 0.505677816600665 
1416	 0.505668693442287 
1417	 0.505657032202094 
1418	 0.505657863400387 
1419	 0.505665044183508 
1420	 0.505662856658207 
1421	 0.505657367299255 
1422	 0.505651643845569 
1423	 0.505659590086313 
1424	 0.505656776757262 
1425	 0.505638318000724 
1426	 0.505649654306478 
1427	 0.505676109054724 
1428	 0.505688830442826 
1429	 0.505714960282899 
1430	 0.50572993910641 
1431	 0.505721478018223 
1432	 0.505737413712539 
1433	 0.505777650682081 
1434	 0.50579775711734 
1435	 0.505809756544753 
1436	 0.505822194951495 
1437	 0.505832552740902 
1438	 0.505839032988717 
1439	 0.50583571481216 
1440	 0.505852830299535 
1441	 0.50587710366803 
1442	 0.505866492922161 
1443	 0.505850998844447 
1444	 0.50586750174989 
1445	 0.505865797376006 
1446	 0.505846139912589 
1447	 0.5058632551676 
1448	 0.505871829903306 
1449	 0.505858119610286 
1450	 0.505850002276621 
1451	 0.505837070877723 
1452	 0.50580951611442 
1453	 0.505782556402238 
1454	 0.50575703880048 
1455	 0.505735213226733 
1456	 0.505694570820674 
1457	 0.505685312893237 
1458	 0.505704862175653 
1459	 0.505710306439789 
1460	 0.505734228524103 
1461	 0.505734076895039 
1462	 0.50570944178123 
1463	 0.505695581531595 
1464	 0.505671112771136 
1465	 0.505658972412989 
1466	 0.505655522604982 
1467	 0.505658160988818 
1468	 0.505658409722673 
1469	 0.505676914726242 
1470	 0.505690188711454 
1471	 0.505747614825961 
1472	 0.50584252491861 
1473	 0.505938964158373 
1474	 0.506064466420071 
1475	 0.50618627754316 
1476	 0.506282934455193 
1477	 0.50639005569884 
1478	 0.506493481097604 
1479	 0.506605277516975 
1480	 0.506746695566739 
1481	 0.506892283960035 
1482	 0.507039992480518 
1483	 0.507202647113622 
1484	 0.50735698110085 
1485	 0.507508826309308 
1486	 0.507662645887251 
1487	 0.507824984019897 
1488	 0.507971770471485 
1489	 0.508098625030181 
1490	 0.508254485041211 
1491	 0.508424163159965 
1492	 0.508577297437842 
1493	 0.50875667448242 
1494	 0.508893738868381 
1495	 0.508991509174878 
1496	 0.509102276860024 
1497	 0.509188187039456 
1498	 0.509298776755242 
1499	 0.509420309457892 
1500	 0.509540892081332 
1501	 0.509682952537248 
1502	 0.509809504110906 
1503	 0.509930411329627 
1504	 0.510051291617983 
1505	 0.510148366328726 
1506	 0.510236165208362 
1507	 0.51032018852422 
1508	 0.510393616857764 
1509	 0.510474036980849 
1510	 0.510562600930226 
1511	 0.510659537812321 
1512	 0.510759362010909 
1513	 0.51086212846237 
1514	 0.510981078885055 
1515	 0.511101425884431 
1516	 0.511214830795593 
1517	 0.511317833119747 
1518	 0.511413009168411 
1519	 0.511513170066742 
1520	 0.511613944092168 
1521	 0.51169276982195 
1522	 0.511764633207203 
1523	 0.511841518656046 
1524	 0.511888616066259 
1525	 0.51196596656871 
1526	 0.512062509218224 
1527	 0.512162622745402 
1528	 0.512269779906232 
1529	 0.512384897123996 
1530	 0.512538888116495 
1531	 0.512646119408436 
1532	 0.512728304297262 
1533	 0.512812957351272 
1534	 0.51286665569743 
1535	 0.512937292759729 
1536	 0.513013045013529 
1537	 0.513104503179186 
1538	 0.513215299870228 
1539	 0.513304044738396 
1540	 0.513404512568685 
1541	 0.513488242510196 
1542	 0.513524214224916 
1543	 0.513600163325971 
1544	 0.513684761240119 
1545	 0.513779840743799 
1546	 0.513888789034126 
1547	 0.514036695939029 
1548	 0.514159705743542 
1549	 0.514280631127888 
1550	 0.514407237529491 
1551	 0.514486957939378 
1552	 0.51455185416027 
1553	 0.514633403646835 
1554	 0.514679665828058 
1555	 0.514734434722884 
1556	 0.514825892543548 
1557	 0.514907582508848 
1558	 0.515008026264659 
1559	 0.515126738070576 
1560	 0.515228029227922 
1561	 0.515332335608204 
1562	 0.5153973944379 
1563	 0.515453545111437 
1564	 0.515482300679224 
1565	 0.515453402092052 
1566	 0.515473499573141 
1567	 0.515492783171154 
1568	 0.51552876354861 
1569	 0.515589868903923 
1570	 0.51565113521999 
1571	 0.515719577757362 
1572	 0.515793480297835 
1573	 0.515886753802213 
1574	 0.515956568724181 
1575	 0.516006729476365 
1576	 0.516080281479818 
1577	 0.516148014259535 
1578	 0.516232424284051 
1579	 0.516359694930351 
1580	 0.51644829306195 
1581	 0.516534377506946 
1582	 0.516594090226742 
1583	 0.516619463569955 
1584	 0.516653512942694 
1585	 0.516652908051031 
1586	 0.516695395275409 
1587	 0.51677513864865 
1588	 0.516825796161222 
1589	 0.516886449965345 
1590	 0.516940370255357 
1591	 0.516962275438852 
1592	 0.517005091519241 
1593	 0.517074989414779 
1594	 0.517124638542939 
1595	 0.517167366265379 
1596	 0.517206835510662 
1597	 0.517236810143231 
1598	 0.517264663824456 
1599	 0.517272586455844 
1600	 0.51731104922721 
1601	 0.517364019377158 
1602	 0.517417624773435 
1603	 0.517512309101408 
1604	 0.51757083227994 
1605	 0.517590969068372 
1606	 0.517636696011121 
1607	 0.517683664047894 
1608	 0.517725663943764 
1609	 0.517794294330241 
1610	 0.517850326099622 
1611	 0.517883233309692 
1612	 0.517934942765044 
1613	 0.517987499188217 
1614	 0.518028244930225 
1615	 0.518080954217181 
1616	 0.518126549003131 
1617	 0.51817740300257 
1618	 0.518227604618066 
1619	 0.518261946221488 
1620	 0.518320168893964 
1621	 0.518355063585905 
1622	 0.518372280810858 
1623	 0.518416880772785 
1624	 0.518467535070194 
1625	 0.518510737304124 
1626	 0.518571063620049 
1627	 0.518613149272896 
1628	 0.518637703573884 
1629	 0.518667727627584 
1630	 0.518699009452966 
1631	 0.518727806291897 
1632	 0.51874922833679 
1633	 0.5187775846374 
1634	 0.518806034964481 
1635	 0.518846435497214 
1636	 0.51888413068974 
1637	 0.518947420108462 
1638	 0.519048166108129 
1639	 0.519098096018707 
1640	 0.519144949819557 
1641	 0.519178120789264 
1642	 0.519169461150142 
1643	 0.519189255541334 
1644	 0.519212549053808 
1645	 0.519255418091995 
1646	 0.519311123143435 
1647	 0.519361217179767 
1648	 0.519424832021637 
1649	 0.519490156294699 
1650	 0.519550195659178 
1651	 0.519614019121203 
1652	 0.519711956159898 
1653	 0.519751847008177 
1654	 0.519750098309346 
1655	 0.519774644565239 
1656	 0.519784418027387 
1657	 0.519794276631119 
1658	 0.519814900680514 
1659	 0.519834172646915 
1660	 0.519825793424962 
1661	 0.519857375700864 
1662	 0.519934617854485 
1663	 0.519970370163724 
1664	 0.519998530066834 
1665	 0.520030494907711 
1666	 0.520040627555411 
1667	 0.520067941470359 
1668	 0.520111505669251 
1669	 0.520150963408045 
1670	 0.520184749594593 
1671	 0.520229064361006 
1672	 0.520289959221531 
1673	 0.520333934624466 
1674	 0.520381303607934 
1675	 0.520410186812413 
1676	 0.520404606736608 
1677	 0.520440176680643 
1678	 0.520494121882437 
1679	 0.520530777400286 
1680	 0.520589079593117 
1681	 0.520624330293677 
1682	 0.520617913925958 
1683	 0.520649213689164 
1684	 0.520704461433792 
1685	 0.520742306158353 
1686	 0.520785376137782 
1687	 0.520824438910807 
1688	 0.520843523758317 
1689	 0.520886910556569 
1690	 0.520948026461429 
1691	 0.521000479596016 
1692	 0.52106062253465 
1693	 0.521115060967343 
1694	 0.521163460101262 
1695	 0.521215270447379 
1696	 0.521278338419476 
1697	 0.521317405226211 
1698	 0.52134315594684 
1699	 0.521369915016489 
1700	 0.521368013325215 
1701	 0.521401991983202 
1702	 0.52145396616461 
1703	 0.521507681559727 
1704	 0.52158747948866 
1705	 0.521645343542574 
1706	 0.521685473220252 
1707	 0.521748784736998 
1708	 0.521831068896093 
1709	 0.521882308241052 
1710	 0.521943749244684 
1711	 0.521973422559039 
1712	 0.521943163706585 
1713	 0.521963171898537 
1714	 0.522007964387732 
1715	 0.522023095076292 
1716	 0.522042245059009 
1717	 0.522059011723475 
1718	 0.522054688525957 
1719	 0.522060340387721 
1720	 0.522079719294228 
1721	 0.522090938032409 
1722	 0.522090379533772 
1723	 0.522089082888526 
1724	 0.522108616475771 
1725	 0.522082800580699 
1726	 0.522018205280614 
1727	 0.521983317622954 
1728	 0.521947392784802 
1729	 0.521894823132109 
1730	 0.521847186044249 
1731	 0.521789775929612 
1732	 0.521692538570065 
1733	 0.521640319957442 
1734	 0.521628879518771 
1735	 0.521577739068895 
1736	 0.521524042059912 
1737	 0.521460914705921 
1738	 0.521361423500998 
1739	 0.521309100140299 
1740	 0.521279370771315 
1741	 0.521245693687632 
1742	 0.521226052272552 
1743	 0.521199662626817 
1744	 0.521175506217764 
1745	 0.521154774028381 
1746	 0.521137373859859 
1747	 0.521162061686669 
1748	 0.521134958285151 
1749	 0.521082624609281 
1750	 0.521009625596395 
1751	 0.520919823961688 
1752	 0.520841070663877 
1753	 0.520807373012853 
1754	 0.520822298027686 
1755	 0.520809278924732 
1756	 0.520781341583166 
1757	 0.520741973701878 
1758	 0.520691589724184 
1759	 0.520663298782911 
1760	 0.52061972797099 
1761	 0.520578725327883 
1762	 0.520525318218782 
1763	 0.520474805408464 
1764	 0.520447711255759 
1765	 0.5203815324344 
1766	 0.520318642693802 
1767	 0.52025325540838 
1768	 0.520205360774623 
1769	 0.520216711687588 
1770	 0.520212730157946 
1771	 0.520208427868982 
1772	 0.52019558127348 
1773	 0.520154150108928 
1774	 0.520127860301706 
1775	 0.520101155319542 
1776	 0.520064266572891 
1777	 0.520022025948841 
1778	 0.520004736549436 
1779	 0.520025603955459 
1780	 0.520033293791493 
1781	 0.520026241359484 
1782	 0.520039930969444 
1783	 0.520052761219003 
1784	 0.520051172200284 
1785	 0.520082787345598 
1786	 0.520076108738085 
1787	 0.520022383325623 
1788	 0.5199808371031 
1789	 0.519904252282812 
1790	 0.519889633882362 
1791	 0.519917397971489 
1792	 0.519932713684173 
1793	 0.519997688719765 
1794	 0.520009410472201 
1795	 0.519951152647824 
1796	 0.519952941598767 
1797	 0.520010028096282 
1798	 0.519993805638072 
1799	 0.519954288786203 
1800	 0.519923673434494 
1801	 0.533864793463723 
1802	 0.533889441590435 
1803	 0.533889252268625 
1804	 0.533859845980788 
1805	 0.53383234357212 
1806	 0.533823970632497 
1807	 0.53381060155135 
1808	 0.533803037830141 
1809	 0.533819238207216 
1810	 0.533829902309761 
1811	 0.53381955012903 
1812	 0.533837813263135 
1813	 0.533873669217802 
1814	 0.533948136976954 
1815	 0.534017729209692 
1816	 0.534023612938175 
1817	 0.534068763487945 
1818	 0.534145211210535 
1819	 0.534165602301387 
1820	 0.534167802145848 
1821	 0.534187959869759 
1822	 0.534143819067967 
1823	 0.534071440964039 
1824	 0.53401415015479 
1825	 0.533966666835856 
1826	 0.533928813335524 
1827	 0.53385203728182 
1828	 0.533792677630741 
1829	 0.53375202666585 
1830	 0.533684226673941 
1831	 0.533588466706744 
1832	 0.533532363026569 
1833	 0.533491521428839 
1834	 0.533403930650281 
1835	 0.53335182309586 
1836	 0.533300410269448 
1837	 0.533228667529978 
1838	 0.5331953986252 
1839	 0.53314135176702 
1840	 0.533095541987959 
1841	 0.533033251692749 
1842	 0.532953603350935 
1843	 0.532872283557153 
1844	 0.532816147460703 
1845	 0.532767219932189 
1846	 0.532758427899541 
1847	 0.532744462685007 
1848	 0.532738493693198 
1849	 0.532777093882784 
1850	 0.532787183547654 
1851	 0.532793575456962 
1852	 0.532797155242016 
1853	 0.532755075662435 
1854	 0.532701646264303 
1855	 0.532683365122506 
1856	 0.532648152144406 
1857	 0.532638855391276 
1858	 0.532593249671599 
1859	 0.532508969297014 
1860	 0.532429827756318 
1861	 0.532337579140468 
1862	 0.532216803740109 
1863	 0.532130486384257 
1864	 0.532040757591084 
1865	 0.531911868257208 
1866	 0.531839174782691 
1867	 0.531773661707231 
1868	 0.531677596188582 
1869	 0.531573406597313 
1870	 0.5314551559713 
1871	 0.531303466679365 
1872	 0.531124031303414 
1873	 0.53090812840336 
1874	 0.530644875069719 
1875	 0.530313938213672 
1876	 0.529966844990592 
1877	 0.529612723313683 
1878	 0.529252592525886 
1879	 0.528903471041599 
1880	 0.52850125749389 
1881	 0.528038089127182 
1882	 0.527581884699691 
1883	 0.527117465695647 
1884	 0.526622256024743 
1885	 0.526095650044503 
1886	 0.525498572428551 
1887	 0.524816837294627 
1888	 0.5240469242449 
1889	 0.523234001140074 
1890	 0.522424736665437 
1891	 0.52160301001697 
1892	 0.520749859709628 
1893	 0.519913525857338 
1894	 0.519075927936461 
1895	 0.5182166997983 
1896	 0.517389219285652 
1897	 0.516610357756584 
1898	 0.515793427040563 
1899	 0.51499936674599 
1900	 0.514228719721575 
1901	 0.513476104168444 
1902	 0.512762213151649 
1903	 0.512130836880337 
1904	 0.51145899477664 
1905	 0.510793271808278 
1906	 0.510120645376434 
1907	 0.509462648954194 
1908	 0.508814362624534 
1909	 0.508221124425135 
1910	 0.50766371747314 
1911	 0.507103167526026 
1912	 0.50660906363566 
1913	 0.506151352753688 
1914	 0.505743391686892 
1915	 0.505338754674105 
1916	 0.504969121190476 
1917	 0.50461755636466 
1918	 0.504303332523808 
1919	 0.503983288598421 
1920	 0.50370188358281 
1921	 0.503430173009021 
1922	 0.503125441898977 
1923	 0.502870188392612 
1924	 0.502644718008756 
1925	 0.502435244416585 
1926	 0.50227925971708 
1927	 0.502172985751607 
1928	 0.502079839864159 
1929	 0.502040757456139 
1930	 0.502034112372319 
1931	 0.502021348012109 
1932	 0.502014151075113 
1933	 0.502006666270544 
1934	 0.502019973405957 
1935	 0.50206059776286 
1936	 0.502130783652099 
1937	 0.502210797742088 
1938	 0.502318097030811 
1939	 0.502426110714703 
1940	 0.502528293072726 
1941	 0.502677681407474 
1942	 0.502843289281407 
1943	 0.502997625181913 
1944	 0.503182077452759 
1945	 0.503374813324173 
1946	 0.503575555795504 
1947	 0.503775781781946 
1948	 0.504004619992345 
1949	 0.504264178164316 
1950	 0.504511829544922 
1951	 0.504764506277525 
1952	 0.505030953376861 
1953	 0.50529362465152 
1954	 0.50557001447327 
1955	 0.505856260387987 
1956	 0.506124638638218 
1957	 0.506414140871647 
1958	 0.506710100619769 
1959	 0.50700586589762 
1960	 0.50731773379265 
1961	 0.507629337722944 
1962	 0.507928300116495 
1963	 0.508243811106974 
1964	 0.50858954721672 
1965	 0.508913738026617 
1966	 0.509209433680447 
1967	 0.50950580414576 
1968	 0.509789337769981 
1969	 0.510028662374971 
1970	 0.510306369736398 
1971	 0.510592470434791 
1972	 0.510893918447164 
1973	 0.511224552806661 
1974	 0.511533517632404 
1975	 0.511844587903473 
1976	 0.51214757661945 
1977	 0.51246657455271 
1978	 0.512790997297458 
1979	 0.513136835196139 
1980	 0.513513759325479 
1981	 0.513872675813139 
1982	 0.514228863422079 
1983	 0.514582198239621 
1984	 0.514933711904194 
1985	 0.515285883507355 
1986	 0.515628787168387 
1987	 0.515981395558924 
1988	 0.516352671378901 
1989	 0.516716690514566 
1990	 0.517020951117541 
1991	 0.517337303708934 
1992	 0.517667033257778 
1993	 0.517965675736654 
1994	 0.518295933608681 
1995	 0.518667059980185 
1996	 0.5190253650787 
1997	 0.519377453101726 
1998	 0.519740784725112 
1999	 0.520121786504039 
2000	 0.52049735765702 
2001	 0.52087398059281 
2002	 0.521246178182795 
2003	 0.521611336039469 
2004	 0.521975080735374 
2005	 0.522350453188878 
2006	 0.522736907759889 
2007	 0.523091928623336 
2008	 0.523452150421896 
2009	 0.523794171466814 
2010	 0.524068451335553 
2011	 0.524409525212388 
2012	 0.524789133650905 
2013	 0.525152284487395 
2014	 0.525521821466173 
2015	 0.525929523155869 
2016	 0.52630165182915 
2017	 0.526674700036164 
2018	 0.527017060060497 
2019	 0.52734134786902 
2020	 0.527666460803139 
2021	 0.527962048093237 
2022	 0.528270477810799 
2023	 0.528589253223781 
2024	 0.528904262454391 
2025	 0.529221680487528 
2026	 0.529521995290401 
2027	 0.529802100145913 
2028	 0.530102004442878 
2029	 0.530409635293693 
2030	 0.530700272804928 
2031	 0.53102225591015 
2032	 0.531390093947618 
2033	 0.53171602663193 
2034	 0.532021549317773 
2035	 0.53235281366483 
2036	 0.53270167357735 
2037	 0.533019515666445 
2038	 0.533363716619772 
2039	 0.533656951872745 
2040	 0.533917234740069 
2041	 0.534131323009512 
2042	 0.534336272045263 
2043	 0.53452591348475 
2044	 0.534740719086439 
2045	 0.534947688419466 
2046	 0.535179923254947 
2047	 0.535448599320621 
2048	 0.535688831974685 
2049	 0.535932936289164 
2050	 0.536157290470238 
2051	 0.536367761925855 
2052	 0.53657254566083 
2053	 0.536759210143892 
2054	 0.536953115570332 
2055	 0.537151211307403 
2056	 0.537315550022163 
2057	 0.537527926771583 
2058	 0.537743074454562 
2059	 0.53800025275368 
2060	 0.538315140180235 
2061	 0.538590888951898 
2062	 0.538898099083735 
2063	 0.539154321854582 
2064	 0.539369739630251 
2065	 0.539588446841242 
2066	 0.539777314252495 
2067	 0.539982681921228 
2068	 0.540185792628723 
2069	 0.540398720968137 
2070	 0.540603976205139 
2071	 0.540803942165208 
2072	 0.541024849869624 
2073	 0.541257364625042 
2074	 0.541475409711397 
2075	 0.541711979896647 
2076	 0.541923505643843 
2077	 0.542094931720679 
2078	 0.542300545932936 
2079	 0.542517543733214 
2080	 0.542735169174017 
2081	 0.542977239605847 
2082	 0.543200637239818 
2083	 0.543416452207349 
2084	 0.543629991949984 
2085	 0.543826883617282 
2086	 0.544007411436473 
2087	 0.54419366613521 
2088	 0.544370338185612 
2089	 0.544547974098297 
2090	 0.5447245571011 
2091	 0.544905219713745 
2092	 0.545076406932097 
2093	 0.545260524112799 
2094	 0.545455957924041 
2095	 0.545650130911269 
2096	 0.545862026689431 
2097	 0.546055989323469 
2098	 0.546240094154949 
2099	 0.546421434404566 
2100	 0.546608040007457 
2101	 0.546777526863886 
2102	 0.546973498082417 
2103	 0.547181137279012 
2104	 0.547402452659462 
2105	 0.547640649663675 
2106	 0.547877681765397 
2107	 0.54811774665471 
2108	 0.54837849477386 
2109	 0.548666386358714 
2110	 0.548930335892973 
2111	 0.549207070876544 
2112	 0.549471459897494 
2113	 0.549711397422025 
2114	 0.549949729917717 
2115	 0.550194259843927 
2116	 0.550440776749218 
2117	 0.550694118096446 
2118	 0.550956381923083 
2119	 0.551200234961114 
2120	 0.551428244043173 
2121	 0.551689710206396 
2122	 0.551956280004243 
2123	 0.552220318303584 
2124	 0.552537307241688 
2125	 0.552799903123605 
2126	 0.553013562254071 
2127	 0.553243361288674 
2128	 0.553471448053776 
2129	 0.553679724131183 
2130	 0.553877731065298 
2131	 0.55409003855962 
2132	 0.554248283541854 
2133	 0.554372771832644 
2134	 0.554484805888009 
2135	 0.554586015667663 
2136	 0.554632628638542 
2137	 0.554642051723068 
2138	 0.554635738153995 
2139	 0.554580927776076 
2140	 0.554516946833503 
2141	 0.554440555946319 
2142	 0.55434509493205 
2143	 0.554228932575284 
2144	 0.554086790716931 
2145	 0.553922642775554 
2146	 0.553744769253476 
2147	 0.553540752918945 
2148	 0.55331394662644 
2149	 0.553085236466831 
2150	 0.552854628205219 
2151	 0.552595490311144 
2152	 0.552315319506289 
2153	 0.5520276052269 
2154	 0.551729893778401 
2155	 0.551403058831384 
2156	 0.551060777801422 
2157	 0.550696128871354 
2158	 0.55028540121541 
2159	 0.549892075751664 
2160	 0.549488906619561 
2161	 0.549087899854925 
2162	 0.548700757288912 
2163	 0.548294015917515 
2164	 0.547881254202989 
2165	 0.54745799147435 
2166	 0.547013707511554 
2167	 0.546534061491565 
2168	 0.546095161394609 
2169	 0.545656138646245 
2170	 0.545223191326929 
2171	 0.544818576416365 
2172	 0.544393968287859 
2173	 0.543946371724501 
2174	 0.543522445279175 
2175	 0.543108463857639 
2176	 0.54269869328004 
2177	 0.542307991241687 
2178	 0.541901528246951 
2179	 0.541507224128651 
2180	 0.541084101251252 
2181	 0.540633300262763 
2182	 0.540186485488491 
2183	 0.539729093777913 
2184	 0.539256829775989 
2185	 0.538794326084222 
2186	 0.538318113963135 
2187	 0.537888079060822 
2188	 0.537456697056539 
2189	 0.537078938207898 
2190	 0.53676017322207 
2191	 0.536431289842408 
2192	 0.536151954405078 
2193	 0.53582299850972 
2194	 0.535481717216567 
2195	 0.535134621493263 
2196	 0.534735584709909 
2197	 0.534386732929498 
2198	 0.534061728368036 
2199	 0.533740135119585 
2200	 0.533435391457073 
2201	 0.533144697402108 
2202	 0.532855585635575 
2203	 0.532579993546028 
2204	 0.532352683893137 
2205	 0.532166310156815 
2206	 0.531981198648723 
2207	 0.531839661749343 
2208	 0.531675401613642 
2209	 0.531512932580688 
2210	 0.531340909855531 
2211	 0.531146764971734 
2212	 0.530997205072474 
2213	 0.530868587392366 
2214	 0.530734755656811 
2215	 0.530654549198345 
2216	 0.530516661785492 
2217	 0.53032516819125 
2218	 0.530163371213601 
2219	 0.530001763355726 
2220	 0.529829371595605 
2221	 0.52966067409685 
2222	 0.529488924470028 
2223	 0.529328859848266 
2224	 0.529166377702598 
2225	 0.528973250374572 
2226	 0.528799880191127 
2227	 0.528559380598927 
2228	 0.528249818624653 
2229	 0.527972517618791 
2230	 0.527688554129759 
2231	 0.527383902566494 
2232	 0.527081789933233 
2233	 0.526746771326784 
2234	 0.526361725762651 
2235	 0.526002357162457 
2236	 0.525617611791084 
2237	 0.525271749944238 
2238	 0.52493013618207 
2239	 0.52463644459548 
2240	 0.524396343764723 
2241	 0.524147925263897 
2242	 0.523939015767192 
2243	 0.523711519602954 
2244	 0.523467479513835 
2245	 0.523223399682055 
2246	 0.52302937691096 
2247	 0.522855321539624 
2248	 0.522709637030567 
2249	 0.522620591225843 
2250	 0.522502871745685 
2251	 0.522384716801595 
2252	 0.522288621789539 
2253	 0.522197397068518 
2254	 0.52211384297753 
2255	 0.522039050985024 
2256	 0.521993209804145 
2257	 0.521948734267701 
2258	 0.521947929553092 
2259	 0.522001817627321 
2260	 0.522043396598537 
2261	 0.522111374580841 
2262	 0.522170518891731 
2263	 0.522222266158655 
2264	 0.522290031944769 
2265	 0.522389952147486 
2266	 0.52245266822435 
2267	 0.522496108963719 
2268	 0.522545586412447 
2269	 0.522584565515907 
2270	 0.52259714021852 
2271	 0.522612475979769 
2272	 0.522708296461733 
2273	 0.522779015278544 
2274	 0.522845806452277 
2275	 0.522938514817801 
2276	 0.52305168564398 
2277	 0.523172542864879 
2278	 0.523318535192147 
2279	 0.523439137995961 
2280	 0.523572317867895 
2281	 0.523678174181065 
2282	 0.523744876242329 
2283	 0.523841854841801 
2284	 0.523941190331618 
2285	 0.524043117206218 
2286	 0.524137791166337 
2287	 0.524278415318448 
2288	 0.524436237176743 
2289	 0.524608702460429 
2290	 0.524800939478875 
2291	 0.525037148021404 
2292	 0.525308863752734 
2293	 0.525588023666656 
2294	 0.525927731785353 
2295	 0.52624280085717 
2296	 0.526556462592124 
2297	 0.526843495871245 
2298	 0.527148361285543 
2299	 0.527470104778216 
2300	 0.5278372478134 
2301	 0.528167878557115 
2302	 0.528401900649933 
2303	 0.528670855580744 
2304	 0.528919225950903 
2305	 0.529137104584992 
2306	 0.529430642403492 
2307	 0.529824500390934 
2308	 0.530129538016017 
2309	 0.530449609885514 
2310	 0.530705637666792 
2311	 0.53088155763928 
2312	 0.531114937686934 
2313	 0.531300925494156 
2314	 0.53155952331387 
2315	 0.531930781907231 
2316	 0.532200758970447 
2317	 0.532436359909332 
2318	 0.532696166902906 
2319	 0.532871183331851 
2320	 0.533138698890036 
2321	 0.533497141307162 
2322	 0.533829496871561 
2323	 0.534192406086223 
2324	 0.534551924525627 
2325	 0.534888912070688 
2326	 0.535251609223874 
2327	 0.535663884178682 
2328	 0.536027397818228 
2329	 0.536346353493081 
2330	 0.536737622510254 
2331	 0.53703147326893 
2332	 0.537298900038082 
2333	 0.537594201964598 
2334	 0.53787530256909 
2335	 0.538172592286905 
2336	 0.538461574421695 
2337	 0.538702768929858 
2338	 0.538924517245521 
2339	 0.539098641513095 
2340	 0.539228615511012 
2341	 0.539428097088906 
2342	 0.539571385499668 
2343	 0.53968545543437 
2344	 0.53979106123868 
2345	 0.539869277201451 
2346	 0.539899598703229 
2347	 0.539949702191692 
2348	 0.540013309072917 
2349	 0.540025121088752 
2350	 0.539997408968983 
2351	 0.539949558931495 
2352	 0.539843090564149 
2353	 0.539802922927913 
2354	 0.539791401863725 
2355	 0.539757798546671 
2356	 0.539764873352156 
2357	 0.539699905864622 
2358	 0.539577727512994 
2359	 0.539444602390444 
2360	 0.539286002145632 
2361	 0.539101132029468 
2362	 0.538865869228214 
2363	 0.538682026795566 
2364	 0.538451243636206 
2365	 0.538320080130236 
2366	 0.53834098781254 
2367	 0.53822590602463 
2368	 0.538093276418746 
2369	 0.537933618226864 
2370	 0.537677352702075 
2371	 0.537441929481422 
2372	 0.537259119850755 
2373	 0.537077838341336 
2374	 0.536839291416787 
2375	 0.536522620109236 
2376	 0.536191666391574 
2377	 0.535842458599414 
2378	 0.535593433718697 
2379	 0.535400192293736 
2380	 0.535148975139625 
2381	 0.534918833761577 
2382	 0.534662342780989 
2383	 0.53429368070766 
2384	 0.533909587673743 
2385	 0.533659487713685 
2386	 0.533386908251359 
2387	 0.533089002152826 
2388	 0.532940825891149 
2389	 0.532753978402538 
2390	 0.532402735570404 
2391	 0.532097576501403 
2392	 0.531674841803784 
2393	 0.531125396016951 
2394	 0.530818970683457 
2395	 0.530541847263038 
2396	 0.530230512201507 
2397	 0.529941598960321 
2398	 0.529505628923488 
2399	 0.528989578673697 
2400	 0.528561588137681 
2401	 0.528223888627406 
2402	 0.527890354653921 
2403	 0.527586350517163 
2404	 0.527199575093833 
2405	 0.526725888900251 
2406	 0.526330865452051 
2407	 0.525944714343516 
2408	 0.525503720404946 
2409	 0.525183109259596 
2410	 0.524992949392338 
2411	 0.524752715287758 
2412	 0.524536835966897 
2413	 0.52438970793852 
2414	 0.524129727876869 
2415	 0.523753312625448 
2416	 0.523467442547006 
2417	 0.523263704567208 
2418	 0.523004702497531 
2419	 0.522790857682792 
2420	 0.522445682712067 
2421	 0.521934830828298 
2422	 0.521594986562509 
2423	 0.521263843472433 
2424	 0.520977999271935 
2425	 0.52087642032111 
2426	 0.520647291074741 
2427	 0.520271991804374 
2428	 0.520024092973066 
2429	 0.519853267739506 
2430	 0.519605900894464 
2431	 0.519341443130939 
2432	 0.519128434000294 
2433	 0.518906910934184 
2434	 0.518760705080562 
2435	 0.518734649365303 
2436	 0.518578913224217 
2437	 0.51836707101136 
2438	 0.518149713272204 
2439	 0.517922195925428 
2440	 0.517630249003533 
2441	 0.517301898244973 
2442	 0.517004718373323 
2443	 0.516549282300142 
2444	 0.516330046619861 
2445	 0.516315162298102 
2446	 0.516208312868713 
2447	 0.516204143712491 
2448	 0.516097144402019 
2449	 0.515931159033835 
2450	 0.515580816841204 
2451	 0.515055655952286 
2452	 0.514711040645489 
2453	 0.514244782953928 
2454	 0.51407453618289 
2455	 0.514279874260373 
2456	 0.514194323154884 
2457	 0.514109785750531 
2458	 0.513954406966369 
2459	 0.51358005004848 
2460	 0.513263556531208 
2461	 0.512917482624825 
2462	 0.512751907729094 
2463	 0.512749986172844 
2464	 0.512618085937182 
2465	 0.512578513395384 
2466	 0.512354012890211 
2467	 0.511859518388713 
2468	 0.511518424382341 
2469	 0.511214025293094 
2470	 0.510994095136776 
2471	 0.510749946035033 
2472	 0.510545376490085 
2473	 0.510362792996687 
2474	 0.510168979539989 
2475	 0.509982149177069 
2476	 0.509820245864882 
2477	 0.509437631631649 
2478	 0.50884858515386 
2479	 0.508508076500128 
2480	 0.508256591849077 
2481	 0.508139471991192 
2482	 0.50831928293473 
2483	 0.508239492924533 
2484	 0.507850949238229 
2485	 0.507451295396591 
2486	 0.507014690881223 
2487	 0.506608954732533 
2488	 0.506528850564965 
2489	 0.506631606687992 
2490	 0.506519405634177 
2491	 0.506546020778116 
2492	 0.506534064112727 
2493	 0.506446978100535 
2494	 0.506401285612956 
2495	 0.506161495112652 
2496	 0.506137757418356 
2497	 0.505901266268567 
2498	 0.505355262967513 
2499	 0.505071704773383 
2500	 0.504713362153806 
