Wavelength	MM900008.asd
350	 6.05328842989853E-02 
351	 6.59964053874262E-02 
352	 6.82506580290087E-02 
353	 6.19148239851012E-02 
354	 6.12451514012961E-02 
355	 6.88528299843966E-02 
356	 7.61426259937966E-02 
357	 0.074334916527604 
358	 6.56811421533249E-02 
359	 5.89419302846801E-02 
360	 5.92496996430652E-02 
361	 6.69921098769059E-02 
362	 6.17650353169255E-02 
363	 5.65889116175656E-02 
364	 5.82692758444025E-02 
365	 5.70682380927446E-02 
366	 5.93077123784147E-02 
367	 5.98385395135231E-02 
368	 5.51691244148215E-02 
369	 6.04804385814897E-02 
370	 6.21052821664609E-02 
371	 6.01783794519832E-02 
372	 6.38473964317114E-02 
373	 0.066237315058218 
374	 0.065948182112981 
375	 6.45521477988452E-02 
376	 6.77491081980605E-02 
377	 6.49227517510314E-02 
378	 6.32558566833072E-02 
379	 0.069850635302739 
380	 6.81558304927394E-02 
381	 6.58636080908533E-02 
382	 6.60169205060218E-02 
383	 6.73598516737608E-02 
384	 6.82036007180766E-02 
385	 6.85842620813615E-02 
386	 6.89179592362354E-02 
387	 6.99457442423849E-02 
388	 6.89501103317321E-02 
389	 6.66493002163823E-02 
390	 6.52157106562971E-02 
391	 6.78212076940739E-02 
392	 6.96863451558506E-02 
393	 6.97847047501158E-02 
394	 7.05113244425635E-02 
395	 7.09930812372319E-02 
396	 7.17126488857645E-02 
397	 7.28710940147966E-02 
398	 7.35789241598255E-02 
399	 7.54244919545315E-02 
400	 7.69986868553973E-02 
401	 0.076427933671991 
402	 7.57174237831026E-02 
403	 7.57753308183376E-02 
404	 7.65690933397009E-02 
405	 0.077236242791953 
406	 7.77537827477637E-02 
407	 7.80430674017521E-02 
408	 7.80505795509017E-02 
409	 7.75881687279515E-02 
410	 7.79821960233187E-02 
411	 7.88513594052758E-02 
412	 7.92067310522127E-02 
413	 8.02055395573211E-02 
414	 8.07081807161377E-02 
415	 8.06212673144332E-02 
416	 8.14113726867233E-02 
417	 8.15205948655631E-02 
418	 8.13912544795219E-02 
419	 8.16880097523056E-02 
420	 8.21504076675114E-02 
421	 8.23793973856068E-02 
422	 8.25863164994861E-02 
423	 8.32253860203667E-02 
424	 8.27577153517587E-02 
425	 8.22472386701812E-02 
426	 8.23974456345499E-02 
427	 8.27047836723363E-02 
428	 8.30562191067211E-02 
429	 0.083151701003349 
430	 8.28269334796852E-02 
431	 8.27261934585573E-02 
432	 8.26775053393448E-02 
433	 8.25743409134583E-02 
434	 8.24196731179744E-02 
435	 8.22691573373546E-02 
436	 8.23444984437062E-02 
437	 8.25609245262452E-02 
438	 8.18625717274362E-02 
439	 8.17526777996464E-02 
440	 8.22531838302112E-02 
441	 8.26288060403702E-02 
442	 8.26650518247226E-02 
443	 8.27384492853087E-02 
444	 8.29518974596504E-02 
445	 8.28903445088104E-02 
446	 8.30975907703705E-02 
447	 8.34363364676799E-02 
448	 8.36457924747688E-02 
449	 8.38213278596012E-02 
450	 8.41469541338851E-02 
451	 8.46539454970071E-02 
452	 8.52073372716155E-02 
453	 8.50884102994204E-02 
454	 0.084930544381377 
455	 8.52816623349722E-02 
456	 8.59713548556292E-02 
457	 8.61824402812562E-02 
458	 8.62045404300614E-02 
459	 8.66901756877269E-02 
460	 8.67323015616845E-02 
461	 8.65394177946819E-02 
462	 8.64012480603243E-02 
463	 8.65642676392161E-02 
464	 8.70930571989737E-02 
465	 0.087497433091519 
466	 8.74172096648245E-02 
467	 8.76753759482973E-02 
468	 8.76894681575187E-02 
469	 8.74711658074463E-02 
470	 8.75146784682093E-02 
471	 0.087642535408266 
472	 8.77972749875578E-02 
473	 0.08793302298659 
474	 8.79869587899906E-02 
475	 8.80568782994055E-02 
476	 8.81641482291751E-02 
477	 8.82820710021806E-02 
478	 0.088329063736251 
479	 8.82564797768318E-02 
480	 8.82084497154148E-02 
481	 8.85926694951148E-02 
482	 8.87309570439083E-02 
483	 8.87799470123701E-02 
484	 8.89949656539736E-02 
485	 8.90366725555885E-02 
486	 8.89301176825963E-02 
487	 8.88061282167225E-02 
488	 8.88573823032809E-02 
489	 8.89069705442921E-02 
490	 8.89710459669235E-02 
491	 8.90630500302928E-02 
492	 8.91098840116956E-02 
493	 8.91260185594525E-02 
494	 8.91210483591907E-02 
495	 0.089119869318156 
496	 8.92726189174402E-02 
497	 8.93328054464772E-02 
498	 8.92743451776892E-02 
499	 8.94563073520427E-02 
500	 8.94747113580045E-02 
501	 8.94991649425728E-02 
502	 8.97283262928513E-02 
503	 8.97227474098339E-02 
504	 8.97079013518257E-02 
505	 8.97077487416639E-02 
506	 8.95596946981983E-02 
507	 0.08960542158241 
508	 8.97379101473892E-02 
509	 8.98014452632599E-02 
510	 8.97532015789313E-02 
511	 8.96899057459784E-02 
512	 8.97206079573941E-02 
513	 8.99087635465318E-02 
514	 8.98724789155225E-02 
515	 8.98257548193809E-02 
516	 0.089910767070892 
517	 9.00529267849937E-02 
518	 8.99496522885839E-02 
519	 8.98416184615481E-02 
520	 9.00306678357712E-02 
521	 9.01115046158133E-02 
522	 0.090137175203985 
523	 9.01492405495946E-02 
524	 9.01496145510107E-02 
525	 9.00833970109775E-02 
526	 9.00552808741672E-02 
527	 9.01446305853828E-02 
528	 0.090250903239155 
529	 0.090338336808464 
530	 9.03816171950442E-02 
531	 9.03683655496655E-02 
532	 9.03075787962005E-02 
533	 9.03387383692353E-02 
534	 9.04948744690615E-02 
535	 9.05618373460651E-02 
536	 9.06224766021559E-02 
537	 9.06745341067109E-02 
538	 9.06992184358552E-02 
539	 9.07674604292336E-02 
540	 9.07930387725798E-02 
541	 9.07928986482731E-02 
542	 9.09365316317095E-02 
543	 9.10370096253475E-02 
544	 9.11276427258442E-02 
545	 9.12600900142626E-02 
546	 0.09130341698323 
547	 9.13582158411802E-02 
548	 9.14692451453563E-02 
549	 9.16238306868601E-02 
550	 9.17570147829314E-02 
551	 9.18407016102728E-02 
552	 9.19029500568662E-02 
553	 0.092108551926384 
554	 9.22043135736055E-02 
555	 9.22517389427321E-02 
556	 9.24491234183104E-02 
557	 9.25941986230026E-02 
558	 9.27445843915354E-02 
559	 9.29461800919692E-02 
560	 9.31731509746469E-02 
561	 9.34316031149477E-02 
562	 9.37753779083392E-02 
563	 9.42355849273713E-02 
564	 0.094638739117122 
565	 0.0950602854633 
566	 9.55051687141574E-02 
567	 9.58847872542006E-02 
568	 9.62469636234492E-02 
569	 9.65519493101364E-02 
570	 9.67731785441765E-02 
571	 9.69688707360972E-02 
572	 9.72922351505909E-02 
573	 9.77624034581778E-02 
574	 9.82884567166437E-02 
575	 9.87340149989959E-02 
576	 9.92317581687738E-02 
577	 9.98347672745585E-02 
578	 0.100297965906974 
579	 0.10094916735086 
580	 0.101778049224193 
581	 0.102628977794784 
582	 0.103464009242551 
583	 0.104265800846435 
584	 0.10505264635731 
585	 0.105887754625604 
586	 0.106776441975359 
587	 0.107706137760703 
588	 0.108643786789403 
589	 0.109515842753777 
590	 0.110351641488201 
591	 0.11117684428113 
592	 0.112007315270545 
593	 0.112710952900317 
594	 0.11338499005855 
595	 0.114130709183612 
596	 0.11492798527328 
597	 0.115856107755638 
598	 0.11684960798923 
599	 0.11778528680891 
600	 0.118771759579291 
601	 0.119727862265213 
602	 0.120609614232633 
603	 0.121477458110017 
604	 0.122353393634801 
605	 0.123242080269534 
606	 0.124121663373454 
607	 0.12489241518392 
608	 0.125615304425959 
609	 0.126340133559372 
610	 0.127092328400385 
611	 0.127795393237153 
612	 0.128459134943394 
613	 0.129108845647366 
614	 0.129759030363318 
615	 0.130350014396637 
616	 0.130902085649265 
617	 0.131479752672164 
618	 0.131982542921185 
619	 0.132421949021907 
620	 0.132841164786826 
621	 0.133321033012452 
622	 0.133733307587663 
623	 0.134096107751239 
624	 0.134483207827594 
625	 0.13490327815789 
626	 0.135285933838124 
627	 0.135616423015794 
628	 0.135960209784712 
629	 0.136322275179179 
630	 0.13667770864293 
631	 0.137005926371703 
632	 0.137349510031811 
633	 0.137634378923139 
634	 0.137875751273525 
635	 0.13816206327545 
636	 0.138493262786522 
637	 0.138800547560813 
638	 0.13905609586513 
639	 0.139368082822987 
640	 0.139649426260065 
641	 0.139915012870926 
642	 0.140221876992 
643	 0.140577247617784 
644	 0.140841721766083 
645	 0.141025155561306 
646	 0.141371420210232 
647	 0.141701471291814 
648	 0.141970707249557 
649	 0.142208712260021 
650	 0.142589159472105 
651	 0.142945618776599 
652	 0.143237846518711 
653	 0.14354783788858 
654	 0.14395065757754 
655	 0.144310902948947 
656	 0.144562939670068 
657	 0.144907099019399 
658	 0.145306572827378 
659	 0.145716781927473 
660	 0.146094367815156 
661	 0.146496140609874 
662	 0.146876870432492 
663	 0.147244693783247 
664	 0.147698408836906 
665	 0.148150543552656 
666	 0.148577813460207 
667	 0.14898715022226 
668	 0.149419453195998 
669	 0.149883116389725 
670	 0.150370498403578 
671	 0.150861776036583 
672	 0.151370338507244 
673	 0.151895600538538 
674	 0.152427333242733 
675	 0.152939087666915 
676	 0.153439243780141 
677	 0.153959503116302 
678	 0.154528634338087 
679	 0.155066533064817 
680	 0.155634788843297 
681	 0.156253525411168 
682	 0.156874084710563 
683	 0.157496483826878 
684	 0.158106668680457 
685	 0.158703193500553 
686	 0.159325884137723 
687	 0.160045042154997 
688	 0.160789599191024 
689	 0.161402726680954 
690	 0.162006006640456 
691	 0.162661481673228 
692	 0.163388406007005 
693	 0.16415281324238 
694	 0.164830235708594 
695	 0.165487482481049 
696	 0.166241096452262 
697	 0.167037017046664 
698	 0.167782117393811 
699	 0.168500927047822 
700	 0.169336148822238 
701	 0.170096571464218 
702	 0.170820749506752 
703	 0.171581001932948 
704	 0.172405619802565 
705	 0.173213874617516 
706	 0.173993707324069 
707	 0.174767151445093 
708	 0.175497627169236 
709	 0.176242285219496 
710	 0.177027175392697 
711	 0.177821152173972 
712	 0.178641712029812 
713	 0.179426443420064 
714	 0.180137596062557 
715	 0.180900720114089 
716	 0.18167243553721 
717	 0.182421903126235 
718	 0.18313515629544 
719	 0.183861919132289 
720	 0.18457221256147 
721	 0.185252969277387 
722	 0.185954453681238 
723	 0.186576954452484 
724	 0.187156283461449 
725	 0.187768008126755 
726	 0.188428341064953 
727	 0.188997086028833 
728	 0.189484934454327 
729	 0.190039832811839 
730	 0.190548766437529 
731	 0.191024350257526 
732	 0.191476574239729 
733	 0.191848344852532 
734	 0.19223348217485 
735	 0.192598689600703 
736	 0.192877400996366 
737	 0.193154483867427 
738	 0.193400962117165 
739	 0.193604339699136 
740	 0.193779491240374 
741	 0.193975835920444 
742	 0.194098673171269 
743	 0.19410052302431 
744	 0.194146571435284 
745	 0.194138229470583 
746	 0.194110579661893 
747	 0.194136378165946 
748	 0.194092768260419 
749	 0.193989960760306 
750	 0.193842574055184 
751	 0.193655692947728 
752	 0.193456719035574 
753	 0.193237724025096 
754	 0.192986774924018 
755	 0.192706067884747 
756	 0.192420965017703 
757	 0.192125085442333 
758	 0.191794001419572 
759	 0.191403708134079 
760	 0.191005070113501 
761	 0.190617395385399 
762	 0.190212365492705 
763	 0.189787322921839 
764	 0.189350180050409 
765	 0.188899754938355 
766	 0.188398073960829 
767	 0.187854785138246 
768	 0.187327388862539 
769	 0.186872420900724 
770	 0.186364326434472 
771	 0.185848892230538 
772	 0.185331684117164 
773	 0.184754884256042 
774	 0.184190940576317 
775	 0.183621328229335 
776	 0.183031967512054 
777	 0.182481525682335 
778	 0.181912332223557 
779	 0.181332068719398 
780	 0.180770415773925 
781	 0.18019305782248 
782	 0.179609686913577 
783	 0.179034361209119 
784	 0.178482971909812 
785	 0.177956284238006 
786	 0.177402968246271 
787	 0.176805945206666 
788	 0.176245847181044 
789	 0.175724125458229 
790	 0.175189703103739 
791	 0.17459324831276 
792	 0.174018265742651 
793	 0.173486217370226 
794	 0.172997459493157 
795	 0.172527790268779 
796	 0.171942042827916 
797	 0.171387753585376 
798	 0.170932578127955 
799	 0.170418634117622 
800	 0.169882712502741 
801	 0.169360150411762 
802	 0.168878619210162 
803	 0.168426503097091 
804	 0.167988012829559 
805	 0.167535534655006 
806	 0.167048656575477 
807	 0.166617451585349 
808	 0.166180625013768 
809	 0.165723082661995 
810	 0.165308072712512 
811	 0.164895015970974 
812	 0.164456158742013 
813	 0.164003787255345 
814	 0.163650418641621 
815	 0.163299814611795 
816	 0.162928409353843 
817	 0.16254719669628 
818	 0.162169270144544 
819	 0.161838873403503 
820	 0.161534215977686 
821	 0.161184007057208 
822	 0.160849250806335 
823	 0.160500705100754 
824	 0.160141379734603 
825	 0.159845861005629 
826	 0.159572915077787 
827	 0.159297497501803 
828	 0.159014919207273 
829	 0.158772513088261 
830	 0.158513208368847 
831	 0.15825122904489 
832	 0.158023698695223 
833	 0.157780359552829 
834	 0.157498762044402 
835	 0.157241247812857 
836	 0.157125586459596 
837	 0.156966400649684 
838	 0.156758121086831 
839	 0.156541642131462 
840	 0.156381126723972 
841	 0.156200500294303 
842	 0.156028043761802 
843	 0.155885898762609 
844	 0.15568133352132 
845	 0.155510820351454 
846	 0.155388271850671 
847	 0.155291180253927 
848	 0.155248359516787 
849	 0.155155406250779 
850	 0.155004201563684 
851	 0.154873010026823 
852	 0.154751098545692 
853	 0.154639489088907 
854	 0.154573674384561 
855	 0.154632745869237 
856	 0.154612534700869 
857	 0.154537117679709 
858	 0.154464076214021 
859	 0.154375300618985 
860	 0.154350379426814 
861	 0.154347355316219 
862	 0.154311428681549 
863	 0.154346325042644 
864	 0.15436935224293 
865	 0.154369389623043 
866	 0.15438000932132 
867	 0.154376947985989 
868	 0.154426623962715 
869	 0.154500375400013 
870	 0.154484877304958 
871	 0.154570971921669 
872	 0.154683689919354 
873	 0.154766833767718 
874	 0.154867407001197 
875	 0.154940014005005 
876	 0.154997577537079 
877	 0.155071080171717 
878	 0.155198928526054 
879	 0.155343283212429 
880	 0.155452311221372 
881	 0.155513235350633 
882	 0.15568024667414 
883	 0.155846309923706 
884	 0.156003619959104 
885	 0.156193193705232 
886	 0.156365687434476 
887	 0.156548381000685 
888	 0.156721142246142 
889	 0.156837669360815 
890	 0.157044247672382 
891	 0.157245697836489 
892	 0.157431498070296 
893	 0.157724792887792 
894	 0.157994353551043 
895	 0.158217131357226 
896	 0.158426483774073 
897	 0.158712816280264 
898	 0.158989433005441 
899	 0.159254555775028 
900	 0.1595354692343 
901	 0.159875356160051 
902	 0.160194452131352 
903	 0.160518079288368 
904	 0.160877028084385 
905	 0.161178842718268 
906	 0.161457528746164 
907	 0.16177229660687 
908	 0.162167344364819 
909	 0.162569606700991 
910	 0.162914011467499 
911	 0.163250230877093 
912	 0.16368011222884 
913	 0.164108092705079 
914	 0.164540763473408 
915	 0.164969902288106 
916	 0.165379563124272 
917	 0.165859250971664 
918	 0.166340560305868 
919	 0.166786900439955 
920	 0.167224717393308 
921	 0.167675559731536 
922	 0.168166471428033 
923	 0.168709784682985 
924	 0.169294689711677 
925	 0.169802283296254 
926	 0.170292624664303 
927	 0.170823819554496 
928	 0.171368544913251 
929	 0.171938997904027 
930	 0.172558601440481 
931	 0.173212041598136 
932	 0.173794778851581 
933	 0.174443342246653 
934	 0.175093406083211 
935	 0.175677472908567 
936	 0.176292611822836 
937	 0.176903544336902 
938	 0.17753583442048 
939	 0.178230663944252 
940	 0.179025477097197 
941	 0.179755865254575 
942	 0.180447601172053 
943	 0.181180282663969 
944	 0.181889426015852 
945	 0.18268576564983 
946	 0.183483577730531 
947	 0.184178871666014 
948	 0.185027513766661 
949	 0.185826203808726 
950	 0.186616467572597 
951	 0.187523670165301 
952	 0.188383960748726 
953	 0.189170056898576 
954	 0.189950197086564 
955	 0.190822679643049 
956	 0.191750392911125 
957	 0.192713304947136 
958	 0.193605769039789 
959	 0.194367109238206 
960	 0.195457747465649 
961	 0.19646189003672 
962	 0.197353626378147 
963	 0.198351537818056 
964	 0.199279938174514 
965	 0.200171900518705 
966	 0.201099126898751 
967	 0.20213521554296 
968	 0.203262165431726 
969	 0.20426444407945 
970	 0.205253453641153 
971	 0.206467967550478 
972	 0.207448660407528 
973	 0.208481129720469 
974	 0.209602358364365 
975	 0.210676709110279 
976	 0.211840804837063 
977	 0.213018822823597 
978	 0.2141581510127 
979	 0.215236645619221 
980	 0.21623401802337 
981	 0.217410109775371 
982	 0.218679223405738 
983	 0.219796413563381 
984	 0.220954818746167 
985	 0.222171224447211 
986	 0.223381810036461 
987	 0.224514313278376 
988	 0.225666918094741 
989	 0.226792171993649 
990	 0.22796611667544 
991	 0.22927494348554 
992	 0.230556668142629 
993	 0.231857770741729 
994	 0.233095015731634 
995	 0.234177532586891 
996	 0.235210203989501 
997	 0.236468484829891 
998	 0.237737120687616 
999	 0.238791398400462 
1000	 0.24011785197811 
1001	 0.247934523667654 
1002	 0.249215057455711 
1003	 0.250516366191469 
1004	 0.25176591516204 
1005	 0.253019363873489 
1006	 0.254261388816306 
1007	 0.255479694820612 
1008	 0.256633353263732 
1009	 0.257830146664826 
1010	 0.259012260590968 
1011	 0.260240195091595 
1012	 0.261506186274204 
1013	 0.262700111349983 
1014	 0.263887851293627 
1015	 0.26504790685999 
1016	 0.266174172461176 
1017	 0.267320137810353 
1018	 0.26848594317615 
1019	 0.269637907134612 
1020	 0.270756557535762 
1021	 0.271869123854368 
1022	 0.272992639796585 
1023	 0.274145231779256 
1024	 0.275275792382772 
1025	 0.276370183332647 
1026	 0.277434355964314 
1027	 0.278488904153636 
1028	 0.279548759550786 
1029	 0.280582670577182 
1030	 0.281624188378131 
1031	 0.282673549075206 
1032	 0.283726286252704 
1033	 0.284755682276653 
1034	 0.285781811327463 
1035	 0.286796797672919 
1036	 0.287802419181738 
1037	 0.288780680574217 
1038	 0.289757021138091 
1039	 0.290784455527097 
1040	 0.291744980709134 
1041	 0.29267986204514 
1042	 0.293641353361249 
1043	 0.294558952654465 
1044	 0.295496295079222 
1045	 0.296437233333615 
1046	 0.297371955911599 
1047	 0.29831245161066 
1048	 0.299307506235003 
1049	 0.300266264550932 
1050	 0.301254504406993 
1051	 0.302284265804993 
1052	 0.303271328355121 
1053	 0.304261144710302 
1054	 0.305294240669989 
1055	 0.306315158946685 
1056	 0.307286586254567 
1057	 0.308286286380177 
1058	 0.309295261041141 
1059	 0.310294011550637 
1060	 0.311283285366536 
1061	 0.312300142190287 
1062	 0.313321410551237 
1063	 0.314338770625286 
1064	 0.315347877728219 
1065	 0.31640782511594 
1066	 0.317429395128085 
1067	 0.318430947240716 
1068	 0.319547500562708 
1069	 0.320607054609329 
1070	 0.321669156750058 
1071	 0.322780473919613 
1072	 0.32385038972654 
1073	 0.324829618512172 
1074	 0.325889588349205 
1075	 0.326987160547676 
1076	 0.328036875777861 
1077	 0.329147300385386 
1078	 0.330274918753651 
1079	 0.33135239215242 
1080	 0.332475693624744 
1081	 0.333551854037486 
1082	 0.334608579130466 
1083	 0.335681339829743 
1084	 0.336749537514769 
1085	 0.337808810766256 
1086	 0.338856528254339 
1087	 0.339923405748624 
1088	 0.341003280897671 
1089	 0.342058721281327 
1090	 0.343088295911943 
1091	 0.344172014704882 
1092	 0.345243009607944 
1093	 0.346291321134307 
1094	 0.347388349080387 
1095	 0.348459233897433 
1096	 0.349494644596815 
1097	 0.35056441699362 
1098	 0.351617466927829 
1099	 0.35265326115481 
1100	 0.35370611063283 
1101	 0.35478107972978 
1102	 0.355831343712013 
1103	 0.356887448117777 
1104	 0.357915077074035 
1105	 0.358946544291376 
1106	 0.359978243458252 
1107	 0.361002128359221 
1108	 0.362048757353132 
1109	 0.363095296181977 
1110	 0.364131462846747 
1111	 0.365188220885888 
1112	 0.366269522749004 
1113	 0.367334893918456 
1114	 0.368399909103225 
1115	 0.369469980428743 
1116	 0.37054122484418 
1117	 0.371612387388302 
1118	 0.372696623713083 
1119	 0.373757218335034 
1120	 0.374833844726883 
1121	 0.375889654114414 
1122	 0.37691680417429 
1123	 0.377994959237131 
1124	 0.379079553392496 
1125	 0.380174676447888 
1126	 0.381252707711988 
1127	 0.382338948076563 
1128	 0.383420701660297 
1129	 0.384477229156287 
1130	 0.3855628993284 
1131	 0.386677026200756 
1132	 0.387788323653187 
1133	 0.38890227236989 
1134	 0.390005303793586 
1135	 0.391106502802952 
1136	 0.392206324497807 
1137	 0.393314421142315 
1138	 0.394422655148876 
1139	 0.395544474223169 
1140	 0.396693874472658 
1141	 0.397817655666717 
1142	 0.398936842610136 
1143	 0.400056640626567 
1144	 0.401165301972256 
1145	 0.402275669423028 
1146	 0.403387422952377 
1147	 0.404492416436219 
1148	 0.405575501769258 
1149	 0.406692985030977 
1150	 0.407845971525036 
1151	 0.408972955792137 
1152	 0.410077583973421 
1153	 0.411179005899418 
1154	 0.41227046579323 
1155	 0.413318867055463 
1156	 0.41439814028117 
1157	 0.415492289593406 
1158	 0.416589908162326 
1159	 0.417684407107266 
1160	 0.418787511575705 
1161	 0.419925634583561 
1162	 0.421029535163701 
1163	 0.422101664165367 
1164	 0.4232021978934 
1165	 0.424314584367176 
1166	 0.42541411628699 
1167	 0.426541229054099 
1168	 0.427649112314645 
1169	 0.428714307093418 
1170	 0.42973960234366 
1171	 0.430782530748692 
1172	 0.431807604003437 
1173	 0.432829050021162 
1174	 0.433859206074532 
1175	 0.434870199903214 
1176	 0.435865391570493 
1177	 0.436853738137335 
1178	 0.437827222750227 
1179	 0.438811617555665 
1180	 0.439776453808982 
1181	 0.440761471303344 
1182	 0.44177544904965 
1183	 0.442787203872731 
1184	 0.443766406962844 
1185	 0.444750034612711 
1186	 0.445698550930648 
1187	 0.446601491753237 
1188	 0.447526530375014 
1189	 0.448455378763345 
1190	 0.449364243464631 
1191	 0.450272414000939 
1192	 0.451164469044183 
1193	 0.452033867968498 
1194	 0.452901522435318 
1195	 0.45376902301371 
1196	 0.454618994156281 
1197	 0.455459468703435 
1198	 0.456286850649858 
1199	 0.45710154561931 
1200	 0.457905662606212 
1201	 0.458691033593689 
1202	 0.459460486525401 
1203	 0.460222901288886 
1204	 0.460969807871176 
1205	 0.46171022061592 
1206	 0.462432751026437 
1207	 0.463170025504724 
1208	 0.463921037816349 
1209	 0.464640590646138 
1210	 0.465367385390057 
1211	 0.466063823720777 
1212	 0.466703398514295 
1213	 0.467369867742846 
1214	 0.468053606294155 
1215	 0.468712030149175 
1216	 0.469361959715044 
1217	 0.470013952837305 
1218	 0.470652681770286 
1219	 0.471272626198529 
1220	 0.471885957047218 
1221	 0.472506378655136 
1222	 0.473098093152605 
1223	 0.473667298386194 
1224	 0.474226663629772 
1225	 0.474763967246598 
1226	 0.475306553583377 
1227	 0.475846728851584 
1228	 0.476371025847366 
1229	 0.476892237222863 
1230	 0.477404478484025 
1231	 0.477888727663724 
1232	 0.478383964553167 
1233	 0.478881070295874 
1234	 0.479394235467289 
1235	 0.479862237106574 
1236	 0.480312907671524 
1237	 0.48076806681096 
1238	 0.4811974012652 
1239	 0.48163382592148 
1240	 0.482088059101322 
1241	 0.482518596071364 
1242	 0.482929102174004 
1243	 0.483338041897968 
1244	 0.483732386869256 
1245	 0.484139234641702 
1246	 0.4845577721295 
1247	 0.484955339637398 
1248	 0.485356322539732 
1249	 0.485743981469903 
1250	 0.486102116220085 
1251	 0.486455162865814 
1252	 0.486820276652358 
1253	 0.487193687527584 
1254	 0.487549709431266 
1255	 0.487905695550046 
1256	 0.48825148259873 
1257	 0.488581391821179 
1258	 0.488914420970578 
1259	 0.489251199876586 
1260	 0.489577253966272 
1261	 0.489908207771203 
1262	 0.490209058351713 
1263	 0.490482514032906 
1264	 0.490762095920616 
1265	 0.491026756098686 
1266	 0.491287668852072 
1267	 0.491547756455675 
1268	 0.491803786625865 
1269	 0.492067821932482 
1270	 0.492329126616024 
1271	 0.492584777686807 
1272	 0.492846334299032 
1273	 0.493104117778102 
1274	 0.493339119055857 
1275	 0.493602241303743 
1276	 0.493885390040163 
1277	 0.494161931412541 
1278	 0.49445655915868 
1279	 0.49472600775115 
1280	 0.494964736029876 
1281	 0.495239233028057 
1282	 0.495518596525338 
1283	 0.495801345920597 
1284	 0.496100949443791 
1285	 0.496416419787197 
1286	 0.49671817473569 
1287	 0.497017644403815 
1288	 0.497328124920499 
1289	 0.497647803301941 
1290	 0.497968735229945 
1291	 0.498286319699174 
1292	 0.498631942958047 
1293	 0.498992914210715 
1294	 0.499359944615779 
1295	 0.499746319476637 
1296	 0.500127858441908 
1297	 0.50052550824994 
1298	 0.500905417153656 
1299	 0.501293456552874 
1300	 0.501655439627016 
1301	 0.501987894636469 
1302	 0.502322799005092 
1303	 0.502645464887986 
1304	 0.502961633263356 
1305	 0.503292812663654 
1306	 0.50361558149513 
1307	 0.503888550026462 
1308	 0.504164306416961 
1309	 0.504432948443062 
1310	 0.504670188917177 
1311	 0.504919742451265 
1312	 0.50519190627649 
1313	 0.50542466576932 
1314	 0.505624626979798 
1315	 0.505835181050776 
1316	 0.506050760813571 
1317	 0.506233102308126 
1318	 0.506403989588055 
1319	 0.506562319080562 
1320	 0.506670982855218 
1321	 0.506807223572834 
1322	 0.506942843103857 
1323	 0.507100889431056 
1324	 0.507269137837854 
1325	 0.507407301425153 
1326	 0.507512083189207 
1327	 0.507578997001491 
1328	 0.507607139007508 
1329	 0.507637188880264 
1330	 0.507677281340662 
1331	 0.507731416258877 
1332	 0.507753236086224 
1333	 0.507756446401599 
1334	 0.507777415858821 
1335	 0.507775305053953 
1336	 0.507799975039513 
1337	 0.507872308253365 
1338	 0.507897879782344 
1339	 0.507906525091189 
1340	 0.507918151259887 
1341	 0.507891856504108 
1342	 0.507896696413841 
1343	 0.507915956448122 
1344	 0.507947066244715 
1345	 0.507973313877772 
1346	 0.508017690445588 
1347	 0.508092390749735 
1348	 0.508126776774734 
1349	 0.508142230371153 
1350	 0.508191430501305 
1351	 0.508217889789377 
1352	 0.508209495480638 
1353	 0.508240824932882 
1354	 0.50828792547854 
1355	 0.508337385851045 
1356	 0.508403133632714 
1357	 0.508459515453008 
1358	 0.508519622886682 
1359	 0.508579117783538 
1360	 0.508644860625997 
1361	 0.508692991310344 
1362	 0.508751526833818 
1363	 0.508774437338529 
1364	 0.508757807835611 
1365	 0.50875179266829 
1366	 0.5087365723365 
1367	 0.50870779868055 
1368	 0.50868945325428 
1369	 0.508685384681795 
1370	 0.508670002020805 
1371	 0.508638587081867 
1372	 0.508577530855127 
1373	 0.508501685895756 
1374	 0.508439648265366 
1375	 0.508352600668333 
1376	 0.508304383085484 
1377	 0.508284682150981 
1378	 0.50825819007409 
1379	 0.508244564838764 
1380	 0.508228461283703 
1381	 0.50822971112357 
1382	 0.508198533179395 
1383	 0.508147529235516 
1384	 0.508104235711617 
1385	 0.508041694224395 
1386	 0.507986379923096 
1387	 0.507958392363548 
1388	 0.507899417040207 
1389	 0.507816735319948 
1390	 0.507743867157783 
1391	 0.507648674299092 
1392	 0.507535436462256 
1393	 0.507435279755126 
1394	 0.507328116048459 
1395	 0.507199547322228 
1396	 0.507066012570187 
1397	 0.506928837911565 
1398	 0.506763992569617 
1399	 0.506630509506864 
1400	 0.506505610036818 
1401	 0.506393157621429 
1402	 0.506303883575475 
1403	 0.50619639916383 
1404	 0.506095743764457 
1405	 0.505984578379338 
1406	 0.505858819829472 
1407	 0.505741321120668 
1408	 0.505612641116294 
1409	 0.505504586184196 
1410	 0.505395199870236 
1411	 0.505308867911418 
1412	 0.505236576908299 
1413	 0.50518785917437 
1414	 0.505162134917173 
1415	 0.505162879271561 
1416	 0.505170479788015 
1417	 0.505193928550716 
1418	 0.505216557465187 
1419	 0.505206077669371 
1420	 0.505203946420403 
1421	 0.505205773707945 
1422	 0.505206309701398 
1423	 0.505209244177371 
1424	 0.505210510490123 
1425	 0.50521441586195 
1426	 0.505218024938098 
1427	 0.505219179646745 
1428	 0.50522341299561 
1429	 0.505226776785265 
1430	 0.505230500080399 
1431	 0.505234140293077 
1432	 0.505241645206044 
1433	 0.505256980113345 
1434	 0.505260735405842 
1435	 0.505255493031466 
1436	 0.505262566218521 
1437	 0.505276946630006 
1438	 0.505279809419154 
1439	 0.505286421153275 
1440	 0.505283961925734 
1441	 0.505279517625277 
1442	 0.505283590804092 
1443	 0.505273327159466 
1444	 0.505285986983931 
1445	 0.505295561429256 
1446	 0.505287877025981 
1447	 0.505315106473591 
1448	 0.505334517914722 
1449	 0.505325055707307 
1450	 0.505308365122382 
1451	 0.505287968590708 
1452	 0.505241053769515 
1453	 0.505220932225495 
1454	 0.505220144469996 
1455	 0.505201469197998 
1456	 0.505177221666577 
1457	 0.505163012237232 
1458	 0.505143071136666 
1459	 0.505130440171116 
1460	 0.505135327422078 
1461	 0.505128404202315 
1462	 0.505106295840632 
1463	 0.505097830506404 
1464	 0.505088834945663 
1465	 0.50509560930529 
1466	 0.505113377971665 
1467	 0.505140881410077 
1468	 0.505176166956706 
1469	 0.505223561346307 
1470	 0.505276426212889 
1471	 0.505355730968565 
1472	 0.505441725871659 
1473	 0.505527380427097 
1474	 0.505625753768208 
1475	 0.505733172867222 
1476	 0.505852292824363 
1477	 0.505990770346456 
1478	 0.506133170825691 
1479	 0.506265033702421 
1480	 0.506396452696585 
1481	 0.50654029342425 
1482	 0.506686983107966 
1483	 0.50684020253442 
1484	 0.506993832032225 
1485	 0.507160337437493 
1486	 0.507303908540185 
1487	 0.507435175467224 
1488	 0.507578906348039 
1489	 0.507709824058743 
1490	 0.507857826174231 
1491	 0.508028273302859 
1492	 0.508177288522667 
1493	 0.508329807536302 
1494	 0.50847116630328 
1495	 0.508598184459221 
1496	 0.508729697933783 
1497	 0.508851341566072 
1498	 0.508972665738726 
1499	 0.509082435243809 
1500	 0.509210990177367 
1501	 0.509355339347499 
1502	 0.509494938790585 
1503	 0.509651091400714 
1504	 0.509801598069943 
1505	 0.509896371626852 
1506	 0.509990199960285 
1507	 0.510056509309244 
1508	 0.510118788499995 
1509	 0.510221400547488 
1510	 0.510317232299164 
1511	 0.510418628504381 
1512	 0.510524391980588 
1513	 0.510616655676364 
1514	 0.510711412035347 
1515	 0.510837393964668 
1516	 0.510966536009588 
1517	 0.511078968490399 
1518	 0.511204142587359 
1519	 0.511304008171039 
1520	 0.511375076326024 
1521	 0.511455284804359 
1522	 0.511527534014345 
1523	 0.511609833239575 
1524	 0.51169936270548 
1525	 0.5117773863466 
1526	 0.511839013987465 
1527	 0.511931762967896 
1528	 0.512030682499954 
1529	 0.512130913395109 
1530	 0.512273007175537 
1531	 0.512383810424352 
1532	 0.51246992320236 
1533	 0.512558372863794 
1534	 0.512633751977244 
1535	 0.512721663098938 
1536	 0.512805429832397 
1537	 0.51290182972179 
1538	 0.513018983608019 
1539	 0.513120787288703 
1540	 0.513235479302006 
1541	 0.513329074694219 
1542	 0.513382956228092 
1543	 0.513471636788327 
1544	 0.513557372283979 
1545	 0.513657723758296 
1546	 0.513786168963641 
1547	 0.513927940367553 
1548	 0.514034677948932 
1549	 0.514161197336597 
1550	 0.5142874868916 
1551	 0.514367904350032 
1552	 0.514458378891701 
1553	 0.514534345891833 
1554	 0.514555801741218 
1555	 0.514615399077264 
1556	 0.51469982764389 
1557	 0.51477019148612 
1558	 0.51487915468515 
1559	 0.514997859890959 
1560	 0.51510184838376 
1561	 0.515212612899829 
1562	 0.515276419605527 
1563	 0.515326885324305 
1564	 0.515348972751932 
1565	 0.515311560777849 
1566	 0.515324310990963 
1567	 0.515334061420819 
1568	 0.515366534871898 
1569	 0.515423635473695 
1570	 0.515479721681189 
1571	 0.515549288756644 
1572	 0.515614966659647 
1573	 0.51569249947139 
1574	 0.515753068655628 
1575	 0.515791332473212 
1576	 0.515860462283087 
1577	 0.515934916299526 
1578	 0.51601767943644 
1579	 0.516133207270028 
1580	 0.516226843868082 
1581	 0.51632654490947 
1582	 0.516387558827956 
1583	 0.516433746143404 
1584	 0.516464082896523 
1585	 0.516435644074188 
1586	 0.516455600015034 
1587	 0.5164718494859 
1588	 0.516518826321631 
1589	 0.516614102961874 
1590	 0.516693478917527 
1591	 0.516795855680887 
1592	 0.516873750824767 
1593	 0.516939166484438 
1594	 0.516996121003109 
1595	 0.517032144110453 
1596	 0.517076598668139 
1597	 0.517122578043085 
1598	 0.517158368750914 
1599	 0.517184649333045 
1600	 0.517223041755057 
1601	 0.517250210366253 
1602	 0.517296470346807 
1603	 0.517379990125892 
1604	 0.517434978407412 
1605	 0.517481120720932 
1606	 0.517525854841307 
1607	 0.51755442736803 
1608	 0.517579725656322 
1609	 0.517618099610775 
1610	 0.517656332426105 
1611	 0.517696010062707 
1612	 0.517751706882965 
1613	 0.517809037785704 
1614	 0.517868782019431 
1615	 0.517927564495415 
1616	 0.517977913748306 
1617	 0.51802703725901 
1618	 0.518078820090318 
1619	 0.518119403276939 
1620	 0.518159090181765 
1621	 0.518202715908331 
1622	 0.518247223095011 
1623	 0.518289684003722 
1624	 0.518340918937554 
1625	 0.518363293922677 
1626	 0.518369772359966 
1627	 0.518384891670021 
1628	 0.518382407587874 
1629	 0.51839986087908 
1630	 0.518428386786844 
1631	 0.518458529335463 
1632	 0.518491781897863 
1633	 0.518530965755505 
1634	 0.518578072227526 
1635	 0.518629106212968 
1636	 0.51868190883916 
1637	 0.518742831139856 
1638	 0.518816735746252 
1639	 0.518879005921034 
1640	 0.518953926847986 
1641	 0.518995032954021 
1642	 0.519015046219667 
1643	 0.519038172132928 
1644	 0.519033800268512 
1645	 0.519057432858919 
1646	 0.519089093487457 
1647	 0.519131977894494 
1648	 0.519182875101216 
1649	 0.519248725701906 
1650	 0.519342084540671 
1651	 0.519408156218938 
1652	 0.51948122287965 
1653	 0.519533578306462 
1654	 0.519553898746 
1655	 0.519597600430896 
1656	 0.519659469012332 
1657	 0.519684196199812 
1658	 0.519684984246832 
1659	 0.519714384753071 
1660	 0.5197282297591 
1661	 0.51975952014925 
1662	 0.519826777032085 
1663	 0.519875456691035 
1664	 0.519922817206426 
1665	 0.519948059563964 
1666	 0.519956228447986 
1667	 0.519985766914383 
1668	 0.519996754611012 
1669	 0.520031316865329 
1670	 0.520111436960649 
1671	 0.520150358758336 
1672	 0.520173814067523 
1673	 0.520193336469016 
1674	 0.520189787497642 
1675	 0.520205700923816 
1676	 0.520215762252485 
1677	 0.520248827819504 
1678	 0.520305125803095 
1679	 0.52035120775485 
1680	 0.520409589145177 
1681	 0.520458678326384 
1682	 0.520504689481805 
1683	 0.520540828260036 
1684	 0.520575379273135 
1685	 0.520599112811848 
1686	 0.520603315812779 
1687	 0.520619587868378 
1688	 0.520616123693449 
1689	 0.520658100161141 
1690	 0.520731628268073 
1691	 0.520795748935338 
1692	 0.52089281079199 
1693	 0.520962967272907 
1694	 0.521020196321159 
1695	 0.521063898778397 
1696	 0.521095975298643 
1697	 0.521128983927443 
1698	 0.521151943711977 
1699	 0.521167797884196 
1700	 0.521167514844889 
1701	 0.52119629967338 
1702	 0.52121308936297 
1703	 0.521266671366721 
1704	 0.52137161482849 
1705	 0.521446528333662 
1706	 0.521527041550624 
1707	 0.521600375698838 
1708	 0.521678292431626 
1709	 0.521722330959253 
1710	 0.521754709042277 
1711	 0.521766510094086 
1712	 0.521730824283199 
1713	 0.521725812648296 
1714	 0.521717524539504 
1715	 0.521724161304429 
1716	 0.521752299027583 
1717	 0.521762210322769 
1718	 0.521780813919941 
1719	 0.52178020589046 
1720	 0.521751881145648 
1721	 0.521748389738691 
1722	 0.521738303086238 
1723	 0.521752602282189 
1724	 0.521807861236322 
1725	 0.521815707723307 
1726	 0.521817814893207 
1727	 0.521797623166235 
1728	 0.521740417290609 
1729	 0.521706157497119 
1730	 0.521676173149089 
1731	 0.521634176525659 
1732	 0.521581724871033 
1733	 0.521537363060713 
1734	 0.521498550892963 
1735	 0.52144696195608 
1736	 0.521401874561492 
1737	 0.521329864050812 
1738	 0.521217598279236 
1739	 0.521145271388153 
1740	 0.521078462649229 
1741	 0.521036718517372 
1742	 0.52101738442991 
1743	 0.5210027204177 
1744	 0.52101614616971 
1745	 0.520982235076031 
1746	 0.520941808976414 
1747	 0.520874299089188 
1748	 0.520799279077388 
1749	 0.520719772365439 
1750	 0.520650569121377 
1751	 0.520577737719533 
1752	 0.52049464118469 
1753	 0.520442055003336 
1754	 0.520424504977406 
1755	 0.520423712129893 
1756	 0.520429340794517 
1757	 0.520437650324487 
1758	 0.520416791845625 
1759	 0.520362137691285 
1760	 0.520323754934746 
1761	 0.520276540312987 
1762	 0.520216869080011 
1763	 0.52019687051112 
1764	 0.520162245728622 
1765	 0.520112160398105 
1766	 0.520053507363881 
1767	 0.519962501945986 
1768	 0.519905615331438 
1769	 0.519865260561204 
1770	 0.519850919189441 
1771	 0.519837142189348 
1772	 0.519783160965366 
1773	 0.519757367013547 
1774	 0.519719944233724 
1775	 0.519708741428322 
1776	 0.519727094853418 
1777	 0.519698426197035 
1778	 0.519709094025782 
1779	 0.51972511584081 
1780	 0.519724250292737 
1781	 0.519778392457594 
1782	 0.519796604281489 
1783	 0.519777831282541 
1784	 0.519762279817988 
1785	 0.519698205098399 
1786	 0.519652805736419 
1787	 0.519630846039739 
1788	 0.519602045500424 
1789	 0.519529690517172 
1790	 0.519538375894544 
1791	 0.519618608132005 
1792	 0.519656891851947 
1793	 0.519719194492559 
1794	 0.519750019714913 
1795	 0.519744908459999 
1796	 0.519730879354128 
1797	 0.519733431832218 
1798	 0.519722190118299 
1799	 0.519662559988333 
1800	 0.519627057833305 
1801	 0.533456623329953 
1802	 0.533476295763873 
1803	 0.533535093172403 
1804	 0.533513163713024 
1805	 0.53351149416876 
1806	 0.533525021689001 
1807	 0.533491493317138 
1808	 0.533488799571102 
1809	 0.53352497312479 
1810	 0.533526764527582 
1811	 0.533504327010875 
1812	 0.533511835309939 
1813	 0.533475305404651 
1814	 0.533458518247179 
1815	 0.533515294737644 
1816	 0.533557952753663 
1817	 0.533595578527839 
1818	 0.533676882775241 
1819	 0.533722125198283 
1820	 0.533741464431516 
1821	 0.533748928171877 
1822	 0.533763793011286 
1823	 0.533769330373189 
1824	 0.533722061521096 
1825	 0.533662383796014 
1826	 0.533595249144175 
1827	 0.53352296893486 
1828	 0.533476950240081 
1829	 0.533470087028402 
1830	 0.533417841742865 
1831	 0.53335874130507 
1832	 0.533295818220883 
1833	 0.533215706232808 
1834	 0.533125901611688 
1835	 0.533081214957483 
1836	 0.533033490486756 
1837	 0.53297738364939 
1838	 0.53291893906631 
1839	 0.53285528899831 
1840	 0.532785741053225 
1841	 0.532720445349248 
1842	 0.53261082066938 
1843	 0.532538831289818 
1844	 0.532495777814884 
1845	 0.532428962620274 
1846	 0.532436553198761 
1847	 0.532459749258487 
1848	 0.532465689233405 
1849	 0.532481184306976 
1850	 0.532478316451849 
1851	 0.532470456486341 
1852	 0.532448854219685 
1853	 0.532389768450248 
1854	 0.532350887465354 
1855	 0.532359047363299 
1856	 0.532331789357553 
1857	 0.532301973534844 
1858	 0.532266967039079 
1859	 0.532181023192686 
1860	 0.532092061034549 
1861	 0.531983008824014 
1862	 0.531880333312794 
1863	 0.531763985290858 
1864	 0.531621965234785 
1865	 0.531482113769209 
1866	 0.531371272732584 
1867	 0.531292835698543 
1868	 0.531238218617244 
1869	 0.531139037318969 
1870	 0.531034060385029 
1871	 0.530884582189432 
1872	 0.530694381707545 
1873	 0.530443360028955 
1874	 0.530213172780659 
1875	 0.529872244895702 
1876	 0.529478682928072 
1877	 0.529103852952624 
1878	 0.528660428345685 
1879	 0.528221980219362 
1880	 0.527763429563693 
1881	 0.527289271804892 
1882	 0.526781271637079 
1883	 0.526256670299844 
1884	 0.52569647946277 
1885	 0.52511745375086 
1886	 0.524456048052851 
1887	 0.523712568347371 
1888	 0.522906564670046 
1889	 0.522054618866521 
1890	 0.521185755022091 
1891	 0.520315552121609 
1892	 0.519432108719642 
1893	 0.518557886329192 
1894	 0.517680387977033 
1895	 0.516773476403983 
1896	 0.515889936069613 
1897	 0.515058309335091 
1898	 0.514199797397481 
1899	 0.513370242871129 
1900	 0.512582074944078 
1901	 0.511796591378222 
1902	 0.511041601761577 
1903	 0.510338683237487 
1904	 0.509629952907184 
1905	 0.508931142681762 
1906	 0.508242309042984 
1907	 0.507587761775331 
1908	 0.506945734177062 
1909	 0.506333395416892 
1910	 0.505781849707941 
1911	 0.505253292269491 
1912	 0.504766290202643 
1913	 0.504322294902332 
1914	 0.503943424066717 
1915	 0.503551011958026 
1916	 0.50318290380187 
1917	 0.502837773704043 
1918	 0.502481533742969 
1919	 0.502155468289215 
1920	 0.501867861380132 
1921	 0.501596844719679 
1922	 0.50135459052463 
1923	 0.501141679751686 
1924	 0.500935657457231 
1925	 0.500725878897822 
1926	 0.500564982023086 
1927	 0.500427040673194 
1928	 0.5003233122097 
1929	 0.500255693182221 
1930	 0.500229448897248 
1931	 0.500217856076146 
1932	 0.500240501869103 
1933	 0.50028171811762 
1934	 0.500327354323958 
1935	 0.500384859201833 
1936	 0.500441308754316 
1937	 0.500522343899838 
1938	 0.500617742217511 
1939	 0.500741573823506 
1940	 0.50088737139907 
1941	 0.501075308204508 
1942	 0.501249869480016 
1943	 0.501403399483379 
1944	 0.501583774417372 
1945	 0.501765891081004 
1946	 0.50196164937258 
1947	 0.502163108894178 
1948	 0.502402333459497 
1949	 0.502664747758283 
1950	 0.502932383413154 
1951	 0.503222833422837 
1952	 0.503546736534236 
1953	 0.503845035018393 
1954	 0.504142205478979 
1955	 0.504445695507329 
1956	 0.504728977548415 
1957	 0.505017963631597 
1958	 0.505289200119554 
1959	 0.505580832176861 
1960	 0.505888390207386 
1961	 0.506192019738177 
1962	 0.506497438743564 
1963	 0.506816460747742 
1964	 0.507161585233024 
1965	 0.507472358859867 
1966	 0.507759097885038 
1967	 0.508034612654878 
1968	 0.508331471698608 
1969	 0.508601044547233 
1970	 0.508903274588878 
1971	 0.509244858561036 
1972	 0.509576590736348 
1973	 0.509908209557881 
1974	 0.510236995827954 
1975	 0.510569911342846 
1976	 0.510912236968032 
1977	 0.51125559966803 
1978	 0.511592201095733 
1979	 0.511934406511758 
1980	 0.512309575715621 
1981	 0.512667681973145 
1982	 0.513022111983604 
1983	 0.513374128204995 
1984	 0.513720215158194 
1985	 0.514073592360294 
1986	 0.514428880158234 
1987	 0.514785160428442 
1988	 0.515145331312522 
1989	 0.515510760810123 
1990	 0.51587768489219 
1991	 0.516244017340672 
1992	 0.516602027284912 
1993	 0.516964447306433 
1994	 0.51731295974905 
1995	 0.517621480341681 
1996	 0.517982024209895 
1997	 0.518369558603495 
1998	 0.518751928046996 
1999	 0.519169164735395 
2000	 0.519570229726048 
2001	 0.519968602135749 
2002	 0.52033982153181 
2003	 0.520748779967394 
2004	 0.521127020736997 
2005	 0.521488501923137 
2006	 0.521840923928163 
2007	 0.522176311901017 
2008	 0.522474326826241 
2009	 0.52279207174123 
2010	 0.523089562568711 
2011	 0.523417632330869 
2012	 0.523764635759038 
2013	 0.524109290828094 
2014	 0.52445880878938 
2015	 0.524834876570799 
2016	 0.52520356725115 
2017	 0.52557991377422 
2018	 0.525948923713347 
2019	 0.526331917489999 
2020	 0.526690677777232 
2021	 0.527040224558096 
2022	 0.527376171655143 
2023	 0.527698875085654 
2024	 0.528017957257421 
2025	 0.528304077696354 
2026	 0.528616722362086 
2027	 0.528942740120484 
2028	 0.529265626507754 
2029	 0.529585943422219 
2030	 0.529916318756803 
2031	 0.530238031679373 
2032	 0.530550046598849 
2033	 0.530865373932485 
2034	 0.531181406104646 
2035	 0.531504085592428 
2036	 0.531839499905382 
2037	 0.53215288657416 
2038	 0.532478193078849 
2039	 0.532771750226672 
2040	 0.533064920764024 
2041	 0.533287437294337 
2042	 0.533489952925458 
2043	 0.533708501690506 
2044	 0.533924218452664 
2045	 0.534107445924106 
2046	 0.534341641226007 
2047	 0.534608525383657 
2048	 0.534867569008313 
2049	 0.535158943140359 
2050	 0.535418032082031 
2051	 0.53567597093527 
2052	 0.535911300247967 
2053	 0.536107641529318 
2054	 0.536324655609484 
2055	 0.536553502886661 
2056	 0.536749201548466 
2057	 0.536961504685638 
2058	 0.537167374012156 
2059	 0.537414834829224 
2060	 0.537681982259508 
2061	 0.537943584556989 
2062	 0.538268837411551 
2063	 0.538517636350283 
2064	 0.53871472231615 
2065	 0.538921898339038 
2066	 0.539081907659205 
2067	 0.539278117720594 
2068	 0.53948930706165 
2069	 0.539709443707693 
2070	 0.539926252843507 
2071	 0.540159049134661 
2072	 0.540375408142123 
2073	 0.540584052133032 
2074	 0.540793341111651 
2075	 0.541001406603201 
2076	 0.541204171383244 
2077	 0.541381381411335 
2078	 0.541598465295884 
2079	 0.541856026337883 
2080	 0.542076020471451 
2081	 0.542296356855097 
2082	 0.542518594743834 
2083	 0.542731234809184 
2084	 0.542912928429443 
2085	 0.543106568268418 
2086	 0.543324636100684 
2087	 0.543502991867576 
2088	 0.543636898043697 
2089	 0.543809242567036 
2090	 0.543973550744394 
2091	 0.544167964465481 
2092	 0.544403682237053 
2093	 0.544611607730347 
2094	 0.544805294230002 
2095	 0.545027074789232 
2096	 0.545269983311159 
2097	 0.545488894059809 
2098	 0.545718859480286 
2099	 0.54594981693224 
2100	 0.546154359721658 
2101	 0.546311759147038 
2102	 0.546512440593319 
2103	 0.546705321839935 
2104	 0.546947744394204 
2105	 0.547234477178372 
2106	 0.547496312170796 
2107	 0.547788212514328 
2108	 0.548058042758936 
2109	 0.548298260983845 
2110	 0.548556197845565 
2111	 0.548836767583749 
2112	 0.549095427014014 
2113	 0.549360632222124 
2114	 0.549589164684012 
2115	 0.549824370470476 
2116	 0.550035348783932 
2117	 0.550277246616154 
2118	 0.550529002869648 
2119	 0.550774711237174 
2120	 0.551025773337365 
2121	 0.551285504388397 
2122	 0.55153633035468 
2123	 0.551809563592707 
2124	 0.552133464917264 
2125	 0.552404353554724 
2126	 0.552647082386744 
2127	 0.552905199473643 
2128	 0.553184576679065 
2129	 0.553399736773884 
2130	 0.553606568021305 
2131	 0.553782325910737 
2132	 0.553908901370496 
2133	 0.553947427838179 
2134	 0.554020906100055 
2135	 0.554096715853253 
2136	 0.554133565904222 
2137	 0.554144681928685 
2138	 0.554145503903616 
2139	 0.554128080289027 
2140	 0.554082500747296 
2141	 0.5540177312116 
2142	 0.553936548898084 
2143	 0.553817519848702 
2144	 0.553695321434476 
2145	 0.553590322307408 
2146	 0.553434831115345 
2147	 0.553243523501594 
2148	 0.553040738533742 
2149	 0.552791638726641 
2150	 0.552474157218541 
2151	 0.552199932580196 
2152	 0.551929479742219 
2153	 0.551621030984178 
2154	 0.551315663123775 
2155	 0.550979961556128 
2156	 0.550575237277386 
2157	 0.550214803355019 
2158	 0.549881490200332 
2159	 0.549518769083013 
2160	 0.549155272573479 
2161	 0.548780381442029 
2162	 0.548399092210755 
2163	 0.547986393342289 
2164	 0.547547231531815 
2165	 0.547113741238797 
2166	 0.54665673363739 
2167	 0.54614592691485 
2168	 0.545703186663686 
2169	 0.545288113891206 
2170	 0.544855047096523 
2171	 0.544436561931377 
2172	 0.544019504868899 
2173	 0.543595405570718 
2174	 0.543172799405248 
2175	 0.542773134960933 
2176	 0.542354986566434 
2177	 0.541896900867367 
2178	 0.541477319701368 
2179	 0.541093516453257 
2180	 0.540680311325193 
2181	 0.540298727022116 
2182	 0.539869293533526 
2183	 0.539382979488229 
2184	 0.538889091253313 
2185	 0.538433712910012 
2186	 0.537962518129553 
2187	 0.537534750408502 
2188	 0.537149338240693 
2189	 0.536767866751571 
2190	 0.536387509761479 
2191	 0.536046474941705 
2192	 0.535772429474585 
2193	 0.535438310978733 
2194	 0.535099108022098 
2195	 0.534758138182992 
2196	 0.534363077345559 
2197	 0.534016033909097 
2198	 0.53368782049287 
2199	 0.533385957501584 
2200	 0.533126878371281 
2201	 0.532858216550713 
2202	 0.532603536077938 
2203	 0.532354088925435 
2204	 0.532121365004102 
2205	 0.531880721230042 
2206	 0.531674408181584 
2207	 0.531507485373615 
2208	 0.531326193235213 
2209	 0.531149150421799 
2210	 0.530979868919478 
2211	 0.530807241470444 
2212	 0.530664178350375 
2213	 0.530566513535284 
2214	 0.530422963729199 
2215	 0.530271619034988 
2216	 0.530122120950263 
2217	 0.529946604596912 
2218	 0.529778160916205 
2219	 0.529638603677686 
2220	 0.529470076893848 
2221	 0.529274206842266 
2222	 0.529071854695513 
2223	 0.528887599538086 
2224	 0.528717726872033 
2225	 0.528514042076665 
2226	 0.528319114463192 
2227	 0.528082621216419 
2228	 0.527798222241966 
2229	 0.527531517487066 
2230	 0.527260295297874 
2231	 0.526976830157781 
2232	 0.526707485811089 
2233	 0.526383316221932 
2234	 0.525998216742174 
2235	 0.52565780633065 
2236	 0.525286147288564 
2237	 0.524949294009915 
2238	 0.524639863637506 
2239	 0.524361235633059 
2240	 0.524112416974188 
2241	 0.523863139223874 
2242	 0.523654624587034 
2243	 0.523429449108826 
2244	 0.523183848163619 
2245	 0.522948908627877 
2246	 0.522720835570705 
2247	 0.5225425659807 
2248	 0.522399767859452 
2249	 0.522300719564862 
2250	 0.522190656497671 
2251	 0.522112444217708 
2252	 0.522038914722476 
2253	 0.521972529220956 
2254	 0.521901997312841 
2255	 0.521833786427084 
2256	 0.521798921989602 
2257	 0.521738011077719 
2258	 0.521763023185707 
2259	 0.521889506125175 
2260	 0.521960430552935 
2261	 0.522061843924069 
2262	 0.522138869168995 
2263	 0.522175238190926 
2264	 0.522237812101341 
2265	 0.522329334508661 
2266	 0.522386957869785 
2267	 0.522448951541727 
2268	 0.522475927822894 
2269	 0.522473911920969 
2270	 0.522436496202031 
2271	 0.522396454590079 
2272	 0.522404357377116 
2273	 0.522417298393491 
2274	 0.522495903517072 
2275	 0.522562557436582 
2276	 0.522649915224834 
2277	 0.52273149962231 
2278	 0.522821972789578 
2279	 0.522901827651842 
2280	 0.522999563448864 
2281	 0.523062466392602 
2282	 0.523080330037858 
2283	 0.523151471421876 
2284	 0.52321323674669 
2285	 0.523313261778237 
2286	 0.523464055384199 
2287	 0.523622602848874 
2288	 0.523782861607103 
2289	 0.523971427347042 
2290	 0.524187019784085 
2291	 0.524425409699462 
2292	 0.524703513728394 
2293	 0.524988632250936 
2294	 0.525318090036492 
2295	 0.525617215037021 
2296	 0.52592054880717 
2297	 0.526178078863055 
2298	 0.526467034254864 
2299	 0.526753060247372 
2300	 0.527105944493758 
2301	 0.527454805870566 
2302	 0.527701529265086 
2303	 0.528001971693144 
2304	 0.528281164674876 
2305	 0.528518653339646 
2306	 0.528822026093028 
2307	 0.529205236525802 
2308	 0.529500334484483 
2309	 0.529798223569874 
2310	 0.530054683111102 
2311	 0.530230823346165 
2312	 0.530483550223102 
2313	 0.530730660732542 
2314	 0.531002656297506 
2315	 0.531366641934116 
2316	 0.531641166786755 
2317	 0.531872498120485 
2318	 0.532112962516559 
2319	 0.532264774005976 
2320	 0.532513087851489 
2321	 0.532807638855782 
2322	 0.53313137008056 
2323	 0.533535196302776 
2324	 0.533923765905544 
2325	 0.534354303131876 
2326	 0.534731864126486 
2327	 0.535100426819868 
2328	 0.535430213276848 
2329	 0.535719169712462 
2330	 0.536059912150724 
2331	 0.536393292844842 
2332	 0.536658036712141 
2333	 0.536975288469233 
2334	 0.537283520919949 
2335	 0.53758937204708 
2336	 0.537952007194561 
2337	 0.538199359007254 
2338	 0.538369436071748 
2339	 0.538547014542706 
2340	 0.538704069474881 
2341	 0.538902257819766 
2342	 0.539107599015362 
2343	 0.539213245324536 
2344	 0.539275454239457 
2345	 0.539351313435261 
2346	 0.53938174132756 
2347	 0.539433081692073 
2348	 0.539515705417625 
2349	 0.539548762434887 
2350	 0.539564292200216 
2351	 0.539559937513028 
2352	 0.539513502179623 
2353	 0.539478818059468 
2354	 0.539454820808153 
2355	 0.539383331663289 
2356	 0.539294203395803 
2357	 0.539183305255 
2358	 0.539013734474997 
2359	 0.538845745480315 
2360	 0.538661298764935 
2361	 0.538478505995951 
2362	 0.538282948785309 
2363	 0.538111870359277 
2364	 0.537961011451825 
2365	 0.537793594722293 
2366	 0.537633521202828 
2367	 0.537461016954948 
2368	 0.537248136681677 
2369	 0.537066543597286 
2370	 0.53692148653136 
2371	 0.536739694560373 
2372	 0.536535092202087 
2373	 0.53632723116247 
2374	 0.536042519632965 
2375	 0.535711746466144 
2376	 0.535392229108392 
2377	 0.535150871397207 
2378	 0.534969870197369 
2379	 0.534735775319787 
2380	 0.534494435417578 
2381	 0.534168779181126 
2382	 0.533838626817169 
2383	 0.533615523953491 
2384	 0.53335850544159 
2385	 0.533115198786882 
2386	 0.532809103886736 
2387	 0.532438957590569 
2388	 0.532161240986122 
2389	 0.531890839186338 
2390	 0.531589732636663 
2391	 0.531271028400264 
2392	 0.530896533136489 
2393	 0.530450642623812 
2394	 0.530047414893522 
2395	 0.52974090977143 
2396	 0.529452485707464 
2397	 0.529217562184911 
2398	 0.528953657941643 
2399	 0.52857006127984 
2400	 0.528185459077412 
2401	 0.527826022696042 
2402	 0.527426683564308 
2403	 0.527089117050042 
2404	 0.526696500610521 
2405	 0.526171539626573 
2406	 0.525743392639472 
2407	 0.525396690696765 
2408	 0.525158682807778 
2409	 0.525002832895661 
2410	 0.524755085125532 
2411	 0.524485980474598 
2412	 0.52418223869412 
2413	 0.523900065547887 
2414	 0.523635547715121 
2415	 0.523260361342911 
2416	 0.52294249713603 
2417	 0.522586689205656 
2418	 0.522244934323252 
2419	 0.521989511144267 
2420	 0.521682556253349 
2421	 0.521291692438687 
2422	 0.520969281489499 
2423	 0.520679278010701 
2424	 0.520338973036984 
2425	 0.520010942874368 
2426	 0.519708185520253 
2427	 0.519367386775014 
2428	 0.519124807725891 
2429	 0.51896139172709 
2430	 0.518721158413617 
2431	 0.518479808213557 
2432	 0.518193150691257 
2433	 0.517849527442081 
2434	 0.517654927741293 
2435	 0.517561943432239 
2436	 0.517358403262903 
2437	 0.517136884396672 
2438	 0.516913590084455 
2439	 0.516583842108494 
2440	 0.516320372094502 
2441	 0.516221846802863 
2442	 0.516037490275722 
2443	 0.515750357430401 
2444	 0.515556969922131 
2445	 0.515367295632744 
2446	 0.515195980741861 
2447	 0.515100609492435 
2448	 0.514944265167302 
2449	 0.514835336282273 
2450	 0.514545482543236 
2451	 0.514049234635684 
2452	 0.513733617555217 
2453	 0.513444575398282 
2454	 0.513136132790796 
2455	 0.512930416717224 
2456	 0.51274596722019 
2457	 0.512406697423265 
2458	 0.5122664077256 
2459	 0.512379916438144 
2460	 0.512230894927154 
2461	 0.512094293938222 
2462	 0.511900383817584 
2463	 0.51142465997905 
2464	 0.511178208612718 
2465	 0.51113567762587 
2466	 0.510904207395731 
2467	 0.510666254301302 
2468	 0.510439297458803 
2469	 0.510082795915209 
2470	 0.509874420986795 
2471	 0.509662149681157 
2472	 0.509408571575991 
2473	 0.509113828469765 
2474	 0.508881773975178 
2475	 0.508742416648973 
2476	 0.50869113181149 
2477	 0.508476331517451 
2478	 0.508103375305571 
2479	 0.5076956639011 
2480	 0.507278726102807 
2481	 0.507006729344785 
2482	 0.506826574581192 
2483	 0.506680121771648 
2484	 0.506382275005431 
2485	 0.505993847225806 
2486	 0.505782679734708 
2487	 0.505411020335545 
2488	 0.505207260018563 
2489	 0.50524198632668 
2490	 0.50503420585787 
2491	 0.505071036667402 
2492	 0.504977463934464 
2493	 0.504797335473615 
2494	 0.504664780388012 
2495	 0.504319938612667 
2496	 0.504298222001299 
2497	 0.504011237328453 
2498	 0.503545821354642 
2499	 0.503312762357684 
2500	 0.502919077009359 
