Wavelength	LMW100007.asd
350	 7.56096924223281E-02 
351	 0.086709549927014 
352	 8.58699832017622E-02 
353	 7.36516725833571E-02 
354	 7.86213931719838E-02 
355	 7.90872635487823E-02 
356	 7.67504279023207E-02 
357	 7.75743366847497E-02 
358	 8.01340086885955E-02 
359	 7.57293468156819E-02 
360	 7.05662824416747E-02 
361	 7.78896148706336E-02 
362	 7.77181407202101E-02 
363	 7.61022725142976E-02 
364	 7.69848150403224E-02 
365	 0.075856582376286 
366	 7.44405433464419E-02 
367	 7.37276992033319E-02 
368	 0.074313162799343 
369	 7.64424966036991E-02 
370	 7.60479542947248E-02 
371	 7.50862217368831E-02 
372	 7.87567238466259E-02 
373	 7.88079825406709E-02 
374	 7.76410043186687E-02 
375	 7.77620032102298E-02 
376	 7.94880868394548E-02 
377	 8.02419270696586E-02 
378	 8.12458458002434E-02 
379	 8.36795100659597E-02 
380	 0.083411222198668 
381	 8.30549513499079E-02 
382	 8.37938423238904E-02 
383	 8.53628236949414E-02 
384	 8.62814264581378E-02 
385	 0.085798374405419 
386	 8.48221478104504E-02 
387	 8.72951369343909E-02 
388	 0.088012878776742 
389	 8.81316803975613E-02 
390	 8.99622364972831E-02 
391	 0.091197168667969 
392	 9.07282980803157E-02 
393	 9.03385997222542E-02 
394	 9.36278927801247E-02 
395	 9.39154576506657E-02 
396	 9.41469098936391E-02 
397	 9.65130622844661E-02 
398	 9.83237523367911E-02 
399	 9.88558546166044E-02 
400	 9.89019302922054E-02 
401	 9.96860965586722E-02 
402	 0.101000946673728 
403	 0.101818757482936 
404	 0.1019304443151 
405	 0.102017026828092 
406	 0.103222117539115 
407	 0.10467613242117 
408	 0.105411660606917 
409	 0.105220779721979 
410	 0.105077896073693 
411	 0.105779896331408 
412	 0.107647850009609 
413	 0.108742502568888 
414	 0.109146478989351 
415	 0.109366785814815 
416	 0.110165240876652 
417	 0.110182696601178 
418	 0.110217383039958 
419	 0.111037364216569 
420	 0.111581471532964 
421	 0.111471661781905 
422	 0.111333966297146 
423	 0.112175193748299 
424	 0.111640938405584 
425	 0.111336086465631 
426	 0.111901934374042 
427	 0.111292753057975 
428	 0.111171132918048 
429	 0.111284657181122 
430	 0.111038002034107 
431	 0.111370116464734 
432	 0.111412382307763 
433	 0.111051871010313 
434	 0.110950271355231 
435	 0.110841135140713 
436	 0.110716885717739 
437	 0.110620640372868 
438	 0.110583470811895 
439	 0.11082446564045 
440	 0.111294893418796 
441	 0.111786431015127 
442	 0.112040700804037 
443	 0.112336193995298 
444	 0.112808606069782 
445	 0.113308587479502 
446	 0.113653266032888 
447	 0.113915697729512 
448	 0.114298480751131 
449	 0.115228367665765 
450	 0.11577564104721 
451	 0.116062726707466 
452	 0.117043779317946 
453	 0.117378171977316 
454	 0.11748120708588 
455	 0.117882106184934 
456	 0.118690487119134 
457	 0.119049389986756 
458	 0.119088592694453 
459	 0.119375186745132 
460	 0.119924954453333 
461	 0.120177116467218 
462	 0.120114239052518 
463	 0.120539549902033 
464	 0.12093219726312 
465	 0.121151161405861 
466	 0.121253224755242 
467	 0.121667452281734 
468	 0.121959852738745 
469	 0.122057162309028 
470	 0.122196218192873 
471	 0.122421786473645 
472	 0.122666138917026 
473	 0.122848029728173 
474	 0.12288813723902 
475	 0.123050512817653 
476	 0.123235500153025 
477	 0.123253073911684 
478	 0.12354971750838 
479	 0.123799638726114 
480	 0.123900617732486 
481	 0.124150033149639 
482	 0.124343249767073 
483	 0.124461888841797 
484	 0.124566697008481 
485	 0.124844101144454 
486	 0.124947848450167 
487	 0.124903690991583 
488	 0.125039463373947 
489	 0.125159832382917 
490	 0.125315883959001 
491	 0.125523103738607 
492	 0.125611696395363 
493	 0.125674295375347 
494	 0.125740711669555 
495	 0.12582362038623 
496	 0.126027757568895 
497	 0.126193461804337 
498	 0.126283396720733 
499	 0.126485548090175 
500	 0.126468249001848 
501	 0.126430463964486 
502	 0.126627273018182 
503	 0.126840206797976 
504	 0.127004859203398 
505	 0.127103524620689 
506	 0.127160990766876 
507	 0.127275801110281 
508	 0.127415864167203 
509	 0.127523414728177 
510	 0.127540911461108 
511	 0.127583349572898 
512	 0.127684479962729 
513	 0.127823499881571 
514	 0.127934875637462 
515	 0.128017216816372 
516	 0.12811222278473 
517	 0.128338891171309 
518	 0.12835714230481 
519	 0.128288953516454 
520	 0.128372432187719 
521	 0.128582553139575 
522	 0.128678193797276 
523	 0.128658135472553 
524	 0.128777834655602 
525	 0.128936660672431 
526	 0.129097731818307 
527	 0.129222703533515 
528	 0.129217875042135 
529	 0.129281343694274 
530	 0.129409468993462 
531	 0.129472307801445 
532	 0.129547677333295 
533	 0.12967198733914 
534	 0.129830822248989 
535	 0.129910169967195 
536	 0.130037548277424 
537	 0.130170427451131 
538	 0.130223364672371 
539	 0.130300294546854 
540	 0.130395376926784 
541	 0.13052612648832 
542	 0.130756475837975 
543	 0.130893177598099 
544	 0.131005190476653 
545	 0.131179433517233 
546	 0.131260879916259 
547	 0.13130170965558 
548	 0.131372591259636 
549	 0.131546643506472 
550	 0.131735330828104 
551	 0.131908739339806 
552	 0.132076544991511 
553	 0.132330398544647 
554	 0.132510723982424 
555	 0.132665589688934 
556	 0.132929633338754 
557	 0.133128986218777 
558	 0.133367618302253 
559	 0.133686736642156 
560	 0.133971784057723 
561	 0.134166706867376 
562	 0.134384043960252 
563	 0.134744732178544 
564	 0.135042253671959 
565	 0.135360860356474 
566	 0.135738094630143 
567	 0.136140609122584 
568	 0.136539636192635 
569	 0.136920241858869 
570	 0.137302530969893 
571	 0.137801295840479 
572	 0.138350752483413 
573	 0.138909472352068 
574	 0.139449573447862 
575	 0.139900716424993 
576	 0.140369718844584 
577	 0.140922636325065 
578	 0.141477100167866 
579	 0.142066809344171 
580	 0.142723907553478 
581	 0.143474467779907 
582	 0.144308307836178 
583	 0.145111338760436 
584	 0.145820085275429 
585	 0.146453299441825 
586	 0.147139237459288 
587	 0.147839818761798 
588	 0.148497112003866 
589	 0.149214552780963 
590	 0.149960857840737 
591	 0.150716403226856 
592	 0.15147922916482 
593	 0.152220251975262 
594	 0.152971201513738 
595	 0.153776084237923 
596	 0.154688859921808 
597	 0.155620796367349 
598	 0.156543191364687 
599	 0.157459901905331 
600	 0.15833671746011 
601	 0.159125087102173 
602	 0.159820257168591 
603	 0.160496280784709 
604	 0.161172790692753 
605	 0.161855335029175 
606	 0.162533556103074 
607	 0.163173821527995 
608	 0.163777725463113 
609	 0.164354476037005 
610	 0.16491926361094 
611	 0.165505542049887 
612	 0.166092682211205 
613	 0.166655274664909 
614	 0.167224045133165 
615	 0.167693496949249 
616	 0.168103906025222 
617	 0.168585292946019 
618	 0.169030612699632 
619	 0.169415320295339 
620	 0.1697560493644 
621	 0.170132138813303 
622	 0.170449513212365 
623	 0.170744174563236 
624	 0.17109059862805 
625	 0.171440182234131 
626	 0.171743546522599 
627	 0.171997371109602 
628	 0.172256650306297 
629	 0.172564429932454 
630	 0.172865874500241 
631	 0.173109936757057 
632	 0.173377876579749 
633	 0.173638248527813 
634	 0.173887676142376 
635	 0.174148290880477 
636	 0.174435750776842 
637	 0.174701682312754 
638	 0.174911357224619 
639	 0.175077256989441 
640	 0.175314608823138 
641	 0.175614652008489 
642	 0.175902557029754 
643	 0.17613442630405 
644	 0.176359132058906 
645	 0.176610599100428 
646	 0.17688729465119 
647	 0.177133301616033 
648	 0.177385191048639 
649	 0.177681984645526 
650	 0.177943385492613 
651	 0.178241592721914 
652	 0.178561293283655 
653	 0.17881594920067 
654	 0.17910626869004 
655	 0.179403452697365 
656	 0.179691101741639 
657	 0.18005049931063 
658	 0.180373951581833 
659	 0.180669729768262 
660	 0.1809948011025 
661	 0.181317045313655 
662	 0.181635206819552 
663	 0.181951964945523 
664	 0.182269459242038 
665	 0.182683395904889 
666	 0.183120266824546 
667	 0.18349345978233 
668	 0.183886052698065 
669	 0.184242172613707 
670	 0.184595565102375 
671	 0.185045200925235 
672	 0.185460112554303 
673	 0.185872728665625 
674	 0.186318251235454 
675	 0.186769364467821 
676	 0.187248741361516 
677	 0.187706551256162 
678	 0.188090612055687 
679	 0.188549580825337 
680	 0.189053916309434 
681	 0.189570857816512 
682	 0.1900854585142 
683	 0.190578628524768 
684	 0.191078477598045 
685	 0.191604336069953 
686	 0.192080392604891 
687	 0.192671367522308 
688	 0.193308456076619 
689	 0.19377738263749 
690	 0.194279423710021 
691	 0.194844502247293 
692	 0.195446364745615 
693	 0.195997989777385 
694	 0.196573628506628 
695	 0.197178357337814 
696	 0.197794917734252 
697	 0.198431550504266 
698	 0.199028756037332 
699	 0.199601195713815 
700	 0.200241928023613 
701	 0.20088601031801 
702	 0.201509773878451 
703	 0.202112873841254 
704	 0.202733002293782 
705	 0.203357015022032 
706	 0.203987173203905 
707	 0.204627560632536 
708	 0.205238022264328 
709	 0.205864458734421 
710	 0.206521634180061 
711	 0.207170178770782 
712	 0.20770915682813 
713	 0.208274597589191 
714	 0.208980434169992 
715	 0.209580617581356 
716	 0.210185299292608 
717	 0.210788274368968 
718	 0.211307507420479 
719	 0.21189367733098 
720	 0.212450251244364 
721	 0.212934714596383 
722	 0.213479386729718 
723	 0.214044621353743 
724	 0.214585488072115 
725	 0.215067435854294 
726	 0.215525495242157 
727	 0.215979771005391 
728	 0.216409537943955 
729	 0.216763816371723 
730	 0.217193489952433 
731	 0.21763803142701 
732	 0.218023791007596 
733	 0.218345253602766 
734	 0.218616881956055 
735	 0.218869301618199 
736	 0.219128636366249 
737	 0.219350264434125 
738	 0.219550198399571 
739	 0.21974009486743 
740	 0.219921038954412 
741	 0.220073442507514 
742	 0.220177350030449 
743	 0.220230726079883 
744	 0.22027285193453 
745	 0.22031518750108 
746	 0.22034495285712 
747	 0.220341763905059 
748	 0.220343487601731 
749	 0.220250048186496 
750	 0.220083260057477 
751	 0.22001939947121 
752	 0.219874536514689 
753	 0.219698212843221 
754	 0.219549673320506 
755	 0.219356526685378 
756	 0.219126551617443 
757	 0.218887223256779 
758	 0.218669350342494 
759	 0.218441196878566 
760	 0.218169148427523 
761	 0.217849493011373 
762	 0.217515033054441 
763	 0.217249944449992 
764	 0.216952488143332 
765	 0.216555203023952 
766	 0.216226711042944 
767	 0.215872298306277 
768	 0.215492778603474 
769	 0.215125990909663 
770	 0.214713042623204 
771	 0.214299034723864 
772	 0.213905369914401 
773	 0.213515466316622 
774	 0.21314186133869 
775	 0.212733073080118 
776	 0.212268674956801 
777	 0.211850029371256 
778	 0.211409358604136 
779	 0.210977936744618 
780	 0.210606906852646 
781	 0.21018292213682 
782	 0.20971002938043 
783	 0.209242072331705 
784	 0.208866820608566 
785	 0.208464510879026 
786	 0.208012946397723 
787	 0.207543927177898 
788	 0.207170560492215 
789	 0.20677235769786 
790	 0.206340180314454 
791	 0.205906860178206 
792	 0.205479474856964 
793	 0.205089837097966 
794	 0.204730871215224 
795	 0.204360105872958 
796	 0.20392810624959 
797	 0.20351272986733 
798	 0.203140741320074 
799	 0.202705514417491 
800	 0.202326228563116 
801	 0.20197301156471 
802	 0.201592929767671 
803	 0.201231627205416 
804	 0.200898450188558 
805	 0.200581186114885 
806	 0.20025383948848 
807	 0.19990052022272 
808	 0.199525186300722 
809	 0.199148337491929 
810	 0.198805188912826 
811	 0.198516727205704 
812	 0.198207213145876 
813	 0.197848547535411 
814	 0.197606050513511 
815	 0.197338616937128 
816	 0.19702630969314 
817	 0.196707803881611 
818	 0.196438025692049 
819	 0.196163739432697 
820	 0.195896152409614 
821	 0.195695714539189 
822	 0.19546875404937 
823	 0.195214612505292 
824	 0.194951963199114 
825	 0.194705483451999 
826	 0.194452293037452 
827	 0.19421542135089 
828	 0.194012814709566 
829	 0.193806679536325 
830	 0.193618820738713 
831	 0.193458754306921 
832	 0.193318178340721 
833	 0.19313482350492 
834	 0.19290549194277 
835	 0.192683949517619 
836	 0.192559786869852 
837	 0.192444894541137 
838	 0.192311259372226 
839	 0.192147350744423 
840	 0.191948926297272 
841	 0.191870562805565 
842	 0.191822781851869 
843	 0.191692277703335 
844	 0.191521501457538 
845	 0.191374680932465 
846	 0.191272306822233 
847	 0.191209127299749 
848	 0.191196375186045 
849	 0.191111530847833 
850	 0.190964312222284 
851	 0.190875853940972 
852	 0.19080236862815 
853	 0.190777218257874 
854	 0.190789302186678 
855	 0.190754481262228 
856	 0.190712006995959 
857	 0.190673909860576 
858	 0.190646478600842 
859	 0.190635978976395 
860	 0.190623644101351 
861	 0.190621687781963 
862	 0.190641945681332 
863	 0.190646981531094 
864	 0.190623230262055 
865	 0.190640430388605 
866	 0.190777114490689 
867	 0.190815097475945 
868	 0.190797178795713 
869	 0.190786641739324 
870	 0.190832975303418 
871	 0.190871967900698 
872	 0.190936552220814 
873	 0.191036700512204 
874	 0.191121899052772 
875	 0.191229137390098 
876	 0.191291095377756 
877	 0.191293779690814 
878	 0.191423593267138 
879	 0.191579658193652 
880	 0.191717275201024 
881	 0.191827818410127 
882	 0.191965380841411 
883	 0.192153553380361 
884	 0.192309571499391 
885	 0.19234364743621 
886	 0.192494748270671 
887	 0.192659263750618 
888	 0.19281096080541 
889	 0.193007278410524 
890	 0.193244080668574 
891	 0.193412683840411 
892	 0.19353729020202 
893	 0.193806235029262 
894	 0.194039880209309 
895	 0.194224215429758 
896	 0.194405737810213 
897	 0.19467529300631 
898	 0.194959458758914 
899	 0.195237286251533 
900	 0.195494326672549 
901	 0.195685845895387 
902	 0.19595096104558 
903	 0.196224622980938 
904	 0.196437618899579 
905	 0.196797993351513 
906	 0.197127343843707 
907	 0.197401263274549 
908	 0.197683764590363 
909	 0.198050007528271 
910	 0.198336873366135 
911	 0.198582737065271 
912	 0.198939292624786 
913	 0.199289600866285 
914	 0.199708801952935 
915	 0.200151843302134 
916	 0.200483779308936 
917	 0.200887514523111 
918	 0.20125712438004 
919	 0.201592609928542 
920	 0.202037431113306 
921	 0.202407708753939 
922	 0.202849814763465 
923	 0.203388591859405 
924	 0.203805982630745 
925	 0.204271493960309 
926	 0.204691987515686 
927	 0.205044585375863 
928	 0.205524675771734 
929	 0.206039371967878 
930	 0.206530672130096 
931	 0.206992358980697 
932	 0.207513839545141 
933	 0.208150986978378 
934	 0.208741011223227 
935	 0.209183104778311 
936	 0.209735176997478 
937	 0.210375011955957 
938	 0.21094901457767 
939	 0.211378719127594 
940	 0.212003097417122 
941	 0.212653733714939 
942	 0.213276801197928 
943	 0.21388230771246 
944	 0.214539597494417 
945	 0.215151254200215 
946	 0.215741379896975 
947	 0.216363698485214 
948	 0.216916934968168 
949	 0.217575777882766 
950	 0.218306358821443 
951	 0.219008545194782 
952	 0.219871526361308 
953	 0.220656598975567 
954	 0.221323726033591 
955	 0.221961825302622 
956	 0.222592590194911 
957	 0.223295140342319 
958	 0.224044487145049 
959	 0.224779689228928 
960	 0.225642249173244 
961	 0.226485576254043 
962	 0.227291170332127 
963	 0.228115847510199 
964	 0.228840923903403 
965	 0.229693014139922 
966	 0.230578754163886 
967	 0.231275532338952 
968	 0.232244227890324 
969	 0.233102822925461 
970	 0.233845137094529 
971	 0.234710913730317 
972	 0.235507720784012 
973	 0.236379829922728 
974	 0.237323414176232 
975	 0.238222898523243 
976	 0.239021305991635 
977	 0.239912707626872 
978	 0.240881942204706 
979	 0.241791594932347 
980	 0.242743960265112 
981	 0.243658115893776 
982	 0.24451796820825 
983	 0.245374134319194 
984	 0.246343488080367 
985	 0.247304098291894 
986	 0.248226580070299 
987	 0.249160740559265 
988	 0.25020484334028 
989	 0.251169261304164 
990	 0.252056777300567 
991	 0.25297379274336 
992	 0.253938992510861 
993	 0.254860333302594 
994	 0.255787626746189 
995	 0.256796435886833 
996	 0.257797964608053 
997	 0.258733112561219 
998	 0.259622369155177 
999	 0.260535682870773 
1000	 0.261565571176017 
1001	 0.264941724049336 
1002	 0.265928789317385 
1003	 0.266818929718449 
1004	 0.267713429491579 
1005	 0.268600508685031 
1006	 0.26950613526798 
1007	 0.270393304553039 
1008	 0.271287338918601 
1009	 0.272192804067632 
1010	 0.27303684917393 
1011	 0.273893333259381 
1012	 0.274772878404171 
1013	 0.275669708824157 
1014	 0.276559728401893 
1015	 0.277372011872706 
1016	 0.278236940880484 
1017	 0.279068243733111 
1018	 0.279873990605512 
1019	 0.280609665102906 
1020	 0.281418432805099 
1021	 0.282156219963409 
1022	 0.282926217964309 
1023	 0.28381717197901 
1024	 0.284651030511247 
1025	 0.285453963847582 
1026	 0.286192842587653 
1027	 0.286837222720827 
1028	 0.287554936774731 
1029	 0.288372256447794 
1030	 0.289148252733823 
1031	 0.289894452807352 
1032	 0.290657008323157 
1033	 0.291392663471244 
1034	 0.292057886642058 
1035	 0.292794655613835 
1036	 0.293581730828792 
1037	 0.294327575775956 
1038	 0.295067266349819 
1039	 0.29578473516531 
1040	 0.296511121762641 
1041	 0.297261895527642 
1042	 0.298008545685314 
1043	 0.298731130291307 
1044	 0.299443638774538 
1045	 0.300128251285286 
1046	 0.300840714694106 
1047	 0.301560830955948 
1048	 0.302279457660837 
1049	 0.303016122534713 
1050	 0.303703797845526 
1051	 0.304382838322401 
1052	 0.305097101530737 
1053	 0.305795528827395 
1054	 0.306502107084224 
1055	 0.307189246667833 
1056	 0.307823556050959 
1057	 0.308468120957712 
1058	 0.309098565546469 
1059	 0.309727148104417 
1060	 0.31034709791565 
1061	 0.310974274510566 
1062	 0.311601550532484 
1063	 0.312227861055797 
1064	 0.312806710497493 
1065	 0.313369433787044 
1066	 0.31393364497682 
1067	 0.314454847620071 
1068	 0.315007139452085 
1069	 0.315561539513138 
1070	 0.316112730790594 
1071	 0.316670883845695 
1072	 0.317211966159409 
1073	 0.317743755996299 
1074	 0.318275037652729 
1075	 0.318795408749577 
1076	 0.319269153045953 
1077	 0.319818549770123 
1078	 0.320366261973925 
1079	 0.320899260661768 
1080	 0.321458601181497 
1081	 0.321919873527364 
1082	 0.32235721275505 
1083	 0.322868512281638 
1084	 0.323400795576779 
1085	 0.323925948956577 
1086	 0.324520695543254 
1087	 0.325054458417734 
1088	 0.325544755111353 
1089	 0.326031153879056 
1090	 0.32654335253253 
1091	 0.327059099676805 
1092	 0.327601563081133 
1093	 0.328115294334355 
1094	 0.328609529742745 
1095	 0.329126469042923 
1096	 0.329599832078982 
1097	 0.330079150003767 
1098	 0.330622440005609 
1099	 0.331221322490329 
1100	 0.331781607086021 
1101	 0.332368738115543 
1102	 0.332956604994388 
1103	 0.3335296524579 
1104	 0.334085933405366 
1105	 0.334706346875634 
1106	 0.335347993078791 
1107	 0.335942320692592 
1108	 0.336543409367009 
1109	 0.337124418082774 
1110	 0.337688138753489 
1111	 0.338290309217354 
1112	 0.338916670086022 
1113	 0.339524283474346 
1114	 0.340150824620081 
1115	 0.340768012772052 
1116	 0.341364579742686 
1117	 0.3419854815689 
1118	 0.342628987087875 
1119	 0.343244371975765 
1120	 0.343886015429634 
1121	 0.344508551335603 
1122	 0.345119713341006 
1123	 0.345759133383536 
1124	 0.34639566284276 
1125	 0.347032933156526 
1126	 0.347680658935383 
1127	 0.348350713775686 
1128	 0.348984367965597 
1129	 0.349595553016414 
1130	 0.350226911176881 
1131	 0.350855447688791 
1132	 0.351480185558994 
1133	 0.352128592455039 
1134	 0.352757458621319 
1135	 0.353362549963813 
1136	 0.353954154624068 
1137	 0.35460074495099 
1138	 0.355210894164223 
1139	 0.355834036460434 
1140	 0.356483432259078 
1141	 0.357099743724661 
1142	 0.357700423842316 
1143	 0.358288301843299 
1144	 0.35884688000416 
1145	 0.359429539031478 
1146	 0.360030079520349 
1147	 0.360599584439254 
1148	 0.361159999332537 
1149	 0.361722470326652 
1150	 0.362264018561855 
1151	 0.362793346623581 
1152	 0.363361824084877 
1153	 0.363940085010014 
1154	 0.364490069530422 
1155	 0.365028568846949 
1156	 0.365566240201497 
1157	 0.366089434210955 
1158	 0.366618879931482 
1159	 0.367163278369726 
1160	 0.367683116681759 
1161	 0.368198378418131 
1162	 0.368690139802031 
1163	 0.369158937505062 
1164	 0.369626901144639 
1165	 0.370077635275203 
1166	 0.370532724119985 
1167	 0.370992280497713 
1168	 0.371427138720338 
1169	 0.371851920584288 
1170	 0.372257950421738 
1171	 0.372674599884591 
1172	 0.373091919588708 
1173	 0.37349141632794 
1174	 0.373883916898321 
1175	 0.374279499456043 
1176	 0.374664911302411 
1177	 0.375045032431403 
1178	 0.375434713001214 
1179	 0.375810971362497 
1180	 0.376165799996775 
1181	 0.376523801748993 
1182	 0.376871148678537 
1183	 0.377239299513495 
1184	 0.37759291282929 
1185	 0.37795489686516 
1186	 0.37827909675463 
1187	 0.378579831959182 
1188	 0.378892863025427 
1189	 0.379184202487413 
1190	 0.379490287608003 
1191	 0.379816610656031 
1192	 0.380126702874403 
1193	 0.380433959286652 
1194	 0.380727087152576 
1195	 0.381007720111023 
1196	 0.38129181167773 
1197	 0.381559832149066 
1198	 0.38183663129424 
1199	 0.38211763377894 
1200	 0.382416726821117 
1201	 0.382680037358115 
1202	 0.382938763681306 
1203	 0.383177145533495 
1204	 0.383378303321992 
1205	 0.383607041369071 
1206	 0.383837460417781 
1207	 0.384066723306886 
1208	 0.384316831038704 
1209	 0.384538320515761 
1210	 0.384735946126159 
1211	 0.384944815082847 
1212	 0.385134823096124 
1213	 0.385343747508741 
1214	 0.385581995697652 
1215	 0.385800044797089 
1216	 0.386013231172566 
1217	 0.386232969273496 
1218	 0.386428014419292 
1219	 0.386593832492024 
1220	 0.386785909519158 
1221	 0.386981584156647 
1222	 0.387171121359498 
1223	 0.3873748169788 
1224	 0.387560193366536 
1225	 0.387729863506115 
1226	 0.387900142388811 
1227	 0.388063157113259 
1228	 0.388229729480653 
1229	 0.388386499467241 
1230	 0.388554810459856 
1231	 0.388733713051398 
1232	 0.388909940245677 
1233	 0.38908840504658 
1234	 0.389279820119658 
1235	 0.389447056681253 
1236	 0.389608092555634 
1237	 0.389758525660529 
1238	 0.389887617143846 
1239	 0.390030894876684 
1240	 0.390178706209708 
1241	 0.390315264029291 
1242	 0.390444976701412 
1243	 0.390582865999852 
1244	 0.390723210096262 
1245	 0.39085289881945 
1246	 0.390980431825474 
1247	 0.391112788531571 
1248	 0.391239250009558 
1249	 0.391360114184643 
1250	 0.391498703958887 
1251	 0.391627228335272 
1252	 0.391760488805755 
1253	 0.391881275385849 
1254	 0.392027580075217 
1255	 0.39220366107824 
1256	 0.392341242936518 
1257	 0.392486969686093 
1258	 0.392598774908753 
1259	 0.392658920139531 
1260	 0.392752485029746 
1261	 0.392842970979165 
1262	 0.392939115953049 
1263	 0.39304808103661 
1264	 0.39315553354343 
1265	 0.393263543759847 
1266	 0.393372130211907 
1267	 0.393480452313889 
1268	 0.393591261690083 
1269	 0.39372194787628 
1270	 0.393860104851146 
1271	 0.394004308540252 
1272	 0.394163454329996 
1273	 0.394329130411637 
1274	 0.394507253499082 
1275	 0.394669882645887 
1276	 0.394842475590691 
1277	 0.395005727940386 
1278	 0.395149169462509 
1279	 0.395297253788851 
1280	 0.395463344384308 
1281	 0.395603002834104 
1282	 0.395730226263085 
1283	 0.395846285115087 
1284	 0.395958555482968 
1285	 0.396036749282527 
1286	 0.396096773163075 
1287	 0.396151007240999 
1288	 0.396195595109601 
1289	 0.396222939155134 
1290	 0.396238593726319 
1291	 0.396253252006369 
1292	 0.396241576395821 
1293	 0.396197179650468 
1294	 0.396166374544311 
1295	 0.396141780222831 
1296	 0.396080278911508 
1297	 0.395995673973113 
1298	 0.395914865575548 
1299	 0.395801297363885 
1300	 0.395708933644551 
1301	 0.395630914323692 
1302	 0.395549788092818 
1303	 0.395479556509964 
1304	 0.395388767502198 
1305	 0.39529191386849 
1306	 0.395208892210391 
1307	 0.395100394091319 
1308	 0.395016479089952 
1309	 0.394941129062804 
1310	 0.394879404316354 
1311	 0.394812602346437 
1312	 0.394754284496229 
1313	 0.394693180033413 
1314	 0.394616986601179 
1315	 0.394575166899953 
1316	 0.39455689379273 
1317	 0.394533469493651 
1318	 0.394521825125676 
1319	 0.394518232005265 
1320	 0.394509659797102 
1321	 0.394516826669117 
1322	 0.394535553939387 
1323	 0.394571757367011 
1324	 0.394625606326641 
1325	 0.394674944207723 
1326	 0.394702553522253 
1327	 0.394747598924123 
1328	 0.394797603894638 
1329	 0.394859282006589 
1330	 0.394954560841298 
1331	 0.395102251589983 
1332	 0.395217950447332 
1333	 0.395340929116499 
1334	 0.395454264301121 
1335	 0.395545244218894 
1336	 0.395665732724807 
1337	 0.395802026265596 
1338	 0.395935590021425 
1339	 0.396089195974003 
1340	 0.396229811970163 
1341	 0.396358202250679 
1342	 0.396487721347574 
1343	 0.396615279806784 
1344	 0.396748698030774 
1345	 0.396865878136541 
1346	 0.396987157692991 
1347	 0.397113508216055 
1348	 0.397240068925564 
1349	 0.397374605417507 
1350	 0.397510361680024 
1351	 0.397641340373538 
1352	 0.397765562726061 
1353	 0.397896561336533 
1354	 0.398034181685206 
1355	 0.398160492795598 
1356	 0.398280468992988 
1357	 0.398408138861124 
1358	 0.3985358730077 
1359	 0.398660883812455 
1360	 0.398802051846391 
1361	 0.398916301432704 
1362	 0.398996894944395 
1363	 0.399103513483824 
1364	 0.399212645846888 
1365	 0.399322149036784 
1366	 0.399444834683332 
1367	 0.39956950740928 
1368	 0.399683377405069 
1369	 0.399783599171773 
1370	 0.399881569074378 
1371	 0.399983439554213 
1372	 0.400074669944625 
1373	 0.400153529259952 
1374	 0.400237509312467 
1375	 0.400325405261883 
1376	 0.400396546209284 
1377	 0.400470347574381 
1378	 0.400525187250561 
1379	 0.40056238314883 
1380	 0.400595505542854 
1381	 0.400611638820215 
1382	 0.400628608577117 
1383	 0.40064931280814 
1384	 0.400651652357449 
1385	 0.400656307902941 
1386	 0.400632039253264 
1387	 0.400587398338288 
1388	 0.400523074593004 
1389	 0.400438132196739 
1390	 0.400343360212352 
1391	 0.400203278447884 
1392	 0.400040282626675 
1393	 0.399863223443088 
1394	 0.399663749277662 
1395	 0.399459811860441 
1396	 0.399264092873764 
1397	 0.399067139545685 
1398	 0.398870921247797 
1399	 0.398654101155623 
1400	 0.398432142174453 
1401	 0.398205927835076 
1402	 0.397946070195484 
1403	 0.397726084192017 
1404	 0.397520228809317 
1405	 0.397327489437859 
1406	 0.397150271536025 
1407	 0.396981608541451 
1408	 0.39681096288517 
1409	 0.396680167929583 
1410	 0.396569997624593 
1411	 0.396482525566241 
1412	 0.39641913346957 
1413	 0.396385970491694 
1414	 0.396380107234156 
1415	 0.396402168376317 
1416	 0.396445923181932 
1417	 0.396495093959014 
1418	 0.396554238842808 
1419	 0.396622413738626 
1420	 0.396698174927666 
1421	 0.396778703705332 
1422	 0.396851107507136 
1423	 0.396895884512607 
1424	 0.396923077595783 
1425	 0.396931073359751 
1426	 0.396936295477482 
1427	 0.396908675635773 
1428	 0.396912169976837 
1429	 0.39692314075227 
1430	 0.396936503274274 
1431	 0.396966443085382 
1432	 0.396982689945839 
1433	 0.396991386441923 
1434	 0.397005978200816 
1435	 0.397028612262955 
1436	 0.397038530485422 
1437	 0.397047507394448 
1438	 0.397049509357066 
1439	 0.397046572030489 
1440	 0.397019520310669 
1441	 0.397003135556856 
1442	 0.396991183142727 
1443	 0.396976429972116 
1444	 0.396972839418025 
1445	 0.396969803151596 
1446	 0.396973104116953 
1447	 0.39696932506223 
1448	 0.396962609890115 
1449	 0.396968458718274 
1450	 0.396971402911881 
1451	 0.396976983587014 
1452	 0.396993953641191 
1453	 0.397000066429308 
1454	 0.397005912991854 
1455	 0.39699498833896 
1456	 0.396971349861002 
1457	 0.39694921526167 
1458	 0.39691082860871 
1459	 0.396889269598303 
1460	 0.396868652393886 
1461	 0.396865646562134 
1462	 0.39688290716605 
1463	 0.39688403610024 
1464	 0.39688370609249 
1465	 0.396895668211327 
1466	 0.396894504029848 
1467	 0.396916168735162 
1468	 0.396967057055217 
1469	 0.397012570701742 
1470	 0.397066735636721 
1471	 0.397117955181588 
1472	 0.397166281859088 
1473	 0.397209423933367 
1474	 0.397253997422476 
1475	 0.397310285621479 
1476	 0.397368056809687 
1477	 0.397430699396579 
1478	 0.397501700827768 
1479	 0.397579638375287 
1480	 0.397641834599307 
1481	 0.397706899699247 
1482	 0.397779156885276 
1483	 0.397842365748567 
1484	 0.397912804397377 
1485	 0.39800483436987 
1486	 0.398077450358354 
1487	 0.398132473055617 
1488	 0.398205585080082 
1489	 0.398278939521599 
1490	 0.398361558648663 
1491	 0.398470963109943 
1492	 0.398551883137604 
1493	 0.398622763687031 
1494	 0.398689135744399 
1495	 0.398736305436317 
1496	 0.398787026436269 
1497	 0.39883679905662 
1498	 0.398893586412411 
1499	 0.398947268570289 
1500	 0.399005228955777 
1501	 0.399064856248049 
1502	 0.39913447031113 
1503	 0.399211252786914 
1504	 0.399290174002698 
1505	 0.399371086059259 
1506	 0.399457120630451 
1507	 0.39953156786116 
1508	 0.3995885477852 
1509	 0.399658502431249 
1510	 0.399736746366496 
1511	 0.399784234608938 
1512	 0.399826897972469 
1513	 0.399870766376955 
1514	 0.399900858478259 
1515	 0.399956566973931 
1516	 0.40002965838208 
1517	 0.400087663021196 
1518	 0.400141673829091 
1519	 0.400203145027055 
1520	 0.400263746400863 
1521	 0.400325198311985 
1522	 0.400398546672429 
1523	 0.400455483054442 
1524	 0.400499256681451 
1525	 0.400549778372741 
1526	 0.400592647001873 
1527	 0.400648178319083 
1528	 0.400713075720656 
1529	 0.400773604108679 
1530	 0.400848313827592 
1531	 0.400897989107849 
1532	 0.40094091616951 
1533	 0.400969303048364 
1534	 0.40096847989023 
1535	 0.400989071976356 
1536	 0.401000265702283 
1537	 0.401024370085356 
1538	 0.401061554396562 
1539	 0.401102841658616 
1540	 0.401151878859803 
1541	 0.40120655488237 
1542	 0.401286666151643 
1543	 0.401339652065811 
1544	 0.401385058986919 
1545	 0.401421120445369 
1546	 0.401437681127812 
1547	 0.401444518754478 
1548	 0.401464020097354 
1549	 0.401499723746372 
1550	 0.401548902535835 
1551	 0.401592604167567 
1552	 0.401635539747415 
1553	 0.40168044352012 
1554	 0.401726842753908 
1555	 0.401768339167501 
1556	 0.401817653524499 
1557	 0.401870200147193 
1558	 0.401900603153002 
1559	 0.401943735809537 
1560	 0.401993767275859 
1561	 0.402049729860876 
1562	 0.402091080083874 
1563	 0.40213992123083 
1564	 0.402176352441377 
1565	 0.402187180148872 
1566	 0.40222509942571 
1567	 0.402277386413124 
1568	 0.402322093878105 
1569	 0.402367125627034 
1570	 0.402418955078364 
1571	 0.402477641844347 
1572	 0.402526735758634 
1573	 0.402578822544917 
1574	 0.402628231516074 
1575	 0.402673377336368 
1576	 0.402703986009417 
1577	 0.402743999453681 
1578	 0.402752916657743 
1579	 0.402724438422205 
1580	 0.402712467714884 
1581	 0.402673440548449 
1582	 0.402676287014405 
1583	 0.402703837860882 
1584	 0.402732949594715 
1585	 0.40278499045305 
1586	 0.402833677405666 
1587	 0.40288331433688 
1588	 0.40293627789022 
1589	 0.40301476068828 
1590	 0.403061644150549 
1591	 0.403080050908004 
1592	 0.403118217627375 
1593	 0.403151587296536 
1594	 0.4031832554236 
1595	 0.403230487279705 
1596	 0.403270442813377 
1597	 0.403296166898395 
1598	 0.403324738411644 
1599	 0.403354208244222 
1600	 0.403386871868329 
1601	 0.403429621264929 
1602	 0.403455264989263 
1603	 0.403467539786964 
1604	 0.403490943826545 
1605	 0.403493372668329 
1606	 0.403518391991907 
1607	 0.403562878019526 
1608	 0.40362218050871 
1609	 0.403681633741345 
1610	 0.403737586406922 
1611	 0.403769211952377 
1612	 0.403791716040875 
1613	 0.403823347758975 
1614	 0.403844447075134 
1615	 0.403845064874594 
1616	 0.403860097305033 
1617	 0.403875163102246 
1618	 0.403876114033485 
1619	 0.40390273657208 
1620	 0.403943353428539 
1621	 0.403975886819012 
1622	 0.403997789496121 
1623	 0.404041215631991 
1624	 0.404098590795605 
1625	 0.404148335047729 
1626	 0.404211839741719 
1627	 0.404248439351178 
1628	 0.404275222928628 
1629	 0.404295349548599 
1630	 0.404298179787752 
1631	 0.40430208773983 
1632	 0.404291366612597 
1633	 0.404310973457458 
1634	 0.404340544886928 
1635	 0.40436660687247 
1636	 0.404415166929493 
1637	 0.404443779574326 
1638	 0.404452649078247 
1639	 0.404477672075358 
1640	 0.404501984425041 
1641	 0.404546300116426 
1642	 0.404603267713468 
1643	 0.404657919181682 
1644	 0.404738964171887 
1645	 0.404782278990124 
1646	 0.404812270154476 
1647	 0.40482975275641 
1648	 0.40481081135278 
1649	 0.404829706127206 
1650	 0.40485461567512 
1651	 0.404883575609003 
1652	 0.404935526795121 
1653	 0.404974508436093 
1654	 0.40500746791089 
1655	 0.405039942394098 
1656	 0.40507077621956 
1657	 0.405108178437978 
1658	 0.405136575564644 
1659	 0.405185734251633 
1660	 0.405269742393071 
1661	 0.405307682072326 
1662	 0.405337512970551 
1663	 0.405355119561672 
1664	 0.405329506445253 
1665	 0.405336342023174 
1666	 0.405352223775745 
1667	 0.405374431776095 
1668	 0.405407759665084 
1669	 0.405438693740142 
1670	 0.405479972017877 
1671	 0.405510050849824 
1672	 0.405528625999185 
1673	 0.405562431025773 
1674	 0.40559427523745 
1675	 0.405639152842063 
1676	 0.405704830807154 
1677	 0.405758165350266 
1678	 0.405820471238717 
1679	 0.405859794573477 
1680	 0.405888473809773 
1681	 0.405908722461422 
1682	 0.405908321802465 
1683	 0.405916678383781 
1684	 0.405908490544749 
1685	 0.405931617022734 
1686	 0.405978376272947 
1687	 0.406007427234952 
1688	 0.406055273056004 
1689	 0.406080227620587 
1690	 0.406064834907811 
1691	 0.406092109204627 
1692	 0.406137336741248 
1693	 0.406179678904986 
1694	 0.406241130395423 
1695	 0.40629561326102 
1696	 0.406355374602846 
1697	 0.406391039437595 
1698	 0.406417641700941 
1699	 0.406444353590408 
1700	 0.406442147125679 
1701	 0.406468120772611 
1702	 0.406518613224012 
1703	 0.406553112915071 
1704	 0.40659198537269 
1705	 0.406616448090916 
1706	 0.406616077369813 
1707	 0.406644942793105 
1708	 0.406676464313232 
1709	 0.406722722104238 
1710	 0.406801581920049 
1711	 0.406854482984688 
1712	 0.4069042454361 
1713	 0.406946244212803 
1714	 0.406976340488423 
1715	 0.407008139397851 
1716	 0.407036992539688 
1717	 0.407062977915021 
1718	 0.407080013488845 
1719	 0.407109545236608 
1720	 0.407151024402067 
1721	 0.407171020896232 
1722	 0.407184697528427 
1723	 0.407198941824179 
1724	 0.407202920201724 
1725	 0.407205985593167 
1726	 0.407223242107975 
1727	 0.407213840063544 
1728	 0.407177619069259 
1729	 0.407150777328514 
1730	 0.407113484569105 
1731	 0.407086205673759 
1732	 0.407066005377136 
1733	 0.407039691551853 
1734	 0.407004663087861 
1735	 0.406995948076881 
1736	 0.407005528915211 
1737	 0.406980899427475 
1738	 0.406962820127422 
1739	 0.40693078856362 
1740	 0.406852930309129 
1741	 0.406842697859752 
1742	 0.40686974627505 
1743	 0.406875486866347 
1744	 0.406903845297773 
1745	 0.406894625060513 
1746	 0.406856919666469 
1747	 0.406816114472968 
1748	 0.406804520000162 
1749	 0.406805315949769 
1750	 0.406809873777221 
1751	 0.406799536621817 
1752	 0.406798451454341 
1753	 0.406807347837063 
1754	 0.406790252127576 
1755	 0.406778059617708 
1756	 0.406746927415578 
1757	 0.406686126217625 
1758	 0.406659374439933 
1759	 0.406639061149211 
1760	 0.406609869928156 
1761	 0.4065857965105 
1762	 0.406543576073077 
1763	 0.406489162698976 
1764	 0.406468129375151 
1765	 0.406472737890029 
1766	 0.406467860767604 
1767	 0.406511980462367 
1768	 0.406560503921567 
1769	 0.406570118986762 
1770	 0.406606276364936 
1771	 0.406630654230694 
1772	 0.40662421487263 
1773	 0.406613762481917 
1774	 0.406589793513285 
1775	 0.406572829532334 
1776	 0.406579947959307 
1777	 0.406597378109213 
1778	 0.406646089043965 
1779	 0.406711557490878 
1780	 0.406752442532179 
1781	 0.406793596643281 
1782	 0.406815953555133 
1783	 0.406769506429521 
1784	 0.406746598587876 
1785	 0.40670858746494 
1786	 0.406695779778831 
1787	 0.40671142633759 
1788	 0.406706381047037 
1789	 0.406693135517587 
1790	 0.406710832693306 
1791	 0.406718853470417 
1792	 0.406768047544113 
1793	 0.406880195724032 
1794	 0.406947779293739 
1795	 0.407018733663258 
1796	 0.407066315103583 
1797	 0.407074055861509 
1798	 0.407106379284602 
1799	 0.407149399970567 
1800	 0.407187840990279 
1801	 0.411137730480905 
1802	 0.411183473576088 
1803	 0.411195758943401 
1804	 0.41120521147554 
1805	 0.411231622616123 
1806	 0.411241047219889 
1807	 0.411248760019202 
1808	 0.411264617313891 
1809	 0.411261066106056 
1810	 0.411288588855984 
1811	 0.41133435490986 
1812	 0.411402771938527 
1813	 0.411454179967801 
1814	 0.411493519403324 
1815	 0.411522750727221 
1816	 0.411526165393843 
1817	 0.411535162213146 
1818	 0.411553276136865 
1819	 0.411548869712489 
1820	 0.41152961890675 
1821	 0.411503848253636 
1822	 0.4114884635887 
1823	 0.411453021519933 
1824	 0.411446619984995 
1825	 0.411444227782872 
1826	 0.411415365538968 
1827	 0.411387996218487 
1828	 0.411356405469911 
1829	 0.411309877419095 
1830	 0.411278455761917 
1831	 0.411243729697638 
1832	 0.411228544209448 
1833	 0.411226974122732 
1834	 0.411214021267088 
1835	 0.411217997498123 
1836	 0.411211923074827 
1837	 0.411210738631611 
1838	 0.411201937659857 
1839	 0.411194753162553 
1840	 0.411183502372288 
1841	 0.411190893483112 
1842	 0.411182258198785 
1843	 0.411179034765367 
1844	 0.411199047384351 
1845	 0.41121764882803 
1846	 0.411260091947729 
1847	 0.411310101632816 
1848	 0.411343245049187 
1849	 0.41137587248152 
1850	 0.411381319849605 
1851	 0.411356824693271 
1852	 0.411326286011518 
1853	 0.411307166457052 
1854	 0.411278904774329 
1855	 0.411264464453467 
1856	 0.411264621469451 
1857	 0.411263119726991 
1858	 0.411251639116053 
1859	 0.411222553322516 
1860	 0.411189919398409 
1861	 0.411151072347923 
1862	 0.411100240640317 
1863	 0.411036367250698 
1864	 0.410989853822104 
1865	 0.410919152427931 
1866	 0.410829959950227 
1867	 0.41074496223264 
1868	 0.410646071066086 
1869	 0.410571183637625 
1870	 0.410513222425713 
1871	 0.41043040898314 
1872	 0.410347522774614 
1873	 0.410254003831619 
1874	 0.410126064111305 
1875	 0.40995945940199 
1876	 0.409788855166049 
1877	 0.409617530909119 
1878	 0.409438781785959 
1879	 0.409258293918626 
1880	 0.409023112913607 
1881	 0.408765635757021 
1882	 0.40845830953609 
1883	 0.408106608275723 
1884	 0.407698948985915 
1885	 0.407280718429335 
1886	 0.406830880691636 
1887	 0.40633642795959 
1888	 0.405838993765446 
1889	 0.405330510490501 
1890	 0.404798921412577 
1891	 0.404233724679582 
1892	 0.403630550285311 
1893	 0.403021375168137 
1894	 0.402374649244495 
1895	 0.401727545685504 
1896	 0.401096788618781 
1897	 0.400504928130744 
1898	 0.399908213270159 
1899	 0.399346368968673 
1900	 0.398826324960783 
1901	 0.398342899203434 
1902	 0.397889060401022 
1903	 0.39749915153796 
1904	 0.397093570213578 
1905	 0.396701101796152 
1906	 0.396321627164915 
1907	 0.395948485370532 
1908	 0.395607600136883 
1909	 0.395297107158224 
1910	 0.394985121388727 
1911	 0.394700403606396 
1912	 0.394415360158333 
1913	 0.39413460625336 
1914	 0.393865407479321 
1915	 0.393598430349526 
1916	 0.393327617525553 
1917	 0.393064858685887 
1918	 0.392843460287813 
1919	 0.392600656012139 
1920	 0.392375092873873 
1921	 0.392186100039171 
1922	 0.391989472398177 
1923	 0.391826135122601 
1924	 0.391698126591569 
1925	 0.391623586503117 
1926	 0.39153823415259 
1927	 0.391472973510653 
1928	 0.391423239899056 
1929	 0.391366507381205 
1930	 0.391302138535847 
1931	 0.391236680846429 
1932	 0.391166334805934 
1933	 0.391115320351098 
1934	 0.391061571197826 
1935	 0.39103075294325 
1936	 0.391021334317918 
1937	 0.391021790704611 
1938	 0.391021034172852 
1939	 0.391064943479931 
1940	 0.391138763877463 
1941	 0.3912267988523 
1942	 0.391348876325696 
1943	 0.391459131266877 
1944	 0.391565048954992 
1945	 0.391668476325866 
1946	 0.391783417447004 
1947	 0.391900415811681 
1948	 0.392024117312337 
1949	 0.392148935597005 
1950	 0.39229762568753 
1951	 0.392458557774115 
1952	 0.392632324818016 
1953	 0.392809212742586 
1954	 0.392997700659902 
1955	 0.393166704807613 
1956	 0.393306196865875 
1957	 0.393468837253465 
1958	 0.393633197252263 
1959	 0.393798205318624 
1960	 0.393967390288828 
1961	 0.394149376767854 
1962	 0.394342608044243 
1963	 0.394524835358758 
1964	 0.394695256769859 
1965	 0.394894900493468 
1966	 0.395104661001144 
1967	 0.395317231791235 
1968	 0.395535686699775 
1969	 0.395785266036459 
1970	 0.396011206689714 
1971	 0.396230421750473 
1972	 0.396440601093509 
1973	 0.396650015875711 
1974	 0.396851888039053 
1975	 0.397032507689692 
1976	 0.397217748062255 
1977	 0.397433271564081 
1978	 0.397622039896764 
1979	 0.397822221019845 
1980	 0.398032433020805 
1981	 0.398238300666312 
1982	 0.398428505799844 
1983	 0.398651076216057 
1984	 0.398891346356937 
1985	 0.399131397778961 
1986	 0.399397462094967 
1987	 0.39965012996193 
1988	 0.399899522108303 
1989	 0.40014277620206 
1990	 0.400394016977374 
1991	 0.400631632145127 
1992	 0.400893285326664 
1993	 0.401169916405171 
1994	 0.401441510601695 
1995	 0.401730433097429 
1996	 0.402004469821842 
1997	 0.402271142508478 
1998	 0.402534954527864 
1999	 0.402798920611548 
2000	 0.403053362041246 
2001	 0.403310658306798 
2002	 0.403540091876914 
2003	 0.403769560357853 
2004	 0.403994051918091 
2005	 0.404234742415093 
2006	 0.404478272120156 
2007	 0.404735863892218 
2008	 0.405009627956199 
2009	 0.405280884375379 
2010	 0.405558961497407 
2011	 0.405834546453342 
2012	 0.406130353821088 
2013	 0.406396840918484 
2014	 0.406642798009272 
2015	 0.406890651559837 
2016	 0.40713531486601 
2017	 0.407388338959381 
2018	 0.407650947870039 
2019	 0.407934738113468 
2020	 0.408213280360322 
2021	 0.408493562938408 
2022	 0.408773903017896 
2023	 0.409051610136795 
2024	 0.409346683376984 
2025	 0.40967391504188 
2026	 0.409959828516459 
2027	 0.410249405191765 
2028	 0.410517228992297 
2029	 0.410759974314324 
2030	 0.410960466843648 
2031	 0.411166757786307 
2032	 0.411356338854217 
2033	 0.411555640562663 
2034	 0.411746391021829 
2035	 0.411935166294813 
2036	 0.412116976316831 
2037	 0.412315763761869 
2038	 0.412523255280844 
2039	 0.412719665043951 
2040	 0.412921737942887 
2041	 0.41313423039963 
2042	 0.413332588383687 
2043	 0.413486217054243 
2044	 0.413656057122806 
2045	 0.413826346614424 
2046	 0.413989050420472 
2047	 0.414148026232644 
2048	 0.41429569855179 
2049	 0.414413962897425 
2050	 0.414565742473509 
2051	 0.414729850624175 
2052	 0.414886370542682 
2053	 0.415074135376957 
2054	 0.415239691529442 
2055	 0.415382492479334 
2056	 0.41551721611796 
2057	 0.415667344744905 
2058	 0.415828585912315 
2059	 0.415962970133752 
2060	 0.416086790076905 
2061	 0.416220406412355 
2062	 0.416331560392212 
2063	 0.416465451050896 
2064	 0.416622590532109 
2065	 0.416774352028161 
2066	 0.416932865012932 
2067	 0.417083001980273 
2068	 0.417239327649981 
2069	 0.417386355718785 
2070	 0.417519116743655 
2071	 0.417630984021885 
2072	 0.417768499441956 
2073	 0.417903980314518 
2074	 0.418044322228793 
2075	 0.418200596303588 
2076	 0.41835043034284 
2077	 0.418481318436443 
2078	 0.418643086486432 
2079	 0.418827742218416 
2080	 0.419007154156999 
2081	 0.419213767868808 
2082	 0.419397778035195 
2083	 0.419570303444185 
2084	 0.419733901379187 
2085	 0.419907157419986 
2086	 0.420084341509202 
2087	 0.420237620443048 
2088	 0.420398322042595 
2089	 0.420524516946354 
2090	 0.4205979798716 
2091	 0.420709463608952 
2092	 0.420831901358312 
2093	 0.420938169497514 
2094	 0.421031904897017 
2095	 0.421152606457783 
2096	 0.421273123685122 
2097	 0.421397005728799 
2098	 0.421538885399231 
2099	 0.421696009033007 
2100	 0.421851462352147 
2101	 0.421988177517499 
2102	 0.422165702310321 
2103	 0.42238755935921 
2104	 0.422572376648448 
2105	 0.422756049471417 
2106	 0.422942666658512 
2107	 0.423110766113729 
2108	 0.423293226486927 
2109	 0.423482390304713 
2110	 0.423684825557826 
2111	 0.423898129452984 
2112	 0.424109798742647 
2113	 0.42434180044385 
2114	 0.424567017748205 
2115	 0.424773403799757 
2116	 0.424962313327455 
2117	 0.425164316724377 
2118	 0.425357809045961 
2119	 0.42555888096052 
2120	 0.425772225491564 
2121	 0.425973410774963 
2122	 0.426162905701033 
2123	 0.426365650211833 
2124	 0.426586152740488 
2125	 0.426778908894353 
2126	 0.426984994359285 
2127	 0.427152416848194 
2128	 0.427283378293082 
2129	 0.427404006317461 
2130	 0.427498501286328 
2131	 0.427590059022067 
2132	 0.427654739969194 
2133	 0.427711507856936 
2134	 0.427723595707669 
2135	 0.427696604060264 
2136	 0.427665555775097 
2137	 0.427588494905657 
2138	 0.427539028638432 
2139	 0.427501676059206 
2140	 0.427442832034767 
2141	 0.427389665221019 
2142	 0.427311028943036 
2143	 0.427205987116214 
2144	 0.427096263079226 
2145	 0.42698703897852 
2146	 0.426845764869349 
2147	 0.426674235600214 
2148	 0.426504431830441 
2149	 0.426314169564135 
2150	 0.426096069652548 
2151	 0.425878565913808 
2152	 0.425658017414018 
2153	 0.425418891285982 
2154	 0.425169247392238 
2155	 0.424898221811659 
2156	 0.424608132232784 
2157	 0.424309944186484 
2158	 0.4240057382852 
2159	 0.423667365326858 
2160	 0.423297989349444 
2161	 0.42293295645687 
2162	 0.422541379723111 
2163	 0.422148369748689 
2164	 0.421762582967533 
2165	 0.421358106664082 
2166	 0.420963876265303 
2167	 0.420559654734116 
2168	 0.420158723081478 
2169	 0.419763955029853 
2170	 0.419369510559128 
2171	 0.418961315826863 
2172	 0.418573343354763 
2173	 0.418225793562391 
2174	 0.417824868644598 
2175	 0.417391949878168 
2176	 0.416981107022758 
2177	 0.416564361992879 
2178	 0.41612784929386 
2179	 0.415690077362365 
2180	 0.415260367301042 
2181	 0.414798515738537 
2182	 0.414352172760295 
2183	 0.413927497207356 
2184	 0.413511269367585 
2185	 0.413094062394501 
2186	 0.412664648843658 
2187	 0.412267563673866 
2188	 0.411891666727182 
2189	 0.411514023167985 
2190	 0.411142292174749 
2191	 0.410789407355504 
2192	 0.410434932907647 
2193	 0.410115388411455 
2194	 0.409819065631823 
2195	 0.40954696221754 
2196	 0.409304848025492 
2197	 0.409074434628251 
2198	 0.408884779386729 
2199	 0.408680824793562 
2200	 0.408457875916879 
2201	 0.408278618545628 
2202	 0.40813238733872 
2203	 0.407966155735459 
2204	 0.40784039349011 
2205	 0.407737206029803 
2206	 0.407693675878272 
2207	 0.407675346438271 
2208	 0.407699352374576 
2209	 0.407827723933825 
2210	 0.407877392345984 
2211	 0.407898743603131 
2212	 0.407959513088799 
2213	 0.408018099873075 
2214	 0.408082002558485 
2215	 0.408179120305173 
2216	 0.408268312207972 
2217	 0.408358363109645 
2218	 0.408432397890706 
2219	 0.408507944474473 
2220	 0.408577146063683 
2221	 0.408623039345494 
2222	 0.40866931146884 
2223	 0.408729134910245 
2224	 0.408805601693001 
2225	 0.408832292799261 
2226	 0.408836078613993 
2227	 0.408839110936339 
2228	 0.408822576380857 
2229	 0.408785977844303 
2230	 0.408737248697682 
2231	 0.408685730258393 
2232	 0.408598352911289 
2233	 0.408531713035166 
2234	 0.408484551567525 
2235	 0.408421155355 
2236	 0.408335587645832 
2237	 0.408275128450799 
2238	 0.408220468955045 
2239	 0.408174025143465 
2240	 0.40816221056729 
2241	 0.408118777010699 
2242	 0.408047159144296 
2243	 0.407998552828298 
2244	 0.40793705209073 
2245	 0.407897263082034 
2246	 0.407879549831203 
2247	 0.407867411635128 
2248	 0.407860023109918 
2249	 0.407845046210199 
2250	 0.407869107962767 
2251	 0.407934612799688 
2252	 0.407958288058856 
2253	 0.407982783510212 
2254	 0.408011894996497 
2255	 0.408001899286179 
2256	 0.408041426633339 
2257	 0.408128585098557 
2258	 0.40818989409133 
2259	 0.408254938263386 
2260	 0.4083238787629 
2261	 0.408385085738463 
2262	 0.408459418685126 
2263	 0.408554858890393 
2264	 0.408637007301235 
2265	 0.408702396980485 
2266	 0.40878909777109 
2267	 0.408868606197787 
2268	 0.408969457599568 
2269	 0.409090778447454 
2270	 0.409244645305979 
2271	 0.409367729547836 
2272	 0.409506605610571 
2273	 0.409623726409299 
2274	 0.409730731899446 
2275	 0.409830815372119 
2276	 0.409906255987452 
2277	 0.410018731070846 
2278	 0.410135728248737 
2279	 0.410265363472184 
2280	 0.410435998688156 
2281	 0.410580988227899 
2282	 0.410718594820967 
2283	 0.410847257356276 
2284	 0.410963038498739 
2285	 0.411087580375696 
2286	 0.411188980067313 
2287	 0.41133092101785 
2288	 0.411523823563727 
2289	 0.411667690110674 
2290	 0.411823506186931 
2291	 0.411956209168174 
2292	 0.4120240981363 
2293	 0.412126313466768 
2294	 0.412230483609725 
2295	 0.412352155576814 
2296	 0.4124875793045 
2297	 0.41264183117382 
2298	 0.412797450969536 
2299	 0.412956835067107 
2300	 0.413120825398307 
2301	 0.4133148043743 
2302	 0.413501500793553 
2303	 0.413666159452888 
2304	 0.413825366405673 
2305	 0.413966163811411 
2306	 0.414059886632772 
2307	 0.414116874082705 
2308	 0.414172869344086 
2309	 0.414174248898415 
2310	 0.41419580018563 
2311	 0.414219932940318 
2312	 0.414277888731121 
2313	 0.41432643279488 
2314	 0.414416866068925 
2315	 0.414565513415009 
2316	 0.414679348705784 
2317	 0.41480950834449 
2318	 0.414913078797407 
2319	 0.414994114331143 
2320	 0.415080067855476 
2321	 0.415133463220767 
2322	 0.415223633258769 
2323	 0.415324397265634 
2324	 0.415455239677042 
2325	 0.415648799787507 
2326	 0.415808190328872 
2327	 0.415989783273701 
2328	 0.416112376178918 
2329	 0.416229886804775 
2330	 0.416315475459874 
2331	 0.416442408073852 
2332	 0.416559593898465 
2333	 0.41670492763019 
2334	 0.41684270488924 
2335	 0.416902744487844 
2336	 0.417005809666731 
2337	 0.417095561431831 
2338	 0.417168439724582 
2339	 0.41734766271469 
2340	 0.417553813123149 
2341	 0.417731272132664 
2342	 0.417901105232433 
2343	 0.417965569252265 
2344	 0.417983260660049 
2345	 0.41800574526458 
2346	 0.418005143838534 
2347	 0.417959483988391 
2348	 0.41787046809876 
2349	 0.417818279863755 
2350	 0.417728201302148 
2351	 0.417661070214083 
2352	 0.417640666935271 
2353	 0.417604398905453 
2354	 0.417508274448607 
2355	 0.417520860256587 
2356	 0.41764272614538 
2357	 0.417652315059634 
2358	 0.417672844224237 
2359	 0.417669956526154 
2360	 0.417565906670836 
2361	 0.417532651191399 
2362	 0.41758588304427 
2363	 0.417529926000534 
2364	 0.417411960983994 
2365	 0.417333952964828 
2366	 0.417197120057937 
2367	 0.417111104525696 
2368	 0.41711803169626 
2369	 0.417041515566799 
2370	 0.416929549303003 
2371	 0.416809187049394 
2372	 0.416678803949372 
2373	 0.41648221572764 
2374	 0.416309409038441 
2375	 0.416183487082645 
2376	 0.416040209051665 
2377	 0.415940168418255 
2378	 0.415822037091514 
2379	 0.41563753751072 
2380	 0.415425822671083 
2381	 0.415256571997262 
2382	 0.415114036669255 
2383	 0.414966228706203 
2384	 0.41492196010515 
2385	 0.414814017644794 
2386	 0.414592597917417 
2387	 0.414463335391728 
2388	 0.414289531343199 
2389	 0.414088500262738 
2390	 0.413918239229179 
2391	 0.413680519284699 
2392	 0.413526975583637 
2393	 0.413375998367461 
2394	 0.41324671502368 
2395	 0.413183420785635 
2396	 0.412967601549842 
2397	 0.412763595422734 
2398	 0.41258508921971 
2399	 0.412369322178598 
2400	 0.41222781267536 
2401	 0.412064905147158 
2402	 0.411854947323762 
2403	 0.411645205882348 
2404	 0.411469403095469 
2405	 0.411274178761426 
2406	 0.411019760956872 
2407	 0.410900809970045 
2408	 0.410820299963149 
2409	 0.410685910474608 
2410	 0.41053293951426 
2411	 0.410312256866846 
2412	 0.41010274496966 
2413	 0.409795799075253 
2414	 0.409617486267631 
2415	 0.40953212241762 
2416	 0.409329549465536 
2417	 0.409083659637791 
2418	 0.408832376673977 
2419	 0.40845218373546 
2420	 0.408264285920551 
2421	 0.40816320383889 
2422	 0.408027155479507 
2423	 0.408044433577942 
2424	 0.407871797608624 
2425	 0.40755834899801 
2426	 0.407296547700224 
2427	 0.40694870808948 
2428	 0.406701329009812 
2429	 0.406552184522148 
2430	 0.406320138283516 
2431	 0.406117898206366 
2432	 0.405839210760023 
2433	 0.405376538423148 
2434	 0.405128075719579 
2435	 0.404965415530326 
2436	 0.404842099784675 
2437	 0.404930192168388 
2438	 0.404808326969854 
2439	 0.40456175293462 
2440	 0.404334871843663 
2441	 0.404007910650379 
2442	 0.403824670086774 
2443	 0.403715734099969 
2444	 0.403624075911828 
2445	 0.403632541677054 
2446	 0.403520951815561 
2447	 0.40339099889684 
2448	 0.403253614273452 
2449	 0.403008813226796 
2450	 0.40286215261318 
2451	 0.402769169002851 
2452	 0.402638105709007 
2453	 0.402563741202767 
2454	 0.402418216420159 
2455	 0.40220077224876 
2456	 0.402052070896269 
2457	 0.401911529541508 
2458	 0.401761788478002 
2459	 0.401602542273301 
2460	 0.401439263114311 
2461	 0.40129489416921 
2462	 0.401138032451436 
2463	 0.400991794608173 
2464	 0.400859084476844 
2465	 0.400710407688645 
2466	 0.400570151569585 
2467	 0.400438774119568 
2468	 0.400291389791817 
2469	 0.400065628639694 
2470	 0.399945670976741 
2471	 0.400008533517063 
2472	 0.399919039741393 
2473	 0.399800004708334 
2474	 0.399585201224539 
2475	 0.399287473646907 
2476	 0.399057033074954 
2477	 0.398914091460753 
2478	 0.398773431205854 
2479	 0.398536005954937 
2480	 0.398320562375959 
2481	 0.398153092411425 
2482	 0.39807307228727 
2483	 0.397932432044648 
2484	 0.397836536775866 
2485	 0.397670260809856 
2486	 0.397404384050851 
2487	 0.397385925344997 
2488	 0.39736278083742 
2489	 0.397319231612259 
2490	 0.397201813100443 
2491	 0.39685784522947 
2492	 0.396434301533869 
2493	 0.396059808517938 
2494	 0.39570476601014 
2495	 0.395507966359661 
2496	 0.395609005503002 
2497	 0.395501037886937 
2498	 0.395458663663794 
2499	 0.395743243252944 
2500	 0.395660693387489 
