Wavelength	LMW100002.asd
350	 7.70004125040616E-02 
351	 7.72906995955827E-02 
352	 7.73336813240307E-02 
353	 7.70744050651473E-02 
354	 7.72165949664673E-02 
355	 7.77405379551865E-02 
356	 7.67806147514363E-02 
357	 7.42612079763086E-02 
358	 7.90552377193789E-02 
359	 7.78983872173153E-02 
360	 7.42811266451274E-02 
361	 8.06273696875947E-02 
362	 7.94211539427985E-02 
363	 7.68230541492812E-02 
364	 7.68954072978143E-02 
365	 7.57617767527428E-02 
366	 0.07538149882845 
367	 7.55506718171116E-02 
368	 7.57633004697615E-02 
369	 7.65618328890562E-02 
370	 0.078280474236137 
371	 7.99159072531314E-02 
372	 7.98164804199479E-02 
373	 7.98235328258459E-02 
374	 8.00270974432475E-02 
375	 8.01274846710027E-02 
376	 7.95961215342172E-02 
377	 7.82545446038794E-02 
378	 0.079034570144499 
379	 8.32984947670132E-02 
380	 8.22055595011808E-02 
381	 8.01732918830749E-02 
382	 8.04177002055498E-02 
383	 8.42246988589914E-02 
384	 8.59266184516012E-02 
385	 8.45581385161353E-02 
386	 8.24865772394521E-02 
387	 8.71675343677871E-02 
388	 8.95149727550728E-02 
389	 8.93264507665278E-02 
390	 8.89407734481887E-02 
391	 8.76134946465015E-02 
392	 8.84778961469917E-02 
393	 9.13697341320785E-02 
394	 9.33145320548261E-02 
395	 9.41332411513262E-02 
396	 9.43507165703191E-02 
397	 9.47164987760034E-02 
398	 9.61817089941982E-02 
399	 9.71653038865755E-02 
400	 9.81854259999512E-02 
401	 9.99104422082261E-02 
402	 9.91842150084844E-02 
403	 9.92092818020617E-02 
404	 0.100577520211174 
405	 0.100965090683326 
406	 0.10175883888003 
407	 0.103187951155651 
408	 0.10476492241218 
409	 0.104724604119293 
410	 0.10473025590885 
411	 0.105024502134235 
412	 0.10530885538936 
413	 0.106703249915155 
414	 0.107873374625337 
415	 0.108123151064212 
416	 0.107784695394913 
417	 0.108473109969802 
418	 0.109401091881489 
419	 0.109608130773208 
420	 0.109795700999072 
421	 0.109554938358863 
422	 0.109483402075244 
423	 0.110576541525499 
424	 0.110716724564573 
425	 0.110571522383865 
426	 0.110603703392557 
427	 0.110177624808639 
428	 0.110060188065521 
429	 0.110102753822414 
430	 0.109954502662381 
431	 0.109888649501812 
432	 0.109578898368112 
433	 0.10923473898278 
434	 0.109543825878478 
435	 0.109513189436958 
436	 0.109349284096307 
437	 0.109331865956881 
438	 0.109228863978037 
439	 0.109603096789455 
440	 0.110195609284838 
441	 0.110401095636978 
442	 0.110410787329204 
443	 0.110894684664914 
444	 0.111748681766086 
445	 0.111637741990977 
446	 0.112052808566707 
447	 0.112785747165414 
448	 0.113271535228647 
449	 0.113642589588883 
450	 0.114105279826088 
451	 0.114749265654298 
452	 0.115532573194933 
453	 0.115965155629537 
454	 0.116242959920092 
455	 0.116589497969803 
456	 0.116980203601186 
457	 0.117289993586835 
458	 0.117607728426227 
459	 0.118069643510914 
460	 0.118377404957135 
461	 0.118583245965717 
462	 0.118814441142112 
463	 0.119256979604691 
464	 0.119557862699386 
465	 0.11978679008043 
466	 0.120081127005856 
467	 0.120347735602226 
468	 0.120500051809191 
469	 0.120568735790114 
470	 0.120680216947398 
471	 0.120916289619219 
472	 0.121079457921568 
473	 0.121105115985869 
474	 0.121350324352203 
475	 0.121683377520732 
476	 0.121870172561543 
477	 0.121737297529162 
478	 0.121909878054266 
479	 0.122191478639932 
480	 0.122410300551424 
481	 0.122533312244702 
482	 0.122719025822685 
483	 0.122994225587301 
484	 0.123300524937949 
485	 0.123431412579812 
486	 0.123475846915602 
487	 0.123512066219966 
488	 0.123597520416 
489	 0.123693171084392 
490	 0.123884005261421 
491	 0.124156974199692 
492	 0.124212781471346 
493	 0.124204659985024 
494	 0.124303800666484 
495	 0.124620945543784 
496	 0.124707892642085 
497	 0.124820722670063 
498	 0.125044054980672 
499	 0.125109479654084 
500	 0.125094489332712 
501	 0.125181639757158 
502	 0.125471263936028 
503	 0.125576857918504 
504	 0.125575994963943 
505	 0.125585981301698 
506	 0.125732935801539 
507	 0.125896149543049 
508	 0.126038009877901 
509	 0.1261418800074 
510	 0.12620367805251 
511	 0.126175797896904 
512	 0.126212934063594 
513	 0.126510923592623 
514	 0.126610482821494 
515	 0.126616078310883 
516	 0.126660963179098 
517	 0.126822654735481 
518	 0.126873877949872 
519	 0.126885962989596 
520	 0.127002809921365 
521	 0.127186218190318 
522	 0.127336265515525 
523	 0.12741156887859 
524	 0.127437573861382 
525	 0.127588573860813 
526	 0.127745055131033 
527	 0.127788004450591 
528	 0.127809144793993 
529	 0.127918066854896 
530	 0.128090521882101 
531	 0.128213956565447 
532	 0.128261899732571 
533	 0.128383232391445 
534	 0.128614714039554 
535	 0.128714423325536 
536	 0.128757969688455 
537	 0.128798169887869 
538	 0.128880506721783 
539	 0.129008019902847 
540	 0.129156924133602 
541	 0.129295880496728 
542	 0.129386130535452 
543	 0.129475791452305 
544	 0.129617758999192 
545	 0.129823919539095 
546	 0.129952824050669 
547	 0.130041894584095 
548	 0.130140777535963 
549	 0.130300609135882 
550	 0.130487435213704 
551	 0.130642775782612 
552	 0.130773094614351 
553	 0.131080986706627 
554	 0.13128396427029 
555	 0.131440520050433 
556	 0.131751613133133 
557	 0.131928577365242 
558	 0.132146612875187 
559	 0.132486574755125 
560	 0.132781084846029 
561	 0.133019856400136 
562	 0.133245249897318 
563	 0.133518412486025 
564	 0.133852209850373 
565	 0.134187507998299 
566	 0.13452945817108 
567	 0.134957429537053 
568	 0.135350668031646 
569	 0.135756954888671 
570	 0.136232188604121 
571	 0.136717315184214 
572	 0.13723639764913 
573	 0.137774489651152 
574	 0.138289319320592 
575	 0.138794605735209 
576	 0.139320172523142 
577	 0.139877472725502 
578	 0.14043066986765 
579	 0.141024762386517 
580	 0.141695712552075 
581	 0.142462763501318 
582	 0.143273763308222 
583	 0.144059304957005 
584	 0.144789911808353 
585	 0.145493019465175 
586	 0.14626376039164 
587	 0.146993293612194 
588	 0.147590468796998 
589	 0.148322677721337 
590	 0.149072523779885 
591	 0.149808204115569 
592	 0.150587197329112 
593	 0.151338222880846 
594	 0.152093167674647 
595	 0.152900060593702 
596	 0.153798875446544 
597	 0.154762688043026 
598	 0.155736095971924 
599	 0.156652896693195 
600	 0.157493788784616 
601	 0.158300332624328 
602	 0.159064743537431 
603	 0.159670498637976 
604	 0.160332753934051 
605	 0.16103507795884 
606	 0.161687272758774 
607	 0.162306894723112 
608	 0.162880006537788 
609	 0.163433133889998 
610	 0.164037810020513 
611	 0.164644074793186 
612	 0.165220193348015 
613	 0.165752718478667 
614	 0.166290996478416 
615	 0.166748590873758 
616	 0.167170685761792 
617	 0.167674415974357 
618	 0.168055504834997 
619	 0.168399345389851 
620	 0.168781360318038 
621	 0.169167671862417 
622	 0.169467143783312 
623	 0.16973729270299 
624	 0.170077516600513 
625	 0.170394637913318 
626	 0.170684229062356 
627	 0.170953927416312 
628	 0.171216809566463 
629	 0.171509194697512 
630	 0.17179542542955 
631	 0.172044433077798 
632	 0.172331401345598 
633	 0.172574330013875 
634	 0.172782099547343 
635	 0.173039091951376 
636	 0.173349433304249 
637	 0.173611204748791 
638	 0.173782298089496 
639	 0.17400452408262 
640	 0.174274306696714 
641	 0.174567573864175 
642	 0.174839460160871 
643	 0.175022851076229 
644	 0.17524037793498 
645	 0.175521838653781 
646	 0.175735098354449 
647	 0.175994353703623 
648	 0.176275396378107 
649	 0.176533406198308 
650	 0.176813867878338 
651	 0.177096206612588 
652	 0.177361197692033 
653	 0.177599834807566 
654	 0.177934193505539 
655	 0.178275627057235 
656	 0.178557778217373 
657	 0.178868516242759 
658	 0.179179720576122 
659	 0.179491550632449 
660	 0.179814670609144 
661	 0.180148656147105 
662	 0.180491013442364 
663	 0.180831835183596 
664	 0.18114997128143 
665	 0.18151423517212 
666	 0.181917973836557 
667	 0.182327872144288 
668	 0.182705476696196 
669	 0.183063705752459 
670	 0.183434695548593 
671	 0.183859537765996 
672	 0.184286656545687 
673	 0.184719836619531 
674	 0.185165208216087 
675	 0.185610308275527 
676	 0.186076650012288 
677	 0.186524157714757 
678	 0.186910659498535 
679	 0.187363993826977 
680	 0.187867228778096 
681	 0.188386367742055 
682	 0.188883242384106 
683	 0.189413227842116 
684	 0.189930690388811 
685	 0.1904026532586 
686	 0.190927502926989 
687	 0.191532371784768 
688	 0.192141486844037 
689	 0.192625502784623 
690	 0.193151344087052 
691	 0.193736469043082 
692	 0.194346051500403 
693	 0.1948853151884 
694	 0.195449479571267 
695	 0.196047846833353 
696	 0.196662216526305 
697	 0.197315158819185 
698	 0.19788990228708 
699	 0.198427274536588 
700	 0.199131177197753 
701	 0.199805322555462 
702	 0.200428747359111 
703	 0.201022819873968 
704	 0.201609883172082 
705	 0.202219633976838 
706	 0.202851662811618 
707	 0.203483926181806 
708	 0.204079778164045 
709	 0.204691318178439 
710	 0.205352666554976 
711	 0.206063752634139 
712	 0.206617447759833 
713	 0.20715860533583 
714	 0.207841860053818 
715	 0.208441452389076 
716	 0.20904753573109 
717	 0.209657146236314 
718	 0.21020253863557 
719	 0.21075200724015 
720	 0.211315236003882 
721	 0.211873016968952 
722	 0.212364873955727 
723	 0.212916110355534 
724	 0.213484955230817 
725	 0.21398677445387 
726	 0.214434851481498 
727	 0.214890666241153 
728	 0.215339972671955 
729	 0.215702836058425 
730	 0.216123736014413 
731	 0.216548947937973 
732	 0.216918349540226 
733	 0.217242981409389 
734	 0.217585224350781 
735	 0.217888894241521 
736	 0.218080799512922 
737	 0.218315867394964 
738	 0.218524311610645 
739	 0.218695345468076 
740	 0.218896215236371 
741	 0.219018692531258 
742	 0.219085867330489 
743	 0.219147919902546 
744	 0.219254762785786 
745	 0.219284930430312 
746	 0.219271767417106 
747	 0.219302769275891 
748	 0.219273559018903 
749	 0.219173296094453 
750	 0.219040750808417 
751	 0.218960277021597 
752	 0.218824089562669 
753	 0.218656068713911 
754	 0.218490794237242 
755	 0.218301662325517 
756	 0.218090108836437 
757	 0.21785876125024 
758	 0.217617182286104 
759	 0.21741764174473 
760	 0.217166334840436 
761	 0.216832806592329 
762	 0.216482285825413 
763	 0.216208563628157 
764	 0.21589626470234 
765	 0.215472480323755 
766	 0.215142700299532 
767	 0.214793096016006 
768	 0.214437783069046 
769	 0.214122294113693 
770	 0.213635942098869 
771	 0.213180956923991 
772	 0.212836148064681 
773	 0.21248894755232 
774	 0.212081494837274 
775	 0.211639143136065 
776	 0.211203060035055 
777	 0.210795417606327 
778	 0.210355710373427 
779	 0.209925227051021 
780	 0.209561170484279 
781	 0.209106242470499 
782	 0.208633869919352 
783	 0.208193267004801 
784	 0.20778640048526 
785	 0.2073899785507 
786	 0.206953368484563 
787	 0.206477010345757 
788	 0.206090877733955 
789	 0.205715163088342 
790	 0.205299443840854 
791	 0.204828911492927 
792	 0.204406831243019 
793	 0.20405122099291 
794	 0.20371162821694 
795	 0.203293345134836 
796	 0.202858373674123 
797	 0.202449403406233 
798	 0.202076977039336 
799	 0.201700803083292 
800	 0.201316306112485 
801	 0.200940683616804 
802	 0.200582848398434 
803	 0.200185351068205 
804	 0.199829528121546 
805	 0.199509715427688 
806	 0.199168671139088 
807	 0.19883499396488 
808	 0.19848699323054 
809	 0.198121819913016 
810	 0.197765976511874 
811	 0.197458997187486 
812	 0.197171854116675 
813	 0.196875946279856 
814	 0.196594914584789 
815	 0.196294112440243 
816	 0.195988013893409 
817	 0.195704695180695 
818	 0.195420455691056 
819	 0.195163742116787 
820	 0.194944326396771 
821	 0.194748053194676 
822	 0.194518895605246 
823	 0.194254351617626 
824	 0.19396905897833 
825	 0.193687297642786 
826	 0.193440470838261 
827	 0.193229112147487 
828	 0.193036245805303 
829	 0.192827128985883 
830	 0.192620501139155 
831	 0.192446921405512 
832	 0.192323501149547 
833	 0.192169597435643 
834	 0.191933725609654 
835	 0.191676960877672 
836	 0.191546014162059 
837	 0.191413174326185 
838	 0.191291750727345 
839	 0.191172549822608 
840	 0.190968543871402 
841	 0.190886006373743 
842	 0.190843317888909 
843	 0.190718248374902 
844	 0.190526045170541 
845	 0.190387247793384 
846	 0.190304446029689 
847	 0.190227268023477 
848	 0.190180445920511 
849	 0.190124503808112 
850	 0.190040864258784 
851	 0.189936781940194 
852	 0.189843113460698 
853	 0.189815673960966 
854	 0.189835856476532 
855	 0.189780278984585 
856	 0.189721745504271 
857	 0.189690682598578 
858	 0.189694283426963 
859	 0.189712858273831 
860	 0.189673330935859 
861	 0.18961514844756 
862	 0.189610746543537 
863	 0.189673857577708 
864	 0.189693724109938 
865	 0.189706701890986 
866	 0.189809140026641 
867	 0.189812486233962 
868	 0.189782960712252 
869	 0.189792273627369 
870	 0.189881088014069 
871	 0.189956674056518 
872	 0.190007487395618 
873	 0.190052978166642 
874	 0.190135704878091 
875	 0.190305072316379 
876	 0.190422541391308 
877	 0.190409861742544 
878	 0.190452447768738 
879	 0.190651201285145 
880	 0.190864852941865 
881	 0.190935652490454 
882	 0.191044029028655 
883	 0.191204031820481 
884	 0.191354695993459 
885	 0.191427183397226 
886	 0.191578324098094 
887	 0.191716383844566 
888	 0.191855399133595 
889	 0.192097934138851 
890	 0.192362283133408 
891	 0.192543055007845 
892	 0.192662123434643 
893	 0.192890102394956 
894	 0.193139870542997 
895	 0.193334512058566 
896	 0.193478547953391 
897	 0.193713890382401 
898	 0.194025394800291 
899	 0.194328969989368 
900	 0.194568029242072 
901	 0.194812895035042 
902	 0.195028013725875 
903	 0.195246649111394 
904	 0.19552130012466 
905	 0.195895500673127 
906	 0.196229339427288 
907	 0.196506634100002 
908	 0.196780138454663 
909	 0.197083007062268 
910	 0.197371886619168 
911	 0.19769034676962 
912	 0.198102722464407 
913	 0.198390310897487 
914	 0.198772120072445 
915	 0.199244553111104 
916	 0.199601635406955 
917	 0.200020607421889 
918	 0.200368783312106 
919	 0.20065886769704 
920	 0.20109302706057 
921	 0.201550686959674 
922	 0.202018608888695 
923	 0.202487467060232 
924	 0.202932460990187 
925	 0.203326092504591 
926	 0.203742607610952 
927	 0.204222038393948 
928	 0.204701213839487 
929	 0.205183348116229 
930	 0.205688415743512 
931	 0.206225526111138 
932	 0.206769238584778 
933	 0.207331493592447 
934	 0.207864345838097 
935	 0.208354210190287 
936	 0.20892823868784 
937	 0.209531279283212 
938	 0.210082585000823 
939	 0.210558666352347 
940	 0.21114917738817 
941	 0.211815903737177 
942	 0.212473809221116 
943	 0.213069203890411 
944	 0.213756159470901 
945	 0.214359694941258 
946	 0.214943231454891 
947	 0.21562537883845 
948	 0.216232002736403 
949	 0.216906301481708 
950	 0.217626225472666 
951	 0.218313541664683 
952	 0.219093220964764 
953	 0.219870809418293 
954	 0.220592172590258 
955	 0.221248505089433 
956	 0.221884289575126 
957	 0.222593864388754 
958	 0.223392028759172 
959	 0.224236957529829 
960	 0.225122466205411 
961	 0.225883713341703 
962	 0.226611953739358 
963	 0.227497162800153 
964	 0.228240477978887 
965	 0.228998960418595 
966	 0.229829497460866 
967	 0.230699881615343 
968	 0.231635697510178 
969	 0.23244740613211 
970	 0.233188559271452 
971	 0.234056018955547 
972	 0.234991740943279 
973	 0.235846063323327 
974	 0.236685804112499 
975	 0.237670268213215 
976	 0.238559428152355 
977	 0.239391003854855 
978	 0.24023793682359 
979	 0.241176399383531 
980	 0.242269364205409 
981	 0.243165625712985 
982	 0.243937905195914 
983	 0.244891821487335 
984	 0.245949302924373 
985	 0.246941209920645 
986	 0.24784154515189 
987	 0.248741415935752 
988	 0.249807433594164 
989	 0.250707761204714 
990	 0.251551754565468 
991	 0.252608923237778 
992	 0.253701627113754 
993	 0.254632305972037 
994	 0.255480896260596 
995	 0.256397601571507 
996	 0.257216147117504 
997	 0.258220698840324 
998	 0.25937855314239 
999	 0.260494638657509 
1000	 0.261331143230143 
1001	 0.264665631366832 
1002	 0.265506573584079 
1003	 0.266407808130699 
1004	 0.267314956395431 
1005	 0.268204035527428 
1006	 0.269103230079675 
1007	 0.27004152865884 
1008	 0.270947579901711 
1009	 0.271826786261079 
1010	 0.27272527020456 
1011	 0.273635956930274 
1012	 0.274553960327509 
1013	 0.275423045854502 
1014	 0.276236063930369 
1015	 0.277051673826138 
1016	 0.277891428994727 
1017	 0.278725833437713 
1018	 0.279557458610454 
1019	 0.280414310648751 
1020	 0.281258611988185 
1021	 0.282028388513646 
1022	 0.282797012586983 
1023	 0.283590940186752 
1024	 0.284389626424316 
1025	 0.285189499817541 
1026	 0.285982507084538 
1027	 0.286789790947635 
1028	 0.287566475142537 
1029	 0.288318566741868 
1030	 0.289087238392785 
1031	 0.289822587596042 
1032	 0.290515498129582 
1033	 0.291213557986317 
1034	 0.291976685971926 
1035	 0.292731882091346 
1036	 0.293489037819182 
1037	 0.294287783323909 
1038	 0.295052460476937 
1039	 0.295754083557577 
1040	 0.296465137003773 
1041	 0.297170198032772 
1042	 0.29788837934326 
1043	 0.29862077270447 
1044	 0.29930404673219 
1045	 0.299964534446394 
1046	 0.300634558873514 
1047	 0.301346293486019 
1048	 0.30205814366623 
1049	 0.302827345135833 
1050	 0.303626255005276 
1051	 0.304317654037092 
1052	 0.304982752741606 
1053	 0.305688214903195 
1054	 0.306353729835604 
1055	 0.307008987005636 
1056	 0.307645796107022 
1057	 0.308278950755373 
1058	 0.308898850759228 
1059	 0.309520439515768 
1060	 0.310137100954861 
1061	 0.31073494776709 
1062	 0.311364386052429 
1063	 0.311981625560047 
1064	 0.312550155827189 
1065	 0.313122999827709 
1066	 0.313711077390721 
1067	 0.31423288709225 
1068	 0.314748367050908 
1069	 0.315327165540373 
1070	 0.315874359223041 
1071	 0.316373132094116 
1072	 0.316906751670271 
1073	 0.317462689504843 
1074	 0.318006892103854 
1075	 0.318546552102009 
1076	 0.319103620781893 
1077	 0.319636862967286 
1078	 0.320094450983218 
1079	 0.320539151796157 
1080	 0.321030623911889 
1081	 0.32153341511096 
1082	 0.322041227952299 
1083	 0.322571737176007 
1084	 0.323133090114173 
1085	 0.323667669877519 
1086	 0.324211410317667 
1087	 0.324744813961846 
1088	 0.325267774888523 
1089	 0.325781702137754 
1090	 0.326289517980531 
1091	 0.326789705643531 
1092	 0.327331054135097 
1093	 0.327845775657562 
1094	 0.328342387399421 
1095	 0.328873718553104 
1096	 0.32938489915419 
1097	 0.32986215676832 
1098	 0.330389301356428 
1099	 0.330955939765402 
1100	 0.331506439175437 
1101	 0.332078154281199 
1102	 0.332638681899606 
1103	 0.333195986625448 
1104	 0.333729176902116 
1105	 0.334294819239495 
1106	 0.334873515287209 
1107	 0.335466325438393 
1108	 0.336088477735256 
1109	 0.33668738908886 
1110	 0.337267492348813 
1111	 0.33786588909189 
1112	 0.338459112938441 
1113	 0.339061706990854 
1114	 0.339689449725915 
1115	 0.340299261099866 
1116	 0.340901455331587 
1117	 0.34150441096541 
1118	 0.342095798281724 
1119	 0.342700656820522 
1120	 0.343306190609225 
1121	 0.343898416363317 
1122	 0.344532453022551 
1123	 0.345184002793821 
1124	 0.345830699146128 
1125	 0.346507186451799 
1126	 0.347161616281193 
1127	 0.347788239957501 
1128	 0.348441390669838 
1129	 0.349124560929648 
1130	 0.34977089922234 
1131	 0.350420802419261 
1132	 0.351048396630366 
1133	 0.351640691632667 
1134	 0.352236277100052 
1135	 0.352813813213485 
1136	 0.35339316159042 
1137	 0.35402606523787 
1138	 0.354660481791859 
1139	 0.355280527404336 
1140	 0.355931105131586 
1141	 0.356549816935032 
1142	 0.357143465240553 
1143	 0.357726625110461 
1144	 0.358298521065927 
1145	 0.358874458486468 
1146	 0.359427535312634 
1147	 0.359988361318018 
1148	 0.360561634423952 
1149	 0.361133463950956 
1150	 0.361713463284503 
1151	 0.362274385687895 
1152	 0.362806730874895 
1153	 0.363342545871137 
1154	 0.363871590829243 
1155	 0.364370956581992 
1156	 0.364889935064689 
1157	 0.365431959201277 
1158	 0.365947142431061 
1159	 0.366456654751323 
1160	 0.366948354746345 
1161	 0.36742565002496 
1162	 0.367897551432155 
1163	 0.368350021176937 
1164	 0.36880863161206 
1165	 0.369277364347053 
1166	 0.369724581664734 
1167	 0.370177582217264 
1168	 0.37060586273798 
1169	 0.371015790105662 
1170	 0.371396945918379 
1171	 0.371796461206857 
1172	 0.372182263609056 
1173	 0.372582541628248 
1174	 0.373007247829718 
1175	 0.373401164812201 
1176	 0.373778846046586 
1177	 0.374163201987195 
1178	 0.374546946614091 
1179	 0.374915889683666 
1180	 0.375289613454308 
1181	 0.375646159710379 
1182	 0.375974097311409 
1183	 0.376303142523864 
1184	 0.37664316957744 
1185	 0.376997077714415 
1186	 0.377315985785628 
1187	 0.37762448152169 
1188	 0.377936538222256 
1189	 0.378225317794845 
1190	 0.378523578486824 
1191	 0.378835305404546 
1192	 0.379137662703564 
1193	 0.379438939735015 
1194	 0.379724704309097 
1195	 0.380005586561885 
1196	 0.380281111251369 
1197	 0.380529780939696 
1198	 0.380791410138909 
1199	 0.381057317149301 
1200	 0.381338100397933 
1201	 0.381591613810195 
1202	 0.381844553969385 
1203	 0.382079650822444 
1204	 0.382280866260693 
1205	 0.38251185861069 
1206	 0.382751020770536 
1207	 0.382982807885162 
1208	 0.38323844606466 
1209	 0.383459664202623 
1210	 0.383654382989791 
1211	 0.383854180275386 
1212	 0.384028577296192 
1213	 0.384222273025949 
1214	 0.384426487066605 
1215	 0.384630999236344 
1216	 0.38483985307739 
1217	 0.385064492968116 
1218	 0.385263920525788 
1219	 0.385455376501438 
1220	 0.385645934430195 
1221	 0.38582195251951 
1222	 0.386007159788921 
1223	 0.386201054147956 
1224	 0.386383515234945 
1225	 0.386567242429795 
1226	 0.386737513587392 
1227	 0.386901117499661 
1228	 0.38705505102448 
1229	 0.387171228273388 
1230	 0.387325128324333 
1231	 0.387499177472346 
1232	 0.387664718522076 
1233	 0.387837107297648 
1234	 0.388042249899921 
1235	 0.388208235701474 
1236	 0.388351166524899 
1237	 0.388501058940202 
1238	 0.388649814710569 
1239	 0.388784604911169 
1240	 0.388902010503701 
1241	 0.389036170969557 
1242	 0.389167057971572 
1243	 0.389300791097792 
1244	 0.389450947475506 
1245	 0.38959061060592 
1246	 0.389723661108933 
1247	 0.389854280669804 
1248	 0.389980909303294 
1249	 0.390108684907119 
1250	 0.390241348699258 
1251	 0.390360003801476 
1252	 0.3904875377278 
1253	 0.390621079175048 
1254	 0.390747726231951 
1255	 0.390878270946489 
1256	 0.390992895006339 
1257	 0.391090215322595 
1258	 0.391206149611573 
1259	 0.391324115209519 
1260	 0.391436179796565 
1261	 0.391559213591012 
1262	 0.391672584468501 
1263	 0.391771084067308 
1264	 0.391873165930818 
1265	 0.391970119540451 
1266	 0.392080033492588 
1267	 0.392195994456767 
1268	 0.392305801280526 
1269	 0.39243453918552 
1270	 0.392580657191158 
1271	 0.392729359440923 
1272	 0.392888998224705 
1273	 0.393040177372472 
1274	 0.393191334633272 
1275	 0.393351052225272 
1276	 0.393518500378177 
1277	 0.393674086052612 
1278	 0.39383484341321 
1279	 0.393987431344363 
1280	 0.394131876860582 
1281	 0.394263822793599 
1282	 0.394398175559599 
1283	 0.394517014826633 
1284	 0.394623861877229 
1285	 0.394711854280703 
1286	 0.394769349194904 
1287	 0.394820527790905 
1288	 0.394855428105545 
1289	 0.394852049234322 
1290	 0.394871337169703 
1291	 0.394902906174371 
1292	 0.394902266726417 
1293	 0.394900005281886 
1294	 0.394866508861475 
1295	 0.3948029695409 
1296	 0.394737745754394 
1297	 0.394647544815378 
1298	 0.394561459184235 
1299	 0.394462824246075 
1300	 0.394369663482067 
1301	 0.394286207151153 
1302	 0.394184714912617 
1303	 0.394066689973996 
1304	 0.393966759925983 
1305	 0.393847077431984 
1306	 0.393732604596482 
1307	 0.39364078149766 
1308	 0.393550488296872 
1309	 0.393467127552309 
1310	 0.393388753827501 
1311	 0.393319074295492 
1312	 0.393259023679363 
1313	 0.393197826559098 
1314	 0.393143439514745 
1315	 0.393089836703373 
1316	 0.393025016304733 
1317	 0.392990018464962 
1318	 0.392962832011944 
1319	 0.392954660455558 
1320	 0.392982783707371 
1321	 0.393000280630692 
1322	 0.393017430244207 
1323	 0.393048358572624 
1324	 0.393087439314172 
1325	 0.393104472582413 
1326	 0.393142044246644 
1327	 0.393197054863473 
1328	 0.393259286577374 
1329	 0.393341986684716 
1330	 0.393442980413471 
1331	 0.393572913732226 
1332	 0.393685139896687 
1333	 0.393812008021923 
1334	 0.393928748910984 
1335	 0.394025422926486 
1336	 0.394148926081837 
1337	 0.394278757187901 
1338	 0.394418493675952 
1339	 0.394593254898501 
1340	 0.394732482387349 
1341	 0.39485177201848 
1342	 0.394984819354183 
1343	 0.395103974367092 
1344	 0.395227922223926 
1345	 0.395382915085927 
1346	 0.39557102872923 
1347	 0.395724692755322 
1348	 0.395862238475214 
1349	 0.396008340868603 
1350	 0.396130567025095 
1351	 0.396262777379754 
1352	 0.396406128458781 
1353	 0.396543276619146 
1354	 0.39666942942067 
1355	 0.396804307669864 
1356	 0.396951516211938 
1357	 0.397084768001452 
1358	 0.397211848566418 
1359	 0.397334585850958 
1360	 0.397452487509185 
1361	 0.397566084329582 
1362	 0.397677334384547 
1363	 0.397785180747633 
1364	 0.397877271501622 
1365	 0.397983261912793 
1366	 0.398087851632118 
1367	 0.398203866481008 
1368	 0.398335977771394 
1369	 0.398462834113608 
1370	 0.398585706515649 
1371	 0.398685492390364 
1372	 0.39877639044071 
1373	 0.398864432666652 
1374	 0.398937285560876 
1375	 0.398993897014576 
1376	 0.399060037187645 
1377	 0.399119556638234 
1378	 0.399177291595181 
1379	 0.399250927206745 
1380	 0.399296308852146 
1381	 0.39932873525029 
1382	 0.399345659333313 
1383	 0.399344954425977 
1384	 0.399330734102148 
1385	 0.399313869388002 
1386	 0.39926513866606 
1387	 0.399194501982268 
1388	 0.399107487237215 
1389	 0.39899172431857 
1390	 0.398865691322865 
1391	 0.398737531682073 
1392	 0.39858602057907 
1393	 0.398420075770947 
1394	 0.398237930681902 
1395	 0.39803415094766 
1396	 0.397814509476287 
1397	 0.397591974880777 
1398	 0.397362076453012 
1399	 0.397119250150377 
1400	 0.396856477273333 
1401	 0.396617337682421 
1402	 0.396362869624122 
1403	 0.39614045465693 
1404	 0.39594579326347 
1405	 0.395747196260324 
1406	 0.395557104530961 
1407	 0.395375265087204 
1408	 0.395177423327091 
1409	 0.395033138028171 
1410	 0.394918057636326 
1411	 0.394824032027651 
1412	 0.394760841039163 
1413	 0.394723478608314 
1414	 0.394713531165794 
1415	 0.394710358055048 
1416	 0.394748346847523 
1417	 0.394803175799209 
1418	 0.394846884339881 
1419	 0.394915924566798 
1420	 0.395003803929134 
1421	 0.395074442682818 
1422	 0.395150613789285 
1423	 0.395231840126238 
1424	 0.395285179764077 
1425	 0.395321748374691 
1426	 0.395348920205514 
1427	 0.395355406498513 
1428	 0.395361567656236 
1429	 0.395355465872137 
1430	 0.395355929138318 
1431	 0.395350347044094 
1432	 0.395353503981401 
1433	 0.395360803225268 
1434	 0.395366177761038 
1435	 0.395386859182597 
1436	 0.395387064570903 
1437	 0.395377427450477 
1438	 0.395363676960261 
1439	 0.395338513745804 
1440	 0.395304597662071 
1441	 0.395276051375405 
1442	 0.395263180731045 
1443	 0.395261147161753 
1444	 0.395254792221718 
1445	 0.39524780726817 
1446	 0.395244853151697 
1447	 0.39523302950048 
1448	 0.395225157033308 
1449	 0.395241941405241 
1450	 0.395253762982499 
1451	 0.395261698887381 
1452	 0.395281937872131 
1453	 0.395280602873327 
1454	 0.395267725293643 
1455	 0.395245744460094 
1456	 0.39520181841576 
1457	 0.395180776850639 
1458	 0.395158740391541 
1459	 0.395142088968591 
1460	 0.395142072361331 
1461	 0.395134259320128 
1462	 0.395117045236371 
1463	 0.39511032661484 
1464	 0.395103739289363 
1465	 0.395114135984209 
1466	 0.395129590563911 
1467	 0.395162360096986 
1468	 0.395222274954378 
1469	 0.395271433044335 
1470	 0.395333379542417 
1471	 0.395378664946701 
1472	 0.395424134511209 
1473	 0.395481851197429 
1474	 0.395536453316304 
1475	 0.395603965023741 
1476	 0.395659295717644 
1477	 0.3957125539616 
1478	 0.395777698842542 
1479	 0.395842103275812 
1480	 0.395926732592148 
1481	 0.396020791372358 
1482	 0.3961061433866 
1483	 0.396193929944244 
1484	 0.396281777729147 
1485	 0.396365641198015 
1486	 0.396451970027389 
1487	 0.39654398282978 
1488	 0.396628228154419 
1489	 0.396715708604842 
1490	 0.396783828405194 
1491	 0.396834927509508 
1492	 0.396901486517836 
1493	 0.396956974269407 
1494	 0.397021626815711 
1495	 0.397109078589442 
1496	 0.39717383437134 
1497	 0.397221734454334 
1498	 0.397285565025847 
1499	 0.397343162350223 
1500	 0.397412060900885 
1501	 0.397507890349816 
1502	 0.397575172681667 
1503	 0.397624006498029 
1504	 0.397692009502223 
1505	 0.397731054451106 
1506	 0.397785658839155 
1507	 0.397867662567775 
1508	 0.397930968483694 
1509	 0.398011077784235 
1510	 0.398104725245221 
1511	 0.398183795426012 
1512	 0.398248073882815 
1513	 0.3982979231866 
1514	 0.398334686891253 
1515	 0.398357827178274 
1516	 0.398395730667151 
1517	 0.398443986530412 
1518	 0.398503910163814 
1519	 0.398551129303418 
1520	 0.398602663700597 
1521	 0.398656090085231 
1522	 0.398705869317912 
1523	 0.398746002585059 
1524	 0.398783392542406 
1525	 0.398836807683929 
1526	 0.398886708875715 
1527	 0.398940522545426 
1528	 0.399011636752995 
1529	 0.399072813399491 
1530	 0.399126659799081 
1531	 0.39917712092652 
1532	 0.399236942364872 
1533	 0.399282164252535 
1534	 0.399302716886818 
1535	 0.399342306660967 
1536	 0.399384036303174 
1537	 0.399429811770602 
1538	 0.399485148085838 
1539	 0.399538998217332 
1540	 0.399595056981294 
1541	 0.399651661781227 
1542	 0.39972162549092 
1543	 0.399771706816391 
1544	 0.399805325485045 
1545	 0.399845482689523 
1546	 0.399875357049686 
1547	 0.399909211596166 
1548	 0.399955047050371 
1549	 0.400011571087729 
1550	 0.400064562215252 
1551	 0.400101442481377 
1552	 0.400151453920424 
1553	 0.40020001110102 
1554	 0.400234143700729 
1555	 0.400286544128011 
1556	 0.400353168970811 
1557	 0.400402049008422 
1558	 0.400438495852203 
1559	 0.400479691386651 
1560	 0.400524397950854 
1561	 0.40054858667653 
1562	 0.400592835335185 
1563	 0.400668474366248 
1564	 0.4007115786873 
1565	 0.400740878670396 
1566	 0.400766815784345 
1567	 0.40077557168261 
1568	 0.400801649587996 
1569	 0.400819551610125 
1570	 0.400862394061761 
1571	 0.400934794083561 
1572	 0.400986005287189 
1573	 0.401045171859174 
1574	 0.401086934773808 
1575	 0.40110723002365 
1576	 0.401138902089266 
1577	 0.401181559659008 
1578	 0.401202762933554 
1579	 0.401215247409783 
1580	 0.401224289109593 
1581	 0.401198393328445 
1582	 0.401209545277581 
1583	 0.401242495379534 
1584	 0.401268722735372 
1585	 0.401309639629483 
1586	 0.401348995779144 
1587	 0.401375257447739 
1588	 0.401420885257978 
1589	 0.40149551325637 
1590	 0.401547451424864 
1591	 0.401586842577459 
1592	 0.401643871786385 
1593	 0.401710637979965 
1594	 0.401756814533787 
1595	 0.401812172687913 
1596	 0.401851899074435 
1597	 0.40185214551683 
1598	 0.401871105400061 
1599	 0.401893748525644 
1600	 0.401924748051542 
1601	 0.401973941059932 
1602	 0.402009441777758 
1603	 0.402041282494389 
1604	 0.402075536332519 
1605	 0.402099682601029 
1606	 0.402128076506142 
1607	 0.402160211414254 
1608	 0.402198845140482 
1609	 0.402240657699736 
1610	 0.402268150263907 
1611	 0.40232077501393 
1612	 0.402382991 
1613	 0.402411353369916 
1614	 0.402443958194845 
1615	 0.402449713306144 
1616	 0.402431872680784 
1617	 0.402421955162288 
1618	 0.402425497961382 
1619	 0.402454430772129 
1620	 0.402481822335805 
1621	 0.402515893191565 
1622	 0.402570419661669 
1623	 0.402613375972494 
1624	 0.402649109112358 
1625	 0.402691217544518 
1626	 0.402747604819008 
1627	 0.402774221889835 
1628	 0.402786125264618 
1629	 0.402800891232186 
1630	 0.402800666663767 
1631	 0.402807362959127 
1632	 0.402812238339895 
1633	 0.402838026077603 
1634	 0.402864829181993 
1635	 0.40290523711066 
1636	 0.402975768852189 
1637	 0.403019130439533 
1638	 0.40305694118708 
1639	 0.403091273181422 
1640	 0.403115817209014 
1641	 0.403144103764903 
1642	 0.403170202417457 
1643	 0.403197653325712 
1644	 0.40322032000549 
1645	 0.403256606173645 
1646	 0.403304904795686 
1647	 0.403340039380733 
1648	 0.403375043696246 
1649	 0.403412792425151 
1650	 0.403442637764077 
1651	 0.403477676340973 
1652	 0.403523205437494 
1653	 0.403562199169901 
1654	 0.403596308879759 
1655	 0.40362952477033 
1656	 0.403660658318587 
1657	 0.403698027385539 
1658	 0.40373441316492 
1659	 0.403772483321584 
1660	 0.403820966519743 
1661	 0.403858827532481 
1662	 0.403887393346413 
1663	 0.403923016594177 
1664	 0.403968556078319 
1665	 0.403991222986773 
1666	 0.404002982996388 
1667	 0.404018231443653 
1668	 0.404006830551133 
1669	 0.404029261720194 
1670	 0.404078537059898 
1671	 0.40411204794096 
1672	 0.404150380686469 
1673	 0.404189118384398 
1674	 0.404223910652905 
1675	 0.404257750476022 
1676	 0.404298434667487 
1677	 0.40433239047925 
1678	 0.404360351970391 
1679	 0.404382863189689 
1680	 0.404399199823809 
1681	 0.40442255418136 
1682	 0.404434462560908 
1683	 0.404466053993088 
1684	 0.40451886320795 
1685	 0.404557725045993 
1686	 0.404602108527696 
1687	 0.404637405285752 
1688	 0.404658281528674 
1689	 0.404690234518749 
1690	 0.404709261900607 
1691	 0.404764643941104 
1692	 0.404849792967633 
1693	 0.404920229870596 
1694	 0.405028356870814 
1695	 0.405079189959782 
1696	 0.40507822200708 
1697	 0.405113814881718 
1698	 0.405145910243362 
1699	 0.40517213815643 
1700	 0.405219291780413 
1701	 0.405242496750219 
1702	 0.405230638506641 
1703	 0.40524396171865 
1704	 0.405271442251518 
1705	 0.405288219378096 
1706	 0.405297939971228 
1707	 0.405322500832858 
1708	 0.405341395840125 
1709	 0.405377486843791 
1710	 0.405442573582949 
1711	 0.40548644048568 
1712	 0.405523638385826 
1713	 0.405572688783404 
1714	 0.405631168018874 
1715	 0.405664774296305 
1716	 0.405701653315636 
1717	 0.405719177324121 
1718	 0.405696544779074 
1719	 0.405700956568717 
1720	 0.405712724141834 
1721	 0.405724475158534 
1722	 0.405745317172035 
1723	 0.405759178062945 
1724	 0.405778028680895 
1725	 0.405778511594893 
1726	 0.405775453195402 
1727	 0.405748026628975 
1728	 0.405684912398183 
1729	 0.405659419786087 
1730	 0.405624351860172 
1731	 0.405623496686732 
1732	 0.405666134966862 
1733	 0.405678019426248 
1734	 0.405693921566893 
1735	 0.405692889645516 
1736	 0.405686237126947 
1737	 0.405657125141039 
1738	 0.405609496026293 
1739	 0.405568737052927 
1740	 0.405501976145038 
1741	 0.405474731560184 
1742	 0.405462589814636 
1743	 0.405451998681842 
1744	 0.405460283085395 
1745	 0.405466530250984 
1746	 0.405482926591744 
1747	 0.405482571003203 
1748	 0.405464101059054 
1749	 0.40542446313483 
1750	 0.405407418664101 
1751	 0.405394960253034 
1752	 0.405368041882521 
1753	 0.405358183871543 
1754	 0.405349920680561 
1755	 0.405336587346655 
1756	 0.405335363360152 
1757	 0.4053227478177 
1758	 0.405309215185377 
1759	 0.405324385168527 
1760	 0.405311929184602 
1761	 0.405286347381937 
1762	 0.405277343995918 
1763	 0.405236141355098 
1764	 0.405220846602978 
1765	 0.40524672276239 
1766	 0.405242913934669 
1767	 0.405251284711147 
1768	 0.405289906184509 
1769	 0.405299787974974 
1770	 0.405322336079754 
1771	 0.405365859969586 
1772	 0.405363546883711 
1773	 0.405357306525007 
1774	 0.405346989505624 
1775	 0.405311259974583 
1776	 0.40532265474374 
1777	 0.405356683991283 
1778	 0.405376337164406 
1779	 0.405415851955476 
1780	 0.405445205083485 
1781	 0.405469417558807 
1782	 0.405522543171492 
1783	 0.405536839307335 
1784	 0.405542705955782 
1785	 0.405529133662251 
1786	 0.405511364675702 
1787	 0.40548525790115 
1788	 0.405476313580908 
1789	 0.405442433691876 
1790	 0.40545580841487 
1791	 0.405512662454584 
1792	 0.405561582150496 
1793	 0.405631969337077 
1794	 0.405717059373631 
1795	 0.405822224630812 
1796	 0.405878084490814 
1797	 0.405943369677215 
1798	 0.405978115336232 
1799	 0.405958023651484 
1800	 0.405966498476071 
1801	 0.410339533863057 
1802	 0.410335377480875 
1803	 0.410324571547613 
1804	 0.410324929843324 
1805	 0.410327970527135 
1806	 0.410325974388482 
1807	 0.410341638474995 
1808	 0.410348459525194 
1809	 0.410332036798532 
1810	 0.41033272031163 
1811	 0.410339551038533 
1812	 0.410362204669166 
1813	 0.410384109465285 
1814	 0.410443410871556 
1815	 0.410490431323882 
1816	 0.410506925399239 
1817	 0.410531519092379 
1818	 0.410549650780319 
1819	 0.410552123000344 
1820	 0.410547937190839 
1821	 0.41054971023083 
1822	 0.410541301843972 
1823	 0.410511735269033 
1824	 0.410494092690176 
1825	 0.410502285394647 
1826	 0.410451602660273 
1827	 0.410371367145256 
1828	 0.410326497820273 
1829	 0.410282132554134 
1830	 0.410236878065047 
1831	 0.410197354442238 
1832	 0.410187786827888 
1833	 0.410178168139298 
1834	 0.410157059985418 
1835	 0.410148464888656 
1836	 0.410149585957913 
1837	 0.410146343836079 
1838	 0.410140459695781 
1839	 0.410138595488061 
1840	 0.410139245679944 
1841	 0.410158170421906 
1842	 0.410166486484602 
1843	 0.410161412243569 
1844	 0.410165447516999 
1845	 0.410172424714028 
1846	 0.410179172660857 
1847	 0.410188729674659 
1848	 0.410225247721055 
1849	 0.410265846384755 
1850	 0.410284867071686 
1851	 0.410301028019219 
1852	 0.410311412050045 
1853	 0.410301487405595 
1854	 0.410276910372818 
1855	 0.410249680593453 
1856	 0.410247653693746 
1857	 0.410245261096128 
1858	 0.410224870175129 
1859	 0.410222442409763 
1860	 0.410201762872678 
1861	 0.410173422793255 
1862	 0.410109450201448 
1863	 0.410054646741925 
1864	 0.409994705607229 
1865	 0.409932613037522 
1866	 0.409893008602277 
1867	 0.409849422569142 
1868	 0.40978906536965 
1869	 0.409704541673205 
1870	 0.409620305794489 
1871	 0.409525533460828 
1872	 0.409423915531842 
1873	 0.409304529457579 
1874	 0.409184879671341 
1875	 0.409030590322671 
1876	 0.408841577584212 
1877	 0.408642986009392 
1878	 0.408403260833948 
1879	 0.408130689140654 
1880	 0.407839837623246 
1881	 0.407523308560503 
1882	 0.407178868665477 
1883	 0.406812256182936 
1884	 0.406420345518508 
1885	 0.406001339888141 
1886	 0.405539073405825 
1887	 0.405036215951157 
1888	 0.404504988004963 
1889	 0.403926637473127 
1890	 0.403326758148194 
1891	 0.402712833474456 
1892	 0.402070153328313 
1893	 0.401415061225141 
1894	 0.400740271276266 
1895	 0.400044998769793 
1896	 0.399354527440148 
1897	 0.398710995194433 
1898	 0.398086860581415 
1899	 0.397502291985039 
1900	 0.396960173667252 
1901	 0.396440662658464 
1902	 0.395945865069252 
1903	 0.395499520651059 
1904	 0.395052184762308 
1905	 0.394616532762947 
1906	 0.394198798662306 
1907	 0.393807525833714 
1908	 0.393445229478362 
1909	 0.393098202026033 
1910	 0.39274774902248 
1911	 0.392415734792953 
1912	 0.392064354894143 
1913	 0.391739201064934 
1914	 0.391435065774489 
1915	 0.391144333582466 
1916	 0.390862832841835 
1917	 0.390598732674227 
1918	 0.390346614203643 
1919	 0.390089260806058 
1920	 0.389864236929356 
1921	 0.389652081759301 
1922	 0.389448110668454 
1923	 0.389267977960652 
1924	 0.389116784212882 
1925	 0.388985534630809 
1926	 0.388874788092694 
1927	 0.388789474391942 
1928	 0.388738124413828 
1929	 0.38870085840576 
1930	 0.388654421636858 
1931	 0.388621966110502 
1932	 0.388589028733444 
1933	 0.388551189875249 
1934	 0.388507338380272 
1935	 0.388479562659206 
1936	 0.388456247920601 
1937	 0.388455949833915 
1938	 0.388451975905057 
1939	 0.388493151306841 
1940	 0.388566798972059 
1941	 0.388660432189645 
1942	 0.388787265749563 
1943	 0.388926089733984 
1944	 0.389062375317809 
1945	 0.389191042523242 
1946	 0.389323760199464 
1947	 0.389448163914362 
1948	 0.389583234449029 
1949	 0.38972284388789 
1950	 0.389875855441704 
1951	 0.390035396766799 
1952	 0.390201482845242 
1953	 0.390383089970289 
1954	 0.39056882686355 
1955	 0.390755958498334 
1956	 0.390911378265926 
1957	 0.391079763377731 
1958	 0.391248784229383 
1959	 0.391409200069486 
1960	 0.391554662968622 
1961	 0.391730962752318 
1962	 0.391906932555739 
1963	 0.392092333062681 
1964	 0.39229588038461 
1965	 0.392515403602994 
1966	 0.392718302011509 
1967	 0.392942618870837 
1968	 0.393180609665942 
1969	 0.393441613644257 
1970	 0.39368960098776 
1971	 0.393964786234157 
1972	 0.39419897480672 
1973	 0.394412258364889 
1974	 0.394618785342537 
1975	 0.39479815240683 
1976	 0.394977629894814 
1977	 0.395185690164399 
1978	 0.39540143407432 
1979	 0.395616020241791 
1980	 0.395852068817819 
1981	 0.396074512243804 
1982	 0.396274938187801 
1983	 0.396506144334681 
1984	 0.396745740223906 
1985	 0.397000613570603 
1986	 0.397295834357078 
1987	 0.397557527963429 
1988	 0.397806957946878 
1989	 0.39806777841119 
1990	 0.398311439644341 
1991	 0.398570984561303 
1992	 0.398842383488982 
1993	 0.399135720058769 
1994	 0.399421298605076 
1995	 0.399718827798173 
1996	 0.399999460939612 
1997	 0.400279349552416 
1998	 0.400555453731842 
1999	 0.400825068825462 
2000	 0.401086553429569 
2001	 0.401345766696637 
2002	 0.401595036685671 
2003	 0.401846908760212 
2004	 0.402076224210415 
2005	 0.4023219914961 
2006	 0.402572521264475 
2007	 0.402827312421903 
2008	 0.403076491575625 
2009	 0.4033446191888 
2010	 0.403621400625688 
2011	 0.403913015070943 
2012	 0.404240167064792 
2013	 0.404540935371069 
2014	 0.404847489589928 
2015	 0.405131776554083 
2016	 0.405400454834086 
2017	 0.405691585570044 
2018	 0.405986824942862 
2019	 0.40630594290712 
2020	 0.406594841584947 
2021	 0.406869585096038 
2022	 0.407154940690676 
2023	 0.407434274997985 
2024	 0.407713394194357 
2025	 0.408023438873388 
2026	 0.408294881615235 
2027	 0.408549872469945 
2028	 0.408770984480841 
2029	 0.409000905208014 
2030	 0.409205258162543 
2031	 0.409430154090631 
2032	 0.409662560505255 
2033	 0.409890304559109 
2034	 0.410127987715302 
2035	 0.410347024186332 
2036	 0.410548192272739 
2037	 0.410763975831934 
2038	 0.410989451439528 
2039	 0.411191651546798 
2040	 0.411389485511027 
2041	 0.411585700401711 
2042	 0.411763256004805 
2043	 0.411931879113769 
2044	 0.412095345193944 
2045	 0.412257137873056 
2046	 0.412420621174959 
2047	 0.412564685618411 
2048	 0.412725662827499 
2049	 0.412904641834072 
2050	 0.413071936300854 
2051	 0.41324122157299 
2052	 0.413405192617463 
2053	 0.413555598459178 
2054	 0.413719134367973 
2055	 0.413903790507881 
2056	 0.41405120857724 
2057	 0.414213515498419 
2058	 0.414397631717531 
2059	 0.414537502158368 
2060	 0.414649003213097 
2061	 0.414772190743107 
2062	 0.414858110828429 
2063	 0.414989682545126 
2064	 0.41516019250336 
2065	 0.415304129515129 
2066	 0.415457440670785 
2067	 0.415603167779531 
2068	 0.415726232801418 
2069	 0.415853602760365 
2070	 0.41600022584042 
2071	 0.416159924885861 
2072	 0.41632191659274 
2073	 0.416504778275436 
2074	 0.416660412257291 
2075	 0.416810867366897 
2076	 0.416958252339263 
2077	 0.41708178617635 
2078	 0.417225481942455 
2079	 0.417373073097879 
2080	 0.417530700081506 
2081	 0.417704258154428 
2082	 0.417871347919947 
2083	 0.418035905927159 
2084	 0.418220685255257 
2085	 0.418384216169524 
2086	 0.418540170918339 
2087	 0.418694604077048 
2088	 0.418839843297865 
2089	 0.418986781405615 
2090	 0.419136950022299 
2091	 0.419275290317648 
2092	 0.419413981721858 
2093	 0.419540106289666 
2094	 0.419636360954677 
2095	 0.419757525854615 
2096	 0.419884052426975 
2097	 0.420011442104651 
2098	 0.420157935453521 
2099	 0.420283793616111 
2100	 0.420444869377687 
2101	 0.420616554316929 
2102	 0.420786080631893 
2103	 0.420983915798696 
2104	 0.421162410717277 
2105	 0.421319972038067 
2106	 0.421493829084255 
2107	 0.42167999714751 
2108	 0.421858061122757 
2109	 0.422029989208515 
2110	 0.422213144879729 
2111	 0.422404069615951 
2112	 0.422589085628764 
2113	 0.422775378222398 
2114	 0.422962374163738 
2115	 0.42316321336729 
2116	 0.423360009264129 
2117	 0.42357446106844 
2118	 0.423811285076434 
2119	 0.424041031957203 
2120	 0.424279473218674 
2121	 0.424507365658596 
2122	 0.424741427225377 
2123	 0.42496176984594 
2124	 0.42517443890433 
2125	 0.425375555026353 
2126	 0.425585726953073 
2127	 0.425755651580631 
2128	 0.425901230741993 
2129	 0.426028336164725 
2130	 0.426128284508845 
2131	 0.426203348695002 
2132	 0.426265616941138 
2133	 0.426318334847841 
2134	 0.426337801935165 
2135	 0.426321267156405 
2136	 0.426309920517778 
2137	 0.426278928080008 
2138	 0.426241133572933 
2139	 0.42621160369355 
2140	 0.426145651476813 
2141	 0.426052862858283 
2142	 0.425948605067712 
2143	 0.425809576740077 
2144	 0.425677272436901 
2145	 0.425544144425104 
2146	 0.425394846441799 
2147	 0.425223294275618 
2148	 0.425072881817394 
2149	 0.424898839263544 
2150	 0.424709884680528 
2151	 0.424514126463392 
2152	 0.424324059757173 
2153	 0.424093799773681 
2154	 0.423837259942107 
2155	 0.423572757701672 
2156	 0.423279304054077 
2157	 0.422986399121401 
2158	 0.422701145686603 
2159	 0.422379211303874 
2160	 0.422024423008633 
2161	 0.421672275983337 
2162	 0.421301877147371 
2163	 0.420922305682541 
2164	 0.420524282602063 
2165	 0.42014767810716 
2166	 0.419754607550514 
2167	 0.419336829492785 
2168	 0.418943620431407 
2169	 0.418562713293556 
2170	 0.418177632025878 
2171	 0.417804695732357 
2172	 0.41741410754247 
2173	 0.417013038456145 
2174	 0.416616583075198 
2175	 0.416206874984651 
2176	 0.415807873573767 
2177	 0.415436670314457 
2178	 0.415030159250517 
2179	 0.414608453356918 
2180	 0.414183145798001 
2181	 0.413736889771424 
2182	 0.413285173901657 
2183	 0.412826795429546 
2184	 0.412358173943977 
2185	 0.411912083389881 
2186	 0.41144658098792 
2187	 0.411037172095863 
2188	 0.410674342107867 
2189	 0.410292166104629 
2190	 0.409921627677684 
2191	 0.409567735495152 
2192	 0.409203298037893 
2193	 0.408877293210368 
2194	 0.408593045771008 
2195	 0.408304548901909 
2196	 0.408014973050837 
2197	 0.407764148206666 
2198	 0.407535878561054 
2199	 0.407325508059873 
2200	 0.407152836325795 
2201	 0.406986844291195 
2202	 0.406833131241405 
2203	 0.406681876073647 
2204	 0.406576379583096 
2205	 0.406487738947917 
2206	 0.406451752987427 
2207	 0.406475271839088 
2208	 0.406482018083036 
2209	 0.406514968562241 
2210	 0.406559825172771 
2211	 0.406600286135935 
2212	 0.406675753097589 
2213	 0.406806039787261 
2214	 0.406901378040233 
2215	 0.407008110473901 
2216	 0.407097407291066 
2217	 0.407169835859628 
2218	 0.407238164601316 
2219	 0.407305436312371 
2220	 0.407354210509639 
2221	 0.407378135916656 
2222	 0.407404739937839 
2223	 0.407447918932319 
2224	 0.407496556476573 
2225	 0.40752700933242 
2226	 0.407573805167902 
2227	 0.407583703852776 
2228	 0.407557693111904 
2229	 0.407547176851404 
2230	 0.407537321909389 
2231	 0.407506867021294 
2232	 0.407458338982597 
2233	 0.407418715311836 
2234	 0.407370161938289 
2235	 0.407324760952949 
2236	 0.407296956973694 
2237	 0.407246137859824 
2238	 0.407179582086125 
2239	 0.407104228899242 
2240	 0.406974650807327 
2241	 0.406913773345823 
2242	 0.406909385192952 
2243	 0.406869232342161 
2244	 0.406854982985648 
2245	 0.406828030354752 
2246	 0.406765094346714 
2247	 0.406715667805058 
2248	 0.406702726210798 
2249	 0.406730726769054 
2250	 0.406747203844551 
2251	 0.406781145829651 
2252	 0.406796355295304 
2253	 0.406813988187942 
2254	 0.406823967762421 
2255	 0.406793578395232 
2256	 0.406833260462633 
2257	 0.406917796513058 
2258	 0.406977354056057 
2259	 0.407067198200087 
2260	 0.407147157040646 
2261	 0.407182477193579 
2262	 0.407270887657731 
2263	 0.407427073739907 
2264	 0.407532813012408 
2265	 0.407620414166457 
2266	 0.407720607249704 
2267	 0.40780627967185 
2268	 0.407890920871917 
2269	 0.407968597738353 
2270	 0.408092932209118 
2271	 0.408212707490362 
2272	 0.408300550328121 
2273	 0.408407421605344 
2274	 0.408516974366326 
2275	 0.408606851640831 
2276	 0.408655204669979 
2277	 0.408761528505608 
2278	 0.408887420534784 
2279	 0.409019873793841 
2280	 0.409178315772379 
2281	 0.409333108324031 
2282	 0.409503183792127 
2283	 0.409645295292554 
2284	 0.409791460908932 
2285	 0.409921830903849 
2286	 0.410015830414491 
2287	 0.410129430904617 
2288	 0.410236220818418 
2289	 0.410365267875449 
2290	 0.410511020076635 
2291	 0.410659524896549 
2292	 0.410840084688154 
2293	 0.410981165238985 
2294	 0.411095861175603 
2295	 0.411230205131204 
2296	 0.411345121145571 
2297	 0.411484251145572 
2298	 0.411648157526858 
2299	 0.411774945760694 
2300	 0.411920263485008 
2301	 0.412128012217012 
2302	 0.412346899447301 
2303	 0.412506698685511 
2304	 0.41261484526473 
2305	 0.412705376043278 
2306	 0.412791409607816 
2307	 0.412830055652432 
2308	 0.412914768331827 
2309	 0.413038185553821 
2310	 0.413096537348707 
2311	 0.413114928453272 
2312	 0.413188063464379 
2313	 0.413256716963492 
2314	 0.413321949233871 
2315	 0.413437109241761 
2316	 0.413520619909467 
2317	 0.413552648491227 
2318	 0.413615496327673 
2319	 0.41368941378453 
2320	 0.413772552954022 
2321	 0.413855212316904 
2322	 0.413961131939502 
2323	 0.414107106935197 
2324	 0.414226137082268 
2325	 0.414343756780024 
2326	 0.414468473529018 
2327	 0.414580828582085 
2328	 0.414706724322827 
2329	 0.414839073684373 
2330	 0.414945377134463 
2331	 0.415070377151551 
2332	 0.415208901624929 
2333	 0.415339943107474 
2334	 0.415442693537831 
2335	 0.415537443287774 
2336	 0.415607606032115 
2337	 0.415661870477309 
2338	 0.415772821389053 
2339	 0.415916300334291 
2340	 0.416010588011289 
2341	 0.416099250015378 
2342	 0.416260019573328 
2343	 0.41636470208303 
2344	 0.41645227164066 
2345	 0.41653709309999 
2346	 0.416636123588812 
2347	 0.41665862957737 
2348	 0.416631307398207 
2349	 0.416617490403653 
2350	 0.416571147916456 
2351	 0.416541940741108 
2352	 0.416511657621686 
2353	 0.41649334745501 
2354	 0.416480229761982 
2355	 0.416443709451244 
2356	 0.416409890114864 
2357	 0.416356901614265 
2358	 0.416258651735021 
2359	 0.416214582185786 
2360	 0.416223138138076 
2361	 0.416178030316403 
2362	 0.416132459000919 
2363	 0.416075217562605 
2364	 0.415948472507628 
2365	 0.415875172991736 
2366	 0.415820552366452 
2367	 0.415761111122473 
2368	 0.415781237555469 
2369	 0.415707688265766 
2370	 0.415554269193624 
2371	 0.415472068215112 
2372	 0.415377773452669 
2373	 0.415184310095857 
2374	 0.415114629158157 
2375	 0.415028956540361 
2376	 0.414831818829098 
2377	 0.41469493023113 
2378	 0.414483615448828 
2379	 0.414283448493327 
2380	 0.414156053450296 
2381	 0.413978242807687 
2382	 0.413897716533711 
2383	 0.4138209541435 
2384	 0.41364167483012 
2385	 0.413449152456106 
2386	 0.413232369749874 
2387	 0.413004481496691 
2388	 0.412809044143895 
2389	 0.412699915251619 
2390	 0.412566744009128 
2391	 0.412409407060039 
2392	 0.412286904984185 
2393	 0.412109987459859 
2394	 0.411973346638104 
2395	 0.411841713212799 
2396	 0.411721092487012 
2397	 0.411652824029999 
2398	 0.411461358360506 
2399	 0.411251854301822 
2400	 0.411091870394036 
2401	 0.410859877823483 
2402	 0.410628481747293 
2403	 0.410465933273772 
2404	 0.41032226088229 
2405	 0.410175413243856 
2406	 0.410037080982544 
2407	 0.409828949618968 
2408	 0.409527787378272 
2409	 0.409262382875106 
2410	 0.409059679761387 
2411	 0.408892184235548 
2412	 0.408741738084599 
2413	 0.408540530516082 
2414	 0.408267145833934 
2415	 0.40793801922344 
2416	 0.407642523216534 
2417	 0.407307780457016 
2418	 0.407035603266405 
2419	 0.406807568071846 
2420	 0.406609369663957 
2421	 0.406448483371982 
2422	 0.406278133343986 
2423	 0.406150294551416 
2424	 0.405978831038146 
2425	 0.405774768164452 
2426	 0.405581575929982 
2427	 0.405392962785052 
2428	 0.405195015252999 
2429	 0.405013452493832 
2430	 0.404835045796855 
2431	 0.404634784004247 
2432	 0.404427952442562 
2433	 0.404217633043508 
2434	 0.40398719155553 
2435	 0.403688955240706 
2436	 0.403475965702185 
2437	 0.403334316615172 
2438	 0.403148196565993 
2439	 0.402991874342317 
2440	 0.40287592035082 
2441	 0.402741774624899 
2442	 0.402633327043914 
2443	 0.402569530598305 
2444	 0.402448257737754 
2445	 0.402344147554676 
2446	 0.402151988474397 
2447	 0.401892044177856 
2448	 0.401701214699454 
2449	 0.401457848971807 
2450	 0.401261118956035 
2451	 0.401156687693113 
2452	 0.401022575665761 
2453	 0.400859544439347 
2454	 0.400687186208589 
2455	 0.40050714456162 
2456	 0.400314923590779 
2457	 0.400107174347254 
2458	 0.399954372754656 
2459	 0.399806153077018 
2460	 0.399679591537474 
2461	 0.399640549571198 
2462	 0.39951394759569 
2463	 0.39936621870705 
2464	 0.399208053272871 
2465	 0.398938048573153 
2466	 0.398798053610261 
2467	 0.398742180697542 
2468	 0.39862442965817 
2469	 0.398530983432436 
2470	 0.398254310270832 
2471	 0.398104453585096 
2472	 0.397837442992294 
2473	 0.39765998379873 
2474	 0.397452214230725 
2475	 0.397164629200699 
2476	 0.396968870265983 
2477	 0.396694333738015 
2478	 0.396433713936311 
2479	 0.396325789666969 
2480	 0.396202953143032 
2481	 0.396256439920397 
2482	 0.396471736697974 
2483	 0.396441271287223 
2484	 0.396344987145912 
2485	 0.39628259193036 
2486	 0.396121828712017 
2487	 0.395958014368367 
2488	 0.395790973543445 
2489	 0.395510032164009 
2490	 0.395114823568561 
2491	 0.394764051116166 
2492	 0.394565638817171 
2493	 0.394495898067276 
2494	 0.394282756147075 
2495	 0.394117701112508 
2496	 0.39424889353028 
2497	 0.394064111385341 
2498	 0.393971395621791 
2499	 0.394174887381092 
2500	 0.393843512047073 
