Wavelength	LMW100008.asd
350	 8.30397290064147E-02 
351	 8.22934428077718E-02 
352	 7.92120724261311E-02 
353	 0.07600705976322 
354	 7.49754658706426E-02 
355	 7.98329464231486E-02 
356	 8.18756807656254E-02 
357	 7.55782945534042E-02 
358	 8.00057063526883E-02 
359	 8.13219277460181E-02 
360	 7.86160580261442E-02 
361	 7.93157296027959E-02 
362	 7.90185474870207E-02 
363	 8.06363055760823E-02 
364	 8.35629604641379E-02 
365	 8.02963460862895E-02 
366	 7.83588403315555E-02 
367	 7.83211284014043E-02 
368	 7.88828405412694E-02 
369	 0.079669431252578 
370	 8.07418397797697E-02 
371	 8.19939371784117E-02 
372	 8.31635858965351E-02 
373	 8.37940760260056E-02 
374	 8.44241145636508E-02 
375	 8.51284820333604E-02 
376	 8.49494894053482E-02 
377	 8.40630199397807E-02 
378	 8.47374526138055E-02 
379	 8.82250508825869E-02 
380	 8.94829761589293E-02 
381	 8.70915114527699E-02 
382	 8.50734800584315E-02 
383	 9.00435712801133E-02 
384	 8.84049190595564E-02 
385	 8.56094490357866E-02 
386	 8.64797394461855E-02 
387	 8.94855914817211E-02 
388	 9.22674746868786E-02 
389	 9.35688466478383E-02 
390	 9.31733792208179E-02 
391	 9.29066166667671E-02 
392	 9.43292989669503E-02 
393	 9.65707904709132E-02 
394	 9.69691713355626E-02 
395	 9.72909158202462E-02 
396	 9.75415089398982E-02 
397	 0.097838273057075 
398	 9.91126758586446E-02 
399	 0.101330511807972 
400	 0.103177957389713 
401	 0.103357988030971 
402	 0.103349593021719 
403	 0.104447719233944 
404	 0.105876985096059 
405	 0.105041578106634 
406	 0.106129514696494 
407	 0.107502454471439 
408	 0.10765767817649 
409	 0.108472817590391 
410	 0.109020445166571 
411	 0.109689824040858 
412	 0.111194476410318 
413	 0.112086093350787 
414	 0.112294234953212 
415	 0.112317709072394 
416	 0.113167424103351 
417	 0.113892517077739 
418	 0.114284422581602 
419	 0.114418914477582 
420	 0.114697705884361 
421	 0.114454851212026 
422	 0.114349144024811 
423	 0.115577258449675 
424	 0.115278635554473 
425	 0.114713014283315 
426	 0.114827767801983 
427	 0.115117104495287 
428	 0.114748874277058 
429	 0.114228216773002 
430	 0.114300038820841 
431	 0.114537027921574 
432	 0.114057628986822 
433	 0.113382566809146 
434	 0.114249249902927 
435	 0.114574248131219 
436	 0.114344125601351 
437	 0.113957400006803 
438	 0.113647536730469 
439	 0.113942266833248 
440	 0.114634416963592 
441	 0.115140314886751 
442	 0.115223069033221 
443	 0.115417069187142 
444	 0.115957099966318 
445	 0.116531473543617 
446	 0.116928293386547 
447	 0.117319167768029 
448	 0.117894907445512 
449	 0.118369583834066 
450	 0.118913160703488 
451	 0.119532234121334 
452	 0.120088687848197 
453	 0.120619545137302 
454	 0.120936855943833 
455	 0.121073671245937 
456	 0.121730211413921 
457	 0.122037115481373 
458	 0.122151992515613 
459	 0.122618142455689 
460	 0.123072376943987 
461	 0.123274946763357 
462	 0.123355743129093 
463	 0.123943914838906 
464	 0.124160405493349 
465	 0.124289022650729 
466	 0.124714340038552 
467	 0.124832370648753 
468	 0.125103060962254 
469	 0.125510206913395 
470	 0.125654849688701 
471	 0.125702307531368 
472	 0.125783752405282 
473	 0.125954530168184 
474	 0.126096777190837 
475	 0.126349020199189 
476	 0.126589423990742 
477	 0.126646176119898 
478	 0.126864055921104 
479	 0.127159110718723 
480	 0.127392139505479 
481	 0.127397212302401 
482	 0.127587952031111 
483	 0.12792266433352 
484	 0.128194443678101 
485	 0.128108653175349 
486	 0.128007872207418 
487	 0.128114120736899 
488	 0.128494277605356 
489	 0.128660804419448 
490	 0.128629925616998 
491	 0.12858240002278 
492	 0.128874155070168 
493	 0.129046454859111 
494	 0.129152077019126 
495	 0.129414226020391 
496	 0.129363535408311 
497	 0.12931283352953 
498	 0.129446456941511 
499	 0.129657979918583 
500	 0.129749935172869 
501	 0.129866041111912 
502	 0.130137858208757 
503	 0.130136592408924 
504	 0.130249183676532 
505	 0.130452703730496 
506	 0.130358748427827 
507	 0.130517182601216 
508	 0.130715100770985 
509	 0.130744237186734 
510	 0.130812288629537 
511	 0.130858322339123 
512	 0.130935671351682 
513	 0.131128674662269 
514	 0.131263466754431 
515	 0.131287976834155 
516	 0.13128348797437 
517	 0.13154346117019 
518	 0.13168148787716 
519	 0.131711070264755 
520	 0.131773429814077 
521	 0.13193068128458 
522	 0.132012450903055 
523	 0.132024279879366 
524	 0.132163283949644 
525	 0.132278288727468 
526	 0.132324732948339 
527	 0.132325796563232 
528	 0.132432356237989 
529	 0.132576075471711 
530	 0.132712213806968 
531	 0.13281415622024 
532	 0.132864743004425 
533	 0.132942523223867 
534	 0.133093432611136 
535	 0.133286184869506 
536	 0.133394526171773 
537	 0.133448337468105 
538	 0.13353640538944 
539	 0.133646381379566 
540	 0.133765747284385 
541	 0.133887612018648 
542	 0.134012994794804 
543	 0.134159447475186 
544	 0.134278445338292 
545	 0.134344443656985 
546	 0.134499855351532 
547	 0.134615516504322 
548	 0.134711905594514 
549	 0.134931468948761 
550	 0.135135589997929 
551	 0.135263768702625 
552	 0.135347901438478 
553	 0.135629568097389 
554	 0.135833450393828 
555	 0.135987834054803 
556	 0.136258027293415 
557	 0.136481647706341 
558	 0.136715696102312 
559	 0.13699902585147 
560	 0.137301976973887 
561	 0.137557474868084 
562	 0.137810862687759 
563	 0.138125858175859 
564	 0.138424280237806 
565	 0.138692636903337 
566	 0.138978017761339 
567	 0.139386784130417 
568	 0.139808455316302 
569	 0.140230843395078 
570	 0.140662389500117 
571	 0.141081734612588 
572	 0.141635590074399 
573	 0.142253957379852 
574	 0.142726698829443 
575	 0.143215491335956 
576	 0.143723135706147 
577	 0.144238996553127 
578	 0.144771975529765 
579	 0.145379406528507 
580	 0.146048589980803 
581	 0.146748294363853 
582	 0.14758324264359 
583	 0.148365997549339 
584	 0.1490364800283 
585	 0.149752579466342 
586	 0.150462045179705 
587	 0.151121861500775 
588	 0.151733808504648 
589	 0.15249270441347 
590	 0.153271162955543 
591	 0.154001278766977 
592	 0.154688750659874 
593	 0.155409766325091 
594	 0.156168610477804 
595	 0.15698218428314 
596	 0.157966730021509 
597	 0.158925201202858 
598	 0.15983724812998 
599	 0.160770728159879 
600	 0.161616257142754 
601	 0.162397416289914 
602	 0.163132979700484 
603	 0.163804253758942 
604	 0.164488418720666 
605	 0.165163143033917 
606	 0.165784231074838 
607	 0.166406201439143 
608	 0.167040188855378 
609	 0.167668836297003 
610	 0.168247399038569 
611	 0.168876623911666 
612	 0.169487980150691 
613	 0.170018296759445 
614	 0.170587369330034 
615	 0.171057607876581 
616	 0.171464317817571 
617	 0.171950450162473 
618	 0.172398857344568 
619	 0.172773367392289 
620	 0.173092134679492 
621	 0.173460021114482 
622	 0.173811898346911 
623	 0.174152941697435 
624	 0.174509899832429 
625	 0.174869863763524 
626	 0.175164081187971 
627	 0.175404018357084 
628	 0.17570961001325 
629	 0.176026147256774 
630	 0.176331233076961 
631	 0.176611564308546 
632	 0.176857441511376 
633	 0.177102330251356 
634	 0.177359884264165 
635	 0.177627425415994 
636	 0.17792434337499 
637	 0.17820107672843 
638	 0.178424350775865 
639	 0.178621140652692 
640	 0.178847190862487 
641	 0.179115891987915 
642	 0.179407578668864 
643	 0.179655760726528 
644	 0.179890951645262 
645	 0.180137746653416 
646	 0.180396762143451 
647	 0.180661075482103 
648	 0.180931956857561 
649	 0.181211581869526 
650	 0.1814912609951 
651	 0.181810207427575 
652	 0.182120850012994 
653	 0.182316840611529 
654	 0.182643383934126 
655	 0.182989379099652 
656	 0.183268247450698 
657	 0.183630441985193 
658	 0.183945219695368 
659	 0.184232153507872 
660	 0.184571331886443 
661	 0.18492250739115 
662	 0.185251936565542 
663	 0.185567695042953 
664	 0.185937191988368 
665	 0.186330374694523 
666	 0.186708944250764 
667	 0.187060454798543 
668	 0.187493466356501 
669	 0.187877308552239 
670	 0.188220105735006 
671	 0.188644189598463 
672	 0.189099228436991 
673	 0.189527519817172 
674	 0.189919806615247 
675	 0.190387159369067 
676	 0.190857116118377 
677	 0.191301090732478 
678	 0.191721282897374 
679	 0.192186990849557 
680	 0.192684851229698 
681	 0.19320108659331 
682	 0.193732405264702 
683	 0.19421861350732 
684	 0.194697656506911 
685	 0.195216393167054 
686	 0.195742233506807 
687	 0.196344360151754 
688	 0.196962694762962 
689	 0.197460676872413 
690	 0.19797225123221 
691	 0.198542789662113 
692	 0.199154474237664 
693	 0.1996919695074 
694	 0.200225635871051 
695	 0.200801418270834 
696	 0.201438536008028 
697	 0.202052829640823 
698	 0.202674093966676 
699	 0.203304038060025 
700	 0.203911041901945 
701	 0.204543983495899 
702	 0.205165666990536 
703	 0.205748627826139 
704	 0.206337516169359 
705	 0.206969876217463 
706	 0.2076230675887 
707	 0.20824750906065 
708	 0.208882086105606 
709	 0.209509591475769 
710	 0.210127319623354 
711	 0.210762248747086 
712	 0.211372426751951 
713	 0.211979159434217 
714	 0.212612232969898 
715	 0.213256840114161 
716	 0.213896124769847 
717	 0.21448315580309 
718	 0.214965741304299 
719	 0.215494594876536 
720	 0.216081410166432 
721	 0.216677350114814 
722	 0.217162653794532 
723	 0.21765302219702 
724	 0.218162511025989 
725	 0.218668613022038 
726	 0.219149058738789 
727	 0.21961761850516 
728	 0.220051576849963 
729	 0.22040053190892 
730	 0.220830614829374 
731	 0.221242918712534 
732	 0.221569439913609 
733	 0.221942437588606 
734	 0.222261553898504 
735	 0.222502983710953 
736	 0.222689840243741 
737	 0.222914381379943 
738	 0.22314399207819 
739	 0.223354806306061 
740	 0.223543182691762 
741	 0.223679374603533 
742	 0.223761177581208 
743	 0.223807407292719 
744	 0.223874853650263 
745	 0.223906029377248 
746	 0.223911265166803 
747	 0.223925737242037 
748	 0.223922625313683 
749	 0.223831935958207 
750	 0.223680417326513 
751	 0.223610146520139 
752	 0.223473298276686 
753	 0.2232976331863 
754	 0.223128126091325 
755	 0.222939906772853 
756	 0.222710017543606 
757	 0.222465249165404 
758	 0.222251968665549 
759	 0.222053662185965 
760	 0.221794962830307 
761	 0.221460033596782 
762	 0.221112986052861 
763	 0.220833708355868 
764	 0.220539965230564 
765	 0.220162124000751 
766	 0.219782175057159 
767	 0.219440207450553 
768	 0.219103196545683 
769	 0.218708517453626 
770	 0.218294983607821 
771	 0.217895912103875 
772	 0.217517054765556 
773	 0.217133492695767 
774	 0.216751205331219 
775	 0.216344587275663 
776	 0.21590166300985 
777	 0.215462404532152 
778	 0.215016041635386 
779	 0.214587338207221 
780	 0.214202164831362 
781	 0.213801590358892 
782	 0.213359845702078 
783	 0.212898839148014 
784	 0.212483631999593 
785	 0.212054706774212 
786	 0.21161587376004 
787	 0.211190863994629 
788	 0.210829223778957 
789	 0.210404846269258 
790	 0.20994438472421 
791	 0.20951920726155 
792	 0.209086027480118 
793	 0.208694155904335 
794	 0.208334824271275 
795	 0.207948376750007 
796	 0.207526046415805 
797	 0.20713412570022 
798	 0.206775473202804 
799	 0.206311967496457 
800	 0.205921426044884 
801	 0.205583114443416 
802	 0.205228795201236 
803	 0.204866051334764 
804	 0.204515084267216 
805	 0.204188216864993 
806	 0.203883842013888 
807	 0.203540886188871 
808	 0.203165604486803 
809	 0.202789163572833 
810	 0.202460025470402 
811	 0.202160176010711 
812	 0.201845236384208 
813	 0.201510458946838 
814	 0.201283524317675 
815	 0.200991806647391 
816	 0.200645575878533 
817	 0.200330809428958 
818	 0.200079481668627 
819	 0.199819588373481 
820	 0.199555526388204 
821	 0.199351226920171 
822	 0.19910354396978 
823	 0.198812954150388 
824	 0.198523728266787 
825	 0.198322150062297 
826	 0.198093216018635 
827	 0.19786031396293 
828	 0.197660452182633 
829	 0.197445429985097 
830	 0.197239610292486 
831	 0.197072687662215 
832	 0.196951331933714 
833	 0.196744109945092 
834	 0.196500798144548 
835	 0.196294777464334 
836	 0.196192597862287 
837	 0.196067870132987 
838	 0.19593042166283 
839	 0.195779590042532 
840	 0.195553227829354 
841	 0.195486496981371 
842	 0.195455731026284 
843	 0.195309754117206 
844	 0.195147972183588 
845	 0.194999981289208 
846	 0.194880905098444 
847	 0.194798954502501 
848	 0.194796805490175 
849	 0.19472969394476 
850	 0.194584434173719 
851	 0.194469038036772 
852	 0.194395989135288 
853	 0.194360111406574 
854	 0.194354545803265 
855	 0.194377251602977 
856	 0.194351516312679 
857	 0.194299033281806 
858	 0.194251678407882 
859	 0.194195130812709 
860	 0.194170053930843 
861	 0.194171624421577 
862	 0.194176302668569 
863	 0.194163802665717 
864	 0.194165196450161 
865	 0.194200391239399 
866	 0.19427160045822 
867	 0.194332118470602 
868	 0.194375735759905 
869	 0.194387443627848 
870	 0.194352864071758 
871	 0.194443457091813 
872	 0.194550357986587 
873	 0.194608762247627 
874	 0.194702776109861 
875	 0.194822021004604 
876	 0.19486744925091 
877	 0.194832561490112 
878	 0.195008544155803 
879	 0.195200183856117 
880	 0.195321313531725 
881	 0.195371899687903 
882	 0.195526774113876 
883	 0.195706679482425 
884	 0.195845687805908 
885	 0.195919142308111 
886	 0.196069813566807 
887	 0.19623160556747 
888	 0.196390194571334 
889	 0.196587611842418 
890	 0.196844940269572 
891	 0.197023859363484 
892	 0.197129544341526 
893	 0.197357772862244 
894	 0.197616145175455 
895	 0.197817861678405 
896	 0.197963579924515 
897	 0.198204746926286 
898	 0.198488723273223 
899	 0.198775091177756 
900	 0.19903380906692 
901	 0.199252456945169 
902	 0.199520347710541 
903	 0.199787278121469 
904	 0.200004719205615 
905	 0.200331607273677 
906	 0.200625476801588 
907	 0.200912875527024 
908	 0.201271708358058 
909	 0.201589828164652 
910	 0.201840494724952 
911	 0.202118949040901 
912	 0.20254842537266 
913	 0.202900110680618 
914	 0.203256290625055 
915	 0.203633194935871 
916	 0.20397658572271 
917	 0.204377890720951 
918	 0.204761705673316 
919	 0.205111479052017 
920	 0.205499635806912 
921	 0.205928871246944 
922	 0.206385616646089 
923	 0.206842095152489 
924	 0.207263025968901 
925	 0.207738006575549 
926	 0.208206033957181 
927	 0.208625700256812 
928	 0.209050774648781 
929	 0.209503851353723 
930	 0.209988791063545 
931	 0.210507951999359 
932	 0.211081667785406 
933	 0.211642314927824 
934	 0.212172005970272 
935	 0.212698232185265 
936	 0.213329809662203 
937	 0.213909344668749 
938	 0.214403467974933 
939	 0.214871376085704 
940	 0.215509941278512 
941	 0.216179147840862 
942	 0.216775182914608 
943	 0.21729446724716 
944	 0.218039021622116 
945	 0.218713423525853 
946	 0.219268420225772 
947	 0.21980242343034 
948	 0.220448918894315 
949	 0.221190973997662 
950	 0.221948530110061 
951	 0.222637669968375 
952	 0.223303301227412 
953	 0.224040160391309 
954	 0.2247685984177 
955	 0.225371432145555 
956	 0.226105771429357 
957	 0.226803458677611 
958	 0.227489060523381 
959	 0.228290944144657 
960	 0.229135554096291 
961	 0.229950049143764 
962	 0.230714534705512 
963	 0.23146112958812 
964	 0.232275594306764 
965	 0.233117283092229 
966	 0.233933995615276 
967	 0.234714413819901 
968	 0.235691473009733 
969	 0.236482234800978 
970	 0.237161334356461 
971	 0.238066886237726 
972	 0.238935481510998 
973	 0.239841380653895 
974	 0.240760842140155 
975	 0.241617791078038 
976	 0.242509915880136 
977	 0.243330972229531 
978	 0.244222685767861 
979	 0.245372573426393 
980	 0.246292404127343 
981	 0.247052634783179 
982	 0.247800481856832 
983	 0.248681488759213 
984	 0.249693903284447 
985	 0.250662742490483 
986	 0.251577093787387 
987	 0.252536259673913 
988	 0.253619847364908 
989	 0.254609367666295 
990	 0.255459263558332 
991	 0.256276702885688 
992	 0.257325866088236 
993	 0.258146903667656 
994	 0.259001316656429 
995	 0.2602335490394 
996	 0.26109900437816 
997	 0.261982665535648 
998	 0.262925495964552 
999	 0.263852511176089 
1000	 0.264820884965319 
1001	 0.268283287368807 
1002	 0.269157903627681 
1003	 0.270063873848146 
1004	 0.270968671936093 
1005	 0.271891977090171 
1006	 0.272799253001537 
1007	 0.273726576790705 
1008	 0.274589584906075 
1009	 0.275388082519283 
1010	 0.276206045927133 
1011	 0.277067240804914 
1012	 0.277912817662482 
1013	 0.278767229571451 
1014	 0.279620734677178 
1015	 0.280424279340507 
1016	 0.28126493499918 
1017	 0.282114498038412 
1018	 0.282995889673079 
1019	 0.283833543745701 
1020	 0.284639120415824 
1021	 0.285370693796399 
1022	 0.286131738009105 
1023	 0.286943847757597 
1024	 0.287745680230895 
1025	 0.288597703391304 
1026	 0.289400548915973 
1027	 0.290149367909782 
1028	 0.29093147943663 
1029	 0.291731794005438 
1030	 0.292504111547185 
1031	 0.293242699066971 
1032	 0.293957769752672 
1033	 0.294678273481644 
1034	 0.295387171104367 
1035	 0.296086715818567 
1036	 0.29683400398531 
1037	 0.297602447248759 
1038	 0.298338953489041 
1039	 0.299083055238402 
1040	 0.29981146918496 
1041	 0.300487961465229 
1042	 0.301217839903395 
1043	 0.301945990672628 
1044	 0.302637790648706 
1045	 0.303308811776043 
1046	 0.304038434969985 
1047	 0.304755289649834 
1048	 0.305444618873178 
1049	 0.306197485166494 
1050	 0.306943620227258 
1051	 0.307606827931632 
1052	 0.308242694040611 
1053	 0.308892308377138 
1054	 0.309550356140345 
1055	 0.310200635621692 
1056	 0.310839631100898 
1057	 0.31147478015286 
1058	 0.312100325227694 
1059	 0.312722562656296 
1060	 0.313330283988279 
1061	 0.313943384110266 
1062	 0.31459121959047 
1063	 0.315214090525637 
1064	 0.315834006911279 
1065	 0.316464427265359 
1066	 0.317028401319442 
1067	 0.317559006782567 
1068	 0.318074299727652 
1069	 0.31860812271646 
1070	 0.319153159605179 
1071	 0.319706614626787 
1072	 0.320267523914067 
1073	 0.320860228008205 
1074	 0.321398003860786 
1075	 0.321906004541225 
1076	 0.322446754167283 
1077	 0.322934665109097 
1078	 0.323412020203915 
1079	 0.323934646859842 
1080	 0.324438035215516 
1081	 0.324935959645569 
1082	 0.325473723595328 
1083	 0.326005285912049 
1084	 0.326541648164678 
1085	 0.327072467788241 
1086	 0.327603427165129 
1087	 0.328128513039632 
1088	 0.328643797179974 
1089	 0.329173523104704 
1090	 0.329689638126164 
1091	 0.330183846714843 
1092	 0.33069452849774 
1093	 0.331195074718828 
1094	 0.331677919516751 
1095	 0.332232255023219 
1096	 0.332814365095162 
1097	 0.33336914354515 
1098	 0.333922642061148 
1099	 0.334492800451482 
1100	 0.335051775132572 
1101	 0.335570911758094 
1102	 0.336127735695373 
1103	 0.336710709321753 
1104	 0.337305185172794 
1105	 0.337852498695097 
1106	 0.33844149530509 
1107	 0.339039411137881 
1108	 0.339600638060392 
1109	 0.34021848878412 
1110	 0.340867774634384 
1111	 0.341477925102518 
1112	 0.342080084663438 
1113	 0.342684143715813 
1114	 0.343258286627318 
1115	 0.34386227825153 
1116	 0.344487962292405 
1117	 0.345108667125079 
1118	 0.345739970743564 
1119	 0.346361557975531 
1120	 0.346985447557634 
1121	 0.347623427092353 
1122	 0.348237772082784 
1123	 0.348837579373717 
1124	 0.349459211814947 
1125	 0.350069934247905 
1126	 0.350707193218948 
1127	 0.351375762714046 
1128	 0.352029546030709 
1129	 0.352690528769877 
1130	 0.353334531732629 
1131	 0.35398016096806 
1132	 0.354610479724255 
1133	 0.35520921680016 
1134	 0.355830272804133 
1135	 0.356460394681455 
1136	 0.357073863142426 
1137	 0.357705900669446 
1138	 0.358355583715851 
1139	 0.358968690730396 
1140	 0.359558722045099 
1141	 0.360166795512525 
1142	 0.360766848193462 
1143	 0.361360700382877 
1144	 0.361964989507971 
1145	 0.362559573765717 
1146	 0.363143164443922 
1147	 0.363717532794773 
1148	 0.364286082732971 
1149	 0.364854913466311 
1150	 0.365412330430929 
1151	 0.365971030526522 
1152	 0.366534034908683 
1153	 0.367084196910209 
1154	 0.367622081947745 
1155	 0.368134190052417 
1156	 0.368672519576656 
1157	 0.369223898627786 
1158	 0.369751979916679 
1159	 0.370296906281759 
1160	 0.370802441895309 
1161	 0.37126527727272 
1162	 0.371744860347982 
1163	 0.372231029478771 
1164	 0.372690661740812 
1165	 0.373141365511356 
1166	 0.373585325023314 
1167	 0.374009015105814 
1168	 0.374410717761393 
1169	 0.374823538883815 
1170	 0.375237914630074 
1171	 0.375648719684147 
1172	 0.376057183208827 
1173	 0.376463141440856 
1174	 0.376872227753714 
1175	 0.377269968641061 
1176	 0.377661516797115 
1177	 0.378047761820184 
1178	 0.378428258467675 
1179	 0.378805133819787 
1180	 0.379185642165016 
1181	 0.379547453834355 
1182	 0.379896799759037 
1183	 0.380236312690998 
1184	 0.38058308791151 
1185	 0.380927704939754 
1186	 0.38125935073407 
1187	 0.381591829009955 
1188	 0.381915788625419 
1189	 0.382215682588063 
1190	 0.38253077891859 
1191	 0.382867070548416 
1192	 0.383174883479633 
1193	 0.383466464691263 
1194	 0.383763013434591 
1195	 0.384051143443562 
1196	 0.384332621287566 
1197	 0.384612788977248 
1198	 0.384892190969856 
1199	 0.385167301928744 
1200	 0.385435219638197 
1201	 0.385694211840252 
1202	 0.385957853902803 
1203	 0.386199977994349 
1204	 0.386412432901478 
1205	 0.386647701434143 
1206	 0.386878389413908 
1207	 0.387121421975566 
1208	 0.387395936419227 
1209	 0.387633286028609 
1210	 0.387859327411677 
1211	 0.388079911533489 
1212	 0.388263802707925 
1213	 0.388471676130741 
1214	 0.388702624546528 
1215	 0.388916342703733 
1216	 0.389126338687913 
1217	 0.38934209933026 
1218	 0.389541555966548 
1219	 0.389723520799436 
1220	 0.389911893283175 
1221	 0.390093567605609 
1222	 0.390284894180277 
1223	 0.390483724369663 
1224	 0.390671252928535 
1225	 0.390865843368709 
1226	 0.391046218061416 
1227	 0.391206361952331 
1228	 0.391375440422465 
1229	 0.39154070668348 
1230	 0.391710180966198 
1231	 0.391885183169457 
1232	 0.392058623545609 
1233	 0.392232500920784 
1234	 0.392408705686318 
1235	 0.392582188730631 
1236	 0.392764024189994 
1237	 0.392919457737794 
1238	 0.393062388441722 
1239	 0.393205382877181 
1240	 0.393320301615797 
1241	 0.393462837291953 
1242	 0.393625998179773 
1243	 0.393774579751306 
1244	 0.393933414102396 
1245	 0.394076776769057 
1246	 0.394201923953748 
1247	 0.394332866148313 
1248	 0.394461327612521 
1249	 0.394585067413192 
1250	 0.394723188515432 
1251	 0.394848137616404 
1252	 0.394978655109185 
1253	 0.395110275450323 
1254	 0.395240998175482 
1255	 0.395373589761839 
1256	 0.395500063004353 
1257	 0.395634165809034 
1258	 0.39574589071726 
1259	 0.395837489427305 
1260	 0.395938773904986 
1261	 0.396020860811882 
1262	 0.396120414592442 
1263	 0.396245687054606 
1264	 0.396351610142785 
1265	 0.396440472401557 
1266	 0.396550537357918 
1267	 0.396668052111053 
1268	 0.396769487646835 
1269	 0.396902680537012 
1270	 0.397067976807145 
1271	 0.39721079297584 
1272	 0.397349523537557 
1273	 0.397502339600778 
1274	 0.397662202526696 
1275	 0.397814663264115 
1276	 0.397972659083201 
1277	 0.398132910063049 
1278	 0.398298098052222 
1279	 0.398441148178815 
1280	 0.398589790914001 
1281	 0.398717191835891 
1282	 0.3988154932588 
1283	 0.398910578512419 
1284	 0.398989613980207 
1285	 0.399080906218889 
1286	 0.399152793614869 
1287	 0.399209691033429 
1288	 0.399254662742211 
1289	 0.399288497920215 
1290	 0.399308981310085 
1291	 0.399318369849586 
1292	 0.399307955644221 
1293	 0.399280049683863 
1294	 0.399249705878052 
1295	 0.39919916099279 
1296	 0.399147006759491 
1297	 0.399089344195587 
1298	 0.399030613257751 
1299	 0.398967585501371 
1300	 0.398897139579739 
1301	 0.398812364114796 
1302	 0.398741574893284 
1303	 0.398679491086286 
1304	 0.398606837690171 
1305	 0.398512492980015 
1306	 0.398429348549422 
1307	 0.398317183288088 
1308	 0.398206027823684 
1309	 0.398137756226592 
1310	 0.398107466079993 
1311	 0.398063294417631 
1312	 0.398046941080123 
1313	 0.398000842618744 
1314	 0.397923184859751 
1315	 0.397887679989949 
1316	 0.39786603541761 
1317	 0.397840061732619 
1318	 0.397828871596374 
1319	 0.39782723588605 
1320	 0.397823641748739 
1321	 0.397826086636327 
1322	 0.39784257222275 
1323	 0.397870652418556 
1324	 0.39788607954852 
1325	 0.397903211712337 
1326	 0.397951692687692 
1327	 0.398013070578746 
1328	 0.398080062355385 
1329	 0.398161756035352 
1330	 0.398249497463914 
1331	 0.398341210022566 
1332	 0.398445247217377 
1333	 0.398566956028087 
1334	 0.398682209369762 
1335	 0.398804203315318 
1336	 0.398924554518167 
1337	 0.399045313460876 
1338	 0.39916417728266 
1339	 0.399270721294073 
1340	 0.39939770025629 
1341	 0.399546726241224 
1342	 0.399674610755395 
1343	 0.399796100001467 
1344	 0.399931763648186 
1345	 0.400065361844188 
1346	 0.400202610638812 
1347	 0.400345459067514 
1348	 0.40049457286688 
1349	 0.400604105381847 
1350	 0.400694103212135 
1351	 0.400807320790687 
1352	 0.400916550609801 
1353	 0.401038370461041 
1354	 0.401185689230002 
1355	 0.401310718415908 
1356	 0.401429859869747 
1357	 0.401551009547412 
1358	 0.401667584448689 
1359	 0.401777696892989 
1360	 0.401886437219335 
1361	 0.401993017278057 
1362	 0.402092411064464 
1363	 0.402193793483915 
1364	 0.402303052678555 
1365	 0.402397502869561 
1366	 0.402477235525761 
1367	 0.402556889175314 
1368	 0.402662011121735 
1369	 0.402764572009784 
1370	 0.402872849547464 
1371	 0.402979598011443 
1372	 0.403059610563775 
1373	 0.403140829178134 
1374	 0.403215025731232 
1375	 0.403289667655191 
1376	 0.403350633365367 
1377	 0.403392795828215 
1378	 0.403448194605763 
1379	 0.403517507521672 
1380	 0.403558267281755 
1381	 0.403596146650471 
1382	 0.40361701785293 
1383	 0.403610881754417 
1384	 0.403600820012992 
1385	 0.403599907991046 
1386	 0.403562540109265 
1387	 0.403497476205546 
1388	 0.403425483823038 
1389	 0.403348708742732 
1390	 0.403225200795692 
1391	 0.403087888807236 
1392	 0.402937584403628 
1393	 0.402755087616497 
1394	 0.402574009824873 
1395	 0.402380767378082 
1396	 0.402168178015959 
1397	 0.401956558085961 
1398	 0.401729470850076 
1399	 0.401505995286212 
1400	 0.401282080775237 
1401	 0.401052890374642 
1402	 0.400807680956158 
1403	 0.400588363578373 
1404	 0.40037112078376 
1405	 0.400175793396409 
1406	 0.399997869536472 
1407	 0.399825934680472 
1408	 0.399657059886142 
1409	 0.399518855583813 
1410	 0.399395134254444 
1411	 0.399294754361925 
1412	 0.399211761739222 
1413	 0.399161345971247 
1414	 0.399139607140287 
1415	 0.399153801143798 
1416	 0.399220629946615 
1417	 0.399307248176698 
1418	 0.399395673114957 
1419	 0.399488280155652 
1420	 0.399571910791581 
1421	 0.399643067900327 
1422	 0.399699268700846 
1423	 0.399755186677409 
1424	 0.399797731513326 
1425	 0.399829115338048 
1426	 0.399844767823871 
1427	 0.399840039231962 
1428	 0.399842654656944 
1429	 0.399830477594866 
1430	 0.399832087827109 
1431	 0.399846172525256 
1432	 0.399857933701528 
1433	 0.399874347743995 
1434	 0.399879416029776 
1435	 0.399875852508891 
1436	 0.399879302979801 
1437	 0.399888334429446 
1438	 0.399882395974945 
1439	 0.399866402793634 
1440	 0.399863909197951 
1441	 0.3998542645938 
1442	 0.399834285905144 
1443	 0.399837368438721 
1444	 0.399831043211612 
1445	 0.399808586765993 
1446	 0.399803897305307 
1447	 0.39981111918589 
1448	 0.399817549848211 
1449	 0.399836292166051 
1450	 0.399851572860069 
1451	 0.399853534784417 
1452	 0.399840858221336 
1453	 0.3998434502246 
1454	 0.399845826921493 
1455	 0.399843497363206 
1456	 0.399850889314295 
1457	 0.399839879484858 
1458	 0.399813866819218 
1459	 0.399795060489301 
1460	 0.399758883919253 
1461	 0.399752396766261 
1462	 0.399759765120991 
1463	 0.399767124001877 
1464	 0.399797907144244 
1465	 0.399817892967674 
1466	 0.399828604328701 
1467	 0.39984669196985 
1468	 0.399864429263168 
1469	 0.399890175507412 
1470	 0.399911519336028 
1471	 0.399958849452887 
1472	 0.400023802068066 
1473	 0.400082743703663 
1474	 0.400158751446589 
1475	 0.400230043813807 
1476	 0.400281662447103 
1477	 0.400340976700795 
1478	 0.400385726124017 
1479	 0.400438190959863 
1480	 0.400522920182767 
1481	 0.400600643974917 
1482	 0.400688816717043 
1483	 0.400807053720561 
1484	 0.400893656365745 
1485	 0.4009644168968 
1486	 0.401045745736064 
1487	 0.401117310052924 
1488	 0.401193723403788 
1489	 0.401282614494522 
1490	 0.401361634932849 
1491	 0.401437833790325 
1492	 0.401504544227977 
1493	 0.401562031746574 
1494	 0.401620851823733 
1495	 0.401675193490369 
1496	 0.401729862650425 
1497	 0.401782824084947 
1498	 0.401837706258822 
1499	 0.401884002492527 
1500	 0.40193909779836 
1501	 0.402000726643198 
1502	 0.402068094629646 
1503	 0.402139009188828 
1504	 0.402217605613843 
1505	 0.402307674033829 
1506	 0.40238648438546 
1507	 0.402449494146692 
1508	 0.402519170436135 
1509	 0.402580200652622 
1510	 0.402642660980971 
1511	 0.402703481091038 
1512	 0.402744785983765 
1513	 0.402790078358669 
1514	 0.402836730269114 
1515	 0.402882483158089 
1516	 0.402941327014121 
1517	 0.402999476006329 
1518	 0.403053536126483 
1519	 0.403113675826391 
1520	 0.403185013047903 
1521	 0.403256447215072 
1522	 0.403335865803839 
1523	 0.403399043620978 
1524	 0.403456140539987 
1525	 0.403509689345715 
1526	 0.403545512453008 
1527	 0.403599999015941 
1528	 0.403672792795471 
1529	 0.403726039048182 
1530	 0.403778402090172 
1531	 0.403817605820221 
1532	 0.403837797383861 
1533	 0.403866934870015 
1534	 0.40389698968866 
1535	 0.40392303918939 
1536	 0.403938004214859 
1537	 0.403964991164282 
1538	 0.403988010120299 
1539	 0.404026929633803 
1540	 0.404090008888628 
1541	 0.404146119484293 
1542	 0.404224901096216 
1543	 0.404266018940493 
1544	 0.40427427259384 
1545	 0.404299445846755 
1546	 0.404308038673205 
1547	 0.404321632199436 
1548	 0.404368178703378 
1549	 0.404410917438271 
1550	 0.404460530687262 
1551	 0.404510484162994 
1552	 0.404534414968985 
1553	 0.40457674470407 
1554	 0.404619004979356 
1555	 0.404661300387992 
1556	 0.404725932911865 
1557	 0.404773075129409 
1558	 0.404810443078615 
1559	 0.404846883457418 
1560	 0.404900795203401 
1561	 0.404974235969513 
1562	 0.405020454165872 
1563	 0.405073709243382 
1564	 0.405102229381321 
1565	 0.405094144785612 
1566	 0.405116193838854 
1567	 0.405135099767347 
1568	 0.405173466159528 
1569	 0.40522594789096 
1570	 0.405287696787607 
1571	 0.405379415625678 
1572	 0.405434087457648 
1573	 0.405476495918755 
1574	 0.405525365890823 
1575	 0.405560874863858 
1576	 0.40559381821045 
1577	 0.40564235520572 
1578	 0.405667385016801 
1579	 0.405670060208141 
1580	 0.405673786692704 
1581	 0.405656233252085 
1582	 0.405666451575843 
1583	 0.405681301461129 
1584	 0.405699511659073 
1585	 0.405737374946561 
1586	 0.405775315400415 
1587	 0.405818239534587 
1588	 0.405851005598608 
1589	 0.405883216286447 
1590	 0.405920995604757 
1591	 0.40594926163435 
1592	 0.405985000931991 
1593	 0.406038130621574 
1594	 0.40608066206945 
1595	 0.406119361199084 
1596	 0.406152979029838 
1597	 0.406193026308811 
1598	 0.406210706634444 
1599	 0.40619310054332 
1600	 0.406204386966359 
1601	 0.406214082903671 
1602	 0.406232242763893 
1603	 0.406278746692932 
1604	 0.406316980444751 
1605	 0.406347969478432 
1606	 0.406383929530678 
1607	 0.406422272188458 
1608	 0.406462092378015 
1609	 0.406521521044553 
1610	 0.406575468089186 
1611	 0.40663014591383 
1612	 0.406687493546262 
1613	 0.406709831213104 
1614	 0.40673734104232 
1615	 0.406760581655549 
1616	 0.406757736516353 
1617	 0.406757239192623 
1618	 0.406755082250683 
1619	 0.406744767589897 
1620	 0.406755565137243 
1621	 0.406780047998699 
1622	 0.406816600115284 
1623	 0.406862474210027 
1624	 0.406928898157158 
1625	 0.406986874953134 
1626	 0.407057570932061 
1627	 0.407102679607293 
1628	 0.407144305492276 
1629	 0.407164521309945 
1630	 0.407158977056632 
1631	 0.407164443431849 
1632	 0.407152542420972 
1633	 0.407170694382351 
1634	 0.407207501461754 
1635	 0.407227916559894 
1636	 0.407256902654852 
1637	 0.407281142164221 
1638	 0.407288241423003 
1639	 0.407312804562907 
1640	 0.407353475374417 
1641	 0.40738341029065 
1642	 0.407406751196647 
1643	 0.407443188322506 
1644	 0.407480908467044 
1645	 0.407527453875931 
1646	 0.407597174888748 
1647	 0.407635870926833 
1648	 0.407658837510139 
1649	 0.407696669478946 
1650	 0.407728460550881 
1651	 0.407757978836788 
1652	 0.407796268209947 
1653	 0.407833083874371 
1654	 0.407852824092603 
1655	 0.407892170080677 
1656	 0.407952463802596 
1657	 0.408001023543834 
1658	 0.408058466324026 
1659	 0.40809033442422 
1660	 0.408102019809278 
1661	 0.408130470437857 
1662	 0.408150036617777 
1663	 0.408173688441284 
1664	 0.408211021976089 
1665	 0.408242828135807 
1666	 0.408267660297106 
1667	 0.408291457139265 
1668	 0.408313744345163 
1669	 0.408347745151469 
1670	 0.408376690666338 
1671	 0.408418573869053 
1672	 0.408481666656162 
1673	 0.408535659255191 
1674	 0.408597897946254 
1675	 0.408638325561522 
1676	 0.408673674290228 
1677	 0.408698206348621 
1678	 0.408688539912 
1679	 0.408712449267322 
1680	 0.408750976296926 
1681	 0.408781939722978 
1682	 0.408825857036484 
1683	 0.408861680535101 
1684	 0.408894440000553 
1685	 0.408914906562697 
1686	 0.40892827048648 
1687	 0.408945715545244 
1688	 0.408942133530136 
1689	 0.408964239673328 
1690	 0.409001153947769 
1691	 0.409044984276662 
1692	 0.409108496709929 
1693	 0.409158501240545 
1694	 0.40921368839956 
1695	 0.409260465070548 
1696	 0.409299812738302 
1697	 0.409332320673483 
1698	 0.409355092204897 
1699	 0.409386984965974 
1700	 0.409424405730912 
1701	 0.409442267855655 
1702	 0.409456961598723 
1703	 0.409469244892943 
1704	 0.409445367148187 
1705	 0.409466719637142 
1706	 0.409520594400591 
1707	 0.40955891820983 
1708	 0.409614896582841 
1709	 0.40965470291795 
1710	 0.409671359236592 
1711	 0.409709546846539 
1712	 0.409767323202561 
1713	 0.409800432195376 
1714	 0.409842380227175 
1715	 0.409850796534316 
1716	 0.409804730593923 
1717	 0.409816630554651 
1718	 0.40983777438461 
1719	 0.40986366350664 
1720	 0.409932679627523 
1721	 0.409967895152685 
1722	 0.409987874147622 
1723	 0.410003623464122 
1724	 0.410013476884991 
1725	 0.410015925212867 
1726	 0.410022341053769 
1727	 0.409981837329294 
1728	 0.409896157266634 
1729	 0.4098546249417 
1730	 0.40978352980015 
1731	 0.409765053819023 
1732	 0.409828212186468 
1733	 0.409819562050934 
1734	 0.409775453448885 
1735	 0.409766221254486 
1736	 0.409746714207804 
1737	 0.409729544084321 
1738	 0.409751599787182 
1739	 0.409731087672981 
1740	 0.409665536815511 
1741	 0.409652064981254 
1742	 0.409650737298224 
1743	 0.409647727090545 
1744	 0.409669870848821 
1745	 0.409670113052692 
1746	 0.409655398538386 
1747	 0.409656703041949 
1748	 0.409645316351423 
1749	 0.40960037218111 
1750	 0.409599659565172 
1751	 0.409606846527372 
1752	 0.409586556010106 
1753	 0.409583142473971 
1754	 0.409583689196252 
1755	 0.409581299451182 
1756	 0.409588473249576 
1757	 0.409595338877321 
1758	 0.409583945300108 
1759	 0.409560601522658 
1760	 0.409524319390506 
1761	 0.409474825869003 
1762	 0.409427431530923 
1763	 0.409382720759529 
1764	 0.409362972955477 
1765	 0.40936689143906 
1766	 0.409386825382184 
1767	 0.40942787828909 
1768	 0.409441327795681 
1769	 0.409437740961777 
1770	 0.409450191398547 
1771	 0.409439572994172 
1772	 0.409426654042241 
1773	 0.409435030894847 
1774	 0.409435397316916 
1775	 0.409432407514019 
1776	 0.409424998772716 
1777	 0.409406587240365 
1778	 0.409411107771578 
1779	 0.409444961935447 
1780	 0.409483601824748 
1781	 0.409548389327711 
1782	 0.409589895340008 
1783	 0.409552616786383 
1784	 0.409545247516086 
1785	 0.409520355488638 
1786	 0.409510392750276 
1787	 0.409524109163457 
1788	 0.409535835865567 
1789	 0.409546752115025 
1790	 0.409566830380621 
1791	 0.409585740031252 
1792	 0.40962375984789 
1793	 0.409688313297929 
1794	 0.40972931634983 
1795	 0.409767763598281 
1796	 0.409805367308714 
1797	 0.409828338357819 
1798	 0.409861501613287 
1799	 0.409919464494601 
1800	 0.409952146216043 
1801	 0.413970105775478 
1802	 0.41396127233967 
1803	 0.413940110813637 
1804	 0.413927558008391 
1805	 0.413918640233595 
1806	 0.413940400035131 
1807	 0.413985583316841 
1808	 0.414023881015012 
1809	 0.414068869660382 
1810	 0.41410775871655 
1811	 0.414150801750402 
1812	 0.414192122853639 
1813	 0.414207765344813 
1814	 0.414239062721283 
1815	 0.414278077573408 
1816	 0.414290390929368 
1817	 0.414311319744218 
1818	 0.414353482418417 
1819	 0.414362767830469 
1820	 0.414354297365809 
1821	 0.41433967690227 
1822	 0.414321428556843 
1823	 0.414292455226023 
1824	 0.414276047270895 
1825	 0.414275628530711 
1826	 0.414273983591157 
1827	 0.41424892322413 
1828	 0.414213710425345 
1829	 0.414164024353548 
1830	 0.414108456560447 
1831	 0.414024853169232 
1832	 0.413972450217934 
1833	 0.413928936669008 
1834	 0.413898687478957 
1835	 0.413907243722035 
1836	 0.413902595896277 
1837	 0.41390294131879 
1838	 0.413914744357754 
1839	 0.413922249829924 
1840	 0.413923250919564 
1841	 0.413952003003819 
1842	 0.413973128068769 
1843	 0.413970200014317 
1844	 0.413979070663 
1845	 0.413956776190216 
1846	 0.413953459730865 
1847	 0.413974313978026 
1848	 0.413981580361978 
1849	 0.413992625532438 
1850	 0.413989327827533 
1851	 0.413969146084182 
1852	 0.413939797673702 
1853	 0.413914499135933 
1854	 0.413907128995984 
1855	 0.413903552561332 
1856	 0.413887166920761 
1857	 0.413879941472993 
1858	 0.413853073744031 
1859	 0.413825549413748 
1860	 0.413802559658541 
1861	 0.413789423878227 
1862	 0.413749961883993 
1863	 0.413711812348439 
1864	 0.413667027164935 
1865	 0.413600532990038 
1866	 0.413532306481607 
1867	 0.413459328923742 
1868	 0.413393906783669 
1869	 0.413325984900295 
1870	 0.413257644587333 
1871	 0.413169229890237 
1872	 0.413076719919479 
1873	 0.412956221545431 
1874	 0.412824794305961 
1875	 0.412673456138749 
1876	 0.412509543844888 
1877	 0.412339694557929 
1878	 0.412130271332112 
1879	 0.411889483016656 
1880	 0.41161941331697 
1881	 0.411319606461374 
1882	 0.410985390115922 
1883	 0.410621468112579 
1884	 0.410220753796457 
1885	 0.409789575186432 
1886	 0.409334841430488 
1887	 0.408863622419909 
1888	 0.40836965823645 
1889	 0.40782849707669 
1890	 0.407253298144002 
1891	 0.406668257828391 
1892	 0.406033992214638 
1893	 0.40540780019422 
1894	 0.404774304419495 
1895	 0.404132590482933 
1896	 0.403491362051982 
1897	 0.402887461281964 
1898	 0.402296509349703 
1899	 0.401748815290418 
1900	 0.401219185363291 
1901	 0.400711480049409 
1902	 0.400236821381952 
1903	 0.399794279876878 
1904	 0.399373604915927 
1905	 0.398982577673497 
1906	 0.398623824941697 
1907	 0.398270902151532 
1908	 0.397957151960507 
1909	 0.39764478238407 
1910	 0.397311240983285 
1911	 0.397007448607693 
1912	 0.396710890524451 
1913	 0.396425897529728 
1914	 0.396159453147855 
1915	 0.395902675369182 
1916	 0.39564682987667 
1917	 0.395412414061304 
1918	 0.39521244726746 
1919	 0.395013050026557 
1920	 0.394822075342184 
1921	 0.394645641607529 
1922	 0.394464875157806 
1923	 0.394296870072318 
1924	 0.394161130182482 
1925	 0.394060772056391 
1926	 0.393961179614252 
1927	 0.393874591487784 
1928	 0.393816973481036 
1929	 0.393764047502697 
1930	 0.393685786497786 
1931	 0.393632814904639 
1932	 0.393572505338946 
1933	 0.393511086689693 
1934	 0.393489358539361 
1935	 0.393472782935968 
1936	 0.393473863759981 
1937	 0.39347780545862 
1938	 0.393474053582358 
1939	 0.393511630529945 
1940	 0.393561961539278 
1941	 0.393645312420133 
1942	 0.393766008910554 
1943	 0.393907503447937 
1944	 0.39406285202014 
1945	 0.394218257040465 
1946	 0.394362927862359 
1947	 0.394504618820967 
1948	 0.39464968844531 
1949	 0.394780743083267 
1950	 0.394930625613413 
1951	 0.395090549997902 
1952	 0.395263638908091 
1953	 0.395429475402191 
1954	 0.395600732131012 
1955	 0.395788926309341 
1956	 0.395955312789745 
1957	 0.39612178675978 
1958	 0.396293007180778 
1959	 0.396448093778122 
1960	 0.396584600538427 
1961	 0.396734409610213 
1962	 0.396861765436814 
1963	 0.397028748141514 
1964	 0.39721691039632 
1965	 0.397407165573363 
1966	 0.397632417476301 
1967	 0.397866161876364 
1968	 0.398085520982736 
1969	 0.398306000680697 
1970	 0.398522095402897 
1971	 0.398728507108845 
1972	 0.398941448400443 
1973	 0.39916885566279 
1974	 0.399369113306665 
1975	 0.399552294893546 
1976	 0.399736642144688 
1977	 0.399937393973035 
1978	 0.400135771037339 
1979	 0.40033877398241 
1980	 0.400568824040984 
1981	 0.400793587795676 
1982	 0.401000636128688 
1983	 0.40123835396109 
1984	 0.401503674004189 
1985	 0.401763634216634 
1986	 0.402040975818835 
1987	 0.402301930354542 
1988	 0.402550875250306 
1989	 0.402821133058402 
1990	 0.403075624884149 
1991	 0.403322160108051 
1992	 0.403584949126894 
1993	 0.403857124575739 
1994	 0.404128543056363 
1995	 0.404414775969851 
1996	 0.404684346274668 
1997	 0.404949444478192 
1998	 0.405211632921079 
1999	 0.405465735290993 
2000	 0.405717666613533 
2001	 0.405971003729277 
2002	 0.406213786575685 
2003	 0.406458743984017 
2004	 0.406700132797739 
2005	 0.40695289995554 
2006	 0.407215167741968 
2007	 0.407478441685612 
2008	 0.407757055720688 
2009	 0.40801390534494 
2010	 0.408256970433983 
2011	 0.408511489088996 
2012	 0.408754266406298 
2013	 0.409006207730905 
2014	 0.40927386291036 
2015	 0.409536686801955 
2016	 0.40979601489376 
2017	 0.410078828462509 
2018	 0.410343994324029 
2019	 0.410601160077573 
2020	 0.410877646244799 
2021	 0.411143727002556 
2022	 0.411436876691119 
2023	 0.411783314948918 
2024	 0.412084546294734 
2025	 0.41238601065238 
2026	 0.412667794153501 
2027	 0.412927405130888 
2028	 0.413167704215439 
2029	 0.413397806363587 
2030	 0.413609655382722 
2031	 0.413826336595836 
2032	 0.414025307764973 
2033	 0.414234167085761 
2034	 0.414443832391163 
2035	 0.414662122526287 
2036	 0.414889286537446 
2037	 0.415104259923118 
2038	 0.415334544430712 
2039	 0.41554103557413 
2040	 0.41572701949243 
2041	 0.415907741262764 
2042	 0.416072795594421 
2043	 0.416245211434685 
2044	 0.416407192316302 
2045	 0.416551155217744 
2046	 0.416719186594534 
2047	 0.416911761778869 
2048	 0.417061749364558 
2049	 0.417207771293326 
2050	 0.417344168152838 
2051	 0.417421782241162 
2052	 0.417547637149041 
2053	 0.417697103203636 
2054	 0.417850640819024 
2055	 0.418034606835542 
2056	 0.418200992674386 
2057	 0.418370515576822 
2058	 0.4185468031563 
2059	 0.418711393342352 
2060	 0.418877404736692 
2061	 0.419022435141235 
2062	 0.419127056150485 
2063	 0.419281424765087 
2064	 0.419451314078884 
2065	 0.419616893779535 
2066	 0.419827451078276 
2067	 0.420003545617716 
2068	 0.420159805795767 
2069	 0.420297869686014 
2070	 0.420437617514648 
2071	 0.420573528122509 
2072	 0.420700185670924 
2073	 0.42080519470384 
2074	 0.420931960094873 
2075	 0.421052283774105 
2076	 0.421194402324346 
2077	 0.421364437955552 
2078	 0.421520568473254 
2079	 0.421672516817946 
2080	 0.421838075816519 
2081	 0.422012186968786 
2082	 0.422180005450677 
2083	 0.422342064787948 
2084	 0.422536092881868 
2085	 0.422708195894841 
2086	 0.422873519269515 
2087	 0.423030122747812 
2088	 0.423194901708977 
2089	 0.423325642965076 
2090	 0.42343128474035 
2091	 0.423534658329327 
2092	 0.423616098319411 
2093	 0.423702574562557 
2094	 0.423761834087403 
2095	 0.423858858816184 
2096	 0.423960627825251 
2097	 0.424083802870369 
2098	 0.42424487980112 
2099	 0.424406730507967 
2100	 0.424572361416783 
2101	 0.424758884462369 
2102	 0.424916334011777 
2103	 0.425054105977939 
2104	 0.425221798453938 
2105	 0.425374614594285 
2106	 0.425561084641782 
2107	 0.425798980231675 
2108	 0.426007647461521 
2109	 0.426203313693212 
2110	 0.426420696354746 
2111	 0.426648844789348 
2112	 0.42686813677974 
2113	 0.427099418016899 
2114	 0.427334175806775 
2115	 0.427548111694418 
2116	 0.427739965458991 
2117	 0.427947214256469 
2118	 0.428155838899695 
2119	 0.428359233392778 
2120	 0.428557986087139 
2121	 0.428765404757432 
2122	 0.428973421563596 
2123	 0.429182048037344 
2124	 0.42941431343454 
2125	 0.42961303722713 
2126	 0.429812192421489 
2127	 0.429974189214594 
2128	 0.430093324130022 
2129	 0.430216648097487 
2130	 0.430332473138562 
2131	 0.430418018458456 
2132	 0.430491963426749 
2133	 0.430571041909272 
2134	 0.430599343454133 
2135	 0.430590683967489 
2136	 0.430562789720873 
2137	 0.430494107598036 
2138	 0.430430578458097 
2139	 0.430344417621272 
2140	 0.430259740951245 
2141	 0.430179509791151 
2142	 0.430076507779084 
2143	 0.429957779353802 
2144	 0.429829206282535 
2145	 0.42968279961252 
2146	 0.429531500289609 
2147	 0.429373152914768 
2148	 0.429205021015546 
2149	 0.429026956015178 
2150	 0.428848246110347 
2151	 0.42863300397674 
2152	 0.428395489851659 
2153	 0.428150137277016 
2154	 0.427883549786489 
2155	 0.427600243847286 
2156	 0.427314494455181 
2157	 0.426996604903565 
2158	 0.426631267320861 
2159	 0.426280929994926 
2160	 0.425913196169889 
2161	 0.425552765792542 
2162	 0.425213432840561 
2163	 0.424847990418657 
2164	 0.424475734003231 
2165	 0.424086097729077 
2166	 0.423681750282198 
2167	 0.423244550515456 
2168	 0.422830545833502 
2169	 0.422408960734622 
2170	 0.422002374419766 
2171	 0.421616344224117 
2172	 0.42121028494084 
2173	 0.42079634720227 
2174	 0.420387255942118 
2175	 0.419961868480108 
2176	 0.419556546461403 
2177	 0.41918515090955 
2178	 0.418780767941356 
2179	 0.418367286635308 
2180	 0.417951037427639 
2181	 0.417510621024818 
2182	 0.417074491221083 
2183	 0.416640964741553 
2184	 0.416198142894434 
2185	 0.415781954705343 
2186	 0.415364050737009 
2187	 0.414969017113013 
2188	 0.414611002912305 
2189	 0.414226435656851 
2190	 0.413833083169626 
2191	 0.413456917690821 
2192	 0.413061205305798 
2193	 0.412716645647026 
2194	 0.412396709959837 
2195	 0.412100736700222 
2196	 0.411836296379821 
2197	 0.411594561283534 
2198	 0.411392968116336 
2199	 0.411187590458621 
2200	 0.410995608202477 
2201	 0.41082002690914 
2202	 0.41063818521667 
2203	 0.410485972496901 
2204	 0.410372048807784 
2205	 0.410284113789145 
2206	 0.410242483300697 
2207	 0.410257887230073 
2208	 0.410258918480373 
2209	 0.410283642833451 
2210	 0.410329165981519 
2211	 0.410378109650356 
2212	 0.410453663092983 
2213	 0.410585186864428 
2214	 0.410685321724421 
2215	 0.410785476996218 
2216	 0.410883273264856 
2217	 0.410976529482094 
2218	 0.41106604868187 
2219	 0.411176133178657 
2220	 0.411245102731056 
2221	 0.411281667703691 
2222	 0.411323737232024 
2223	 0.411336577467022 
2224	 0.411326769376655 
2225	 0.411338908174873 
2226	 0.411361936916104 
2227	 0.41136094155651 
2228	 0.411361677194506 
2229	 0.411340101594952 
2230	 0.411290488349223 
2231	 0.411251079825001 
2232	 0.411201488526589 
2233	 0.411157863037376 
2234	 0.411123222792928 
2235	 0.411074114195273 
2236	 0.411008561214512 
2237	 0.410960299442833 
2238	 0.410917152518101 
2239	 0.410863886305362 
2240	 0.410821795111082 
2241	 0.410770146721001 
2242	 0.410689869802768 
2243	 0.410632887116499 
2244	 0.410581170794352 
2245	 0.410539957668553 
2246	 0.410527016160724 
2247	 0.410516180369081 
2248	 0.410509876329312 
2249	 0.410513497369973 
2250	 0.410531662131394 
2251	 0.410561707354765 
2252	 0.410576418552807 
2253	 0.410603146775571 
2254	 0.410621523610203 
2255	 0.410603647225222 
2256	 0.410642602590338 
2257	 0.410710868557388 
2258	 0.410775820868402 
2259	 0.410878542529497 
2260	 0.410957081599226 
2261	 0.411022076322951 
2262	 0.41110459937913 
2263	 0.411214687934166 
2264	 0.411278436442959 
2265	 0.411285911173497 
2266	 0.411354511241836 
2267	 0.411419650453268 
2268	 0.411502874106973 
2269	 0.411644693322832 
2270	 0.411794656702317 
2271	 0.411905529084619 
2272	 0.41201944930337 
2273	 0.412131143849943 
2274	 0.412264761474584 
2275	 0.412354038931745 
2276	 0.412402060502436 
2277	 0.412493246200137 
2278	 0.412564965446807 
2279	 0.412690741739618 
2280	 0.41287395132261 
2281	 0.41304086455796 
2282	 0.413247598984481 
2283	 0.413384236867415 
2284	 0.413460137085978 
2285	 0.413605292982845 
2286	 0.413750243918746 
2287	 0.413901060805938 
2288	 0.414127014374058 
2289	 0.414290138166462 
2290	 0.414399694350879 
2291	 0.414521713736032 
2292	 0.414626657519874 
2293	 0.41474684153443 
2294	 0.414864249893332 
2295	 0.414989356602473 
2296	 0.415116051851229 
2297	 0.415267973061517 
2298	 0.415423778079709 
2299	 0.415583863234206 
2300	 0.415758936502587 
2301	 0.415943366080482 
2302	 0.416121470232213 
2303	 0.416274427628832 
2304	 0.416378259265035 
2305	 0.41648337340886 
2306	 0.416566289236785 
2307	 0.416610490087434 
2308	 0.416649347851213 
2309	 0.416684594140656 
2310	 0.416684388277401 
2311	 0.416626431744244 
2312	 0.4166410262567 
2313	 0.416647968839586 
2314	 0.416714531636892 
2315	 0.416854211785276 
2316	 0.416962251269231 
2317	 0.417100788594083 
2318	 0.417214101989466 
2319	 0.417296415408563 
2320	 0.417413070200138 
2321	 0.417557180049578 
2322	 0.417668606433159 
2323	 0.417762493656676 
2324	 0.417883137513524 
2325	 0.418004822908193 
2326	 0.418118352661539 
2327	 0.418239602636797 
2328	 0.41839126553016 
2329	 0.418507936604573 
2330	 0.418610967656915 
2331	 0.418793031856489 
2332	 0.418948138858889 
2333	 0.419039808738119 
2334	 0.419158436042841 
2335	 0.419261669759326 
2336	 0.419373457436652 
2337	 0.419540984762726 
2338	 0.419706212365138 
2339	 0.419879870609017 
2340	 0.420028326453392 
2341	 0.420164940697015 
2342	 0.420335063798996 
2343	 0.420373292954027 
2344	 0.420373603785057 
2345	 0.420392680207296 
2346	 0.420367123192952 
2347	 0.420322302200796 
2348	 0.420296804100508 
2349	 0.420245430691892 
2350	 0.420122524732304 
2351	 0.420074119497496 
2352	 0.420051475896975 
2353	 0.42004298970677 
2354	 0.420050002785705 
2355	 0.42006558180084 
2356	 0.420145923332595 
2357	 0.420160461288466 
2358	 0.420161602602882 
2359	 0.420150670064418 
2360	 0.420066677301657 
2361	 0.420024566665125 
2362	 0.420029643338872 
2363	 0.419972041316127 
2364	 0.41990469634393 
2365	 0.419817611164106 
2366	 0.419643275600043 
2367	 0.419545824273708 
2368	 0.419520781684586 
2369	 0.419424307892584 
2370	 0.419358864275668 
2371	 0.419179775058608 
2372	 0.418952921543156 
2373	 0.418719737363713 
2374	 0.418554299888373 
2375	 0.418513455126642 
2376	 0.41844743578406 
2377	 0.418410952686285 
2378	 0.418285358981166 
2379	 0.418077426960202 
2380	 0.417949339728057 
2381	 0.417785237995543 
2382	 0.417618523424468 
2383	 0.417538550767985 
2384	 0.417403461421637 
2385	 0.417262968572711 
2386	 0.417143019560403 
2387	 0.416941910691848 
2388	 0.416757123707247 
2389	 0.416540404096965 
2390	 0.416322309035168 
2391	 0.416168095698163 
2392	 0.415997848317068 
2393	 0.415891869188663 
2394	 0.415787501268024 
2395	 0.415604074938016 
2396	 0.415383535228057 
2397	 0.415093968028822 
2398	 0.414848983360419 
2399	 0.414703428713008 
2400	 0.414576767212042 
2401	 0.414468657946286 
2402	 0.414305125596935 
2403	 0.414112852408192 
2404	 0.41394003137103 
2405	 0.413784208663804 
2406	 0.413682646615911 
2407	 0.413565253979276 
2408	 0.413365491997162 
2409	 0.413091561112657 
2410	 0.41286336556164 
2411	 0.412608986215901 
2412	 0.412388512642794 
2413	 0.412248085727764 
2414	 0.411985976989321 
2415	 0.411761393205693 
2416	 0.411504760945203 
2417	 0.411143813044355 
2418	 0.41091942783109 
2419	 0.410760587378425 
2420	 0.410589296416935 
2421	 0.410546689546882 
2422	 0.410383839224808 
2423	 0.410138451391836 
2424	 0.409906956401607 
2425	 0.409604696721221 
2426	 0.40939317876181 
2427	 0.409240264955211 
2428	 0.409053173877962 
2429	 0.408911097956277 
2430	 0.408725678279121 
2431	 0.408499720905449 
2432	 0.408273769775971 
2433	 0.408030180618605 
2434	 0.40780615491573 
2435	 0.407557181890063 
2436	 0.40734792646917 
2437	 0.407166850608205 
2438	 0.406965103521972 
2439	 0.406762286462338 
2440	 0.406634318974034 
2441	 0.40655615309294 
2442	 0.406472992925988 
2443	 0.406471128419311 
2444	 0.406349824007443 
2445	 0.406160205822337 
2446	 0.405960838591589 
2447	 0.405677953142324 
2448	 0.405476334983518 
2449	 0.405295854439858 
2450	 0.405115941603451 
2451	 0.404965444175921 
2452	 0.404769126885215 
2453	 0.404600175944319 
2454	 0.404422678230876 
2455	 0.404211775910517 
2456	 0.404060624431375 
2457	 0.403876503438792 
2458	 0.403678873720431 
2459	 0.403501190460589 
2460	 0.403306833938724 
2461	 0.403119482546043 
2462	 0.403001299393987 
2463	 0.402960163023391 
2464	 0.402844821610545 
2465	 0.402703054361361 
2466	 0.402607320652638 
2467	 0.402461265852434 
2468	 0.402313088583253 
2469	 0.402246758604509 
2470	 0.401975342892772 
2471	 0.401799929121698 
2472	 0.401614644142075 
2473	 0.401343664420049 
2474	 0.401056545947315 
2475	 0.400807948194347 
2476	 0.400593352385016 
2477	 0.400529249305849 
2478	 0.400588896643476 
2479	 0.400588266272669 
2480	 0.400548464240547 
2481	 0.400453871309424 
2482	 0.400352151284846 
2483	 0.40011125977643 
2484	 0.399721917672961 
2485	 0.399492006899487 
2486	 0.399205844331315 
2487	 0.398992147610759 
2488	 0.399144728543814 
2489	 0.399123907824595 
2490	 0.398817187847563 
2491	 0.398538136252942 
2492	 0.398052403322473 
2493	 0.397676653053164 
2494	 0.397678437544572 
2495	 0.397522750234018 
2496	 0.397484378180678 
2497	 0.397476324218889 
2498	 0.397169536069735 
2499	 0.397178936154946 
2500	 0.397339285012328 
