Wavelength	LMW100001.asd
350	 8.08306277170189E-02 
351	 8.07538021681447E-02 
352	 7.85069660364517E-02 
353	 7.76300815836868E-02 
354	 7.45428048958901E-02 
355	 7.38277030160287E-02 
356	 0.075658904497098 
357	 7.85471440290915E-02 
358	 8.04803867325885E-02 
359	 8.02327220725471E-02 
360	 7.87051012816041E-02 
361	 7.79772131153947E-02 
362	 0.076996455668496 
363	 7.82254217272993E-02 
364	 8.01879695319646E-02 
365	 7.43646209630903E-02 
366	 7.20975196006948E-02 
367	 7.33445798320819E-02 
368	 7.49572882537465E-02 
369	 7.53220058680857E-02 
370	 7.60875311719627E-02 
371	 7.72793987799926E-02 
372	 7.78676726952525E-02 
373	 7.92464582609777E-02 
374	 8.03477839913891E-02 
375	 0.080352101667676 
376	 7.92487214751384E-02 
377	 7.90606016643995E-02 
378	 8.02399587102356E-02 
379	 8.22834712898549E-02 
380	 8.34692630584994E-02 
381	 0.082886957100611 
382	 8.25835773805805E-02 
383	 8.60182872045285E-02 
384	 8.56424100164416E-02 
385	 8.42292388965923E-02 
386	 8.48723416669194E-02 
387	 8.88351272011382E-02 
388	 8.87247410821043E-02 
389	 8.74111747590723E-02 
390	 8.92966162568445E-02 
391	 8.85777798953281E-02 
392	 8.92725150940843E-02 
393	 9.19647235774713E-02 
394	 9.39711561808028E-02 
395	 0.093451007992336 
396	 9.35299581818586E-02 
397	 9.57339618914598E-02 
398	 9.64500374702007E-02 
399	 9.68480283125288E-02 
400	 0.097448714290115 
401	 9.84894863891858E-02 
402	 9.97646671718561E-02 
403	 0.10080508728283 
404	 0.101383802329022 
405	 0.101583870380637 
406	 0.103108713930045 
407	 0.104640024861335 
408	 0.104937572940682 
409	 0.104369677514774 
410	 0.104290810772243 
411	 0.10493926558895 
412	 0.10598342661726 
413	 0.107647581636711 
414	 0.108518162785712 
415	 0.108404696682541 
416	 0.108776574265708 
417	 0.108863517875277 
418	 0.109248725673063 
419	 0.110202406386074 
420	 0.109877911551083 
421	 0.10988778378674 
422	 0.110472752888653 
423	 0.110898986697976 
424	 0.110392219525124 
425	 0.110057599210805 
426	 0.110359768235876 
427	 0.110206655888079 
428	 0.109923144011357 
429	 0.109856500553142 
430	 0.110182423936715 
431	 0.11017216670239 
432	 0.109838626913088 
433	 0.109479456781704 
434	 0.109581761031028 
435	 0.109607088677546 
436	 0.109525858174834 
437	 0.109419591971632 
438	 0.109359424379191 
439	 0.109417071499302 
440	 0.109725450964467 
441	 0.110348595720506 
442	 0.11058271743852 
443	 0.11098547006425 
444	 0.111652734254961 
445	 0.111792843863497 
446	 0.112078010229376 
447	 0.112707107590801 
448	 0.113569707622857 
449	 0.113887483845592 
450	 0.114345612442304 
451	 0.115036638723454 
452	 0.115525823923272 
453	 0.115909752464581 
454	 0.116332414034678 
455	 0.116835309615869 
456	 0.11717126310169 
457	 0.117588317999954 
458	 0.118025425373752 
459	 0.118307412816878 
460	 0.118535938013688 
461	 0.118803112231909 
462	 0.119089735582608 
463	 0.119215490264663 
464	 0.119662375382891 
465	 0.12012857849021 
466	 0.120258843642762 
467	 0.120395445586515 
468	 0.120673222684824 
469	 0.120938184840851 
470	 0.120854867666116 
471	 0.121011279812509 
472	 0.121285513771642 
473	 0.12150211876738 
474	 0.121653515193394 
475	 0.121835530923824 
476	 0.122020705605323 
477	 0.122136901682339 
478	 0.122208493834135 
479	 0.122425450113536 
480	 0.122697674108341 
481	 0.122523710717915 
482	 0.122790983335665 
483	 0.123221788225092 
484	 0.123354798393593 
485	 0.123391609662096 
486	 0.123529429142164 
487	 0.123694609871211 
488	 0.123620526700867 
489	 0.123750349595535 
490	 0.124027628087196 
491	 0.124297261695682 
492	 0.124397372447866 
493	 0.124403744848544 
494	 0.124460674894864 
495	 0.124690632958036 
496	 0.124749745822557 
497	 0.124885683449304 
498	 0.125135765964991 
499	 0.125138716872492 
500	 0.125257734058556 
501	 0.125374769386867 
502	 0.125338735047159 
503	 0.125499862260357 
504	 0.125636940901703 
505	 0.125700093584181 
506	 0.125809742747587 
507	 0.125923479507975 
508	 0.126081392267169 
509	 0.126280789816743 
510	 0.126377682379806 
511	 0.126392207062308 
512	 0.126390344677971 
513	 0.126462414886639 
514	 0.126655952642419 
515	 0.126815417217353 
516	 0.126860024222734 
517	 0.12685692005619 
518	 0.126978673620271 
519	 0.127151151010618 
520	 0.127242170648179 
521	 0.127309895637484 
522	 0.1274155807511 
523	 0.127520794944566 
524	 0.127488734408305 
525	 0.127588442052719 
526	 0.1277715574514 
527	 0.127923257436482 
528	 0.127958723749305 
529	 0.128030389560791 
530	 0.12813944361278 
531	 0.128196510454145 
532	 0.128314895772158 
533	 0.128478610145897 
534	 0.128650416054761 
535	 0.128789140834095 
536	 0.128929776294005 
537	 0.129001360613732 
538	 0.128949597440292 
539	 0.129104916718027 
540	 0.129282551519852 
541	 0.129391107893893 
542	 0.129517767361805 
543	 0.129639856636386 
544	 0.129772179335097 
545	 0.129923737649368 
546	 0.130052360999236 
547	 0.130131906305987 
548	 0.130218549787178 
549	 0.130426758311906 
550	 0.130625019776225 
551	 0.130788136062737 
552	 0.130939544403404 
553	 0.131181636713646 
554	 0.131369955623816 
555	 0.13152198468574 
556	 0.131735834164057 
557	 0.131988443689666 
558	 0.132277308334608 
559	 0.132584745012556 
560	 0.132868785761109 
561	 0.133088197785111 
562	 0.133318832921857 
563	 0.133642958638477 
564	 0.133920696648772 
565	 0.134231856151416 
566	 0.134620396410373 
567	 0.135074929887784 
568	 0.135463498478272 
569	 0.13585161672167 
570	 0.136317699328235 
571	 0.136804995886339 
572	 0.137344547204035 
573	 0.137901398230623 
574	 0.13839963986449 
575	 0.13891072324106 
576	 0.139433301677725 
577	 0.139962022391586 
578	 0.140503046385567 
579	 0.141111095071349 
580	 0.141804788193337 
581	 0.142577489752476 
582	 0.143399411495837 
583	 0.144187712333557 
584	 0.144914961972504 
585	 0.145638083076065 
586	 0.146386243405419 
587	 0.147111230762276 
588	 0.147772030441716 
589	 0.14847342792283 
590	 0.149185763588981 
591	 0.149925812738077 
592	 0.150750436534319 
593	 0.151478670876905 
594	 0.152221080926012 
595	 0.153070584346369 
596	 0.153911492142804 
597	 0.154848313236623 
598	 0.155849132783265 
599	 0.15680586505738 
600	 0.157640769573895 
601	 0.158422067049695 
602	 0.159176074807298 
603	 0.159820592598002 
604	 0.160441935233965 
605	 0.161108677527361 
606	 0.161839627341663 
607	 0.162437396728252 
608	 0.162994505255068 
609	 0.163569053859831 
610	 0.164158792126169 
611	 0.164746022817219 
612	 0.16532046373403 
613	 0.165876355679353 
614	 0.166436191378387 
615	 0.166891866308401 
616	 0.167288883580038 
617	 0.167762920863904 
618	 0.168136144083261 
619	 0.168493901045733 
620	 0.168888692259301 
621	 0.169214293132143 
622	 0.169514454544107 
623	 0.169830148410304 
624	 0.170188084474877 
625	 0.170508949235416 
626	 0.170796289529453 
627	 0.17106827036682 
628	 0.171351909940728 
629	 0.171630427698652 
630	 0.171905125761443 
631	 0.172178422214435 
632	 0.172440003808013 
633	 0.17267510850128 
634	 0.172899034795112 
635	 0.173150369430106 
636	 0.173417587287769 
637	 0.17366935095762 
638	 0.17388747695832 
639	 0.1740849464188 
640	 0.174345617072025 
641	 0.174638002321084 
642	 0.174882173786989 
643	 0.175115264511734 
644	 0.175335396257827 
645	 0.175561629423346 
646	 0.17584838651311 
647	 0.17611102438693 
648	 0.176355429654488 
649	 0.176615129504907 
650	 0.176919477724969 
651	 0.177200324265396 
652	 0.177450598845997 
653	 0.177720705993487 
654	 0.178059154422942 
655	 0.178373733662652 
656	 0.178622494128074 
657	 0.178953100435721 
658	 0.179302272702483 
659	 0.179648308997302 
660	 0.179987397101159 
661	 0.180326466057971 
662	 0.18063084781543 
663	 0.180912969886812 
664	 0.181257174082207 
665	 0.18163974173322 
666	 0.182040640722874 
667	 0.182437580788822 
668	 0.182799627363918 
669	 0.183178296738959 
670	 0.183575965034029 
671	 0.183956774513956 
672	 0.184399509308736 
673	 0.184836330911665 
674	 0.185234230733454 
675	 0.185704026667403 
676	 0.186196615056244 
677	 0.186645025114631 
678	 0.187006907637171 
679	 0.187462319066078 
680	 0.187969246244379 
681	 0.188495090566094 
682	 0.189047098397606 
683	 0.189550883440797 
684	 0.190033990934756 
685	 0.190539554733701 
686	 0.191047245819563 
687	 0.191633525804169 
688	 0.192241285244138 
689	 0.192732990259793 
690	 0.193234049418012 
691	 0.193813067268679 
692	 0.194452199400067 
693	 0.194975432424726 
694	 0.195555388286153 
695	 0.19617534235122 
696	 0.196770500261587 
697	 0.197418466502186 
698	 0.198016400967482 
699	 0.198571325488696 
700	 0.199212473290076 
701	 0.19989089333593 
702	 0.200546600237521 
703	 0.201136892122284 
704	 0.201659249902292 
705	 0.202260866133835 
706	 0.202945576746856 
707	 0.203628154397436 
708	 0.204220283783943 
709	 0.204815746121405 
710	 0.205479145904342 
711	 0.20620882727265 
712	 0.206777448993121 
713	 0.207305160296691 
714	 0.207944771393761 
715	 0.208551771102687 
716	 0.209176011779166 
717	 0.209795565121907 
718	 0.210344034741468 
719	 0.210919860414766 
720	 0.211493797319859 
721	 0.212032222113051 
722	 0.212526727621101 
723	 0.213070897955741 
724	 0.213628260848581 
725	 0.214129256844129 
726	 0.214589661273421 
727	 0.215041301172083 
728	 0.215471746647688 
729	 0.215832382348566 
730	 0.216261357377607 
731	 0.216688918396642 
732	 0.217051704095296 
733	 0.217395345457381 
734	 0.217740356764894 
735	 0.218031731906484 
736	 0.218212971042496 
737	 0.21842551088159 
738	 0.218642126821661 
739	 0.218835407511569 
740	 0.218992800750212 
741	 0.219138375529405 
742	 0.219237960625012 
743	 0.21928471452724 
744	 0.219381820145565 
745	 0.219441075895854 
746	 0.219447440699319 
747	 0.219423133059118 
748	 0.219386249614923 
749	 0.219290977736956 
750	 0.219160489167869 
751	 0.219103318527933 
752	 0.218957429955021 
753	 0.218772623118945 
754	 0.218613200834364 
755	 0.218439281187131 
756	 0.218211196026069 
757	 0.217960229824327 
758	 0.217747260194099 
759	 0.217548865472127 
760	 0.217292264020343 
761	 0.216967323151673 
762	 0.216646080413721 
763	 0.216347112094881 
764	 0.216013117525625 
765	 0.215616678826651 
766	 0.215272692187582 
767	 0.214920288495481 
768	 0.214567370963463 
769	 0.214235657770633 
770	 0.213795177364779 
771	 0.213355137197246 
772	 0.212964241628123 
773	 0.212573755473105 
774	 0.212179503600432 
775	 0.211776176032705 
776	 0.211357265229357 
777	 0.210904447130032 
778	 0.210475124327731 
779	 0.210079938737222 
780	 0.209694061166502 
781	 0.209239564061508 
782	 0.208757025247229 
783	 0.208298286179279 
784	 0.207910028700294 
785	 0.207505139312962 
786	 0.207060234651159 
787	 0.206601849008582 
788	 0.206247313840597 
789	 0.205842245301536 
790	 0.205392480279586 
791	 0.204961832053673 
792	 0.204558777642139 
793	 0.20420486659019 
794	 0.203853041847827 
795	 0.203409699989509 
796	 0.202949674262915 
797	 0.202542815389722 
798	 0.202194727190295 
799	 0.201799417135054 
800	 0.201405145971848 
801	 0.201040317723445 
802	 0.200706864671886 
803	 0.200327202102013 
804	 0.199959744430754 
805	 0.199623600206882 
806	 0.199303783063647 
807	 0.198940934931805 
808	 0.198578092307022 
809	 0.198240370903394 
810	 0.197912555073138 
811	 0.197616008162998 
812	 0.197305529505824 
813	 0.196965781492687 
814	 0.196706778464236 
815	 0.196409343713734 
816	 0.196090848553553 
817	 0.195813544907605 
818	 0.195545499480875 
819	 0.195293555739454 
820	 0.195058155458652 
821	 0.194831180933224 
822	 0.194596078829715 
823	 0.194328878172088 
824	 0.194042160096377 
825	 0.193806734104913 
826	 0.193560198517095 
827	 0.193341798559326 
828	 0.193176689783675 
829	 0.192959738610345 
830	 0.192737839501682 
831	 0.192550922141677 
832	 0.192417632996708 
833	 0.192268958500321 
834	 0.192034482308273 
835	 0.191774208978192 
836	 0.191652203529465 
837	 0.191546946370389 
838	 0.191423517471951 
839	 0.19126695572494 
840	 0.191069448599703 
841	 0.191006541387859 
842	 0.190965061013259 
843	 0.190818513963262 
844	 0.190669142891543 
845	 0.190548033308974 
846	 0.190446012541501 
847	 0.190348253092235 
848	 0.190350547122939 
849	 0.190286718285079 
850	 0.190149193291365 
851	 0.19006953279068 
852	 0.189977638646658 
853	 0.189937852833454 
854	 0.189951737002118 
855	 0.189909828440603 
856	 0.189859864137137 
857	 0.189827131725586 
858	 0.189816486559307 
859	 0.189792327288677 
860	 0.189766744315089 
861	 0.189748067593425 
862	 0.189747810554452 
863	 0.189796330420167 
864	 0.189818435076485 
865	 0.189836636831725 
866	 0.18991436004202 
867	 0.189933041161772 
868	 0.189926104462748 
869	 0.189933866428892 
870	 0.189985768493319 
871	 0.190088311186192 
872	 0.190167928843632 
873	 0.190204881379029 
874	 0.190284552810084 
875	 0.190390596372287 
876	 0.19049158250555 
877	 0.190562345944717 
878	 0.190593954280925 
879	 0.190751090738119 
880	 0.190945869908076 
881	 0.191048320804348 
882	 0.19117050797824 
883	 0.191303716146287 
884	 0.191429424334571 
885	 0.191538138149295 
886	 0.191711479502126 
887	 0.191862809576108 
888	 0.192004255022847 
889	 0.192230760195103 
890	 0.192497224481019 
891	 0.192674888296137 
892	 0.192781812651765 
893	 0.193015691639235 
894	 0.193224810363911 
895	 0.193407409870819 
896	 0.193600190708485 
897	 0.193853934520545 
898	 0.19414992285813 
899	 0.194459686388758 
900	 0.194742151775816 
901	 0.194926436761817 
902	 0.195129551859662 
903	 0.195369801877461 
904	 0.195640756446328 
905	 0.195996176370632 
906	 0.196331118981369 
907	 0.196641342590028 
908	 0.196958047388471 
909	 0.197196838231277 
910	 0.197486953612845 
911	 0.197860019573981 
912	 0.198256387526218 
913	 0.198541708978611 
914	 0.19893403167805 
915	 0.199394839745834 
916	 0.199679794602931 
917	 0.200114703917913 
918	 0.200542998413266 
919	 0.200891148587558 
920	 0.201253500229228 
921	 0.201678141355801 
922	 0.202139726891717 
923	 0.202595944419653 
924	 0.203009531970418 
925	 0.203445768840061 
926	 0.203905541538373 
927	 0.204369462729756 
928	 0.20480961118668 
929	 0.205271482003846 
930	 0.205756425158214 
931	 0.206273166455484 
932	 0.206880428534403 
933	 0.207435928548646 
934	 0.207943651199834 
935	 0.208463696721302 
936	 0.209073070369627 
937	 0.209700679576024 
938	 0.210229713622821 
939	 0.210636109980072 
940	 0.211234083565723 
941	 0.211900701844913 
942	 0.21258301800536 
943	 0.213258278086102 
944	 0.213923225360134 
945	 0.214527387463103 
946	 0.215097651930058 
947	 0.215689453324274 
948	 0.216293488319036 
949	 0.216998099424778 
950	 0.21774345568998 
951	 0.218432010110081 
952	 0.219197752996275 
953	 0.219934915383797 
954	 0.220632882089539 
955	 0.221334778056404 
956	 0.222018260306779 
957	 0.22276885303897 
958	 0.22357121802497 
959	 0.224355450132018 
960	 0.225155147975261 
961	 0.225913941674129 
962	 0.226678222788919 
963	 0.22752949723118 
964	 0.228331342836766 
965	 0.229171431765815 
966	 0.230052094611642 
967	 0.230919893626745 
968	 0.231828257416605 
969	 0.232636667504934 
970	 0.233386508510904 
971	 0.234221683420599 
972	 0.235054398353442 
973	 0.235915473678239 
974	 0.236814513276842 
975	 0.237743515486965 
976	 0.238710001079718 
977	 0.239676458740759 
978	 0.24060668311056 
979	 0.241489851313139 
980	 0.242426938950431 
981	 0.243336013181518 
982	 0.24418070519734 
983	 0.245010298955275 
984	 0.246106412801317 
985	 0.247056860766519 
986	 0.247886287502528 
987	 0.248865927971454 
988	 0.250005199911581 
989	 0.250989623152787 
990	 0.25185907393173 
991	 0.252813957108213 
992	 0.253794902061628 
993	 0.25467275471351 
994	 0.255553845823909 
995	 0.2565870509309 
996	 0.257645598598531 
997	 0.258568266166485 
998	 0.259429905857484 
999	 0.260388920602473 
1000	 0.261514921563371 
1001	 0.264819708322934 
1002	 0.265708957555652 
1003	 0.266574788585154 
1004	 0.267489282393822 
1005	 0.268465396654648 
1006	 0.269372452858876 
1007	 0.270279241165761 
1008	 0.271158264718382 
1009	 0.271959715472961 
1010	 0.272848473978317 
1011	 0.273779341717847 
1012	 0.274716809480072 
1013	 0.275644742950635 
1014	 0.276453028726469 
1015	 0.277240558939267 
1016	 0.278034510245011 
1017	 0.278859671797394 
1018	 0.279695047077492 
1019	 0.280564325780534 
1020	 0.281399917105316 
1021	 0.282244323299939 
1022	 0.283030287182024 
1023	 0.283779592563376 
1024	 0.28458508456625 
1025	 0.285360904364427 
1026	 0.286145153782168 
1027	 0.286925018512883 
1028	 0.287692134469867 
1029	 0.288492205966652 
1030	 0.289245074797569 
1031	 0.289988775349464 
1032	 0.290753332927505 
1033	 0.291479857113053 
1034	 0.292147777235941 
1035	 0.292866794819637 
1036	 0.293603588291646 
1037	 0.294371019539986 
1038	 0.295134902256582 
1039	 0.295887063062022 
1040	 0.296623002834475 
1041	 0.297337202448125 
1042	 0.298088317291177 
1043	 0.298803788778509 
1044	 0.299513478503785 
1045	 0.30020354199979 
1046	 0.30093597455207 
1047	 0.301668263299452 
1048	 0.302391568024006 
1049	 0.303116437113267 
1050	 0.303808512361057 
1051	 0.304463666798016 
1052	 0.305116825632528 
1053	 0.305782038838572 
1054	 0.306501466007454 
1055	 0.307165419971184 
1056	 0.30778374189819 
1057	 0.308427524392309 
1058	 0.309049992673702 
1059	 0.309655327649994 
1060	 0.310262589033577 
1061	 0.310891639625117 
1062	 0.311456033667403 
1063	 0.312057352171451 
1064	 0.312680326267677 
1065	 0.313331082784915 
1066	 0.313959644645244 
1067	 0.314531729945089 
1068	 0.315063665404675 
1069	 0.315550395797694 
1070	 0.316068937746561 
1071	 0.31657293946683 
1072	 0.317105004438158 
1073	 0.317683953489396 
1074	 0.318237180197309 
1075	 0.318786987074903 
1076	 0.319310962960303 
1077	 0.319872609753406 
1078	 0.32034377654709 
1079	 0.320770921162932 
1080	 0.32127078916774 
1081	 0.321763617789746 
1082	 0.322252413357883 
1083	 0.322763469231549 
1084	 0.323316695616075 
1085	 0.323840996403428 
1086	 0.324355337583024 
1087	 0.324869552540694 
1088	 0.325367603237476 
1089	 0.325903894814291 
1090	 0.326442382354604 
1091	 0.326963945283852 
1092	 0.327522619587711 
1093	 0.328064584556398 
1094	 0.328547015043607 
1095	 0.32902111368214 
1096	 0.32952694822582 
1097	 0.330039409399686 
1098	 0.330567196630222 
1099	 0.3311553440813 
1100	 0.331709666111304 
1101	 0.332210706159626 
1102	 0.332767536281434 
1103	 0.333362652374479 
1104	 0.333940216568357 
1105	 0.334501855436735 
1106	 0.335120136898791 
1107	 0.335700214559112 
1108	 0.336273281382656 
1109	 0.33690857264968 
1110	 0.337527686158144 
1111	 0.338103083125892 
1112	 0.338635030943767 
1113	 0.339211524500412 
1114	 0.339747782984138 
1115	 0.340353495741416 
1116	 0.341064452806208 
1117	 0.341694227480564 
1118	 0.342306392112149 
1119	 0.342902208571196 
1120	 0.343501354654665 
1121	 0.344108157358152 
1122	 0.344752076899686 
1123	 0.345413908313611 
1124	 0.346050113441305 
1125	 0.346670480531971 
1126	 0.347299928611488 
1127	 0.34791753772572 
1128	 0.348554946672761 
1129	 0.349212082219997 
1130	 0.349848132343225 
1131	 0.350486751157939 
1132	 0.351124482152006 
1133	 0.351757315635801 
1134	 0.352377226558053 
1135	 0.352986441667947 
1136	 0.353597427840176 
1137	 0.354235094943884 
1138	 0.354836971948774 
1139	 0.355443792446532 
1140	 0.35607261461577 
1141	 0.356673331667084 
1142	 0.357245236392811 
1143	 0.357824542095837 
1144	 0.358398347964152 
1145	 0.3589746043393 
1146	 0.359550829260233 
1147	 0.360117371274779 
1148	 0.360687028388597 
1149	 0.361248083002235 
1150	 0.36178944496144 
1151	 0.36234165337939 
1152	 0.362886186013047 
1153	 0.363422731060632 
1154	 0.363964192573334 
1155	 0.364507444582032 
1156	 0.365030645665496 
1157	 0.365554482041356 
1158	 0.366066343094632 
1159	 0.36656157075171 
1160	 0.367053907855332 
1161	 0.367543572361788 
1162	 0.36802409609983 
1163	 0.368491041603767 
1164	 0.3689554425008 
1165	 0.369411370722833 
1166	 0.369882270254425 
1167	 0.370323300191146 
1168	 0.370763445097332 
1169	 0.371176784280871 
1170	 0.371552275375537 
1171	 0.371966314127305 
1172	 0.372395617072447 
1173	 0.372792047702044 
1174	 0.373193264010067 
1175	 0.373586367227116 
1176	 0.373950287209054 
1177	 0.374316954340039 
1178	 0.374693967597336 
1179	 0.375062403525132 
1180	 0.375418270954196 
1181	 0.375767423716806 
1182	 0.376116264249286 
1183	 0.376463649905356 
1184	 0.376796754287304 
1185	 0.377120716419104 
1186	 0.377424129728015 
1187	 0.377704922156786 
1188	 0.378004958205352 
1189	 0.378285593207139 
1190	 0.378589572784761 
1191	 0.378930790000963 
1192	 0.37924113602608 
1193	 0.379553363976521 
1194	 0.37984253553276 
1195	 0.380092555566301 
1196	 0.380368821008405 
1197	 0.380657054321105 
1198	 0.380926615962544 
1199	 0.381193059402545 
1200	 0.381476785724322 
1201	 0.381725793325008 
1202	 0.381947485808234 
1203	 0.382170657670034 
1204	 0.382376190521349 
1205	 0.3825997138966 
1206	 0.382815763323793 
1207	 0.383044741829292 
1208	 0.383309590603977 
1209	 0.383534342400516 
1210	 0.383746011219832 
1211	 0.383949983231446 
1212	 0.384113359927906 
1213	 0.384304957465216 
1214	 0.38450602497335 
1215	 0.384710435689293 
1216	 0.384922210007609 
1217	 0.385159962708655 
1218	 0.385356921274713 
1219	 0.385534684456916 
1220	 0.385729176536674 
1221	 0.385912572924028 
1222	 0.386100136427479 
1223	 0.386309660940069 
1224	 0.38649508638243 
1225	 0.386656646233645 
1226	 0.386830387999214 
1227	 0.387010217609254 
1228	 0.387178540075961 
1229	 0.387340746800078 
1230	 0.387505398980965 
1231	 0.387655174004034 
1232	 0.387816984597772 
1233	 0.387985264881409 
1234	 0.388166268685544 
1235	 0.388335064910312 
1236	 0.388516272457204 
1237	 0.388665969857023 
1238	 0.388799809234021 
1239	 0.388929777830539 
1240	 0.389041210312707 
1241	 0.389153018698034 
1242	 0.389247152432439 
1243	 0.389363537714104 
1244	 0.389479624590337 
1245	 0.389607495450566 
1246	 0.389767071034505 
1247	 0.38990882075993 
1248	 0.390050744003361 
1249	 0.390180553631925 
1250	 0.39030411953181 
1251	 0.390431463681171 
1252	 0.390563259380165 
1253	 0.390696628951603 
1254	 0.390830097916667 
1255	 0.390968219537179 
1256	 0.391104388023955 
1257	 0.391255437405488 
1258	 0.391372881273232 
1259	 0.391475310495073 
1260	 0.391575248954291 
1261	 0.3916410600448 
1262	 0.391726120859722 
1263	 0.391819590943911 
1264	 0.3919158830558 
1265	 0.392015633413619 
1266	 0.392119215985557 
1267	 0.392237288340223 
1268	 0.392332143949893 
1269	 0.392455764528261 
1270	 0.392580576566051 
1271	 0.392734732179889 
1272	 0.39292312778443 
1273	 0.393088097795833 
1274	 0.393263139730215 
1275	 0.393428845257373 
1276	 0.393581582710475 
1277	 0.393741566351562 
1278	 0.393918140167664 
1279	 0.3940694545223 
1280	 0.394208346306479 
1281	 0.39433799617142 
1282	 0.394448645688655 
1283	 0.394561735296009 
1284	 0.394677486439802 
1285	 0.394783120800058 
1286	 0.394857024720139 
1287	 0.394917397168237 
1288	 0.3949553205919 
1289	 0.394951858010852 
1290	 0.394967755000918 
1291	 0.394983870640388 
1292	 0.394979990731759 
1293	 0.394978654135948 
1294	 0.394943969320031 
1295	 0.394882841737076 
1296	 0.394814858324966 
1297	 0.394711193703245 
1298	 0.394627014261628 
1299	 0.394560201665588 
1300	 0.394459846313976 
1301	 0.394330868177114 
1302	 0.394224716407247 
1303	 0.394103708925042 
1304	 0.393996410048487 
1305	 0.393898938393071 
1306	 0.393806100564385 
1307	 0.393699551515927 
1308	 0.393572688139851 
1309	 0.393487594240559 
1310	 0.393425435384473 
1311	 0.393366005626466 
1312	 0.393337527047237 
1313	 0.393279950114621 
1314	 0.393199082920803 
1315	 0.393154799038035 
1316	 0.393112090994385 
1317	 0.393086678870608 
1318	 0.393084277972179 
1319	 0.393094106808341 
1320	 0.393122164678541 
1321	 0.393143585295471 
1322	 0.393181296552084 
1323	 0.393218217437886 
1324	 0.393228738726284 
1325	 0.393243083815765 
1326	 0.393269253223948 
1327	 0.393316137531222 
1328	 0.39339563777694 
1329	 0.39348791552688 
1330	 0.393584636733581 
1331	 0.393709093256525 
1332	 0.393804146731489 
1333	 0.393884358551443 
1334	 0.393984431575653 
1335	 0.394067337932776 
1336	 0.394190276407488 
1337	 0.394358315264522 
1338	 0.394494486198272 
1339	 0.394627941181448 
1340	 0.394767092135661 
1341	 0.394897415176463 
1342	 0.395032024328136 
1343	 0.395167362948032 
1344	 0.395327306694835 
1345	 0.395479358208408 
1346	 0.395618833294523 
1347	 0.395755149079076 
1348	 0.395900827214356 
1349	 0.396050219266378 
1350	 0.396187012333528 
1351	 0.396323976326581 
1352	 0.396466409158234 
1353	 0.396604657182272 
1354	 0.39672683724639 
1355	 0.396865616782993 
1356	 0.397020714792966 
1357	 0.397164940417153 
1358	 0.397325571539917 
1359	 0.397456299955787 
1360	 0.397567094482454 
1361	 0.397670527702465 
1362	 0.397749494924148 
1363	 0.397834382373685 
1364	 0.397903873595446 
1365	 0.398002468179796 
1366	 0.398117560773922 
1367	 0.3982224034395 
1368	 0.398364602049214 
1369	 0.398488080426481 
1370	 0.398593194122444 
1371	 0.398708370789149 
1372	 0.398802703184808 
1373	 0.398894592805143 
1374	 0.398979698674252 
1375	 0.399061883825841 
1376	 0.39913071094582 
1377	 0.399189270137859 
1378	 0.399247744277932 
1379	 0.399310282560916 
1380	 0.399347251385481 
1381	 0.399368804828406 
1382	 0.399382663527934 
1383	 0.39938454696164 
1384	 0.399366337851795 
1385	 0.399345870931211 
1386	 0.399300573949136 
1387	 0.399229106654454 
1388	 0.399143499155945 
1389	 0.399044529625185 
1390	 0.398924610339412 
1391	 0.398787410614474 
1392	 0.398626499475775 
1393	 0.398443855302773 
1394	 0.398256408378294 
1395	 0.398036248906111 
1396	 0.397814190576487 
1397	 0.39758171396146 
1398	 0.39732412799169 
1399	 0.397077023473667 
1400	 0.396827058875727 
1401	 0.396584783821151 
1402	 0.396337342087576 
1403	 0.396119981050868 
1404	 0.395915249720287 
1405	 0.39571657230864 
1406	 0.395536290733945 
1407	 0.395358119955509 
1408	 0.395162268552872 
1409	 0.395018082530378 
1410	 0.394896652753535 
1411	 0.394804656200207 
1412	 0.394745699944714 
1413	 0.3947199638625 
1414	 0.394707875141022 
1415	 0.3947065126321 
1416	 0.39474212465396 
1417	 0.3947927844158 
1418	 0.394842032449643 
1419	 0.394914851383187 
1420	 0.395000234549251 
1421	 0.395079156025523 
1422	 0.395167568888812 
1423	 0.395241790911792 
1424	 0.395290353701351 
1425	 0.395317118401755 
1426	 0.395331775607777 
1427	 0.395317095965753 
1428	 0.395318301488045 
1429	 0.395309568494258 
1430	 0.395309919822886 
1431	 0.395317878523829 
1432	 0.395322240357913 
1433	 0.395324957990715 
1434	 0.395328382186005 
1435	 0.395339810402396 
1436	 0.395342909504675 
1437	 0.395347944627711 
1438	 0.39533805616267 
1439	 0.395316558515745 
1440	 0.395288554746088 
1441	 0.395255595644687 
1442	 0.395222659757391 
1443	 0.395224956840481 
1444	 0.395224574007769 
1445	 0.395200192967045 
1446	 0.395209216103999 
1447	 0.395202545503054 
1448	 0.395183283755076 
1449	 0.395196880887051 
1450	 0.395208103854258 
1451	 0.395214690766855 
1452	 0.395226476742906 
1453	 0.395218457618773 
1454	 0.395199029513853 
1455	 0.395181194185545 
1456	 0.395139008030522 
1457	 0.395127448936524 
1458	 0.39514155867172 
1459	 0.395128910260595 
1460	 0.395112555631821 
1461	 0.395104452158631 
1462	 0.395078317484911 
1463	 0.395072176239791 
1464	 0.395081159962558 
1465	 0.395097396994446 
1466	 0.395120562313629 
1467	 0.39514987154212 
1468	 0.395187382136254 
1469	 0.395236948564995 
1470	 0.395298502821768 
1471	 0.395356804266643 
1472	 0.395427989307291 
1473	 0.395512611308094 
1474	 0.395575964006196 
1475	 0.395649695659532 
1476	 0.395697673084662 
1477	 0.395734586788404 
1478	 0.39578294811761 
1479	 0.395823532735192 
1480	 0.395905555290188 
1481	 0.396005079128241 
1482	 0.396091997481336 
1483	 0.396187110675735 
1484	 0.396277271938729 
1485	 0.396360348182058 
1486	 0.396445553709403 
1487	 0.396538343749183 
1488	 0.396622665575319 
1489	 0.396704426556298 
1490	 0.396776161684629 
1491	 0.396837966671687 
1492	 0.396903517759008 
1493	 0.396951911719797 
1494	 0.397020356087656 
1495	 0.397113617321112 
1496	 0.397185809955708 
1497	 0.397259752973722 
1498	 0.397325549866121 
1499	 0.397362895407689 
1500	 0.397421735872638 
1501	 0.39748907275482 
1502	 0.397560287443712 
1503	 0.397644666158022 
1504	 0.397725685766234 
1505	 0.39780602545042 
1506	 0.397876623628893 
1507	 0.397931390732715 
1508	 0.397988466015004 
1509	 0.398045805360144 
1510	 0.398107197188118 
1511	 0.39816851361517 
1512	 0.39822975851915 
1513	 0.398289912340139 
1514	 0.398346046614061 
1515	 0.398404452816155 
1516	 0.398465292283483 
1517	 0.398524389323824 
1518	 0.398584519844159 
1519	 0.398632922360244 
1520	 0.398672509957197 
1521	 0.398725241071084 
1522	 0.398774520720844 
1523	 0.398828674019007 
1524	 0.398903372395465 
1525	 0.398952265204795 
1526	 0.398982872208364 
1527	 0.399021481647702 
1528	 0.399049771611435 
1529	 0.39908988707648 
1530	 0.399135675411046 
1531	 0.399189470067826 
1532	 0.399258155685606 
1533	 0.399311803495932 
1534	 0.399368348979427 
1535	 0.399413409182028 
1536	 0.399432973882529 
1537	 0.399473631583005 
1538	 0.399513638284362 
1539	 0.399572249488728 
1540	 0.399654692720237 
1541	 0.399727183046337 
1542	 0.399821152148585 
1543	 0.39988729410939 
1544	 0.399935627713907 
1545	 0.399985961503007 
1546	 0.40002318025757 
1547	 0.400054192367952 
1548	 0.40009521088162 
1549	 0.400118523248146 
1550	 0.40015707500222 
1551	 0.400186361501049 
1552	 0.400230819122707 
1553	 0.400292105971403 
1554	 0.400328766093053 
1555	 0.400374428326799 
1556	 0.400411883159684 
1557	 0.400443184153899 
1558	 0.400502633785988 
1559	 0.400554234591601 
1560	 0.4005998546097 
1561	 0.40064795624525 
1562	 0.400684442044049 
1563	 0.400716053138496 
1564	 0.400732824770678 
1565	 0.40072921917314 
1566	 0.400754059116196 
1567	 0.40077352500626 
1568	 0.400801011335999 
1569	 0.400857665913248 
1570	 0.40089326322905 
1571	 0.400907885144465 
1572	 0.400948748560688 
1573	 0.401000109681359 
1574	 0.401046271631583 
1575	 0.401111057508441 
1576	 0.401150220749398 
1577	 0.401177065631197 
1578	 0.401205307466153 
1579	 0.401217319025317 
1580	 0.401241867869015 
1581	 0.401273864133603 
1582	 0.401294358119768 
1583	 0.401304843711868 
1584	 0.401332489024002 
1585	 0.401357883399456 
1586	 0.401396724156108 
1587	 0.40146627442904 
1588	 0.401511080291297 
1589	 0.401544777261389 
1590	 0.401583501867753 
1591	 0.401607573761246 
1592	 0.401648192845305 
1593	 0.401707510393113 
1594	 0.401756442674878 
1595	 0.401812363339218 
1596	 0.401856615057425 
1597	 0.401890612654724 
1598	 0.401923051101969 
1599	 0.401944537584252 
1600	 0.401970301765162 
1601	 0.402003843607181 
1602	 0.402023670186873 
1603	 0.40202669088071 
1604	 0.402049233234351 
1605	 0.402067010784292 
1606	 0.402092807213056 
1607	 0.402137776834612 
1608	 0.402183524477745 
1609	 0.402227865780035 
1610	 0.402283072190947 
1611	 0.402328382690674 
1612	 0.402381383469758 
1613	 0.402424922555551 
1614	 0.402444253946957 
1615	 0.402463680408971 
1616	 0.402487503859651 
1617	 0.402490729958853 
1618	 0.402503022262627 
1619	 0.40252490744445 
1620	 0.402525325380775 
1621	 0.40254693812363 
1622	 0.402576657264222 
1623	 0.402616071718171 
1624	 0.402665666730052 
1625	 0.402714154685264 
1626	 0.402780404577608 
1627	 0.402812914704128 
1628	 0.402833276089614 
1629	 0.402847951488104 
1630	 0.40284217150061 
1631	 0.402845023344739 
1632	 0.402838833897101 
1633	 0.402860291102596 
1634	 0.402887902326156 
1635	 0.402926236297429 
1636	 0.403000456750172 
1637	 0.403031048152123 
1638	 0.403039828206202 
1639	 0.403068445972884 
1640	 0.403086440059491 
1641	 0.40311594837869 
1642	 0.403163130875071 
1643	 0.4032029539585 
1644	 0.403236619249105 
1645	 0.403275949582365 
1646	 0.40332887407523 
1647	 0.40336218912891 
1648	 0.403378905644081 
1649	 0.403414542331649 
1650	 0.403459106592468 
1651	 0.403483412733981 
1652	 0.403501348324545 
1653	 0.403533973495412 
1654	 0.403555112656454 
1655	 0.403585721915227 
1656	 0.403637103136949 
1657	 0.403684169436539 
1658	 0.403724399749935 
1659	 0.403766399222798 
1660	 0.403822459672565 
1661	 0.403867258968768 
1662	 0.403899881243499 
1663	 0.403936003878606 
1664	 0.403976797665038 
1665	 0.40400967812597 
1666	 0.404042526458337 
1667	 0.404058250579776 
1668	 0.404056272381997 
1669	 0.404068746038885 
1670	 0.404065685452748 
1671	 0.404087129713116 
1672	 0.404136847835688 
1673	 0.404167391438894 
1674	 0.404196768088843 
1675	 0.404228340216183 
1676	 0.404255088388384 
1677	 0.404283451762432 
1678	 0.404312797600173 
1679	 0.404347799200807 
1680	 0.404381358802859 
1681	 0.404420841366722 
1682	 0.404475573966176 
1683	 0.404515483058223 
1684	 0.404545895820209 
1685	 0.404584920120177 
1686	 0.404618768349443 
1687	 0.404663987475797 
1688	 0.404731549825578 
1689	 0.404770200648015 
1690	 0.404796795103179 
1691	 0.40482738424658 
1692	 0.404826433623564 
1693	 0.404869736545483 
1694	 0.404947759901645 
1695	 0.405006033668011 
1696	 0.405094370833524 
1697	 0.405135904282542 
1698	 0.405136747305777 
1699	 0.405156128400719 
1700	 0.405162286730969 
1701	 0.405174939289174 
1702	 0.405197396908483 
1703	 0.405215429370701 
1704	 0.40521814937005 
1705	 0.405241189572288 
1706	 0.405280715769906 
1707	 0.40531222007321 
1708	 0.405345484413293 
1709	 0.405387491532481 
1710	 0.405437981793333 
1711	 0.405469542553808 
1712	 0.405495334844832 
1713	 0.405535050989529 
1714	 0.405563251996743 
1715	 0.405607013740844 
1716	 0.405688098877132 
1717	 0.405726660583283 
1718	 0.405745163574395 
1719	 0.40576090137082 
1720	 0.405763185702902 
1721	 0.40575451978983 
1722	 0.405731922000323 
1723	 0.405715677335968 
1724	 0.405689389387253 
1725	 0.405670601128447 
1726	 0.405657338598311 
1727	 0.405646092096668 
1728	 0.405626948192983 
1729	 0.405627416891869 
1730	 0.405647095856655 
1731	 0.405658430366589 
1732	 0.405679189557818 
1733	 0.405684257875027 
1734	 0.405682323627067 
1735	 0.405670354012138 
1736	 0.405653717087644 
1737	 0.405619010263971 
1738	 0.405560944836502 
1739	 0.405527315250059 
1740	 0.405493336359346 
1741	 0.405470417330995 
1742	 0.405457653008924 
1743	 0.405450861125197 
1744	 0.405446996992771 
1745	 0.40544555689873 
1746	 0.405463117904907 
1747	 0.405459171762504 
1748	 0.405434530642918 
1749	 0.405415224643577 
1750	 0.405427233667363 
1751	 0.405438156793226 
1752	 0.405410938187576 
1753	 0.40537557599636 
1754	 0.405356581251514 
1755	 0.405340339421975 
1756	 0.405348120198441 
1757	 0.405359287552255 
1758	 0.405351908038546 
1759	 0.4053346573662 
1760	 0.405313091092731 
1761	 0.405286329190077 
1762	 0.40523923575575 
1763	 0.405179421394436 
1764	 0.405154597619293 
1765	 0.405162223961513 
1766	 0.40516553888058 
1767	 0.405183567568513 
1768	 0.405205690674849 
1769	 0.405222650173786 
1770	 0.405251623557895 
1771	 0.405305523049203 
1772	 0.4053507061212 
1773	 0.405337329989778 
1774	 0.405333817541426 
1775	 0.40534115461447 
1776	 0.405324944219094 
1777	 0.405355913494416 
1778	 0.405394844492253 
1779	 0.405409172713574 
1780	 0.405458182763577 
1781	 0.405503831965073 
1782	 0.405517343595367 
1783	 0.405488820667716 
1784	 0.405484928289668 
1785	 0.405496928406659 
1786	 0.405492667099101 
1787	 0.40549154844944 
1788	 0.405493795381265 
1789	 0.405460986290769 
1790	 0.405455235104232 
1791	 0.405475810448872 
1792	 0.405512576842971 
1793	 0.40555482876948 
1794	 0.405618034020528 
1795	 0.40572724440763 
1796	 0.405787076200785 
1797	 0.405837993991429 
1798	 0.405875853051934 
1799	 0.40589337431757 
1800	 0.405905133973441 
1801	 0.410413195777417 
1802	 0.410387340480641 
1803	 0.410354346103934 
1804	 0.410322165559146 
1805	 0.410304670763153 
1806	 0.410319728852487 
1807	 0.410352314122007 
1808	 0.410373974771978 
1809	 0.410380459313108 
1810	 0.410403095081895 
1811	 0.410440479363601 
1812	 0.410483064014616 
1813	 0.41047655366138 
1814	 0.410474738907471 
1815	 0.410483157734667 
1816	 0.410459937021132 
1817	 0.410471638616288 
1818	 0.410542154119928 
1819	 0.410559164291744 
1820	 0.410558894704917 
1821	 0.410553666921414 
1822	 0.410546555773019 
1823	 0.41051729426715 
1824	 0.410490752496132 
1825	 0.410494589414169 
1826	 0.410479837819141 
1827	 0.41044823143054 
1828	 0.410427590065403 
1829	 0.410418267568242 
1830	 0.410388981184222 
1831	 0.410347958061748 
1832	 0.410315004201308 
1833	 0.410278819160441 
1834	 0.410242986431317 
1835	 0.41024962075246 
1836	 0.410260616898274 
1837	 0.41024427447293 
1838	 0.410236690081691 
1839	 0.410242428508484 
1840	 0.410249515830556 
1841	 0.410251321179472 
1842	 0.410241681257538 
1843	 0.410239363105551 
1844	 0.410214926157885 
1845	 0.410182895503377 
1846	 0.410217032605931 
1847	 0.410248523115196 
1848	 0.410261501698586 
1849	 0.410309972360885 
1850	 0.410337744387147 
1851	 0.410359978548636 
1852	 0.410361535988651 
1853	 0.410363688238978 
1854	 0.410349198591479 
1855	 0.410329842798994 
1856	 0.410333737149015 
1857	 0.41034204384725 
1858	 0.41031450311706 
1859	 0.410279825789247 
1860	 0.410252609747647 
1861	 0.410218244594771 
1862	 0.410184372359194 
1863	 0.410165964525226 
1864	 0.410112467943958 
1865	 0.410023509507943 
1866	 0.409935436147433 
1867	 0.40984371667084 
1868	 0.409764559455362 
1869	 0.409711521135304 
1870	 0.409657463192261 
1871	 0.40957287359013 
1872	 0.409476794685055 
1873	 0.409361189376211 
1874	 0.409207209239599 
1875	 0.409016752255301 
1876	 0.408819681502832 
1877	 0.408603542403317 
1878	 0.408356987798458 
1879	 0.408109835475849 
1880	 0.40781897969258 
1881	 0.407488615482983 
1882	 0.407130298045505 
1883	 0.406753685276439 
1884	 0.406316754706805 
1885	 0.40585060893112 
1886	 0.405376265349965 
1887	 0.404863935479406 
1888	 0.404322497744532 
1889	 0.403769404429448 
1890	 0.403209842372646 
1891	 0.402608185370057 
1892	 0.401968420553476 
1893	 0.401321624762885 
1894	 0.400653667264546 
1895	 0.399930895947934 
1896	 0.399228387986297 
1897	 0.398571700105573 
1898	 0.397898025243194 
1899	 0.397286180186996 
1900	 0.396719054021658 
1901	 0.396183257983699 
1902	 0.395688191489188 
1903	 0.395271646981039 
1904	 0.394826317896452 
1905	 0.394395269781087 
1906	 0.393976676238394 
1907	 0.393555262446479 
1908	 0.393170584111849 
1909	 0.392824280655015 
1910	 0.392500454901434 
1911	 0.392206877910861 
1912	 0.391890763888637 
1913	 0.391578516191626 
1914	 0.391261605411206 
1915	 0.390958073290542 
1916	 0.39064121239382 
1917	 0.390363764016794 
1918	 0.390114375171376 
1919	 0.389865315409343 
1920	 0.389625121642721 
1921	 0.389395509553276 
1922	 0.389190815542204 
1923	 0.389018555644516 
1924	 0.388881234651775 
1925	 0.388805054780101 
1926	 0.388719698037637 
1927	 0.388649216208091 
1928	 0.388601321153008 
1929	 0.388554159311946 
1930	 0.388516636895934 
1931	 0.388495849017873 
1932	 0.388463079559052 
1933	 0.388427156048061 
1934	 0.388375120788971 
1935	 0.388346272333524 
1936	 0.388309026782386 
1937	 0.3883035034879 
1938	 0.388317422552518 
1939	 0.388357803094684 
1940	 0.388423160012612 
1941	 0.388498548231426 
1942	 0.388591626824368 
1943	 0.388712685218925 
1944	 0.388839117153582 
1945	 0.388954745638266 
1946	 0.389087396959222 
1947	 0.389237043631865 
1948	 0.389378242387359 
1949	 0.389514057479388 
1950	 0.38967619069481 
1951	 0.389857813396992 
1952	 0.390020827153697 
1953	 0.390208130192251 
1954	 0.390404933838224 
1955	 0.390576970363683 
1956	 0.39074147246554 
1957	 0.390914839834916 
1958	 0.391080105417092 
1959	 0.391256993462447 
1960	 0.3914456070161 
1961	 0.391634535217593 
1962	 0.391835978711003 
1963	 0.392024744956141 
1964	 0.392194987839784 
1965	 0.392384481478397 
1966	 0.392591404875319 
1967	 0.392823281500709 
1968	 0.393051676805139 
1969	 0.393310559435433 
1970	 0.393547279799275 
1971	 0.393778488289391 
1972	 0.39399870602437 
1973	 0.394216769650188 
1974	 0.394430776619755 
1975	 0.394624108515415 
1976	 0.394825013716191 
1977	 0.39505214066672 
1978	 0.39528167757634 
1979	 0.395507601057204 
1980	 0.395734173979393 
1981	 0.395969513931597 
1982	 0.396195512982152 
1983	 0.396441395722114 
1984	 0.396711354381511 
1985	 0.39697159238069 
1986	 0.397231108645853 
1987	 0.397497608402276 
1988	 0.397764168829255 
1989	 0.398042777226914 
1990	 0.398322170506764 
1991	 0.398598988867089 
1992	 0.398888805648741 
1993	 0.399190500667769 
1994	 0.399477986872252 
1995	 0.399779937719103 
1996	 0.400059865892961 
1997	 0.400325391169208 
1998	 0.400581719761713 
1999	 0.400813851608692 
2000	 0.401061296248906 
2001	 0.401304765878187 
2002	 0.401550607601814 
2003	 0.401807764469219 
2004	 0.402057467046228 
2005	 0.40232516863945 
2006	 0.4026056649608 
2007	 0.402873942903515 
2008	 0.403161032831721 
2009	 0.403423171657825 
2010	 0.403640955943816 
2011	 0.40389874239299 
2012	 0.404168311158871 
2013	 0.404441248945632 
2014	 0.404725448436072 
2015	 0.405029725242317 
2016	 0.405333623382741 
2017	 0.405638411167557 
2018	 0.405933497657898 
2019	 0.406238663054824 
2020	 0.406525092446593 
2021	 0.406788261813996 
2022	 0.407062808339569 
2023	 0.407339531554726 
2024	 0.407611184943667 
2025	 0.407897950304738 
2026	 0.408154163948358 
2027	 0.408386688582829 
2028	 0.408622405731061 
2029	 0.408850378203542 
2030	 0.40904839934541 
2031	 0.409277397554421 
2032	 0.40951666326434 
2033	 0.409759900077534 
2034	 0.410018452783788 
2035	 0.410265761183973 
2036	 0.410532472858788 
2037	 0.410763912476115 
2038	 0.410973052671362 
2039	 0.4111799332005 
2040	 0.411362492169213 
2041	 0.411542964672152 
2042	 0.411753205847112 
2043	 0.411947051120109 
2044	 0.412129352905688 
2045	 0.412308848202215 
2046	 0.41248435498356 
2047	 0.41264250287146 
2048	 0.412801240176328 
2049	 0.41296682371419 
2050	 0.413118840184445 
2051	 0.413239571019038 
2052	 0.413389624680013 
2053	 0.413553386772963 
2054	 0.413712750925303 
2055	 0.413879753604195 
2056	 0.414058712878164 
2057	 0.414221409586791 
2058	 0.414382115538216 
2059	 0.414523388683899 
2060	 0.414653506495203 
2061	 0.414779024682137 
2062	 0.414872790978053 
2063	 0.414995501020807 
2064	 0.415125260412871 
2065	 0.415263561074061 
2066	 0.415423100274153 
2067	 0.415574049838919 
2068	 0.415733864927236 
2069	 0.41587490214464 
2070	 0.416031339957366 
2071	 0.416193672988658 
2072	 0.416342434579534 
2073	 0.416487349314329 
2074	 0.416640516618874 
2075	 0.416784896518123 
2076	 0.416935961570737 
2077	 0.417094042387396 
2078	 0.417261403568769 
2079	 0.417429389483045 
2080	 0.417603108959614 
2081	 0.417809295954913 
2082	 0.417986555735747 
2083	 0.418147334625944 
2084	 0.418299793591196 
2085	 0.418471438568882 
2086	 0.418652506550153 
2087	 0.41879921867074 
2088	 0.418948877353535 
2089	 0.419082434873632 
2090	 0.419168426944645 
2091	 0.419283889126815 
2092	 0.419406460943388 
2093	 0.419540629564799 
2094	 0.419685711088271 
2095	 0.419825736413538 
2096	 0.419983747468938 
2097	 0.420127944900879 
2098	 0.420252549947867 
2099	 0.420383720183243 
2100	 0.420528838089197 
2101	 0.420669786627057 
2102	 0.420841266653336 
2103	 0.421044350605497 
2104	 0.421227530143728 
2105	 0.421425968065369 
2106	 0.421610144521056 
2107	 0.421780100415558 
2108	 0.421953459952871 
2109	 0.422121473159413 
2110	 0.422297456085887 
2111	 0.422477382581839 
2112	 0.422654063175271 
2113	 0.422832177324119 
2114	 0.423011935687873 
2115	 0.423200409618932 
2116	 0.42338153818386 
2117	 0.423590370771778 
2118	 0.423818341866587 
2119	 0.424050043404833 
2120	 0.424316610808508 
2121	 0.424537335179365 
2122	 0.424744293552074 
2123	 0.42495109957472 
2124	 0.425137102245195 
2125	 0.42532003566781 
2126	 0.425521222220456 
2127	 0.425687625988845 
2128	 0.425823216633252 
2129	 0.425953325584651 
2130	 0.426069037328888 
2131	 0.426174775213708 
2132	 0.426254955145273 
2133	 0.426324046726499 
2134	 0.426363559224282 
2135	 0.426372196416425 
2136	 0.426372017064837 
2137	 0.426348994107475 
2138	 0.426321276112537 
2139	 0.426292946129053 
2140	 0.426225951018011 
2141	 0.426130647654946 
2142	 0.426029294436705 
2143	 0.42589498043612 
2144	 0.425758920027573 
2145	 0.425635456709138 
2146	 0.425477608101591 
2147	 0.425270925197119 
2148	 0.425086711519436 
2149	 0.424893640896298 
2150	 0.424678914076245 
2151	 0.42448208954782 
2152	 0.424316198339383 
2153	 0.424098739050881 
2154	 0.423871644927874 
2155	 0.423613934231301 
2156	 0.42330991011558 
2157	 0.423018501716837 
2158	 0.422725509271873 
2159	 0.42240693764608 
2160	 0.422086447744028 
2161	 0.421736379531089 
2162	 0.421346272400179 
2163	 0.42095408095443 
2164	 0.420535392840053 
2165	 0.420119741288334 
2166	 0.419716424881021 
2167	 0.419312622722451 
2168	 0.41890986016601 
2169	 0.418512807815907 
2170	 0.418123190859197 
2171	 0.417737612890816 
2172	 0.4173501479971 
2173	 0.41697582134889 
2174	 0.416590816574624 
2175	 0.41619249702161 
2176	 0.415797556511309 
2177	 0.415416784958472 
2178	 0.415013815062939 
2179	 0.414598517945503 
2180	 0.414178688949663 
2181	 0.413742264001587 
2182	 0.413304046386149 
2183	 0.412858603152247 
2184	 0.412412810444296 
2185	 0.411969994554929 
2186	 0.411511414725066 
2187	 0.411088775973222 
2188	 0.41067937997354 
2189	 0.410281384501053 
2190	 0.409897815340344 
2191	 0.409538954543559 
2192	 0.409185566168605 
2193	 0.408869239097477 
2194	 0.408597215275592 
2195	 0.408320872111281 
2196	 0.408053494069112 
2197	 0.407813416528456 
2198	 0.407591289122559 
2199	 0.407384900914867 
2200	 0.407198048935789 
2201	 0.407036359488545 
2202	 0.406904775004066 
2203	 0.406762443184292 
2204	 0.406664709508587 
2205	 0.406593809269568 
2206	 0.406561827869298 
2207	 0.406570126600855 
2208	 0.406580107664406 
2209	 0.406627149597893 
2210	 0.406676133503582 
2211	 0.406727048439914 
2212	 0.406792085137207 
2213	 0.406891054091555 
2214	 0.40697195861039 
2215	 0.407058516227612 
2216	 0.407132494561878 
2217	 0.407191351076767 
2218	 0.407258106637552 
2219	 0.407336153308552 
2220	 0.407390950362205 
2221	 0.407434518786169 
2222	 0.407479078744355 
2223	 0.407512272605738 
2224	 0.40754112313455 
2225	 0.407564413714586 
2226	 0.40759763375509 
2227	 0.407609754321052 
2228	 0.407596846512488 
2229	 0.407595119850831 
2230	 0.407603680531302 
2231	 0.407584445126707 
2232	 0.407546590830299 
2233	 0.407515741744382 
2234	 0.407473357374562 
2235	 0.407427160440529 
2236	 0.407386400565081 
2237	 0.407337104061962 
2238	 0.407274617811415 
2239	 0.407210336388311 
2240	 0.407129164337205 
2241	 0.407070223192513 
2242	 0.407015402512265 
2243	 0.406963887345304 
2244	 0.406932300904014 
2245	 0.406904072710384 
2246	 0.406857674259686 
2247	 0.406795917807158 
2248	 0.406754632359534 
2249	 0.406706343315786 
2250	 0.406690199687638 
2251	 0.406701051199066 
2252	 0.406709898623466 
2253	 0.406734367176192 
2254	 0.406755059178944 
2255	 0.406775679715823 
2256	 0.406798165076016 
2257	 0.40681484171548 
2258	 0.406862329499146 
2259	 0.40691469455327 
2260	 0.406993376658583 
2261	 0.407104892621585 
2262	 0.407222468150674 
2263	 0.407392168849626 
2264	 0.407504812869111 
2265	 0.407605694701905 
2266	 0.407690420848751 
2267	 0.407695182022225 
2268	 0.407760105274049 
2269	 0.407855297356874 
2270	 0.407954044812538 
2271	 0.408077323983527 
2272	 0.408220047389951 
2273	 0.408328484773609 
2274	 0.4084416439396 
2275	 0.408535702652336 
2276	 0.408592625504454 
2277	 0.408700569485188 
2278	 0.408816400620989 
2279	 0.408948788172597 
2280	 0.409117330037578 
2281	 0.409283443609319 
2282	 0.409472293172305 
2283	 0.409622884767573 
2284	 0.409771194343593 
2285	 0.409908591753698 
2286	 0.409991683753995 
2287	 0.410116738095105 
2288	 0.410263902607675 
2289	 0.41041292438739 
2290	 0.410604972199997 
2291	 0.410752570548488 
2292	 0.410873065621492 
2293	 0.411002258353015 
2294	 0.411097463674617 
2295	 0.411211181030892 
2296	 0.411343878478936 
2297	 0.411475175741225 
2298	 0.411625735106487 
2299	 0.411747517091521 
2300	 0.41188196544297 
2301	 0.412059272062515 
2302	 0.412180546864522 
2303	 0.412321927069167 
2304	 0.412457250331107 
2305	 0.412552443435849 
2306	 0.412660651462774 
2307	 0.412773586687441 
2308	 0.412862476500853 
2309	 0.412932566261392 
2310	 0.413000399329353 
2311	 0.413038841370061 
2312	 0.413122598232384 
2313	 0.413234761667411 
2314	 0.413333352270825 
2315	 0.413463423145474 
2316	 0.413548673875286 
2317	 0.413585237335385 
2318	 0.413649865715724 
2319	 0.413727082058862 
2320	 0.41377733256899 
2321	 0.41378518310643 
2322	 0.413871163282044 
2323	 0.413984523130001 
2324	 0.414086755870818 
2325	 0.414249608664285 
2326	 0.41439231976821 
2327	 0.414493966220253 
2328	 0.41461629958966 
2329	 0.414820798131709 
2330	 0.414996396413265 
2331	 0.415148423499857 
2332	 0.415312264865507 
2333	 0.415412066867366 
2334	 0.415489393819572 
2335	 0.415583824336522 
2336	 0.415650471688911 
2337	 0.415728086379497 
2338	 0.415822212088254 
2339	 0.415929524572823 
2340	 0.416021702601871 
2341	 0.416097797492236 
2342	 0.416222705813572 
2343	 0.416300049728354 
2344	 0.416393769591557 
2345	 0.416458514118191 
2346	 0.416497883731892 
2347	 0.416515080767335 
2348	 0.416526148462671 
2349	 0.41649247347684 
2350	 0.416379618290021 
2351	 0.416355693944054 
2352	 0.416338356589351 
2353	 0.416345219662247 
2354	 0.416423626214788 
2355	 0.416460269879946 
2356	 0.416482008408658 
2357	 0.416517713479608 
2358	 0.416608464567057 
2359	 0.416588562089229 
2360	 0.416503056141492 
2361	 0.416422861070621 
2362	 0.41625343146434 
2363	 0.416125478606672 
2364	 0.416043192066757 
2365	 0.415940561066276 
2366	 0.41575943360228 
2367	 0.415684371250008 
2368	 0.415738671627666 
2369	 0.415653394278653 
2370	 0.415522292464249 
2371	 0.415463562919395 
2372	 0.41528851437272 
2373	 0.415075229336797 
2374	 0.41496539619175 
2375	 0.414831211750435 
2376	 0.414625402808607 
2377	 0.41444820889215 
2378	 0.414273545621757 
2379	 0.414078435682094 
2380	 0.413957008143454 
2381	 0.413867553054242 
2382	 0.413758854082779 
2383	 0.413656012584315 
2384	 0.413519099780984 
2385	 0.413369636167784 
2386	 0.413282269323619 
2387	 0.413168805823626 
2388	 0.412991239230578 
2389	 0.41284020853944 
2390	 0.412642999375482 
2391	 0.412479251298598 
2392	 0.412356697827759 
2393	 0.412143693351772 
2394	 0.411989071849049 
2395	 0.411806298420026 
2396	 0.411577596172921 
2397	 0.411440201396103 
2398	 0.411199001336578 
2399	 0.410967903852926 
2400	 0.410860515423018 
2401	 0.410667807836211 
2402	 0.410464967472489 
2403	 0.410367043807247 
2404	 0.410238836036895 
2405	 0.410069796057012 
2406	 0.409992289556739 
2407	 0.409901990974696 
2408	 0.409658849990082 
2409	 0.409397302672262 
2410	 0.409194508822221 
2411	 0.408906981256013 
2412	 0.408657291396727 
2413	 0.408485564480288 
2414	 0.408207033807555 
2415	 0.407922592446018 
2416	 0.40763456789532 
2417	 0.407276513457529 
2418	 0.407008317361774 
2419	 0.40680391932645 
2420	 0.406604904328397 
2421	 0.406436860298331 
2422	 0.406266032189869 
2423	 0.406106855149538 
2424	 0.405940931629684 
2425	 0.405812735125457 
2426	 0.405644458786834 
2427	 0.405454625258383 
2428	 0.405285540184585 
2429	 0.40511161860527 
2430	 0.404941878252291 
2431	 0.40478708499197 
2432	 0.404535164899435 
2433	 0.404164841436272 
2434	 0.403938745878993 
2435	 0.403803704834343 
2436	 0.403551413682272 
2437	 0.403332050691115 
2438	 0.40312718279587 
2439	 0.402743807195409 
2440	 0.402571584598214 
2441	 0.402650687588256 
2442	 0.402517452838436 
2443	 0.40230550907783 
2444	 0.402151216857582 
2445	 0.401907648775009 
2446	 0.401737707086852 
2447	 0.401726864452706 
2448	 0.401587664846358 
2449	 0.401341210949872 
2450	 0.401188675018576 
2451	 0.401052546255478 
2452	 0.400891822080145 
2453	 0.400828377900235 
2454	 0.40070583131868 
2455	 0.400454813943164 
2456	 0.400293017423011 
2457	 0.400156748582476 
2458	 0.40001048789331 
2459	 0.399907122696508 
2460	 0.399697873911461 
2461	 0.399463067162955 
2462	 0.399274042673474 
2463	 0.398996124365588 
2464	 0.398800818181912 
2465	 0.398724814544023 
2466	 0.398558783760377 
2467	 0.398413138484906 
2468	 0.398239374613709 
2469	 0.397900439764443 
2470	 0.397780898924199 
2471	 0.39771593794761 
2472	 0.397580001993634 
2473	 0.397505682147741 
2474	 0.397117414265034 
2475	 0.396684829715753 
2476	 0.396483086695062 
2477	 0.396170187475784 
2478	 0.396124118050895 
2479	 0.396221825121289 
2480	 0.396178524565643 
2481	 0.396163244037107 
2482	 0.396031497898109 
2483	 0.39583593466144 
2484	 0.395599633836267 
2485	 0.395414673242171 
2486	 0.395516799689806 
2487	 0.395733047613021 
2488	 0.395927491617717 
2489	 0.395968029178737 
2490	 0.395647706881044 
2491	 0.395085159885492 
2492	 0.394516533674822 
2493	 0.394215602895219 
2494	 0.394282099343826 
2495	 0.394509317349637 
2496	 0.394634326420376 
2497	 0.39455193335886 
2498	 0.394426633808758 
2499	 0.394227812962718 
2500	 0.393932713374195 
