Wavelength	LMW100003.asd
350	 9.02686496627691E-02 
351	 0.087452090705047 
352	 8.25498148234487E-02 
353	 7.91475659011033E-02 
354	 7.64743105768532E-02 
355	 0.079227784212604 
356	 8.08925790786263E-02 
357	 7.67475602538572E-02 
358	 8.07238559522057E-02 
359	 8.01479229927228E-02 
360	 0.075117496904946 
361	 7.40454746151375E-02 
362	 7.61744193052553E-02 
363	 7.73186777798092E-02 
364	 7.63768634801901E-02 
365	 7.79196646742869E-02 
366	 7.48354933281958E-02 
367	 7.22585534830035E-02 
368	 7.53239119169326E-02 
369	 7.61966706459024E-02 
370	 7.60973513565841E-02 
371	 7.67484632046491E-02 
372	 0.079480723892785 
373	 7.87854214890773E-02 
374	 7.91218166732182E-02 
375	 8.21160394909186E-02 
376	 8.23707279406476E-02 
377	 8.15403589798639E-02 
378	 8.07534705852011E-02 
379	 8.11207848969316E-02 
380	 8.44244707510802E-02 
381	 8.41431908438707E-02 
382	 8.19930012679993E-02 
383	 8.52327148284998E-02 
384	 8.63418945400521E-02 
385	 8.51271572045309E-02 
386	 8.37611948666286E-02 
387	 8.70400901931989E-02 
388	 8.84243008795733E-02 
389	 8.76902249840532E-02 
390	 8.69647365216304E-02 
391	 8.87102353183127E-02 
392	 9.10912513955287E-02 
393	 9.28616316239479E-02 
394	 9.36373698459286E-02 
395	 9.51785111970296E-02 
396	 9.58937767136312E-02 
397	 9.52370807401299E-02 
398	 9.60334653688138E-02 
399	 9.69092354676195E-02 
400	 9.76038117765213E-02 
401	 9.82807562465876E-02 
402	 9.92516156569279E-02 
403	 0.100667941648137 
404	 0.101705487059627 
405	 0.100759210630375 
406	 0.100807545395146 
407	 0.102568738355999 
408	 0.10509493117993 
409	 0.10441264261658 
410	 0.104981267192168 
411	 0.106325493753798 
412	 0.10612019146952 
413	 0.106766949825476 
414	 0.107601825170758 
415	 0.108225943993285 
416	 0.108950751329622 
417	 0.108910333069016 
418	 0.10900910904455 
419	 0.109919914664352 
420	 0.110129266304601 
421	 0.109809667246946 
422	 0.109655434404449 
423	 0.110470795576273 
424	 0.110640061166944 
425	 0.110488913558512 
426	 0.110342315916646 
427	 0.109991332233482 
428	 0.10997380433997 
429	 0.109998952190293 
430	 0.109677456455805 
431	 0.109595812241132 
432	 0.109391649972264 
433	 0.109092639547071 
434	 0.109119856672472 
435	 0.109310026685141 
436	 0.109301817424216 
437	 0.109049287882059 
438	 0.109453022952691 
439	 0.109657368254393 
440	 0.109708784864104 
441	 0.110064851896152 
442	 0.110567059846002 
443	 0.110989315420729 
444	 0.111320719430675 
445	 0.111880007831606 
446	 0.112376013834947 
447	 0.112755951626297 
448	 0.113088317502067 
449	 0.113616468807381 
450	 0.114292091424179 
451	 0.11497534424826 
452	 0.115473751344601 
453	 0.115886699827682 
454	 0.116189378519777 
455	 0.116418599398052 
456	 0.116792602962207 
457	 0.117333890896836 
458	 0.117861752973319 
459	 0.118136608887719 
460	 0.118299459790612 
461	 0.118418193912252 
462	 0.118632495532953 
463	 0.119198349586947 
464	 0.119527330269794 
465	 0.119730000246787 
466	 0.119999538492434 
467	 0.119949065226582 
468	 0.12021499418792 
469	 0.120687755325341 
470	 0.120697768013818 
471	 0.120983934820013 
472	 0.12123308026525 
473	 0.121218840611155 
474	 0.121311997579509 
475	 0.121545347851072 
476	 0.121760374413411 
477	 0.12176954763412 
478	 0.121918473052193 
479	 0.122155191973708 
480	 0.122395708880745 
481	 0.12256391819586 
482	 0.122764531916512 
483	 0.122942769805049 
484	 0.123044077486011 
485	 0.123201662592997 
486	 0.123315087390893 
487	 0.123384117679559 
488	 0.123497541925167 
489	 0.123716251414014 
490	 0.123962381800545 
491	 0.124148827206345 
492	 0.124223317080128 
493	 0.124287180972989 
494	 0.124347384778752 
495	 0.124388969914936 
496	 0.124610118983118 
497	 0.124758371768175 
498	 0.124770171759254 
499	 0.124921982690225 
500	 0.125063261799988 
501	 0.12515165916045 
502	 0.125188983452931 
503	 0.125217069167154 
504	 0.125351153465427 
505	 0.125553994847545 
506	 0.125658132205723 
507	 0.125790046236377 
508	 0.125899517861904 
509	 0.125952922954684 
510	 0.126048119072092 
511	 0.12613109292535 
512	 0.126223285428743 
513	 0.126367993345184 
514	 0.126418042571456 
515	 0.126524119933373 
516	 0.126715063306217 
517	 0.126759902956481 
518	 0.126752273642351 
519	 0.126756199278556 
520	 0.126831022606004 
521	 0.127051180789923 
522	 0.127205924579621 
523	 0.127258248022465 
524	 0.127365468081319 
525	 0.12747390836325 
526	 0.127557549239862 
527	 0.127616927644037 
528	 0.127724942589156 
529	 0.127809453920308 
530	 0.127880530531297 
531	 0.127998538196674 
532	 0.128132844854716 
533	 0.128270212788584 
534	 0.1283948254728 
535	 0.128475805313232 
536	 0.128557029225728 
537	 0.128662190625506 
538	 0.128794701308574 
539	 0.12888983396329 
540	 0.128957288042089 
541	 0.129043659553391 
542	 0.129236926309386 
543	 0.129368490508745 
544	 0.129491415957932 
545	 0.129673482648652 
546	 0.129787009703873 
547	 0.129830031915942 
548	 0.129891284828706 
549	 0.130118440404346 
550	 0.13033700525661 
551	 0.130512365312608 
552	 0.130670781903391 
553	 0.13092866260632 
554	 0.131156318718748 
555	 0.131348049360614 
556	 0.131561819481476 
557	 0.131786356478498 
558	 0.132031067938463 
559	 0.132312377759002 
560	 0.13267141446245 
561	 0.132880332827777 
562	 0.133057555482247 
563	 0.133393457453861 
564	 0.133735638793161 
565	 0.134050222823494 
566	 0.134380332093868 
567	 0.134843224637183 
568	 0.135243890081284 
569	 0.135644329757631 
570	 0.136120280100213 
571	 0.136572609941074 
572	 0.137052918688775 
573	 0.13759204028244 
574	 0.138189915365522 
575	 0.13868598500274 
576	 0.139196813114638 
577	 0.139790683642962 
578	 0.140327892482042 
579	 0.140912157921155 
580	 0.141588580955223 
581	 0.142362290532776 
582	 0.143148382595609 
583	 0.143927038510703 
584	 0.144679872844914 
585	 0.145381674609253 
586	 0.14611305488991 
587	 0.146810593873105 
588	 0.147430047307635 
589	 0.148211631897131 
590	 0.148966207399384 
591	 0.149674826875419 
592	 0.150480404097791 
593	 0.151217109774725 
594	 0.151959949497554 
595	 0.152787907628005 
596	 0.153665027593641 
597	 0.154621685639583 
598	 0.155611167421858 
599	 0.156546642261346 
600	 0.157382025951169 
601	 0.158160345272882 
602	 0.158894278961221 
603	 0.159517974686457 
604	 0.160163916775812 
605	 0.16084252197921 
606	 0.161515971532891 
607	 0.162164035175003 
608	 0.162765748290781 
609	 0.163330802460669 
610	 0.163902208371344 
611	 0.164455044709532 
612	 0.165019861839515 
613	 0.165610791714364 
614	 0.166167312090447 
615	 0.166620213890474 
616	 0.167016442227692 
617	 0.167472333657701 
618	 0.167880999321489 
619	 0.168253451643456 
620	 0.168614600559877 
621	 0.168979581069827 
622	 0.169328640097356 
623	 0.169644192538454 
624	 0.169925589874144 
625	 0.170272024641732 
626	 0.170583357579177 
627	 0.170833638071814 
628	 0.171114338479701 
629	 0.171404554248534 
630	 0.171680235244432 
631	 0.171926223644593 
632	 0.172169346649658 
633	 0.172414253205252 
634	 0.172658759548376 
635	 0.172897865229953 
636	 0.173166778945371 
637	 0.173411275962406 
638	 0.173606158395567 
639	 0.173828697957611 
640	 0.174096591835157 
641	 0.174391075184207 
642	 0.174666758282251 
643	 0.174857838284552 
644	 0.175080980299445 
645	 0.175374707184792 
646	 0.175639730610642 
647	 0.175899820857005 
648	 0.176156994156527 
649	 0.176411237013161 
650	 0.176666806262775 
651	 0.176943269725933 
652	 0.177218236285065 
653	 0.177442627550648 
654	 0.177768748368769 
655	 0.178090681346528 
656	 0.178350300897405 
657	 0.178737576980628 
658	 0.17908741452151 
659	 0.17939066615501 
660	 0.179706886290993 
661	 0.180012920705236 
662	 0.180328760378659 
663	 0.180665177878848 
664	 0.181014904469751 
665	 0.181389869305436 
666	 0.181788755940786 
667	 0.182197424756929 
668	 0.182569337493627 
669	 0.182907696378794 
670	 0.183266805698125 
671	 0.183729010488046 
672	 0.184149392717839 
673	 0.184560462789489 
674	 0.185003807018887 
675	 0.18546777638588 
676	 0.185946118656212 
677	 0.186399489530447 
678	 0.186796530665006 
679	 0.187248497382122 
680	 0.187734718727697 
681	 0.188234439692021 
682	 0.188742953827774 
683	 0.189248197859376 
684	 0.189763759845448 
685	 0.190298800883641 
686	 0.190813826721508 
687	 0.191381615382079 
688	 0.191970138042667 
689	 0.192480484827984 
690	 0.192982516282444 
691	 0.193543181792371 
692	 0.194166088029472 
693	 0.194731388253517 
694	 0.195319386833472 
695	 0.195918734015075 
696	 0.196501499788682 
697	 0.197134426439871 
698	 0.197727686000746 
699	 0.198284026779127 
700	 0.198910760645174 
701	 0.199593088613148 
702	 0.200275305270224 
703	 0.200906411380615 
704	 0.201467416165607 
705	 0.202065370845601 
706	 0.202706032761405 
707	 0.203338313609718 
708	 0.203949182047271 
709	 0.204577043829614 
710	 0.205239386686561 
711	 0.205919622007008 
712	 0.206469656896597 
713	 0.20701834281261 
714	 0.207697047883794 
715	 0.208321885036002 
716	 0.208931438914037 
717	 0.209514768514449 
718	 0.210033344917172 
719	 0.210603267665042 
720	 0.211200597723139 
721	 0.211769055554693 
722	 0.212225993167192 
723	 0.212760308838603 
724	 0.213331089450615 
725	 0.21383291127444 
726	 0.214274612028432 
727	 0.214727697222952 
728	 0.215180371020571 
729	 0.215546740922999 
730	 0.215957630587578 
731	 0.216367437461324 
732	 0.216732304720956 
733	 0.217097794643858 
734	 0.21741254919168 
735	 0.217678313697931 
736	 0.217917626371682 
737	 0.218125263733303 
738	 0.218334053939054 
739	 0.218546244836294 
740	 0.21872785810617 
741	 0.218841225850363 
742	 0.21892843386123 
743	 0.219028153836781 
744	 0.219129667498124 
745	 0.219124653053264 
746	 0.219085672540242 
747	 0.219140841908284 
748	 0.219138919008673 
749	 0.21903530587264 
750	 0.218870188670334 
751	 0.21876932429917 
752	 0.21863304397648 
753	 0.218482787672987 
754	 0.218335931918478 
755	 0.218114310615627 
756	 0.217894030743181 
757	 0.217671665213558 
758	 0.217416847534531 
759	 0.217235623608342 
760	 0.216969448394427 
761	 0.216605143185772 
762	 0.216335916130102 
763	 0.216052099464211 
764	 0.215714145946485 
765	 0.215329214764735 
766	 0.214991368065416 
767	 0.214634489547155 
768	 0.214268689071298 
769	 0.213923266825885 
770	 0.213473426915201 
771	 0.213060462891562 
772	 0.212717328949214 
773	 0.212323193583135 
774	 0.211916836134529 
775	 0.211501071833853 
776	 0.211074210541936 
777	 0.210638749797958 
778	 0.210189127200989 
779	 0.209763767600458 
780	 0.209395182812534 
781	 0.20895408404272 
782	 0.208495137174048 
783	 0.208059153584996 
784	 0.207654305672862 
785	 0.207252429862508 
786	 0.206808835415166 
787	 0.206330650655798 
788	 0.205954272867175 
789	 0.205567144056841 
790	 0.205132090684209 
791	 0.20466062979003 
792	 0.204245609204175 
793	 0.203907150155544 
794	 0.203574558407231 
795	 0.203121178173233 
796	 0.202683265123898 
797	 0.202296025487432 
798	 0.201943102924453 
799	 0.201546688423564 
800	 0.201166492349694 
801	 0.200804098379192 
802	 0.200443798793559 
803	 0.200073493853778 
804	 0.199731737358774 
805	 0.199397374637132 
806	 0.199024546646852 
807	 0.198702712795615 
808	 0.198362383143575 
809	 0.197992094587048 
810	 0.197674655614772 
811	 0.197381878905991 
812	 0.197070832084009 
813	 0.1967347290283 
814	 0.196478959132096 
815	 0.196191214014948 
816	 0.195882449800207 
817	 0.195603292199341 
818	 0.195312463337962 
819	 0.195056946041409 
820	 0.194837689217625 
821	 0.194611508319167 
822	 0.194357356671646 
823	 0.194088427999662 
824	 0.193817574714537 
825	 0.193544908063096 
826	 0.193313195627909 
827	 0.193111230311861 
828	 0.192909514337734 
829	 0.192671904906098 
830	 0.192472340393092 
831	 0.192314682556279 
832	 0.192166702627152 
833	 0.192036555443302 
834	 0.191804666304333 
835	 0.191525417962553 
836	 0.19140268458557 
837	 0.191278700975346 
838	 0.191140638356585 
839	 0.190988327739124 
840	 0.190801015232309 
841	 0.190740332220717 
842	 0.190695692756655 
843	 0.190547998911123 
844	 0.190405002624309 
845	 0.190280607059884 
846	 0.190167258516287 
847	 0.190062140722878 
848	 0.190072913225298 
849	 0.190020970507362 
850	 0.18988728730636 
851	 0.189797570283321 
852	 0.189704573437638 
853	 0.189669778355474 
854	 0.189689523856369 
855	 0.189651752839014 
856	 0.189611830720294 
857	 0.189589665012415 
858	 0.189584663331595 
859	 0.189565638904324 
860	 0.18952281084964 
861	 0.189488109742235 
862	 0.189497247948074 
863	 0.189530861955284 
864	 0.189542214104333 
865	 0.18957212967036 
866	 0.189682811877984 
867	 0.1896833905022 
868	 0.189652838052 
869	 0.189650023835413 
870	 0.189685729292294 
871	 0.189790694067971 
872	 0.189901083828803 
873	 0.189963557149377 
874	 0.189969505218502 
875	 0.190108054533803 
876	 0.190251505047953 
877	 0.190290717958746 
878	 0.190376616541888 
879	 0.190553195645335 
880	 0.190727509801951 
881	 0.190801706423396 
882	 0.190884854977175 
883	 0.191027689303661 
884	 0.191189458799559 
885	 0.191296501922383 
886	 0.191423338679344 
887	 0.191567000554964 
888	 0.19173008126953 
889	 0.191925925151476 
890	 0.192201241577772 
891	 0.192398498548003 
892	 0.192519382629557 
893	 0.192778469617852 
894	 0.192991877131826 
895	 0.193157392499215 
896	 0.19332786483707 
897	 0.19358575235095 
898	 0.1938865196268 
899	 0.194179382412389 
900	 0.194430779167358 
901	 0.194653205812236 
902	 0.194882415209989 
903	 0.195118570193627 
904	 0.195377648385999 
905	 0.19580408609218 
906	 0.196109133956152 
907	 0.196337647199084 
908	 0.196664552216323 
909	 0.196992979201499 
910	 0.197276757584644 
911	 0.197562244297161 
912	 0.197931565052593 
913	 0.198267283976505 
914	 0.198680231308668 
915	 0.199119941187124 
916	 0.199416792370761 
917	 0.199831996089574 
918	 0.200244147605621 
919	 0.200602544284609 
920	 0.200990344772937 
921	 0.201374796748524 
922	 0.201823614004684 
923	 0.202329973410791 
924	 0.202766369777579 
925	 0.203218547989675 
926	 0.203679665194937 
927	 0.204134683581664 
928	 0.204587532362389 
929	 0.205080001430341 
930	 0.205596522411022 
931	 0.206124416640301 
932	 0.206700341391208 
933	 0.207240594717317 
934	 0.207729457523702 
935	 0.20820693865145 
936	 0.208797594391435 
937	 0.209424022879746 
938	 0.209982269516494 
939	 0.210441308313396 
940	 0.211033747318183 
941	 0.21166108783138 
942	 0.212285412090832 
943	 0.212913075378073 
944	 0.213634836023933 
945	 0.214254184179202 
946	 0.214812047694314 
947	 0.215433677552146 
948	 0.21606066656792 
949	 0.216723202271964 
950	 0.217440672076802 
951	 0.21820189181562 
952	 0.218885988615471 
953	 0.21969783931412 
954	 0.220518411777615 
955	 0.221115405779249 
956	 0.221728482564982 
957	 0.222471042232386 
958	 0.22329043341808 
959	 0.224063001182791 
960	 0.224901248476996 
961	 0.225640999871601 
962	 0.226384818426537 
963	 0.227325977131331 
964	 0.228069027847715 
965	 0.228878599320428 
966	 0.229784016717512 
967	 0.230643090175117 
968	 0.231513906821057 
969	 0.232288315431797 
970	 0.233019463468461 
971	 0.233852518695079 
972	 0.234751674898631 
973	 0.235648794628184 
974	 0.236506274915821 
975	 0.237334483402222 
976	 0.238230403401653 
977	 0.239215326203938 
978	 0.240199893742537 
979	 0.241074661494887 
980	 0.242017968628787 
981	 0.242926066622098 
982	 0.243811670708911 
983	 0.244746829137208 
984	 0.245645082849346 
985	 0.246599246867729 
986	 0.247592426392393 
987	 0.248566456086889 
988	 0.249632009314812 
989	 0.250583783402759 
990	 0.251515337861727 
991	 0.252583570668546 
992	 0.253453795559131 
993	 0.254280008050592 
994	 0.255213497989453 
995	 0.256298748185523 
996	 0.257257396078334 
997	 0.25815688309439 
998	 0.259019904648385 
999	 0.25991841270033 
1000	 0.261149360745558 
1001	 0.264372790553429 
1002	 0.265334194846481 
1003	 0.266247440440557 
1004	 0.267159410901173 
1005	 0.268058211306349 
1006	 0.268937914150953 
1007	 0.269786965972934 
1008	 0.270652073680837 
1009	 0.271524562164616 
1010	 0.272452402725193 
1011	 0.273398572947696 
1012	 0.274277782441322 
1013	 0.275140396858702 
1014	 0.276012203199855 
1015	 0.276847942605123 
1016	 0.27766492553616 
1017	 0.278483047942039 
1018	 0.27929835501006 
1019	 0.280080274060058 
1020	 0.280891875724833 
1021	 0.281751953933698 
1022	 0.282575708576396 
1023	 0.283328159500128 
1024	 0.284070005068713 
1025	 0.284829025824671 
1026	 0.285611567993928 
1027	 0.28639501924577 
1028	 0.287205355610275 
1029	 0.288019186082542 
1030	 0.288781207207116 
1031	 0.289532995893528 
1032	 0.290292444742942 
1033	 0.291008747344953 
1034	 0.291705637909243 
1035	 0.292444753140619 
1036	 0.293176905252 
1037	 0.293924864676084 
1038	 0.294681188382775 
1039	 0.295400967100778 
1040	 0.296124121659266 
1041	 0.296851839951348 
1042	 0.297546610475495 
1043	 0.298217956294619 
1044	 0.298933781416387 
1045	 0.299672172815539 
1046	 0.300445155547286 
1047	 0.301217061002217 
1048	 0.301989314194598 
1049	 0.302742326113224 
1050	 0.303425772287726 
1051	 0.304056895465527 
1052	 0.304677442364314 
1053	 0.305335962253701 
1054	 0.306010984304686 
1055	 0.306649408645583 
1056	 0.307283455651883 
1057	 0.307926929640993 
1058	 0.308556219861317 
1059	 0.309178921001096 
1060	 0.309820025010693 
1061	 0.310420371605725 
1062	 0.311018779086869 
1063	 0.311575370859732 
1064	 0.312123960609238 
1065	 0.312750646339011 
1066	 0.313358337789822 
1067	 0.313939561974252 
1068	 0.314513838895056 
1069	 0.315040224397166 
1070	 0.315589898282303 
1071	 0.316128423867138 
1072	 0.316664923302483 
1073	 0.317223869674816 
1074	 0.317770888948891 
1075	 0.318310345159983 
1076	 0.318815250834086 
1077	 0.319311591626695 
1078	 0.319777113316851 
1079	 0.320249236067614 
1080	 0.320728248301799 
1081	 0.321275118082239 
1082	 0.321813644275349 
1083	 0.32232761464236 
1084	 0.322852731816129 
1085	 0.323369446863179 
1086	 0.323832150406237 
1087	 0.324334736930867 
1088	 0.324872938346982 
1089	 0.325371818514877 
1090	 0.325848655676579 
1091	 0.326368348153028 
1092	 0.326899947311812 
1093	 0.327434622118749 
1094	 0.327956548649489 
1095	 0.328457946701499 
1096	 0.328976624202063 
1097	 0.329486972114314 
1098	 0.330018890326421 
1099	 0.330595981660672 
1100	 0.331162661969703 
1101	 0.331718360681334 
1102	 0.332281482823459 
1103	 0.332861752059283 
1104	 0.333425331188394 
1105	 0.333994545624315 
1106	 0.33458863532856 
1107	 0.33516905229726 
1108	 0.33579054366078 
1109	 0.336413038198535 
1110	 0.336996488376863 
1111	 0.337589837407039 
1112	 0.33818382657346 
1113	 0.338768675377862 
1114	 0.339322269106021 
1115	 0.339930696435436 
1116	 0.340573369436359 
1117	 0.341199482293217 
1118	 0.34184978477649 
1119	 0.342487648351363 
1120	 0.343105318820465 
1121	 0.343698235680371 
1122	 0.344283193518151 
1123	 0.344898266358594 
1124	 0.345540352191833 
1125	 0.346217531476181 
1126	 0.346855071155843 
1127	 0.347503030018037 
1128	 0.348148822856531 
1129	 0.348755862622562 
1130	 0.349383661994774 
1131	 0.350047599411272 
1132	 0.350687441334883 
1133	 0.351326061098817 
1134	 0.3519512127716 
1135	 0.352565533353959 
1136	 0.353151702039206 
1137	 0.35379809415596 
1138	 0.354412758209896 
1139	 0.355027459971852 
1140	 0.355671808849702 
1141	 0.356286009262198 
1142	 0.356874342469384 
1143	 0.357453839793256 
1144	 0.358018604353817 
1145	 0.358593225009245 
1146	 0.359141552449719 
1147	 0.359708630923638 
1148	 0.360322309315558 
1149	 0.360900285085864 
1150	 0.361457034388568 
1151	 0.362016423556082 
1152	 0.362574551045335 
1153	 0.363074181955872 
1154	 0.363615749942488 
1155	 0.364173862139259 
1156	 0.364706450614827 
1157	 0.365251997725577 
1158	 0.365766216683058 
1159	 0.366248131859596 
1160	 0.366738099188106 
1161	 0.367226569244526 
1162	 0.367695676883506 
1163	 0.368155254815276 
1164	 0.368609024201969 
1165	 0.369043219463548 
1166	 0.369481443267518 
1167	 0.369924863436536 
1168	 0.370360562673359 
1169	 0.3707834270152 
1170	 0.371197112411168 
1171	 0.37161042851057 
1172	 0.372026004063982 
1173	 0.372412484419548 
1174	 0.372772738322682 
1175	 0.37315678987432 
1176	 0.373535978979748 
1177	 0.373907343049462 
1178	 0.374301781012254 
1179	 0.374674404992076 
1180	 0.375013188182606 
1181	 0.375365323429871 
1182	 0.375720719411811 
1183	 0.376080943757467 
1184	 0.376425735052206 
1185	 0.376774766266552 
1186	 0.377092035084213 
1187	 0.377386238079737 
1188	 0.37768424845775 
1189	 0.377949406221543 
1190	 0.378254183739081 
1191	 0.378585835146688 
1192	 0.378897206853766 
1193	 0.379241990169515 
1194	 0.379534616213168 
1195	 0.379775220644068 
1196	 0.380038540722336 
1197	 0.380274322246184 
1198	 0.380531374771325 
1199	 0.38080088357485 
1200	 0.381100979927851 
1201	 0.381364900583105 
1202	 0.381632565347707 
1203	 0.381873465873124 
1204	 0.382087356947481 
1205	 0.382308119600952 
1206	 0.382506858011433 
1207	 0.382729846727948 
1208	 0.382974686068426 
1209	 0.383194035024345 
1210	 0.383420037546228 
1211	 0.383628274146946 
1212	 0.383787148925063 
1213	 0.383985636264403 
1214	 0.384208529970986 
1215	 0.384419910245236 
1216	 0.384635096750762 
1217	 0.384875807791024 
1218	 0.385080069479788 
1219	 0.385256977307197 
1220	 0.385453641313769 
1221	 0.385663504806716 
1222	 0.385838113728515 
1223	 0.385995401231309 
1224	 0.386162853288811 
1225	 0.386299285048006 
1226	 0.386461199346649 
1227	 0.38666650667707 
1228	 0.386834415868489 
1229	 0.386972609611676 
1230	 0.387132033987332 
1231	 0.387285464519803 
1232	 0.387442836353797 
1233	 0.387607526709888 
1234	 0.387794533219701 
1235	 0.387961813375771 
1236	 0.38812180153946 
1237	 0.388280611507082 
1238	 0.388449970189121 
1239	 0.388589354037216 
1240	 0.388707752880293 
1241	 0.388830208792756 
1242	 0.388924265861218 
1243	 0.389043874651485 
1244	 0.389176767443766 
1245	 0.389310602298715 
1246	 0.389456086803944 
1247	 0.389598744700884 
1248	 0.389745799391028 
1249	 0.389892914491922 
1250	 0.390024302023258 
1251	 0.39013846392558 
1252	 0.390266206693552 
1253	 0.390385218277862 
1254	 0.390509019949294 
1255	 0.390642957992056 
1256	 0.390772667967585 
1257	 0.390900270198938 
1258	 0.39102059673935 
1259	 0.39115350665759 
1260	 0.391259875544038 
1261	 0.391325861473818 
1262	 0.391423896154662 
1263	 0.391520471390835 
1264	 0.391630200855884 
1265	 0.391775718520905 
1266	 0.391901182377257 
1267	 0.392029792788203 
1268	 0.392128050555767 
1269	 0.392252271549091 
1270	 0.392367587093951 
1271	 0.392514896413368 
1272	 0.392691396613008 
1273	 0.392852360392722 
1274	 0.393031739046124 
1275	 0.393185796172181 
1276	 0.393313005521172 
1277	 0.393466216501056 
1278	 0.393633349697877 
1279	 0.393778465528711 
1280	 0.393937964074024 
1281	 0.394071944672879 
1282	 0.394173896113047 
1283	 0.394275657784598 
1284	 0.394369167762419 
1285	 0.394458420740062 
1286	 0.394525265595922 
1287	 0.394609186966786 
1288	 0.394671636700585 
1289	 0.394728508139986 
1290	 0.394760047617158 
1291	 0.394781792772628 
1292	 0.394770772882729 
1293	 0.394736463560376 
1294	 0.394686809537609 
1295	 0.394600005763293 
1296	 0.394525536590175 
1297	 0.39443552816926 
1298	 0.394353079821203 
1299	 0.394274663761031 
1300	 0.394192111605872 
1301	 0.39410810397894 
1302	 0.394020446995763 
1303	 0.393936288046004 
1304	 0.393846357351079 
1305	 0.393719202607653 
1306	 0.393601028930799 
1307	 0.39347466697807 
1308	 0.393351476535014 
1309	 0.393264453408681 
1310	 0.393213007567008 
1311	 0.393150632578593 
1312	 0.393109227560511 
1313	 0.393053209959939 
1314	 0.39297916285531 
1315	 0.392936276063658 
1316	 0.392907205192836 
1317	 0.392877081707558 
1318	 0.39285879191043 
1319	 0.392853591571131 
1320	 0.392859819399012 
1321	 0.392858151024967 
1322	 0.392863939560314 
1323	 0.392872983734146 
1324	 0.392877227621464 
1325	 0.392880142484871 
1326	 0.392924858695477 
1327	 0.392983866983844 
1328	 0.393043524597269 
1329	 0.393126145618216 
1330	 0.393228472844141 
1331	 0.393353953664919 
1332	 0.39347054486951 
1333	 0.393608216418544 
1334	 0.393734375805599 
1335	 0.393842163875747 
1336	 0.393971685905472 
1337	 0.39412714910508 
1338	 0.394259137795684 
1339	 0.394379307019388 
1340	 0.394512385458112 
1341	 0.394633396218277 
1342	 0.394767867396569 
1343	 0.394915716892296 
1344	 0.395076899668446 
1345	 0.395224813020685 
1346	 0.395371726791841 
1347	 0.395518906128985 
1348	 0.395654018295256 
1349	 0.395791985214998 
1350	 0.395926517247738 
1351	 0.39606484252775 
1352	 0.39620797370415 
1353	 0.396345060360906 
1354	 0.396478222694982 
1355	 0.396614238719784 
1356	 0.396747297949332 
1357	 0.396880648907466 
1358	 0.397028724020824 
1359	 0.397156849801539 
1360	 0.397273805180644 
1361	 0.397385483712288 
1362	 0.397478394602446 
1363	 0.397579125104191 
1364	 0.397678902848102 
1365	 0.397782500277809 
1366	 0.397885025901189 
1367	 0.397995986055496 
1368	 0.398112687517971 
1369	 0.398228071314269 
1370	 0.398348105914709 
1371	 0.398450857981595 
1372	 0.398548969985138 
1373	 0.39865536148711 
1374	 0.398746061296345 
1375	 0.39883805794267 
1376	 0.3989081388355 
1377	 0.398958731311459 
1378	 0.399007029568292 
1379	 0.399046517063544 
1380	 0.39907393345637 
1381	 0.3990941372298 
1382	 0.399106615788779 
1383	 0.399105810453881 
1384	 0.399097136880011 
1385	 0.399093586120715 
1386	 0.399060855536739 
1387	 0.399015833019531 
1388	 0.398946513260644 
1389	 0.398858323497337 
1390	 0.398742288257688 
1391	 0.398604840253943 
1392	 0.398447849009562 
1393	 0.398271944592783 
1394	 0.398097365959567 
1395	 0.397910385152924 
1396	 0.3977176414861 
1397	 0.397514029087881 
1398	 0.397302624684638 
1399	 0.397070921181689 
1400	 0.39682225209845 
1401	 0.396572960255119 
1402	 0.396291342588104 
1403	 0.396053659134556 
1404	 0.395826275135481 
1405	 0.395613825458821 
1406	 0.395426075145615 
1407	 0.395242805588961 
1408	 0.395046946021639 
1409	 0.394901910627301 
1410	 0.394777500273462 
1411	 0.394689836078176 
1412	 0.39464369779722 
1413	 0.394625814397696 
1414	 0.394611611354398 
1415	 0.394616518122313 
1416	 0.394637381318376 
1417	 0.394668813541199 
1418	 0.39474314943755 
1419	 0.394834980765538 
1420	 0.394922313970943 
1421	 0.395016449408718 
1422	 0.395093681185367 
1423	 0.395145448920939 
1424	 0.395187469993642 
1425	 0.395214798230114 
1426	 0.395235526313439 
1427	 0.395233228761479 
1428	 0.395246145834285 
1429	 0.39526836787745 
1430	 0.395273093731561 
1431	 0.39527014624225 
1432	 0.395270478471062 
1433	 0.395252106312253 
1434	 0.39524583099722 
1435	 0.395262970107686 
1436	 0.395256729696952 
1437	 0.395237957306109 
1438	 0.395225415512501 
1439	 0.395203805565345 
1440	 0.395182395892624 
1441	 0.395174429100461 
1442	 0.39516619913033 
1443	 0.395154727439892 
1444	 0.395125463230678 
1445	 0.395100368337897 
1446	 0.395085343920379 
1447	 0.395067241239035 
1448	 0.395070524443857 
1449	 0.395081962581465 
1450	 0.395090676809597 
1451	 0.395100958738189 
1452	 0.395120960904559 
1453	 0.395127211746929 
1454	 0.395131799820904 
1455	 0.395119899249277 
1456	 0.39509080832333 
1457	 0.395075086531899 
1458	 0.395052208148406 
1459	 0.395036528418298 
1460	 0.395025626383496 
1461	 0.395022675795551 
1462	 0.395019987340866 
1463	 0.395026995374516 
1464	 0.395054098761774 
1465	 0.395069160015171 
1466	 0.395073373298306 
1467	 0.395093413292002 
1468	 0.395112543831595 
1469	 0.395147104979182 
1470	 0.395195282405814 
1471	 0.39525267856143 
1472	 0.39533513634458 
1473	 0.395412431190972 
1474	 0.395482796465759 
1475	 0.395555214112956 
1476	 0.39559699570693 
1477	 0.39564382324031 
1478	 0.39571299671647 
1479	 0.395785080499323 
1480	 0.395863750213668 
1481	 0.39594752498659 
1482	 0.396027831802175 
1483	 0.396100848117093 
1484	 0.396181688910526 
1485	 0.396268912480598 
1486	 0.396353425754922 
1487	 0.396441066109665 
1488	 0.396526012708234 
1489	 0.396614625293632 
1490	 0.396695040856079 
1491	 0.396774192419977 
1492	 0.396838948962598 
1493	 0.396886915992922 
1494	 0.396944903115205 
1495	 0.396997100048104 
1496	 0.397054723386717 
1497	 0.397121736580419 
1498	 0.3971816630506 
1499	 0.397230657254732 
1500	 0.397291501166299 
1501	 0.397357468950584 
1502	 0.397427853483518 
1503	 0.397504470926646 
1504	 0.397589811731425 
1505	 0.397665199260118 
1506	 0.39772633619054 
1507	 0.397786721034736 
1508	 0.39785754965433 
1509	 0.397932028955509 
1510	 0.398009436196767 
1511	 0.398079866951656 
1512	 0.398125227222394 
1513	 0.398165311558349 
1514	 0.398209903062597 
1515	 0.398268281355847 
1516	 0.398320807564339 
1517	 0.398367410509185 
1518	 0.398410668654812 
1519	 0.398462506838158 
1520	 0.39850896710586 
1521	 0.398564849819966 
1522	 0.398634684081243 
1523	 0.398692153108008 
1524	 0.398742924844855 
1525	 0.398800356812158 
1526	 0.398861107373903 
1527	 0.398918021808554 
1528	 0.398975379839924 
1529	 0.399034895643835 
1530	 0.3990904088789 
1531	 0.399147599238377 
1532	 0.399214930752054 
1533	 0.399268134157484 
1534	 0.399320691552753 
1535	 0.399359755512688 
1536	 0.399381854199758 
1537	 0.399406593289095 
1538	 0.399411450767089 
1539	 0.399439545869798 
1540	 0.399479603069999 
1541	 0.399520996307824 
1542	 0.399583440405955 
1543	 0.399628148668192 
1544	 0.399667811853164 
1545	 0.399704268104671 
1546	 0.399719961502186 
1547	 0.399754820829424 
1548	 0.399812844056994 
1549	 0.399862144311065 
1550	 0.399922426034579 
1551	 0.399973719069643 
1552	 0.400009278651752 
1553	 0.400054553300044 
1554	 0.400129695429155 
1555	 0.400205581908857 
1556	 0.400264222035241 
1557	 0.400326403443531 
1558	 0.400363823506811 
1559	 0.400390121235307 
1560	 0.400425134989812 
1561	 0.400459573909754 
1562	 0.400497356353414 
1563	 0.400543956821312 
1564	 0.40057067033168 
1565	 0.400587815202542 
1566	 0.400617106506782 
1567	 0.400636416729669 
1568	 0.400665483522667 
1569	 0.400711778008228 
1570	 0.400747363667156 
1571	 0.400767036905222 
1572	 0.400811504321307 
1573	 0.400877417121504 
1574	 0.400922541295814 
1575	 0.400974984279679 
1576	 0.40100985273615 
1577	 0.401025303476033 
1578	 0.401042742351128 
1579	 0.401055986679159 
1580	 0.401070574150028 
1581	 0.40106733141505 
1582	 0.401089193384091 
1583	 0.401128357699792 
1584	 0.401158208235907 
1585	 0.401200289193761 
1586	 0.401234739136687 
1587	 0.401251992136988 
1588	 0.401286390494985 
1589	 0.401336082757355 
1590	 0.401378786298165 
1591	 0.401427684565946 
1592	 0.401469235489523 
1593	 0.401499945289774 
1594	 0.401537377103252 
1595	 0.401570243613585 
1596	 0.401614408820367 
1597	 0.401676866968058 
1598	 0.401721718854015 
1599	 0.401763825395943 
1600	 0.401803506228979 
1601	 0.401837679815451 
1602	 0.40186211675931 
1603	 0.401872719903431 
1604	 0.401897877586111 
1605	 0.401910224403955 
1606	 0.401940439147867 
1607	 0.401995803800844 
1608	 0.402049186367951 
1609	 0.402101998595411 
1610	 0.402147315568413 
1611	 0.402181648011977 
1612	 0.402218634902653 
1613	 0.402245820051571 
1614	 0.402251663825836 
1615	 0.402247162735956 
1616	 0.40224981723527 
1617	 0.402255810665811 
1618	 0.402283477779245 
1619	 0.402310404100806 
1620	 0.4023313198424 
1621	 0.40237698174598 
1622	 0.402431016027984 
1623	 0.40248664487253 
1624	 0.402576617917375 
1625	 0.402609049798754 
1626	 0.402612217702788 
1627	 0.402628645347653 
1628	 0.402625540889529 
1629	 0.40262830150149 
1630	 0.402635242144398 
1631	 0.402647194143338 
1632	 0.402646836387119 
1633	 0.402667606315764 
1634	 0.402707421674672 
1635	 0.402747128436813 
1636	 0.402799524987552 
1637	 0.402832029419802 
1638	 0.402865311460537 
1639	 0.402892358893515 
1640	 0.402892426567167 
1641	 0.402926871847845 
1642	 0.402975202384774 
1643	 0.403029343572683 
1644	 0.403111854543654 
1645	 0.403159364804435 
1646	 0.403202875457568 
1647	 0.403230165169713 
1648	 0.403226554889947 
1649	 0.403243502452519 
1650	 0.403262427115285 
1651	 0.40327998367113 
1652	 0.403287250968028 
1653	 0.403329176234063 
1654	 0.403397869242592 
1655	 0.403437396313096 
1656	 0.403492451484249 
1657	 0.403529785160843 
1658	 0.403520060506885 
1659	 0.403559754993698 
1660	 0.403639861264928 
1661	 0.403682841736677 
1662	 0.403720258382298 
1663	 0.403764629724876 
1664	 0.403799286677261 
1665	 0.403827534656315 
1666	 0.403867265860431 
1667	 0.403892534525176 
1668	 0.403888315288891 
1669	 0.403905331959009 
1670	 0.403937507122973 
1671	 0.403956764834103 
1672	 0.403961861804125 
1673	 0.403992523026034 
1674	 0.404032089628767 
1675	 0.404072006673578 
1676	 0.404133121082432 
1677	 0.404181111552733 
1678	 0.404221801688999 
1679	 0.404259302168061 
1680	 0.404299079350767 
1681	 0.404330063169722 
1682	 0.40434604834323 
1683	 0.404372900063711 
1684	 0.404401188024405 
1685	 0.404430264486365 
1686	 0.404467191697064 
1687	 0.404494733028519 
1688	 0.404506873363081 
1689	 0.404543727915918 
1690	 0.404585036607453 
1691	 0.40463594363503 
1692	 0.404703830870046 
1693	 0.40477756221844 
1694	 0.404872336037395 
1695	 0.40493604859979 
1696	 0.40499986564146 
1697	 0.405049653332067 
1698	 0.405071330098433 
1699	 0.40509695309965 
1700	 0.405133533165261 
1701	 0.405141378133333 
1702	 0.405117759234253 
1703	 0.405111023306417 
1704	 0.405073764212314 
1705	 0.405096974830881 
1706	 0.405170858663634 
1707	 0.40520713747534 
1708	 0.405258602655615 
1709	 0.405302615607603 
1710	 0.405310626891588 
1711	 0.405353884424466 
1712	 0.405434138421387 
1713	 0.405491190940414 
1714	 0.40554663236987 
1715	 0.405596410762103 
1716	 0.405653082079806 
1717	 0.405669857870349 
1718	 0.405653815529885 
1719	 0.405660153939789 
1720	 0.405652571622177 
1721	 0.405648441921459 
1722	 0.405660225062612 
1723	 0.405662123917856 
1724	 0.4056501437355 
1725	 0.405638556039253 
1726	 0.405636961104036 
1727	 0.40561959175269 
1728	 0.405580428007559 
1729	 0.405560077965459 
1730	 0.405542779302541 
1731	 0.405526541404581 
1732	 0.40551529335515 
1733	 0.405501608782907 
1734	 0.405490187947183 
1735	 0.405481986606294 
1736	 0.405484426129044 
1737	 0.405461556696942 
1738	 0.405426604555626 
1739	 0.405386944220041 
1740	 0.405320552934798 
1741	 0.405292559148612 
1742	 0.405272663650206 
1743	 0.405276208077096 
1744	 0.405315027393035 
1745	 0.405323650928724 
1746	 0.405340061053495 
1747	 0.4053353930682 
1748	 0.40531163018117 
1749	 0.405293723685335 
1750	 0.405279905754705 
1751	 0.405277444247973 
1752	 0.405272972411714 
1753	 0.405265360593586 
1754	 0.405251777226973 
1755	 0.405221218855343 
1756	 0.405199760521154 
1757	 0.40517075796257 
1758	 0.405143293063297 
1759	 0.405131105549649 
1760	 0.405106071382624 
1761	 0.405102307166265 
1762	 0.405094878007928 
1763	 0.40506913848292 
1764	 0.405068487032554 
1765	 0.405072627336945 
1766	 0.405080378743211 
1767	 0.405105498893571 
1768	 0.405141894942785 
1769	 0.4051614563799 
1770	 0.405174637428649 
1771	 0.405197001599112 
1772	 0.405189146824602 
1773	 0.405186425359574 
1774	 0.405197678141014 
1775	 0.405171952444752 
1776	 0.405153475635777 
1777	 0.405172000952482 
1778	 0.405182981630185 
1779	 0.405232327176108 
1780	 0.405289815510353 
1781	 0.405284332385806 
1782	 0.405300846496083 
1783	 0.405286576898873 
1784	 0.405286057513859 
1785	 0.405299037127139 
1786	 0.405310849477645 
1787	 0.405342600187879 
1788	 0.405351697292376 
1789	 0.405333116736773 
1790	 0.405343736108344 
1791	 0.405336320608744 
1792	 0.405376973613902 
1793	 0.405482577257323 
1794	 0.405544131414424 
1795	 0.405611072538528 
1796	 0.405661839512057 
1797	 0.40568422322655 
1798	 0.405732034491094 
1799	 0.405802604515395 
1800	 0.405831059592292 
1801	 0.41007758197002 
1802	 0.410037254226524 
1803	 0.410000422374608 
1804	 0.41001789330193 
1805	 0.410050341468092 
1806	 0.410072950864897 
1807	 0.410116921338157 
1808	 0.410135770461405 
1809	 0.410103981658816 
1810	 0.410096067840298 
1811	 0.410093548751275 
1812	 0.410110504275035 
1813	 0.410107509870011 
1814	 0.410129926544892 
1815	 0.410178556803068 
1816	 0.410210247701118 
1817	 0.410243422661842 
1818	 0.410298180465871 
1819	 0.410321201973939 
1820	 0.410325717273527 
1821	 0.410329229247354 
1822	 0.410344635983319 
1823	 0.410299354512953 
1824	 0.410274810559643 
1825	 0.41029142526052 
1826	 0.410252264406316 
1827	 0.410223705976591 
1828	 0.410189310216912 
1829	 0.41012756616748 
1830	 0.410078122718623 
1831	 0.410023563086916 
1832	 0.409999207660659 
1833	 0.409981987895136 
1834	 0.409987823368531 
1835	 0.409995997738769 
1836	 0.409976410801869 
1837	 0.409949883018097 
1838	 0.409920648965272 
1839	 0.409919337751652 
1840	 0.409929069272419 
1841	 0.409968904179292 
1842	 0.409987749877869 
1843	 0.41000777726066 
1844	 0.410004616639933 
1845	 0.409969731292954 
1846	 0.410003241494189 
1847	 0.410045055961388 
1848	 0.410060758568997 
1849	 0.410096405178846 
1850	 0.410115303558931 
1851	 0.41011623519213 
1852	 0.410094600019024 
1853	 0.410088372770533 
1854	 0.41009939168398 
1855	 0.410067848061094 
1856	 0.410021448627526 
1857	 0.410008284435246 
1858	 0.40998347279021 
1859	 0.409981740906028 
1860	 0.409971255548901 
1861	 0.409989633047188 
1862	 0.409952656027909 
1863	 0.409889055391651 
1864	 0.409821120355452 
1865	 0.409730429697327 
1866	 0.409645004897076 
1867	 0.409571224996749 
1868	 0.409490561858097 
1869	 0.40943325331233 
1870	 0.409374504542224 
1871	 0.409278514101829 
1872	 0.409165288285092 
1873	 0.40903611013862 
1874	 0.408882609754186 
1875	 0.408703794926085 
1876	 0.408527823284332 
1877	 0.408353258589151 
1878	 0.408147807289911 
1879	 0.407925012372328 
1880	 0.407665649148589 
1881	 0.407396693256696 
1882	 0.40706440397564 
1883	 0.406684090409965 
1884	 0.406260105487111 
1885	 0.405823359352002 
1886	 0.405353499332698 
1887	 0.404846284424924 
1888	 0.404310701821555 
1889	 0.403757470405696 
1890	 0.403179002017206 
1891	 0.40257283825422 
1892	 0.401939938861912 
1893	 0.40130443275162 
1894	 0.400637635707315 
1895	 0.399955449543547 
1896	 0.399295949625623 
1897	 0.398667234945829 
1898	 0.398037986898672 
1899	 0.397436042844887 
1900	 0.396883251551984 
1901	 0.396370506515338 
1902	 0.395875141244498 
1903	 0.395421815768039 
1904	 0.394976626803153 
1905	 0.394540036827725 
1906	 0.394142793672404 
1907	 0.393768636037428 
1908	 0.39343126745653 
1909	 0.393129094579703 
1910	 0.392803787258357 
1911	 0.392471998006809 
1912	 0.392156244615485 
1913	 0.391842292047071 
1914	 0.391506913038376 
1915	 0.391212282727064 
1916	 0.390939213615801 
1917	 0.390682865472206 
1918	 0.390437637716703 
1919	 0.390216297979827 
1920	 0.390006900917439 
1921	 0.389793718535547 
1922	 0.389582495629616 
1923	 0.389382691160597 
1924	 0.389223097066599 
1925	 0.38908225883656 
1926	 0.388969368340595 
1927	 0.388897265689996 
1928	 0.388849125672081 
1929	 0.388784569404001 
1930	 0.388714760756409 
1931	 0.388646550865429 
1932	 0.388589530714155 
1933	 0.388556039116769 
1934	 0.388514772911761 
1935	 0.388496790859607 
1936	 0.388499213878872 
1937	 0.388505189096204 
1938	 0.388507431616489 
1939	 0.388550756124649 
1940	 0.388620660969203 
1941	 0.388695789881125 
1942	 0.388789381441438 
1943	 0.388913031686656 
1944	 0.389058246580515 
1945	 0.389202908333137 
1946	 0.389337797304256 
1947	 0.389479272297172 
1948	 0.389626929974054 
1949	 0.389757172524801 
1950	 0.389903945532913 
1951	 0.39006329643616 
1952	 0.390247554244386 
1953	 0.390424191457569 
1954	 0.39059878630482 
1955	 0.39078231231105 
1956	 0.390933268053123 
1957	 0.391091286301461 
1958	 0.391229671727207 
1959	 0.391387087545716 
1960	 0.391545263930057 
1961	 0.391721634348907 
1962	 0.391905655182615 
1963	 0.392096748361726 
1964	 0.392295074867969 
1965	 0.392520098725005 
1966	 0.392736446727103 
1967	 0.392959645379986 
1968	 0.393190305261832 
1969	 0.393432942193052 
1970	 0.393667050235924 
1971	 0.393910315196725 
1972	 0.39414024811454 
1973	 0.394367216726332 
1974	 0.394584864147264 
1975	 0.394790534546464 
1976	 0.394994738921201 
1977	 0.39520241251477 
1978	 0.395405397143737 
1979	 0.395626851451102 
1980	 0.395869748750095 
1981	 0.396094915621028 
1982	 0.396312859727253 
1983	 0.396549746547166 
1984	 0.396780723166481 
1985	 0.397026537288201 
1986	 0.397307723526965 
1987	 0.397566042185548 
1988	 0.397812753248995 
1989	 0.398072190093122 
1990	 0.398301984943667 
1991	 0.398548377587773 
1992	 0.398828015475491 
1993	 0.399133840319215 
1994	 0.399424557326805 
1995	 0.399748406835437 
1996	 0.40004300964053 
1997	 0.400317853658261 
1998	 0.400592600314358 
1999	 0.400874309399618 
2000	 0.401137362444063 
2001	 0.401388066536535 
2002	 0.401616800049337 
2003	 0.401864682934362 
2004	 0.402082504751998 
2005	 0.402318541500549 
2006	 0.402551772142536 
2007	 0.402810219368924 
2008	 0.40308618646096 
2009	 0.40335265259925 
2010	 0.403633423021001 
2011	 0.40391226922208 
2012	 0.404180371644625 
2013	 0.404454870204701 
2014	 0.404750478664535 
2015	 0.405021283581031 
2016	 0.405295961925508 
2017	 0.405596323549228 
2018	 0.405886354152554 
2019	 0.406191703571622 
2020	 0.406477066840859 
2021	 0.406743562871273 
2022	 0.407026950841114 
2023	 0.407311704494102 
2024	 0.407595857623836 
2025	 0.407907792450564 
2026	 0.408183928799967 
2027	 0.408433262337191 
2028	 0.40869125429413 
2029	 0.408929792574746 
2030	 0.40914179951863 
2031	 0.40936601368701 
2032	 0.40958403738748 
2033	 0.409807603881025 
2034	 0.410037968440967 
2035	 0.410257777084859 
2036	 0.410481892890209 
2037	 0.410691914872483 
2038	 0.410885559507387 
2039	 0.411078722461204 
2040	 0.411261455798779 
2041	 0.411447133753356 
2042	 0.411639607720753 
2043	 0.411836793286527 
2044	 0.412013935693836 
2045	 0.41218283619587 
2046	 0.412358140363767 
2047	 0.412525342220883 
2048	 0.412688045469245 
2049	 0.412855418073431 
2050	 0.413017982125819 
2051	 0.413161390555182 
2052	 0.413315292948394 
2053	 0.413488429287281 
2054	 0.4136451097197 
2055	 0.413797052311063 
2056	 0.413936753205652 
2057	 0.414079839315351 
2058	 0.414219259900687 
2059	 0.41435068221604 
2060	 0.414476897601146 
2061	 0.414604499549309 
2062	 0.414717787291552 
2063	 0.41484235572363 
2064	 0.414969929356302 
2065	 0.415109602253814 
2066	 0.41525194293369 
2067	 0.415405100053097 
2068	 0.415595394081785 
2069	 0.415747820094389 
2070	 0.415902519194137 
2071	 0.416057982646926 
2072	 0.416203924552291 
2073	 0.416325850539976 
2074	 0.416473520535675 
2075	 0.416628933868265 
2076	 0.416784642459465 
2077	 0.416951832556895 
2078	 0.417116820739344 
2079	 0.417277077702618 
2080	 0.417445482060921 
2081	 0.417640293794057 
2082	 0.417802972863333 
2083	 0.417946781269952 
2084	 0.418095903442267 
2085	 0.418238886308376 
2086	 0.418361633966704 
2087	 0.418493219192388 
2088	 0.418631509979403 
2089	 0.418763869523572 
2090	 0.418887378851734 
2091	 0.419013013140093 
2092	 0.419143218917116 
2093	 0.419271515623486 
2094	 0.419387590868282 
2095	 0.41951693982931 
2096	 0.419628923003256 
2097	 0.419782688325808 
2098	 0.419974811662046 
2099	 0.420165640135516 
2100	 0.420345708208449 
2101	 0.420555738964261 
2102	 0.420727980075471 
2103	 0.420854984698766 
2104	 0.421023943789149 
2105	 0.421207762161667 
2106	 0.42138456003856 
2107	 0.421575923055113 
2108	 0.421755587987676 
2109	 0.421913676356147 
2110	 0.422095642103134 
2111	 0.422290011727301 
2112	 0.422483209231868 
2113	 0.422708192133535 
2114	 0.42289733940698 
2115	 0.423085652762204 
2116	 0.423251456924839 
2117	 0.423457378973453 
2118	 0.423666390429933 
2119	 0.423888415270405 
2120	 0.424160129400102 
2121	 0.424381378455585 
2122	 0.424584192941009 
2123	 0.424782400383791 
2124	 0.424963642039555 
2125	 0.425136235811187 
2126	 0.425301984124262 
2127	 0.425459679500327 
2128	 0.425610032890311 
2129	 0.425745097174144 
2130	 0.425874044731744 
2131	 0.425991460984174 
2132	 0.426075363861429 
2133	 0.426137541612906 
2134	 0.426175217811034 
2135	 0.426187851647823 
2136	 0.426173711030381 
2137	 0.426122484982653 
2138	 0.42607404535254 
2139	 0.426001805641657 
2140	 0.425926433615113 
2141	 0.425853161244742 
2142	 0.425759992975631 
2143	 0.425641666299449 
2144	 0.425524776824744 
2145	 0.425412064493453 
2146	 0.425272891382116 
2147	 0.42511467606706 
2148	 0.424954853496758 
2149	 0.424773926587353 
2150	 0.424563262064027 
2151	 0.424359597317804 
2152	 0.424159819264313 
2153	 0.423930078808028 
2154	 0.423682625441485 
2155	 0.423428552104499 
2156	 0.423155875636208 
2157	 0.422873766199124 
2158	 0.422603757702957 
2159	 0.422285520512882 
2160	 0.42193076088417 
2161	 0.421567682050927 
2162	 0.421166043123118 
2163	 0.42076468147423 
2164	 0.420363085112323 
2165	 0.419931579914924 
2166	 0.419522522612511 
2167	 0.419105706393927 
2168	 0.418706220761568 
2169	 0.418325440906294 
2170	 0.417932578757215 
2171	 0.417534792723189 
2172	 0.417146629716731 
2173	 0.416766539104157 
2174	 0.416375816838181 
2175	 0.415990651904441 
2176	 0.415595753499405 
2177	 0.415192285556146 
2178	 0.414781199535428 
2179	 0.414367978799683 
2180	 0.413945471848606 
2181	 0.413503014956386 
2182	 0.413063701527047 
2183	 0.412603273558217 
2184	 0.412174297203292 
2185	 0.411741845037665 
2186	 0.411307147372622 
2187	 0.410894468269357 
2188	 0.410488830458737 
2189	 0.41010399009984 
2190	 0.409737720923128 
2191	 0.409385318137795 
2192	 0.409046984499675 
2193	 0.408731496856914 
2194	 0.408431988943753 
2195	 0.408147790971491 
2196	 0.407886548406254 
2197	 0.40763877304905 
2198	 0.407410014024128 
2199	 0.407192322738856 
2200	 0.406989984480074 
2201	 0.406801965155331 
2202	 0.406618163453984 
2203	 0.406445310511669 
2204	 0.406339868707397 
2205	 0.406265395179347 
2206	 0.406237404811111 
2207	 0.406285141042214 
2208	 0.406313508891401 
2209	 0.406364638241078 
2210	 0.406427912910151 
2211	 0.406497801296908 
2212	 0.406593413471836 
2213	 0.40673255698971 
2214	 0.406841392906136 
2215	 0.406983211008497 
2216	 0.407067588071253 
2217	 0.407103906079857 
2218	 0.407148306494097 
2219	 0.407157883313538 
2220	 0.407181865994228 
2221	 0.40721150015971 
2222	 0.407242781148904 
2223	 0.407272695906905 
2224	 0.407287138357058 
2225	 0.407326404271796 
2226	 0.407387511082313 
2227	 0.407408775051696 
2228	 0.407432100766072 
2229	 0.407437123744895 
2230	 0.4074100494369 
2231	 0.40737739834626 
2232	 0.407341798289788 
2233	 0.407294072271256 
2234	 0.407216380864014 
2235	 0.407156680284796 
2236	 0.407088518519943 
2237	 0.407042880617541 
2238	 0.407026119887664 
2239	 0.406978220362893 
2240	 0.406945532073365 
2241	 0.40688724833779 
2242	 0.406757394839528 
2243	 0.406683666883547 
2244	 0.406635650369759 
2245	 0.406581445835044 
2246	 0.406553539584034 
2247	 0.406567958317621 
2248	 0.406567712717177 
2249	 0.406564375139564 
2250	 0.406578896655262 
2251	 0.406625408955404 
2252	 0.406631005752435 
2253	 0.406616396368296 
2254	 0.40662637761539 
2255	 0.406604717485619 
2256	 0.406640295158932 
2257	 0.406740503342432 
2258	 0.406801802597325 
2259	 0.406859364496449 
2260	 0.406936477587129 
2261	 0.407001384997274 
2262	 0.407089461480127 
2263	 0.407238548760504 
2264	 0.407332027862278 
2265	 0.407381023574836 
2266	 0.407464433519145 
2267	 0.407524764462961 
2268	 0.407615203841311 
2269	 0.407738327586994 
2270	 0.407894584828894 
2271	 0.408006527385605 
2272	 0.4081292997964 
2273	 0.408246240630559 
2274	 0.408335958890637 
2275	 0.408435016005154 
2276	 0.408520717047356 
2277	 0.408642900781346 
2278	 0.40877286060492 
2279	 0.408920734494744 
2280	 0.409108912774459 
2281	 0.409269470827093 
2282	 0.409443827398176 
2283	 0.409573803348843 
2284	 0.409659944742762 
2285	 0.409790463848953 
2286	 0.409903119304104 
2287	 0.410039827733742 
2288	 0.410243244754259 
2289	 0.41038623207693 
2290	 0.410506125083706 
2291	 0.41062324996072 
2292	 0.410693509147432 
2293	 0.410794446060426 
2294	 0.410914431727805 
2295	 0.411021976714591 
2296	 0.41111457218523 
2297	 0.411243819319712 
2298	 0.411387072621545 
2299	 0.411531510336987 
2300	 0.411744401644125 
2301	 0.411984494994414 
2302	 0.412170161509717 
2303	 0.412336155809203 
2304	 0.412475700347689 
2305	 0.412562686002902 
2306	 0.412627972078009 
2307	 0.412639116336944 
2308	 0.412716929669532 
2309	 0.412795442124783 
2310	 0.412846972408666 
2311	 0.412938906416653 
2312	 0.413005239291535 
2313	 0.41301756515625 
2314	 0.413057778046879 
2315	 0.413103960365299 
2316	 0.413173660199087 
2317	 0.413232404640196 
2318	 0.413328459556181 
2319	 0.413510986529928 
2320	 0.413617635276402 
2321	 0.413679831322708 
2322	 0.413762890854853 
2323	 0.413807063653997 
2324	 0.41389796327359 
2325	 0.414050836220801 
2326	 0.414186144335319 
2327	 0.414340069935586 
2328	 0.414446501003331 
2329	 0.414598535272868 
2330	 0.414717463316227 
2331	 0.414815151255584 
2332	 0.414973572860925 
2333	 0.415141794820449 
2334	 0.415224663851235 
2335	 0.41529114330574 
2336	 0.4153853310361 
2337	 0.41547756184855 
2338	 0.415588540411976 
2339	 0.415742951081415 
2340	 0.415914141962157 
2341	 0.416085385321795 
2342	 0.416235464403459 
2343	 0.416340613533396 
2344	 0.416467602807322 
2345	 0.41653633066271 
2346	 0.416550316083744 
2347	 0.416547033861076 
2348	 0.416508818221076 
2349	 0.41645813095252 
2350	 0.416345961126862 
2351	 0.416289690033687 
2352	 0.416239932030938 
2353	 0.416215320904946 
2354	 0.416230979458259 
2355	 0.416238653498162 
2356	 0.416290621272777 
2357	 0.416274734954304 
2358	 0.416213522733205 
2359	 0.416173342676312 
2360	 0.416085650736269 
2361	 0.416039711114817 
2362	 0.416066189718976 
2363	 0.416015023140778 
2364	 0.415926509306646 
2365	 0.415837732713495 
2366	 0.415688577539746 
2367	 0.415585342088714 
2368	 0.415519419066695 
2369	 0.41545460603709 
2370	 0.415408650627359 
2371	 0.41533656837227 
2372	 0.415312055954517 
2373	 0.415158612285694 
2374	 0.414974260439313 
2375	 0.414824913044898 
2376	 0.414547843245464 
2377	 0.414326226450124 
2378	 0.414177348227084 
2379	 0.414023194737047 
2380	 0.41395379880558 
2381	 0.413879216592374 
2382	 0.413774347133088 
2383	 0.413647392384592 
2384	 0.413447805281555 
2385	 0.413288877822377 
2386	 0.41311736986253 
2387	 0.412927490947881 
2388	 0.41282894986505 
2389	 0.41269228789461 
2390	 0.41255385041655 
2391	 0.412368355680148 
2392	 0.412101741386052 
2393	 0.411894541770773 
2394	 0.411695863095636 
2395	 0.411541561479374 
2396	 0.411468485740962 
2397	 0.411387981693821 
2398	 0.411295696210792 
2399	 0.411183181816799 
2400	 0.410979098554273 
2401	 0.410789387802944 
2402	 0.410669938753898 
2403	 0.410510360257044 
2404	 0.410449774160435 
2405	 0.41040226747655 
2406	 0.410084911782641 
2407	 0.409770615460571 
2408	 0.409515036716262 
2409	 0.409213549436565 
2410	 0.409056303420194 
2411	 0.408927236774365 
2412	 0.40873108861057 
2413	 0.408477904423078 
2414	 0.408178857596182 
2415	 0.407874586182518 
2416	 0.407586816804919 
2417	 0.407262511968522 
2418	 0.407004052678443 
2419	 0.406806957225595 
2420	 0.406610190037703 
2421	 0.406442903434886 
2422	 0.406217970461989 
2423	 0.405949230775526 
2424	 0.405744291360946 
2425	 0.405540092907301 
2426	 0.405375618822715 
2427	 0.405312501052622 
2428	 0.405176123973105 
2429	 0.405013655724535 
2430	 0.404847613885364 
2431	 0.404669956229943 
2432	 0.40444821953882 
2433	 0.404181162207716 
2434	 0.403979146636496 
2435	 0.403767171167963 
2436	 0.403551530499611 
2437	 0.403363161161643 
2438	 0.40314045680378 
2439	 0.402852247101391 
2440	 0.402704049426958 
2441	 0.402684715508569 
2442	 0.402609329930591 
2443	 0.40256599120891 
2444	 0.402448951322839 
2445	 0.402272663963549 
2446	 0.402074889271402 
2447	 0.401838457269377 
2448	 0.401637833968889 
2449	 0.401425830001791 
2450	 0.401254302430788 
2451	 0.401094801859508 
2452	 0.400956910848591 
2453	 0.400907519113586 
2454	 0.400715625911749 
2455	 0.400425677644643 
2456	 0.400267128625994 
2457	 0.400075734596332 
2458	 0.399932300332736 
2459	 0.399974913647308 
2460	 0.399810678768269 
2461	 0.39949351182779 
2462	 0.399273756712241 
2463	 0.39896528129061 
2464	 0.39879020560328 
2465	 0.398807123352138 
2466	 0.398712199571205 
2467	 0.398610817529182 
2468	 0.398433629688171 
2469	 0.398139905030988 
2470	 0.397800940408766 
2471	 0.3976911982546 
2472	 0.3976148297161 
2473	 0.397351032349337 
2474	 0.397043460754198 
2475	 0.396826238507342 
2476	 0.396751747226221 
2477	 0.396726388960552 
2478	 0.396712325574695 
2479	 0.396608243697626 
2480	 0.396400770464116 
2481	 0.396270550103346 
2482	 0.39637114254993 
2483	 0.396393062683521 
2484	 0.396093592904362 
2485	 0.395825972509781 
2486	 0.3955770563958 
2487	 0.395380148438721 
2488	 0.39543566644826 
2489	 0.395487515670463 
2490	 0.395307288445347 
2491	 0.394911960252505 
2492	 0.394493186239465 
2493	 0.39426071226473 
2494	 0.39407539372702 
2495	 0.393996251857166 
2496	 0.394069199798365 
2497	 0.393931818137741 
2498	 0.393855956554888 
2499	 0.393831387070565 
2500	 0.393645657410387 
