Wavelength	LMW200006.asd
350	 7.39676466248462E-02 
351	 7.50997407413793E-02 
352	 7.19498851762806E-02 
353	 6.31151898773339E-02 
354	 6.31570422153764E-02 
355	 6.60668042668521E-02 
356	 6.78844483950424E-02 
357	 6.69147733489249E-02 
358	 0.068531676308531 
359	 6.84395502282689E-02 
360	 6.72798301649187E-02 
361	 6.83626859801137E-02 
362	 6.53364364766768E-02 
363	 6.44868732303349E-02 
364	 6.74714631193717E-02 
365	 6.64513559073287E-02 
366	 6.71523446430792E-02 
367	 6.83241688250429E-02 
368	 6.79354465273026E-02 
369	 6.84884414440611E-02 
370	 6.92817749710426E-02 
371	 6.94463573537859E-02 
372	 6.84471968557449E-02 
373	 7.02653445822091E-02 
374	 7.21034187214868E-02 
375	 7.22145969689638E-02 
376	 0.072278552644976 
377	 7.07398917179419E-02 
378	 6.98390745963444E-02 
379	 0.071780191058719 
380	 0.07422543889941 
381	 0.073552498726865 
382	 7.15664453490995E-02 
383	 7.36380772274124E-02 
384	 7.57609583475602E-02 
385	 7.54417094614173E-02 
386	 7.34329294718881E-02 
387	 7.62484188215174E-02 
388	 7.78726167680533E-02 
389	 7.76596981539053E-02 
390	 7.69461449536612E-02 
391	 7.74075646969797E-02 
392	 7.78658070322866E-02 
393	 7.87560787409654E-02 
394	 8.16848812813789E-02 
395	 8.26824832874373E-02 
396	 8.29566363488716E-02 
397	 8.35761550999396E-02 
398	 8.32919527880459E-02 
399	 8.34839194218785E-02 
400	 8.45759431672916E-02 
401	 8.64144851613015E-02 
402	 8.82481476132602E-02 
403	 8.84690247176987E-02 
404	 8.76630952089036E-02 
405	 8.84941842644635E-02 
406	 8.95948471168262E-02 
407	 9.08537518565648E-02 
408	 9.19177045828896E-02 
409	 9.10195086213849E-02 
410	 9.10518121290563E-02 
411	 9.19820822292202E-02 
412	 9.25243421789002E-02 
413	 9.34463207464779E-02 
414	 9.41062219655413E-02 
415	 9.41973627149274E-02 
416	 9.39405798104987E-02 
417	 9.44095226164407E-02 
418	 9.53794283251317E-02 
419	 9.61449268394007E-02 
420	 9.56107496480362E-02 
421	 9.50613728273558E-02 
422	 9.50601735814334E-02 
423	 9.55689590316193E-02 
424	 9.59197992388788E-02 
425	 9.57263087608549E-02 
426	 9.51675559901848E-02 
427	 9.53687146018884E-02 
428	 9.49780558848422E-02 
429	 9.45185217157336E-02 
430	 0.094747282549043 
431	 9.44230846380447E-02 
432	 9.41507759645728E-02 
433	 9.40880703810463E-02 
434	 9.38979236343327E-02 
435	 9.41155806160017E-02 
436	 9.41726482198384E-02 
437	 9.37399557895558E-02 
438	 9.35712173214034E-02 
439	 9.40628975378419E-02 
440	 9.47552363973783E-02 
441	 9.48743842520267E-02 
442	 9.50409384820138E-02 
443	 9.53104903450585E-02 
444	 9.56399063180971E-02 
445	 9.59328270467232E-02 
446	 9.61224308196337E-02 
447	 9.63424679194988E-02 
448	 9.67458290720251E-02 
449	 9.72937717911352E-02 
450	 0.097932249024349 
451	 9.85578247613558E-02 
452	 9.90281049996602E-02 
453	 9.92219271312194E-02 
454	 9.93251329550321E-02 
455	 9.95259526674104E-02 
456	 9.98962106684421E-02 
457	 0.100236917445531 
458	 0.100453242893452 
459	 0.100541748823037 
460	 0.100752858413422 
461	 0.100959594239439 
462	 0.101111074203665 
463	 0.10131320900742 
464	 0.101466065728804 
465	 0.101659407815319 
466	 0.101978685458632 
467	 0.102307646111477 
468	 0.102503410848888 
469	 0.102514271240067 
470	 0.102387103844127 
471	 0.102444842873816 
472	 0.102559656670445 
473	 0.10262365800977 
474	 0.102773115439024 
475	 0.102993744907112 
476	 0.103138034099814 
477	 0.103062137497799 
478	 0.10310438395199 
479	 0.10319770796166 
480	 0.10331222938781 
481	 0.103527061735957 
482	 0.10357109421941 
483	 0.103718331227499 
484	 0.104157462525161 
485	 0.104115237913665 
486	 0.103972680628071 
487	 0.103941171764124 
488	 0.104044969796726 
489	 0.104004190222514 
490	 0.104080354650429 
491	 0.104393160040902 
492	 0.104486466891362 
493	 0.104563506701057 
494	 0.104645191521123 
495	 0.104690594023083 
496	 0.104811718596881 
497	 0.104961858972184 
498	 0.105079657021592 
499	 0.105100047047615 
500	 0.105243962029176 
501	 0.105329342180004 
502	 0.105191820404254 
503	 0.105289098563739 
504	 0.10539301560615 
505	 0.105430758862035 
506	 0.105493490929832 
507	 0.105631299266978 
508	 0.105743876864096 
509	 0.105757221288365 
510	 0.10572966177248 
511	 0.105808383737734 
512	 0.105913710502658 
513	 0.105888058850539 
514	 0.106098019722245 
515	 0.106294655893143 
516	 0.106327192441869 
517	 0.106313072326067 
518	 0.106398025121988 
519	 0.106486223946144 
520	 0.106465005677559 
521	 0.106622181095898 
522	 0.106707216489146 
523	 0.10670057666886 
524	 0.106846995953392 
525	 0.106868991158694 
526	 0.106856923129724 
527	 0.10692933037216 
528	 0.107034210841016 
529	 0.107083672650276 
530	 0.107135160800521 
531	 0.107317505049202 
532	 0.107376340509856 
533	 0.107441953799293 
534	 0.107584426596569 
535	 0.107616859944874 
536	 0.107777213725017 
537	 0.107970840778679 
538	 0.108016896496225 
539	 0.108126025015891 
540	 0.108163186461106 
541	 0.108148751524312 
542	 0.108343708517181 
543	 0.108476615244002 
544	 0.108577104774007 
545	 0.108721247802005 
546	 0.108820469530097 
547	 0.108936803401152 
548	 0.109075495294813 
549	 0.109193506080732 
550	 0.109333612515845 
551	 0.109494585898617 
552	 0.109684770413812 
553	 0.109978391551659 
554	 0.11017446746461 
555	 0.110319110518082 
556	 0.110572483872898 
557	 0.110818562769647 
558	 0.111070794660675 
559	 0.111350271181379 
560	 0.111672017656122 
561	 0.111953516664983 
562	 0.11222609520336 
563	 0.1125549021865 
564	 0.112949813915294 
565	 0.113326347687247 
566	 0.113651947739539 
567	 0.113960418065619 
568	 0.114405135866817 
569	 0.114899169539626 
570	 0.11535168221004 
571	 0.115878432973431 
572	 0.116420549268573 
573	 0.116967005195187 
574	 0.117534363173747 
575	 0.11803425463658 
576	 0.118564212845823 
577	 0.119184300654848 
578	 0.119811745857383 
579	 0.120469447291509 
580	 0.121146604431617 
581	 0.121831259518352 
582	 0.12259398152696 
583	 0.123359268258036 
584	 0.12409598705303 
585	 0.124858370584469 
586	 0.1255831470451 
587	 0.126288442183301 
588	 0.127016989671746 
589	 0.127805855391841 
590	 0.128624668845863 
591	 0.129447429149659 
592	 0.130257450156435 
593	 0.131044187968075 
594	 0.131851281412264 
595	 0.132698490650149 
596	 0.133526375548009 
597	 0.134305916236376 
598	 0.135045085872654 
599	 0.135781101221576 
600	 0.136566571404216 
601	 0.137323481834119 
602	 0.138021856532063 
603	 0.13875124853718 
604	 0.139427551843578 
605	 0.140053718869013 
606	 0.140667700685073 
607	 0.141314301510292 
608	 0.141951525866735 
609	 0.142544364293857 
610	 0.143075073896623 
611	 0.143628856097726 
612	 0.144160611258431 
613	 0.144625846462167 
614	 0.145104489119377 
615	 0.145561917403629 
616	 0.145979507154347 
617	 0.146352904946905 
618	 0.14672486193403 
619	 0.147078625976578 
620	 0.147397742321385 
621	 0.147681478128437 
622	 0.147955867605853 
623	 0.148241556764781 
624	 0.148549474718585 
625	 0.148853805026708 
626	 0.14911669960278 
627	 0.149338861414759 
628	 0.149570310075061 
629	 0.1498819324708 
630	 0.150168161995203 
631	 0.150337578817602 
632	 0.15055832882093 
633	 0.150754252063873 
634	 0.150945117957538 
635	 0.151220579898875 
636	 0.151423176582074 
637	 0.151601396916795 
638	 0.1518112840867 
639	 0.152035262160835 
640	 0.152277188948531 
641	 0.152505285661797 
642	 0.152688550194439 
643	 0.152937029420856 
644	 0.153161657534784 
645	 0.153354231277083 
646	 0.153653154717212 
647	 0.153877131011302 
648	 0.154078429875602 
649	 0.15434304300791 
650	 0.154591272540051 
651	 0.154832712773735 
652	 0.155077742038164 
653	 0.155334982385381 
654	 0.155598399082656 
655	 0.155849186395426 
656	 0.156090395276211 
657	 0.156382417200432 
658	 0.156708573998674 
659	 0.157017991893049 
660	 0.157259741821996 
661	 0.157524930572429 
662	 0.157854331196735 
663	 0.158227900493982 
664	 0.158547861115049 
665	 0.158849845601812 
666	 0.159175155929975 
667	 0.159535208988205 
668	 0.15979089465764 
669	 0.160138306596336 
670	 0.160573091985906 
671	 0.160925691579185 
672	 0.16132215226558 
673	 0.161737954569872 
674	 0.162135920727167 
675	 0.162502259305101 
676	 0.162914034217844 
677	 0.163340997090955 
678	 0.163723083793605 
679	 0.164158313531365 
680	 0.164602113510011 
681	 0.165044454950487 
682	 0.16553747060754 
683	 0.165998502352766 
684	 0.1664278175168 
685	 0.166864188985836 
686	 0.167401346854264 
687	 0.16790728092443 
688	 0.168384279427447 
689	 0.168923207364196 
690	 0.169422375981215 
691	 0.169905214539167 
692	 0.170409063546417 
693	 0.17096839265684 
694	 0.171496338708506 
695	 0.172021145541706 
696	 0.172596054563879 
697	 0.173153253580433 
698	 0.173709570788788 
699	 0.174274013752003 
700	 0.174841140909666 
701	 0.175397390872636 
702	 0.175965983678469 
703	 0.176554323638838 
704	 0.177103695818961 
705	 0.177644313782884 
706	 0.178205497122851 
707	 0.178801253232107 
708	 0.179327041657134 
709	 0.179865386791635 
710	 0.18046471300372 
711	 0.181098724369207 
712	 0.181675419344839 
713	 0.182216764844377 
714	 0.182765274643707 
715	 0.183288566265303 
716	 0.183852196763264 
717	 0.184431968832556 
718	 0.184942746322888 
719	 0.185425153662076 
720	 0.185911108174158 
721	 0.186396931356899 
722	 0.186800391269326 
723	 0.187341066328567 
724	 0.187887983513314 
725	 0.188259169342707 
726	 0.18867573908423 
727	 0.189085879258657 
728	 0.189461202847057 
729	 0.189808826018866 
730	 0.190194010446791 
731	 0.190540871778854 
732	 0.190816169460996 
733	 0.191159928148681 
734	 0.191425204643155 
735	 0.191620138908672 
736	 0.1918188511683 
737	 0.192066693320681 
738	 0.192285015590149 
739	 0.192435286763636 
740	 0.192535967872365 
741	 0.192649367772107 
742	 0.192770789349802 
743	 0.192865356310553 
744	 0.192858738614125 
745	 0.192842204405443 
746	 0.192844991385848 
747	 0.192850063668641 
748	 0.192747957369602 
749	 0.192697122170279 
750	 0.192685575338094 
751	 0.192475478431693 
752	 0.192373403409723 
753	 0.192282425675596 
754	 0.192086589057791 
755	 0.191894542160725 
756	 0.191727127250433 
757	 0.191545230838013 
758	 0.191290797205446 
759	 0.191029433639704 
760	 0.190756069389651 
761	 0.19046800252094 
762	 0.190173136015026 
763	 0.18989909680946 
764	 0.189592958964392 
765	 0.189230908691184 
766	 0.188931749641747 
767	 0.188612748680621 
768	 0.188242372748464 
769	 0.187828876598778 
770	 0.187447875153658 
771	 0.187122843728357 
772	 0.186815281801945 
773	 0.186424939151759 
774	 0.186046241508638 
775	 0.185651322309862 
776	 0.185225560942706 
777	 0.18486919288221 
778	 0.184490511750958 
779	 0.18407229244194 
780	 0.18363950965168 
781	 0.183238514498435 
782	 0.18286342487988 
783	 0.182480259005614 
784	 0.182039232407037 
785	 0.181676540238391 
786	 0.181328112738355 
787	 0.180929451278301 
788	 0.180506626437251 
789	 0.180099766263018 
790	 0.179715366948818 
791	 0.17934221775151 
792	 0.178967845585967 
793	 0.178583932612297 
794	 0.178193957373623 
795	 0.177813188136856 
796	 0.17746466933021 
797	 0.177110168811715 
798	 0.176721127178187 
799	 0.176299270647816 
800	 0.175968130934954 
801	 0.175679561939859 
802	 0.175339760308019 
803	 0.17490089261876 
804	 0.174563302595642 
805	 0.174300983481771 
806	 0.173959780168371 
807	 0.173658348428424 
808	 0.173329362370964 
809	 0.172967581942285 
810	 0.172667822270501 
811	 0.17238105732049 
812	 0.172107662073657 
813	 0.171849759679432 
814	 0.171593517313283 
815	 0.17129231620569 
816	 0.170964365160988 
817	 0.170658997007771 
818	 0.170413203163705 
819	 0.170195312288713 
820	 0.16996733875975 
821	 0.169699032028509 
822	 0.169457515018954 
823	 0.169250264214398 
824	 0.169048177945456 
825	 0.168780004339418 
826	 0.168560621723708 
827	 0.168373170510796 
828	 0.168175269433562 
829	 0.167967305584259 
830	 0.167772116279352 
831	 0.167579640945388 
832	 0.167378602294964 
833	 0.167258933622362 
834	 0.167136774872925 
835	 0.166978493714092 
836	 0.166810934389002 
837	 0.166629183770832 
838	 0.166467069249602 
839	 0.166328597930553 
840	 0.166158117577785 
841	 0.166030233154903 
842	 0.16592686513732 
843	 0.1658160024243 
844	 0.165706545577172 
845	 0.16562730396237 
846	 0.165551883158833 
847	 0.165443059914556 
848	 0.165362806776048 
849	 0.165281048091213 
850	 0.165193209732475 
851	 0.165121248496974 
852	 0.165074705788284 
853	 0.165057263816875 
854	 0.165032148628109 
855	 0.16491251572374 
856	 0.164900761447061 
857	 0.164881797456509 
858	 0.164762820361354 
859	 0.164694601704822 
860	 0.164742115993833 
861	 0.164812261893075 
862	 0.164792303880722 
863	 0.164781156473796 
864	 0.164758461029238 
865	 0.164755733318397 
866	 0.164813689212435 
867	 0.164797432235789 
868	 0.16482983592392 
869	 0.164914422239983 
870	 0.164919783606398 
871	 0.164904097048521 
872	 0.16493271243087 
873	 0.165032245640834 
874	 0.165164911521794 
875	 0.165241468458818 
876	 0.165257735533883 
877	 0.165265362785807 
878	 0.165390013632845 
879	 0.165530832502944 
880	 0.165656458269685 
881	 0.165763921638631 
882	 0.165854910795838 
883	 0.165999621169553 
884	 0.166140749532851 
885	 0.166186341960425 
886	 0.166294610343622 
887	 0.166484609098963 
888	 0.166682312470042 
889	 0.16676941807776 
890	 0.166896192866321 
891	 0.16706569724477 
892	 0.167270596000017 
893	 0.167508752257762 
894	 0.16764490930968 
895	 0.167764633313456 
896	 0.167956254365253 
897	 0.168227556813581 
898	 0.168448812601416 
899	 0.168620346390419 
900	 0.168786318590414 
901	 0.168991824098878 
902	 0.169266205273771 
903	 0.169571809795363 
904	 0.1698510360986 
905	 0.170075600386187 
906	 0.170334960904195 
907	 0.170613262038491 
908	 0.17085255155943 
909	 0.171071432383723 
910	 0.171312817997319 
911	 0.171622078582483 
912	 0.172005404169786 
913	 0.172232761328204 
914	 0.172517998143785 
915	 0.172905503724542 
916	 0.1732599716123 
917	 0.173592847876226 
918	 0.173918376593649 
919	 0.174265940403252 
920	 0.174665630588411 
921	 0.174998889146134 
922	 0.175317066759274 
923	 0.17567833227918 
924	 0.176099325900473 
925	 0.17646003597113 
926	 0.176880262660058 
927	 0.177395509887811 
928	 0.177796973194345 
929	 0.178260014289247 
930	 0.178708655885468 
931	 0.179077654571631 
932	 0.179471303566735 
933	 0.179922566827677 
934	 0.180427571600696 
935	 0.180948009088575 
936	 0.181394388754136 
937	 0.181867456636658 
938	 0.182353254557809 
939	 0.182836748246594 
940	 0.183446888611253 
941	 0.183991615168903 
942	 0.18452368476344 
943	 0.185136592527897 
944	 0.185661942094771 
945	 0.186187364455362 
946	 0.186734378276868 
947	 0.187285236565074 
948	 0.187812491488209 
949	 0.188333169477292 
950	 0.18889416405977 
951	 0.189538016169125 
952	 0.190221663728396 
953	 0.190928169615536 
954	 0.191541883267978 
955	 0.191987098943316 
956	 0.192651744113958 
957	 0.193368402634239 
958	 0.194078000047017 
959	 0.194798235117262 
960	 0.195457424022354 
961	 0.196134063811138 
962	 0.196862065073263 
963	 0.197614618148711 
964	 0.198257005827581 
965	 0.198967730722231 
966	 0.199728346320755 
967	 0.200406452698552 
968	 0.201111611931735 
969	 0.201900733926595 
970	 0.202686558958614 
971	 0.203348199739266 
972	 0.204171823487214 
973	 0.204961683790745 
974	 0.20569638397125 
975	 0.206498662655845 
976	 0.207456581170539 
977	 0.208241136820026 
978	 0.208951776842568 
979	 0.209873351308175 
980	 0.210547388026105 
981	 0.211161533196137 
982	 0.211926284234682 
983	 0.212921174050177 
984	 0.213659705112151 
985	 0.214572062651262 
986	 0.215545794058585 
987	 0.216252827838755 
988	 0.21708976784904 
989	 0.217937472424541 
990	 0.218691489948328 
991	 0.219368419564329 
992	 0.220419246704102 
993	 0.221242389003298 
994	 0.221985937396972 
995	 0.222989232071657 
996	 0.223785032845917 
997	 0.224677898215766 
998	 0.225590465047607 
999	 0.226366324250522 
1000	 0.227142861129923 
1001	 0.230158658261064 
1002	 0.230950329622905 
1003	 0.231703278039965 
1004	 0.232498834708544 
1005	 0.233336189248902 
1006	 0.23412590650725 
1007	 0.234888063757047 
1008	 0.235714827068943 
1009	 0.236548072015411 
1010	 0.237361413828427 
1011	 0.238112444095292 
1012	 0.238882007643907 
1013	 0.23967361534605 
1014	 0.240373257582474 
1015	 0.241145220738595 
1016	 0.241934034696801 
1017	 0.242679780408467 
1018	 0.243346356194449 
1019	 0.244101902559613 
1020	 0.244850112577463 
1021	 0.245534306325972 
1022	 0.246247415124126 
1023	 0.246878452150494 
1024	 0.247548379651366 
1025	 0.2483211261214 
1026	 0.249013210990688 
1027	 0.249705793720843 
1028	 0.250375866774046 
1029	 0.250967555732768 
1030	 0.251585138936211 
1031	 0.25218943401491 
1032	 0.252780617780954 
1033	 0.253394312106224 
1034	 0.254062685123309 
1035	 0.254675754428249 
1036	 0.255297165273252 
1037	 0.255882372800157 
1038	 0.256394300359457 
1039	 0.25699475053813 
1040	 0.257583448853071 
1041	 0.258149027504494 
1042	 0.25873939315387 
1043	 0.259260191711806 
1044	 0.259819730629069 
1045	 0.260382942169368 
1046	 0.260992123893426 
1047	 0.261632179410761 
1048	 0.262254821200345 
1049	 0.262801547710795 
1050	 0.263364641886123 
1051	 0.263885705288408 
1052	 0.26439751164347 
1053	 0.264983269319384 
1054	 0.265553064160882 
1055	 0.266111318409318 
1056	 0.266700992265869 
1057	 0.267249888718726 
1058	 0.267752883717826 
1059	 0.268294118041069 
1060	 0.26884040238133 
1061	 0.269356221595268 
1062	 0.269941987378995 
1063	 0.270544514136606 
1064	 0.271099940757023 
1065	 0.271687151177152 
1066	 0.272246040304649 
1067	 0.272791837797686 
1068	 0.273403317075065 
1069	 0.273999430905024 
1070	 0.274559532185345 
1071	 0.275105158867555 
1072	 0.275650158349263 
1073	 0.276136613648813 
1074	 0.276659902043683 
1075	 0.277195951136845 
1076	 0.277736128227252 
1077	 0.278291274119767 
1078	 0.278884367180941 
1079	 0.279460390305378 
1080	 0.280020260640068 
1081	 0.280561323771007 
1082	 0.281073828498399 
1083	 0.281576564278805 
1084	 0.282026650776388 
1085	 0.282553653966543 
1086	 0.283113206285939 
1087	 0.283644483953606 
1088	 0.284196050826164 
1089	 0.284757803931785 
1090	 0.285263866748033 
1091	 0.285762717446933 
1092	 0.286276354931649 
1093	 0.286794585011415 
1094	 0.287304570714832 
1095	 0.287825092473538 
1096	 0.288389035804096 
1097	 0.288903472819548 
1098	 0.28943875994562 
1099	 0.290002271040092 
1100	 0.29053506771516 
1101	 0.291034827348408 
1102	 0.291579345323157 
1103	 0.292158109749303 
1104	 0.292669933623734 
1105	 0.293209541098288 
1106	 0.293788212017571 
1107	 0.294315080206747 
1108	 0.294834487919974 
1109	 0.295374236262137 
1110	 0.295896735555532 
1111	 0.296428321887773 
1112	 0.296955743855974 
1113	 0.297506042957811 
1114	 0.298081146445511 
1115	 0.298623744954206 
1116	 0.299169749790104 
1117	 0.299715346982679 
1118	 0.30023649524427 
1119	 0.300764089043708 
1120	 0.301339556313274 
1121	 0.301871352009798 
1122	 0.302400404617644 
1123	 0.302940506367607 
1124	 0.30348189465675 
1125	 0.304021820485061 
1126	 0.30456207028176 
1127	 0.305107378241105 
1128	 0.305653118882203 
1129	 0.306207493013486 
1130	 0.306733434873536 
1131	 0.307251377025234 
1132	 0.307764165909067 
1133	 0.308246253647037 
1134	 0.308746680427211 
1135	 0.309264540964787 
1136	 0.309766573733165 
1137	 0.310264194816654 
1138	 0.310746317556878 
1139	 0.311246784378385 
1140	 0.311747909685038 
1141	 0.312254414004429 
1142	 0.312783686469071 
1143	 0.313287358315736 
1144	 0.313783973129412 
1145	 0.314261665009623 
1146	 0.314714853844291 
1147	 0.315180150390827 
1148	 0.315639728008891 
1149	 0.316098840878904 
1150	 0.316552109294218 
1151	 0.317031169629673 
1152	 0.317490876470843 
1153	 0.317939118745876 
1154	 0.318395080061366 
1155	 0.318854835348112 
1156	 0.31931029562515 
1157	 0.319770298292693 
1158	 0.320216199907139 
1159	 0.320669813096635 
1160	 0.321094229644429 
1161	 0.321476138805729 
1162	 0.321893974959302 
1163	 0.322313658339017 
1164	 0.322731832733218 
1165	 0.323167016618777 
1166	 0.32361360630027 
1167	 0.324012032714025 
1168	 0.324418446917385 
1169	 0.32482125359617 
1170	 0.325219727691477 
1171	 0.325610191979839 
1172	 0.326010510357255 
1173	 0.32637948178714 
1174	 0.326711707099646 
1175	 0.327071890621442 
1176	 0.32743117437885 
1177	 0.327789958059291 
1178	 0.328169783636797 
1179	 0.328532398473141 
1180	 0.328886533144169 
1181	 0.329229351342625 
1182	 0.329557310100081 
1183	 0.329896014333623 
1184	 0.330217963294037 
1185	 0.330521839629035 
1186	 0.330839146530937 
1187	 0.331155659229129 
1188	 0.33147437897568 
1189	 0.331807540645016 
1190	 0.332115216580589 
1191	 0.332409247739298 
1192	 0.332707701070433 
1193	 0.332996181925886 
1194	 0.333283646346463 
1195	 0.33358816863928 
1196	 0.333865677255135 
1197	 0.334122907428565 
1198	 0.334375911419689 
1199	 0.334619170545793 
1200	 0.334838772039224 
1201	 0.335087495152719 
1202	 0.335343693411897 
1203	 0.335594321128719 
1204	 0.335865415931764 
1205	 0.336105494505768 
1206	 0.336325412360307 
1207	 0.336549784918991 
1208	 0.33676041220063 
1209	 0.336978377717997 
1210	 0.337206984685214 
1211	 0.337419845306144 
1212	 0.337625070278824 
1213	 0.337828811971816 
1214	 0.338024886219881 
1215	 0.338216534180127 
1216	 0.338404940887806 
1217	 0.338590321054422 
1218	 0.338779440814062 
1219	 0.3389693144424 
1220	 0.33914787119883 
1221	 0.339321277375228 
1222	 0.339502292980548 
1223	 0.339686487487422 
1224	 0.339851942817772 
1225	 0.34002026014649 
1226	 0.340178201634095 
1227	 0.340308829955371 
1228	 0.340448692913391 
1229	 0.34059340366817 
1230	 0.340735912295509 
1231	 0.340873658479515 
1232	 0.341012213781257 
1233	 0.341151262475993 
1234	 0.341297417188086 
1235	 0.341427073876488 
1236	 0.341543435965611 
1237	 0.341675050694627 
1238	 0.341803259822315 
1239	 0.341936840846654 
1240	 0.342095209145957 
1241	 0.342223907533478 
1242	 0.342334349209307 
1243	 0.342450789771478 
1244	 0.342559454621723 
1245	 0.34266402188756 
1246	 0.342768012883318 
1247	 0.342871356806663 
1248	 0.342964563278832 
1249	 0.34305987842973 
1250	 0.343175544897244 
1251	 0.343281646152695 
1252	 0.343382626128726 
1253	 0.34348585540759 
1254	 0.343579563727545 
1255	 0.343659552178233 
1256	 0.343747341677308 
1257	 0.343837938879254 
1258	 0.343920399867525 
1259	 0.343998863162337 
1260	 0.344076376750002 
1261	 0.344146099578736 
1262	 0.344222759643888 
1263	 0.344301941569682 
1264	 0.344382474265696 
1265	 0.344475850497506 
1266	 0.344551434016608 
1267	 0.344617349449117 
1268	 0.34468402579712 
1269	 0.344742417151269 
1270	 0.344782018325075 
1271	 0.344840943238784 
1272	 0.344908440205163 
1273	 0.34496633289023 
1274	 0.345017607968176 
1275	 0.345087948504683 
1276	 0.345168909721145 
1277	 0.345237999382723 
1278	 0.34532590353093 
1279	 0.345389274055315 
1280	 0.345414647074522 
1281	 0.34546674763359 
1282	 0.345519017638647 
1283	 0.345583524017097 
1284	 0.345661835864072 
1285	 0.345749767243396 
1286	 0.345837589543035 
1287	 0.345930246676178 
1288	 0.346006749351482 
1289	 0.346076610266223 
1290	 0.346149391478457 
1291	 0.346205806497785 
1292	 0.346283653607998 
1293	 0.34638291806355 
1294	 0.346457934139314 
1295	 0.346527777169031 
1296	 0.346598948944763 
1297	 0.346656125966731 
1298	 0.346724566556634 
1299	 0.346806943218067 
1300	 0.346878723231915 
1301	 0.34694386303974 
1302	 0.347005888098944 
1303	 0.347060173731351 
1304	 0.347129920178863 
1305	 0.34716118325165 
1306	 0.347194256158276 
1307	 0.347227498786383 
1308	 0.347242486147498 
1309	 0.34728085169742 
1310	 0.347343770210098 
1311	 0.347384196186869 
1312	 0.347425548831272 
1313	 0.347451025997773 
1314	 0.347458577355234 
1315	 0.347473174587902 
1316	 0.347471098259235 
1317	 0.347496409981144 
1318	 0.34753723244418 
1319	 0.347574145289276 
1320	 0.347636169389705 
1321	 0.34767319263859 
1322	 0.347696862268846 
1323	 0.347711894991115 
1324	 0.347738125440677 
1325	 0.34776543622476 
1326	 0.347778626904358 
1327	 0.347811696857273 
1328	 0.347839031591659 
1329	 0.347838730444354 
1330	 0.347848322274064 
1331	 0.347854301116856 
1332	 0.347875973681546 
1333	 0.347905181551835 
1334	 0.347925427649823 
1335	 0.347952139938991 
1336	 0.347981458731464 
1337	 0.347998552506854 
1338	 0.348029054774841 
1339	 0.34807970970601 
1340	 0.348114646613924 
1341	 0.348138916363323 
1342	 0.348171106171272 
1343	 0.3482101853879 
1344	 0.348245944947276 
1345	 0.348244328000138 
1346	 0.348255916103938 
1347	 0.348258162443313 
1348	 0.34826151698483 
1349	 0.348303157692422 
1350	 0.34832038799815 
1351	 0.348337836146914 
1352	 0.348342882136194 
1353	 0.348363546801481 
1354	 0.348395326265509 
1355	 0.348408950797363 
1356	 0.348423483752364 
1357	 0.348426315297261 
1358	 0.348407400861466 
1359	 0.348403602779826 
1360	 0.348388482378918 
1361	 0.348400626812081 
1362	 0.348439640941272 
1363	 0.348460475095027 
1364	 0.34850144319379 
1365	 0.34852275535685 
1366	 0.348526324881643 
1367	 0.348516069472687 
1368	 0.348519619746192 
1369	 0.348512073101844 
1370	 0.34849976580524 
1371	 0.348482087122658 
1372	 0.34844092129008 
1373	 0.348390135236481 
1374	 0.348323327291198 
1375	 0.348240692292114 
1376	 0.348141503315785 
1377	 0.348031789178586 
1378	 0.347898169688103 
1379	 0.347735548525906 
1380	 0.3475754580113 
1381	 0.34740355224577 
1382	 0.34722005142207 
1383	 0.347034869572738 
1384	 0.34683100245037 
1385	 0.346631415638145 
1386	 0.346386471983518 
1387	 0.346122551236949 
1388	 0.345821015113634 
1389	 0.345487609673232 
1390	 0.345105307255225 
1391	 0.344705040077086 
1392	 0.344275028269468 
1393	 0.343802814094804 
1394	 0.343327826912276 
1395	 0.342818332302299 
1396	 0.342303601710939 
1397	 0.341796193162339 
1398	 0.34128323573219 
1399	 0.340762381317161 
1400	 0.340240928502032 
1401	 0.339722752994501 
1402	 0.339188740002393 
1403	 0.338680348997017 
1404	 0.338178594639219 
1405	 0.337697891707284 
1406	 0.337214073051279 
1407	 0.336778453389489 
1408	 0.336376475993907 
1409	 0.335991115435792 
1410	 0.335634177285068 
1411	 0.335308108679289 
1412	 0.334988520300215 
1413	 0.334719072146729 
1414	 0.334510233494059 
1415	 0.334339022251718 
1416	 0.334230403346206 
1417	 0.334163224294964 
1418	 0.334123192125219 
1419	 0.334078636508846 
1420	 0.334036803017823 
1421	 0.334003541928024 
1422	 0.333943784024229 
1423	 0.333882778855805 
1424	 0.333819285331912 
1425	 0.333738862406158 
1426	 0.333673897040049 
1427	 0.333616522583025 
1428	 0.333561015980636 
1429	 0.333516017982656 
1430	 0.333453039017263 
1431	 0.333379274565286 
1432	 0.333317439508761 
1433	 0.333236889457417 
1434	 0.333189557686732 
1435	 0.333167013787537 
1436	 0.333146220885673 
1437	 0.333141232057097 
1438	 0.333140777719588 
1439	 0.333154012236679 
1440	 0.33315899865077 
1441	 0.333161528673129 
1442	 0.333152706125595 
1443	 0.33312069611889 
1444	 0.333082692380147 
1445	 0.333064727125324 
1446	 0.333058257669403 
1447	 0.333067610117269 
1448	 0.333092426946589 
1449	 0.333110467934658 
1450	 0.333124730693725 
1451	 0.333128384269608 
1452	 0.333116215876995 
1453	 0.333125804108278 
1454	 0.333133735697389 
1455	 0.333147113525999 
1456	 0.333179173554394 
1457	 0.333204774050108 
1458	 0.333222065643403 
1459	 0.333252155803758 
1460	 0.333290864196085 
1461	 0.333329141103597 
1462	 0.333371063495504 
1463	 0.333413634077553 
1464	 0.333448886271231 
1465	 0.33350816479277 
1466	 0.33357591144691 
1467	 0.333655743455122 
1468	 0.333754169791597 
1469	 0.333860659162769 
1470	 0.333969525130887 
1471	 0.334099906429129 
1472	 0.334248718836123 
1473	 0.334400618372416 
1474	 0.334565848867567 
1475	 0.33474186421994 
1476	 0.334930809853646 
1477	 0.335121691403229 
1478	 0.33531841902226 
1479	 0.335529106344332 
1480	 0.335728367255307 
1481	 0.335928044025234 
1482	 0.336113058675043 
1483	 0.33627719178436 
1484	 0.336464615299291 
1485	 0.336653172461729 
1486	 0.33684559734205 
1487	 0.337050936696518 
1488	 0.337255106401706 
1489	 0.337457097098615 
1490	 0.337658313006197 
1491	 0.337872767428173 
1492	 0.338078635648155 
1493	 0.338278721526852 
1494	 0.338471328413594 
1495	 0.338672496108874 
1496	 0.338841859951358 
1497	 0.338978494417972 
1498	 0.339131763282664 
1499	 0.339268390678361 
1500	 0.339416886923023 
1501	 0.339582737970038 
1502	 0.33974122072189 
1503	 0.339897026876745 
1504	 0.340051601274248 
1505	 0.34021540996397 
1506	 0.340376222864114 
1507	 0.340531426414283 
1508	 0.340683222353349 
1509	 0.340823690137047 
1510	 0.340959712684045 
1511	 0.341097502686184 
1512	 0.341247024105507 
1513	 0.341419494818543 
1514	 0.341586213125472 
1515	 0.341744986668276 
1516	 0.34192147513655 
1517	 0.342063907827507 
1518	 0.342175877830708 
1519	 0.342303969874818 
1520	 0.342425205870689 
1521	 0.342544292501199 
1522	 0.342667587786702 
1523	 0.342789788711099 
1524	 0.342898451661394 
1525	 0.34302296267889 
1526	 0.343160582114138 
1527	 0.343290741747701 
1528	 0.343428158016035 
1529	 0.3435522382201 
1530	 0.343671819298457 
1531	 0.343785544822373 
1532	 0.343885336691129 
1533	 0.343991350058155 
1534	 0.344088327631844 
1535	 0.344198141891993 
1536	 0.34432538587691 
1537	 0.344438207922207 
1538	 0.344550246299053 
1539	 0.344660296010878 
1540	 0.344762722030531 
1541	 0.344861135843198 
1542	 0.344967330935602 
1543	 0.345058198631196 
1544	 0.345129051791971 
1545	 0.345203122845921 
1546	 0.345268031820652 
1547	 0.34533974128183 
1548	 0.345406023948498 
1549	 0.345482688702082 
1550	 0.345586458963794 
1551	 0.345680396486063 
1552	 0.345774230921969 
1553	 0.345873035496465 
1554	 0.34594728277213 
1555	 0.346020420400726 
1556	 0.346109286637142 
1557	 0.346192632129256 
1558	 0.346265761380584 
1559	 0.346330906821745 
1560	 0.346380842108479 
1561	 0.346397424877098 
1562	 0.346453968363588 
1563	 0.346511715822279 
1564	 0.346590782455118 
1565	 0.346704947889851 
1566	 0.346796505731175 
1567	 0.346886907094612 
1568	 0.346977756830528 
1569	 0.347066409551305 
1570	 0.347147956257953 
1571	 0.347236876439949 
1572	 0.347306456331953 
1573	 0.347360084123869 
1574	 0.34741279416787 
1575	 0.347452580783959 
1576	 0.347497212035822 
1577	 0.347543747479035 
1578	 0.347581004480095 
1579	 0.347613755123971 
1580	 0.347647300607117 
1581	 0.347660679740494 
1582	 0.347702234654679 
1583	 0.347764540797536 
1584	 0.347816028101157 
1585	 0.347873892044381 
1586	 0.347935860172677 
1587	 0.347989964672456 
1588	 0.348056142774423 
1589	 0.348152239824287 
1590	 0.348219370799014 
1591	 0.348271224022499 
1592	 0.348324911668597 
1593	 0.348358922814904 
1594	 0.348406466398861 
1595	 0.348463475521171 
1596	 0.348520646692308 
1597	 0.348591074896112 
1598	 0.348646602542487 
1599	 0.348695524907069 
1600	 0.348740579345002 
1601	 0.348770268194621 
1602	 0.348804278779813 
1603	 0.348844921378753 
1604	 0.348878471654271 
1605	 0.348905022202094 
1606	 0.348932780147339 
1607	 0.348957591751335 
1608	 0.348979408557909 
1609	 0.349002739997563 
1610	 0.349038644132763 
1611	 0.349049032099803 
1612	 0.349054857555842 
1613	 0.349074750314013 
1614	 0.34909290012317 
1615	 0.349130571896358 
1616	 0.3491794899317 
1617	 0.349231809315879 
1618	 0.34928261359152 
1619	 0.349337264495991 
1620	 0.349397846722306 
1621	 0.349431618131769 
1622	 0.349451171935055 
1623	 0.349469086049096 
1624	 0.349466423358327 
1625	 0.349482654342246 
1626	 0.349502680814314 
1627	 0.349527485639932 
1628	 0.349561996380253 
1629	 0.349586104741202 
1630	 0.349609438021357 
1631	 0.349631640386724 
1632	 0.34964810635717 
1633	 0.34966691462169 
1634	 0.34968105246583 
1635	 0.349716138073115 
1636	 0.349759341633695 
1637	 0.349801506982336 
1638	 0.349864558926157 
1639	 0.349905016410954 
1640	 0.34993624460066 
1641	 0.349958956477092 
1642	 0.349966484487633 
1643	 0.349990662358508 
1644	 0.350008877675235 
1645	 0.350038881704467 
1646	 0.3500895596288 
1647	 0.350122803117733 
1648	 0.350150638304904 
1649	 0.350179387435682 
1650	 0.350205508380453 
1651	 0.350227484723282 
1652	 0.350251338058994 
1653	 0.350262783092358 
1654	 0.350259535907341 
1655	 0.350268999951763 
1656	 0.350279795480181 
1657	 0.350284958241959 
1658	 0.350287543751922 
1659	 0.35030226695355 
1660	 0.350312958123839 
1661	 0.350334620064865 
1662	 0.350382946365827 
1663	 0.350405973747702 
1664	 0.350426105613481 
1665	 0.350428294014509 
1666	 0.350405550182454 
1667	 0.350400806304834 
1668	 0.350392975497336 
1669	 0.350384323128056 
1670	 0.350386826776003 
1671	 0.350378807997221 
1672	 0.350352137499189 
1673	 0.350345329501311 
1674	 0.350347536491492 
1675	 0.350348946296468 
1676	 0.350343990370159 
1677	 0.350371847546529 
1678	 0.350424442043977 
1679	 0.350461949529041 
1680	 0.350533930099005 
1681	 0.350559153998694 
1682	 0.350547930221452 
1683	 0.350544269053979 
1684	 0.350516692002875 
1685	 0.350512452408407 
1686	 0.350513924636636 
1687	 0.35051856105253 
1688	 0.350542907572694 
1689	 0.350548107354355 
1690	 0.350535283100322 
1691	 0.350545347240198 
1692	 0.350558356756969 
1693	 0.350576167661962 
1694	 0.35062421239902 
1695	 0.35063653040876 
1696	 0.350625357026997 
1697	 0.350627270705366 
1698	 0.350618677444182 
1699	 0.350617111000008 
1700	 0.350623681127107 
1701	 0.35062906849836 
1702	 0.35063045514038 
1703	 0.350637394193336 
1704	 0.350659537034695 
1705	 0.35066252626287 
1706	 0.350650453041214 
1707	 0.350654123389398 
1708	 0.35066732241947 
1709	 0.350655138296958 
1710	 0.350637495267889 
1711	 0.350618310065458 
1712	 0.350572085979338 
1713	 0.35054620632759 
1714	 0.350538499248789 
1715	 0.350524343350738 
1716	 0.350497635562112 
1717	 0.350496934372666 
1718	 0.350521768090247 
1719	 0.350518808605479 
1720	 0.350524663348784 
1721	 0.350506552773074 
1722	 0.350452640305753 
1723	 0.350426405538862 
1724	 0.350406825454475 
1725	 0.350384229430066 
1726	 0.350369860336618 
1727	 0.350346390410447 
1728	 0.350316328627976 
1729	 0.35028365139106 
1730	 0.350263589231178 
1731	 0.350206201391074 
1732	 0.350131573481676 
1733	 0.350039372572013 
1734	 0.349903493011726 
1735	 0.349802754092907 
1736	 0.349710644095744 
1737	 0.349614342632436 
1738	 0.349506399003538 
1739	 0.349449475449952 
1740	 0.349412460876583 
1741	 0.349371194069673 
1742	 0.349395078130589 
1743	 0.349343407430521 
1744	 0.349233107642483 
1745	 0.349151060883942 
1746	 0.349040510632968 
1747	 0.348989652049913 
1748	 0.348993826414777 
1749	 0.348942598171789 
1750	 0.348863878468938 
1751	 0.348781160919693 
1752	 0.348679746466612 
1753	 0.348599871078611 
1754	 0.348528656701582 
1755	 0.348447185549347 
1756	 0.348359747437967 
1757	 0.348318084540293 
1758	 0.348327536733226 
1759	 0.348311400554086 
1760	 0.348233283685479 
1761	 0.348112639010002 
1762	 0.34798624752813 
1763	 0.347863073823214 
1764	 0.347769207201629 
1765	 0.347712903324856 
1766	 0.347673706902449 
1767	 0.347643125296939 
1768	 0.347609263988352 
1769	 0.347582374426468 
1770	 0.347530564705437 
1771	 0.347488926280337 
1772	 0.347470638765942 
1773	 0.347420217398998 
1774	 0.347378900474623 
1775	 0.34729615650636 
1776	 0.347189450676341 
1777	 0.347123330391388 
1778	 0.347025184786451 
1779	 0.346945628011546 
1780	 0.34693323506746 
1781	 0.3469205325541 
1782	 0.346923193377022 
1783	 0.346921019216747 
1784	 0.346909117574077 
1785	 0.346889404376096 
1786	 0.346862933173387 
1787	 0.346829520152724 
1788	 0.346806776173125 
1789	 0.346780387715526 
1790	 0.346762070930527 
1791	 0.346755065504636 
1792	 0.346741289074421 
1793	 0.346740163261239 
1794	 0.346708768111058 
1795	 0.346658736847297 
1796	 0.346627764807662 
1797	 0.34657138046557 
1798	 0.346531302907785 
1799	 0.346510174789133 
1800	 0.346498702606899 
1801	 0.34161191886496 
1802	 0.341600383172892 
1803	 0.341611227526921 
1804	 0.341583652792358 
1805	 0.341579899424997 
1806	 0.341592136879329 
1807	 0.341592847405557 
1808	 0.341614676208894 
1809	 0.341683886177815 
1810	 0.3417155437751 
1811	 0.341748330712907 
1812	 0.341753170402526 
1813	 0.341742549787855 
1814	 0.341726380005248 
1815	 0.3417028821962 
1816	 0.341691235165731 
1817	 0.341687963573584 
1818	 0.34169115818436 
1819	 0.341701943799794 
1820	 0.341733113308413 
1821	 0.34174168790708 
1822	 0.341746817953941 
1823	 0.341745215982187 
1824	 0.341726514465793 
1825	 0.341685009965273 
1826	 0.341641782533543 
1827	 0.34160046554799 
1828	 0.341545693239176 
1829	 0.34147840244979 
1830	 0.341422473769159 
1831	 0.34137067793187 
1832	 0.341293093338716 
1833	 0.341222625688904 
1834	 0.341152298750804 
1835	 0.341070461531971 
1836	 0.341001421587039 
1837	 0.340928727057312 
1838	 0.340862397141917 
1839	 0.340801282036037 
1840	 0.340753704153887 
1841	 0.340669304293748 
1842	 0.340588389344233 
1843	 0.340529237830478 
1844	 0.34044564835769 
1845	 0.340359091533849 
1846	 0.340263869977232 
1847	 0.340162781474879 
1848	 0.340067963579319 
1849	 0.339967481501391 
1850	 0.339872856491479 
1851	 0.339802274661819 
1852	 0.339720526220677 
1853	 0.339579922742978 
1854	 0.339428261714849 
1855	 0.339302727330752 
1856	 0.339142739448388 
1857	 0.338974147112126 
1858	 0.338825673743405 
1859	 0.338617772185489 
1860	 0.338386652259985 
1861	 0.338120714919144 
1862	 0.337860717486391 
1863	 0.337553442165273 
1864	 0.337224955789043 
1865	 0.336883922420019 
1866	 0.336445539541696 
1867	 0.335991932530148 
1868	 0.335553732390697 
1869	 0.335033752293147 
1870	 0.334511066469144 
1871	 0.333936173722923 
1872	 0.333332628908342 
1873	 0.332639843756109 
1874	 0.33191865253773 
1875	 0.331151756942135 
1876	 0.330330647130734 
1877	 0.329452167333949 
1878	 0.328514568714382 
1879	 0.32747029144617 
1880	 0.326314440948309 
1881	 0.325028571694498 
1882	 0.323705194941767 
1883	 0.322293411361453 
1884	 0.320790232411362 
1885	 0.319266639559371 
1886	 0.317658813503394 
1887	 0.315917095524487 
1888	 0.314147679530934 
1889	 0.312299701772896 
1890	 0.310412387486337 
1891	 0.308527930146735 
1892	 0.306597747205317 
1893	 0.304671619372601 
1894	 0.302741767240176 
1895	 0.300804878504866 
1896	 0.29882309181345 
1897	 0.296901426089353 
1898	 0.294989088028546 
1899	 0.293154234727859 
1900	 0.29141203080458 
1901	 0.289742459056928 
1902	 0.288169607852197 
1903	 0.286685626304667 
1904	 0.285285957908512 
1905	 0.28397337186823 
1906	 0.282775794988198 
1907	 0.281616174897556 
1908	 0.280547829395536 
1909	 0.279568127752865 
1910	 0.278632864306251 
1911	 0.277784950156518 
1912	 0.276997801465135 
1913	 0.276250118211738 
1914	 0.275533358579893 
1915	 0.274889200514349 
1916	 0.274297973314906 
1917	 0.27377594832021 
1918	 0.273322361662909 
1919	 0.2728971024873 
1920	 0.272521285841648 
1921	 0.27218803486753 
1922	 0.271884871153084 
1923	 0.271632198107022 
1924	 0.271406214058508 
1925	 0.271210322583198 
1926	 0.271063425659415 
1927	 0.270957683343315 
1928	 0.270876048966686 
1929	 0.270856807269342 
1930	 0.270868702967668 
1931	 0.270901182073359 
1932	 0.270965938926863 
1933	 0.271020525886894 
1934	 0.271111725090901 
1935	 0.27124151327185 
1936	 0.271392059704752 
1937	 0.271580056689019 
1938	 0.271814968997178 
1939	 0.272067967941197 
1940	 0.27234386805723 
1941	 0.272657169756301 
1942	 0.272980853751256 
1943	 0.273352048838772 
1944	 0.273735261617109 
1945	 0.27411972230761 
1946	 0.274514947332179 
1947	 0.274933274617825 
1948	 0.275341872501924 
1949	 0.275743301702061 
1950	 0.276161652463865 
1951	 0.276587988064323 
1952	 0.277022860833003 
1953	 0.277454120480935 
1954	 0.277909586933913 
1955	 0.278369360237009 
1956	 0.278814448913485 
1957	 0.279280676998716 
1958	 0.279765331726382 
1959	 0.280244194514997 
1960	 0.280717319206341 
1961	 0.281219218840377 
1962	 0.281735918606299 
1963	 0.28226115092543 
1964	 0.282819454807396 
1965	 0.28336268940029 
1966	 0.283899429922123 
1967	 0.284417600939867 
1968	 0.284948834925383 
1969	 0.285477868617092 
1970	 0.286009278187785 
1971	 0.286553802408337 
1972	 0.287087439588627 
1973	 0.287602787780219 
1974	 0.288131356947089 
1975	 0.288664452610173 
1976	 0.289206331322525 
1977	 0.289736483915477 
1978	 0.290247666414277 
1979	 0.290764831730731 
1980	 0.291277941450643 
1981	 0.291798360449536 
1982	 0.292321167687492 
1983	 0.292862345330919 
1984	 0.29341414446843 
1985	 0.293964972245877 
1986	 0.294543658517096 
1987	 0.295097821945558 
1988	 0.295642865355273 
1989	 0.296178478244179 
1990	 0.296701020864649 
1991	 0.297225880798079 
1992	 0.29776179266126 
1993	 0.298312923269826 
1994	 0.298835380093993 
1995	 0.299355891912663 
1996	 0.299867451171224 
1997	 0.300342072586189 
1998	 0.300848884012819 
1999	 0.301375834083946 
2000	 0.301894230072814 
2001	 0.302424351713781 
2002	 0.302943772976681 
2003	 0.303469757323702 
2004	 0.303964072813774 
2005	 0.304460915344918 
2006	 0.30495929180704 
2007	 0.30544318889921 
2008	 0.305901543040194 
2009	 0.306377123210271 
2010	 0.306845027424291 
2011	 0.307324933228913 
2012	 0.307832330588909 
2013	 0.308315465786661 
2014	 0.308799200566701 
2015	 0.309269658066285 
2016	 0.309711160138966 
2017	 0.310141894939299 
2018	 0.310586951559291 
2019	 0.311030905925894 
2020	 0.311472063851309 
2021	 0.311929597620855 
2022	 0.31236553302015 
2023	 0.312787213195112 
2024	 0.313206463358345 
2025	 0.313613841264236 
2026	 0.314018998685984 
2027	 0.314423605469917 
2028	 0.314816600104767 
2029	 0.315209521737742 
2030	 0.315607196885181 
2031	 0.315980799849973 
2032	 0.316333154009266 
2033	 0.316706307761297 
2034	 0.317066546304696 
2035	 0.317439256154614 
2036	 0.317850148769535 
2037	 0.318217063764149 
2038	 0.318570043296052 
2039	 0.318910945392435 
2040	 0.319226774170611 
2041	 0.319529856778147 
2042	 0.319848536818696 
2043	 0.320160966855537 
2044	 0.320485107759267 
2045	 0.320822124094537 
2046	 0.321152762106678 
2047	 0.32148735510059 
2048	 0.321816170825118 
2049	 0.322148892514312 
2050	 0.322465720299271 
2051	 0.3227736820861 
2052	 0.323077018959465 
2053	 0.323366566823728 
2054	 0.323657294549885 
2055	 0.323952865671122 
2056	 0.324241689009696 
2057	 0.324502779425454 
2058	 0.324744444168436 
2059	 0.324988573794012 
2060	 0.325197046132777 
2061	 0.325444391888068 
2062	 0.325704417623197 
2063	 0.325975471561872 
2064	 0.326286771039183 
2065	 0.326559331957918 
2066	 0.326817421238824 
2067	 0.327081902637782 
2068	 0.327348665419406 
2069	 0.327570458411238 
2070	 0.327828986294868 
2071	 0.3281147468407 
2072	 0.328364819941958 
2073	 0.328606895020109 
2074	 0.328841443286646 
2075	 0.329054792366798 
2076	 0.329276296211806 
2077	 0.329490000213893 
2078	 0.329715993079654 
2079	 0.329936804569559 
2080	 0.330175702132503 
2081	 0.330440987949303 
2082	 0.330691099591123 
2083	 0.330940679452063 
2084	 0.331198597075544 
2085	 0.331444696163892 
2086	 0.331688943938875 
2087	 0.33190912743071 
2088	 0.332110318839418 
2089	 0.332325834596104 
2090	 0.332542986927267 
2091	 0.332730661826132 
2092	 0.33289522631054 
2093	 0.33309174368305 
2094	 0.333256503660959 
2095	 0.333459036570277 
2096	 0.33373822848132 
2097	 0.333973142605103 
2098	 0.334187459733776 
2099	 0.334410750153647 
2100	 0.334621816627854 
2101	 0.334813527080591 
2102	 0.335015256307113 
2103	 0.335210791871872 
2104	 0.335426804819407 
2105	 0.335635239572375 
2106	 0.335879896777634 
2107	 0.336176148228295 
2108	 0.336431512158977 
2109	 0.336693087694258 
2110	 0.336944378395796 
2111	 0.337155156695659 
2112	 0.337393447664579 
2113	 0.337668754454925 
2114	 0.337912041426636 
2115	 0.338139055983607 
2116	 0.338366143465477 
2117	 0.338568871481255 
2118	 0.338724344715315 
2119	 0.338919572372756 
2120	 0.339107361639513 
2121	 0.339331172339628 
2122	 0.339595534394354 
2123	 0.339834270493962 
2124	 0.340093609629587 
2125	 0.340328188552458 
2126	 0.340547707522546 
2127	 0.340751370243074 
2128	 0.340946600754082 
2129	 0.341127375104072 
2130	 0.341292465757917 
2131	 0.341443232644651 
2132	 0.341562677280418 
2133	 0.341662436629745 
2134	 0.341746959658715 
2135	 0.341812361262616 
2136	 0.34184023039175 
2137	 0.341836140833771 
2138	 0.341832977097011 
2139	 0.341787640976296 
2140	 0.341753486056514 
2141	 0.341726409697114 
2142	 0.341693189616684 
2143	 0.341643042569526 
2144	 0.34160047117066 
2145	 0.341594457198746 
2146	 0.34153736968198 
2147	 0.341463764023888 
2148	 0.341359922802138 
2149	 0.341234337375073 
2150	 0.341061442072605 
2151	 0.340900752436094 
2152	 0.340715495671595 
2153	 0.340557027598671 
2154	 0.340410122316218 
2155	 0.340247092453499 
2156	 0.340109676519648 
2157	 0.339926990427713 
2158	 0.33970901784597 
2159	 0.339485186670115 
2160	 0.339240277589568 
2161	 0.338988570623283 
2162	 0.338710859225548 
2163	 0.338447623360042 
2164	 0.338172075293416 
2165	 0.337917865705294 
2166	 0.337657136994157 
2167	 0.337402024842226 
2168	 0.337154208161936 
2169	 0.336916554962581 
2170	 0.336657354371691 
2171	 0.336402584038872 
2172	 0.336136378218415 
2173	 0.33586249127345 
2174	 0.335560271336159 
2175	 0.335236973394482 
2176	 0.334921820389971 
2177	 0.334574922862319 
2178	 0.334244198243672 
2179	 0.333924831556863 
2180	 0.333612106532354 
2181	 0.333304303990753 
2182	 0.332993850863251 
2183	 0.33268138999846 
2184	 0.332392279160962 
2185	 0.332093381715802 
2186	 0.331789986788797 
2187	 0.331481150718061 
2188	 0.331179865016664 
2189	 0.330864293678597 
2190	 0.330513362269607 
2191	 0.330210316742681 
2192	 0.329923595866711 
2193	 0.329642234563792 
2194	 0.329375491779329 
2195	 0.329131545116574 
2196	 0.328885391415769 
2197	 0.32867711017545 
2198	 0.328502873865844 
2199	 0.328352670998375 
2200	 0.328256862897072 
2201	 0.328138637675547 
2202	 0.328030766497452 
2203	 0.327925489752586 
2204	 0.327824472985795 
2205	 0.327699269294042 
2206	 0.327625887424651 
2207	 0.327578316365143 
2208	 0.327546892272317 
2209	 0.327525216170654 
2210	 0.327553508185994 
2211	 0.327625008305261 
2212	 0.327700272085406 
2213	 0.327844385942048 
2214	 0.327928696279848 
2215	 0.327980954593335 
2216	 0.328054859369438 
2217	 0.328119156268713 
2218	 0.328182585253869 
2219	 0.328282379585685 
2220	 0.328339101374564 
2221	 0.32834306072853 
2222	 0.328375626066549 
2223	 0.328423747879262 
2224	 0.328458051310145 
2225	 0.32847335769175 
2226	 0.328510263309741 
2227	 0.32848663786447 
2228	 0.328410155994393 
2229	 0.328341787029636 
2230	 0.328247343609848 
2231	 0.328166971836311 
2232	 0.328077171519244 
2233	 0.327993104965441 
2234	 0.327911892401207 
2235	 0.327837884584726 
2236	 0.327767269636897 
2237	 0.327695166124753 
2238	 0.327620614450993 
2239	 0.327559320750503 
2240	 0.327498250681451 
2241	 0.327448978644548 
2242	 0.327453192445453 
2243	 0.327403892909783 
2244	 0.327334951451169 
2245	 0.327242467565829 
2246	 0.327140921330188 
2247	 0.32702505891278 
2248	 0.326951045732451 
2249	 0.326914387917404 
2250	 0.326845680476791 
2251	 0.326788614571918 
2252	 0.326710739478221 
2253	 0.326605629067205 
2254	 0.326519264580386 
2255	 0.326424522369865 
2256	 0.326349907318358 
2257	 0.326274920830237 
2258	 0.326237713041461 
2259	 0.326243106490761 
2260	 0.326224037514022 
2261	 0.326228655275968 
2262	 0.326208924113792 
2263	 0.326136846147519 
2264	 0.326119892279013 
2265	 0.32611089295581 
2266	 0.326135735656305 
2267	 0.326230419751948 
2268	 0.32629299094172 
2269	 0.326363116276035 
2270	 0.326427171751732 
2271	 0.326471275460321 
2272	 0.326494650497937 
2273	 0.326513148781813 
2274	 0.326546126010536 
2275	 0.326575394247152 
2276	 0.326597851479913 
2277	 0.326643628656976 
2278	 0.326701568184536 
2279	 0.326752485040234 
2280	 0.326820333789041 
2281	 0.326871892055031 
2282	 0.326919768498998 
2283	 0.326954021208975 
2284	 0.326977026260087 
2285	 0.327004588692634 
2286	 0.327007651578348 
2287	 0.327034182440262 
2288	 0.327093228217399 
2289	 0.327117335854845 
2290	 0.327131221707579 
2291	 0.327151750179305 
2292	 0.327138439253125 
2293	 0.327154707845415 
2294	 0.327207114183262 
2295	 0.32723405076905 
2296	 0.327241633419889 
2297	 0.327289900403476 
2298	 0.327309252993905 
2299	 0.327322853057228 
2300	 0.327393290743188 
2301	 0.327428857795558 
2302	 0.327435618338136 
2303	 0.327458807078454 
2304	 0.327476698976831 
2305	 0.327504281570067 
2306	 0.32753595931286 
2307	 0.327589620789099 
2308	 0.327640497370498 
2309	 0.327702114298138 
2310	 0.327736398443068 
2311	 0.327796156780383 
2312	 0.327795575352929 
2313	 0.327731343422636 
2314	 0.327672746734259 
2315	 0.327567087059155 
2316	 0.327504557664205 
2317	 0.327437532795796 
2318	 0.327418139269184 
2319	 0.327465595281581 
2320	 0.32746795884694 
2321	 0.327466101999334 
2322	 0.327476370544756 
2323	 0.327477919424813 
2324	 0.327475389835028 
2325	 0.327509710714692 
2326	 0.327491117269518 
2327	 0.327431802093669 
2328	 0.327350472309624 
2329	 0.327289615302359 
2330	 0.327270168520423 
2331	 0.327269655143388 
2332	 0.327304244927722 
2333	 0.327304876803935 
2334	 0.327320009540839 
2335	 0.327315478019308 
2336	 0.327290424783541 
2337	 0.327301508850659 
2338	 0.327261628902868 
2339	 0.327204499175594 
2340	 0.32714728696224 
2341	 0.327094756945544 
2342	 0.327014131272994 
2343	 0.326860540904083 
2344	 0.326707196757679 
2345	 0.326567970687404 
2346	 0.326379805306496 
2347	 0.326229249643729 
2348	 0.326131220535421 
2349	 0.326014113807018 
2350	 0.325874986535521 
2351	 0.325745937705704 
2352	 0.325651150122763 
2353	 0.325505299243526 
2354	 0.325331250562417 
2355	 0.325155820609242 
2356	 0.324963947245139 
2357	 0.324774836150969 
2358	 0.324566246358001 
2359	 0.32436486842408 
2360	 0.324155764040744 
2361	 0.323963520059826 
2362	 0.323819188823924 
2363	 0.323597247627223 
2364	 0.323347469831281 
2365	 0.323088560809105 
2366	 0.32270623545835 
2367	 0.322469617737586 
2368	 0.322333219135878 
2369	 0.322145405992664 
2370	 0.322012966200588 
2371	 0.321871448317926 
2372	 0.321599043107131 
2373	 0.321354838346763 
2374	 0.32111898201572 
2375	 0.320837901612545 
2376	 0.32055387342433 
2377	 0.320276154737413 
2378	 0.319997434677321 
2379	 0.319662311860905 
2380	 0.319330117193683 
2381	 0.319016471839196 
2382	 0.318681033279012 
2383	 0.318369074443517 
2384	 0.318049708535747 
2385	 0.317747241789919 
2386	 0.317465436764541 
2387	 0.317155955110779 
2388	 0.316926400759698 
2389	 0.316742622523466 
2390	 0.316484660539108 
2391	 0.316309651192123 
2392	 0.316162854134201 
2393	 0.315912560153945 
2394	 0.315655861127605 
2395	 0.315347330146398 
2396	 0.314996781581238 
2397	 0.314571858998696 
2398	 0.314159937946622 
2399	 0.313850818681246 
2400	 0.31353387657753 
2401	 0.313202875202339 
2402	 0.31290276463881 
2403	 0.312620702840863 
2404	 0.312215156525682 
2405	 0.311884032796292 
2406	 0.311595098630327 
2407	 0.311165498807643 
2408	 0.310834214421018 
2409	 0.310464800440517 
2410	 0.3100676985223 
2411	 0.309742350596783 
2412	 0.309410813865705 
2413	 0.309132586650126 
2414	 0.308761981892236 
2415	 0.308337135797301 
2416	 0.307953604955759 
2417	 0.30751169526344 
2418	 0.307124586458499 
2419	 0.306819688490938 
2420	 0.306481442324359 
2421	 0.306168905621262 
2422	 0.305768029889772 
2423	 0.305280421649377 
2424	 0.30490479138698 
2425	 0.304494125825775 
2426	 0.304114735680325 
2427	 0.303908063368429 
2428	 0.303560942465202 
2429	 0.303094316439792 
2430	 0.302744902265362 
2431	 0.302388255392189 
2432	 0.302055677112392 
2433	 0.301805758824228 
2434	 0.301501171663124 
2435	 0.301198901483673 
2436	 0.300835694593833 
2437	 0.300466809924402 
2438	 0.300007132001267 
2439	 0.299392918662001 
2440	 0.298929321961331 
2441	 0.298472248856699 
2442	 0.298075349879247 
2443	 0.297820974455042 
2444	 0.29750229806553 
2445	 0.29715105302696 
2446	 0.296850875954997 
2447	 0.296588820959612 
2448	 0.296249212898589 
2449	 0.295953150208412 
2450	 0.295478327089636 
2451	 0.294769555361808 
2452	 0.29431562813729 
2453	 0.293919430927303 
2454	 0.293529734514112 
2455	 0.293301629110933 
2456	 0.292945674243192 
2457	 0.29245841296653 
2458	 0.292117477517239 
2459	 0.291868196294785 
2460	 0.291532013503115 
2461	 0.291211636243647 
2462	 0.290901842822774 
2463	 0.290517717037406 
2464	 0.290200734118976 
2465	 0.29000450426974 
2466	 0.289618596568495 
2467	 0.289090720907327 
2468	 0.288712647158152 
2469	 0.288326348823188 
2470	 0.28808432540607 
2471	 0.287825958035118 
2472	 0.287444652044956 
2473	 0.287037718566186 
2474	 0.28664781814755 
2475	 0.286289723215105 
2476	 0.285871559960541 
2477	 0.285341887887934 
2478	 0.28478295151346 
2479	 0.284347918450866 
2480	 0.284071758444755 
2481	 0.283782886383025 
2482	 0.283589709960281 
2483	 0.283343851025341 
2484	 0.282976199700973 
2485	 0.282643675148308 
2486	 0.282131217134115 
2487	 0.281815095103891 
2488	 0.281627200006346 
2489	 0.281285081981533 
2490	 0.281130367172063 
2491	 0.280860370560492 
2492	 0.280384993157302 
2493	 0.280061172422455 
2494	 0.279800902220965 
2495	 0.279503523008177 
2496	 0.279241548945475 
2497	 0.278975248492758 
2498	 0.278705123055277 
2499	 0.278476610751359 
2500	 0.278247553432907 
