Wavelength	LMW200008.asd
350	 0.078404312682882 
351	 8.78510290358756E-02 
352	 8.68574266917768E-02 
353	 7.42401922774836E-02 
354	 7.14399206719018E-02 
355	 7.07666985179606E-02 
356	 7.13996969181879E-02 
357	 7.39938992268601E-02 
358	 7.95858315808199E-02 
359	 7.95434609334293E-02 
360	 7.50188785409343E-02 
361	 7.31049981295913E-02 
362	 7.06052523847737E-02 
363	 6.80878350433123E-02 
364	 6.71204520138224E-02 
365	 7.05266251212079E-02 
366	 7.31415597374097E-02 
367	 7.33202694956146E-02 
368	 7.18399016662104E-02 
369	 7.45664536351269E-02 
370	 7.51433335625808E-02 
371	 7.32376956783144E-02 
372	 7.28002672438612E-02 
373	 7.39669151802414E-02 
374	 7.54193095497172E-02 
375	 0.076166637789287 
376	 7.62649172119525E-02 
377	 7.45873593881024E-02 
378	 7.37381540239664E-02 
379	 7.58769445855642E-02 
380	 7.66293475236685E-02 
381	 7.61645412281142E-02 
382	 7.61948376852167E-02 
383	 7.89186018124017E-02 
384	 7.88232426757494E-02 
385	 7.77254304604552E-02 
386	 7.77997634890981E-02 
387	 0.079908058083217 
388	 8.18089557076631E-02 
389	 8.25780674431742E-02 
390	 8.23033881253684E-02 
391	 8.31303343944851E-02 
392	 8.42164250119757E-02 
393	 8.46121789907348E-02 
394	 8.36217324422205E-02 
395	 8.35623015112418E-02 
396	 8.49357972630879E-02 
397	 8.73589048609476E-02 
398	 8.96823129509044E-02 
399	 0.089927037258144 
400	 8.98221514051742E-02 
401	 9.15762163923452E-02 
402	 9.13838432779791E-02 
403	 9.17378829255939E-02 
404	 9.28296323978335E-02 
405	 9.23050484012379E-02 
406	 9.40394924922786E-02 
407	 9.60331582363232E-02 
408	 9.62265578060665E-02 
409	 9.51730568175533E-02 
410	 9.49110109966197E-02 
411	 9.58001703833819E-02 
412	 9.71269232637946E-02 
413	 9.72303777471713E-02 
414	 9.75316010502256E-02 
415	 9.83591249084801E-02 
416	 9.82850209041935E-02 
417	 9.88605738735227E-02 
418	 9.94345125311708E-02 
419	 9.93242743916729E-02 
420	 9.96171368773193E-02 
421	 9.96526856197375E-02 
422	 9.94879212934261E-02 
423	 9.96176659488174E-02 
424	 9.98721531252255E-02 
425	 9.98585832417219E-02 
426	 0.099500972576013 
427	 9.93247844593198E-02 
428	 9.90037626982425E-02 
429	 9.86279749006433E-02 
430	 9.84340934313516E-02 
431	 9.88055769827642E-02 
432	 9.86465127002842E-02 
433	 9.79904996333366E-02 
434	 9.79605961255673E-02 
435	 9.81576074528443E-02 
436	 9.82394382389194E-02 
437	 9.80425096718559E-02 
438	 9.77883028562469E-02 
439	 9.78733237505563E-02 
440	 9.82422403222195E-02 
441	 9.85899560708417E-02 
442	 9.86844814842194E-02 
443	 9.90120243983683E-02 
444	 9.96690643857531E-02 
445	 0.100078781300721 
446	 0.100347586016289 
447	 0.100684056991502 
448	 0.10120335644529 
449	 0.10138893429304 
450	 0.102081554938063 
451	 0.103008346909633 
452	 0.103013122348515 
453	 0.103129021625272 
454	 0.103417089335515 
455	 0.103793287039334 
456	 0.104297322272965 
457	 0.104556201114185 
458	 0.104732663205046 
459	 0.105150924579594 
460	 0.105304515060842 
461	 0.105349197146586 
462	 0.105458929040128 
463	 0.105746332164151 
464	 0.106050383759472 
465	 0.10624049628609 
466	 0.10631370245488 
467	 0.106737203644407 
468	 0.106989015757485 
469	 0.106970161342799 
470	 0.106949219339412 
471	 0.107002763336687 
472	 0.107157618707834 
473	 0.107354174069885 
474	 0.10736267019919 
475	 0.107392770189646 
476	 0.107520265324277 
477	 0.107710723542031 
478	 0.107585209848225 
479	 0.107588705979168 
480	 0.107848714174772 
481	 0.107962585530599 
482	 0.108077933395757 
483	 0.108246245137756 
484	 0.108441828983162 
485	 0.108415425975188 
486	 0.108365414030086 
487	 0.108448541637747 
488	 0.10874381406296 
489	 0.108816644733929 
490	 0.108774242029901 
491	 0.108805653979926 
492	 0.109085262858875 
493	 0.109108941163339 
494	 0.10899617955764 
495	 0.109137226221213 
496	 0.109504948815148 
497	 0.109703235541083 
498	 0.10963459223025 
499	 0.109681528017634 
500	 0.109795223589778 
501	 0.109878893448127 
502	 0.10987052350933 
503	 0.109963758541772 
504	 0.110076163858899 
505	 0.110198787756319 
506	 0.110387151928103 
507	 0.110384275658025 
508	 0.110310413671637 
509	 0.110319004913425 
510	 0.110458695807981 
511	 0.110514048443851 
512	 0.110583077507307 
513	 0.110862402288048 
514	 0.110775805867945 
515	 0.110746960837416 
516	 0.110967282377795 
517	 0.111048886686301 
518	 0.11113782449829 
519	 0.11120827621568 
520	 0.111225972762065 
521	 0.111379039899377 
522	 0.111456337070012 
523	 0.111447813375542 
524	 0.111569630143955 
525	 0.111598795898231 
526	 0.111588821843332 
527	 0.111636534625496 
528	 0.111780829432718 
529	 0.111904836941168 
530	 0.111998574038704 
531	 0.112114183759447 
532	 0.11210348527794 
533	 0.11221127369879 
534	 0.112488785911388 
535	 0.112457239733348 
536	 0.112512351147323 
537	 0.112654731523041 
538	 0.112748000132555 
539	 0.112830864577205 
540	 0.112942621126409 
541	 0.113085483493172 
542	 0.113213144114714 
543	 0.113327717589346 
544	 0.113443070701189 
545	 0.113570924644743 
546	 0.113698754565074 
547	 0.113800933607464 
548	 0.113918501782206 
549	 0.114138634260042 
550	 0.114300342290077 
551	 0.114474323276652 
552	 0.11471010159339 
553	 0.114889624484315 
554	 0.11504251912841 
555	 0.115238823353423 
556	 0.115545413723879 
557	 0.115770815256022 
558	 0.116030445184663 
559	 0.116372602219253 
560	 0.116673159439643 
561	 0.116887679842265 
562	 0.117140864205494 
563	 0.117566253643241 
564	 0.117985382722995 
565	 0.118364954891622 
566	 0.118714134955405 
567	 0.119080506584537 
568	 0.119581661612487 
569	 0.120130117755825 
570	 0.120629903710185 
571	 0.121140414939656 
572	 0.121680865768847 
573	 0.12225507519153 
574	 0.122849877295924 
575	 0.123412410869399 
576	 0.123984621950711 
577	 0.124599897261862 
578	 0.12523466965813 
579	 0.125943931028643 
580	 0.126680059991208 
581	 0.12737549790679 
582	 0.128167511332952 
583	 0.128964496780225 
584	 0.129720268942473 
585	 0.130483510726457 
586	 0.131283764741632 
587	 0.132052339077993 
588	 0.132750722778325 
589	 0.133607968956305 
590	 0.134487437237085 
591	 0.13532203064803 
592	 0.136125387584902 
593	 0.136951255631825 
594	 0.137791810791055 
595	 0.138644035388132 
596	 0.139577548983522 
597	 0.140411181550939 
598	 0.141178735707503 
599	 0.142020937358228 
600	 0.142845043286442 
601	 0.143633835026116 
602	 0.144389210540837 
603	 0.145139257951795 
604	 0.145805167441939 
605	 0.146417739573081 
606	 0.147047040154038 
607	 0.147732646217162 
608	 0.148407404367085 
609	 0.149046019242826 
610	 0.149679676014264 
611	 0.150293953174838 
612	 0.150835810115777 
613	 0.151289771928329 
614	 0.151803820644802 
615	 0.15227457158167 
616	 0.152694087257529 
617	 0.153117836361402 
618	 0.153521838248032 
619	 0.153889224196786 
620	 0.15422490133763 
621	 0.154580741337308 
622	 0.154889627878919 
623	 0.155172178013398 
624	 0.155480631185364 
625	 0.155823738071323 
626	 0.15610266501831 
627	 0.156315451257976 
628	 0.156596716412127 
629	 0.156905012262552 
630	 0.1571801583795 
631	 0.157387835022189 
632	 0.157623007677161 
633	 0.157824297423546 
634	 0.158018084020363 
635	 0.158296199761587 
636	 0.158564303194164 
637	 0.158796918549458 
638	 0.1589978974706 
639	 0.159205418418423 
640	 0.159431864526331 
641	 0.159684145559205 
642	 0.159955456904237 
643	 0.160185287614475 
644	 0.160391771718939 
645	 0.160610915565181 
646	 0.160894325201014 
647	 0.161109191872249 
648	 0.161324708955302 
649	 0.161627383972781 
650	 0.161911776789576 
651	 0.162172093046595 
652	 0.16242429679991 
653	 0.162699514827971 
654	 0.162980574117518 
655	 0.163251742402494 
656	 0.163506406809902 
657	 0.163747614261703 
658	 0.16407629172312 
659	 0.164444454910974 
660	 0.164744994472297 
661	 0.165046528345244 
662	 0.165365040728917 
663	 0.165706099538231 
664	 0.166067422679886 
665	 0.166427565805677 
666	 0.166778348703704 
667	 0.167117756375168 
668	 0.16743308254974 
669	 0.167825774239595 
670	 0.168262225651611 
671	 0.168605119098659 
672	 0.169005870303345 
673	 0.169444431830204 
674	 0.169878174954434 
675	 0.170278219004225 
676	 0.170722097309533 
677	 0.171173649369396 
678	 0.171569029831502 
679	 0.172029998041505 
680	 0.172508487895457 
681	 0.172980677920366 
682	 0.173475317154291 
683	 0.17394118586003 
684	 0.174393730070693 
685	 0.174871100412773 
686	 0.175429203800899 
687	 0.175965064955945 
688	 0.176455977565525 
689	 0.176946118647596 
690	 0.177518120637955 
691	 0.178078874422498 
692	 0.178591639873879 
693	 0.179194118671906 
694	 0.179726124505224 
695	 0.180241202574397 
696	 0.180839351355597 
697	 0.181407414532954 
698	 0.182006004335007 
699	 0.18263281147424 
700	 0.18321209234739 
701	 0.183804718876489 
702	 0.18441160916006 
703	 0.185017734133361 
704	 0.185598825005655 
705	 0.186188465092852 
706	 0.186776878101292 
707	 0.187339734436145 
708	 0.187936943550418 
709	 0.188537888102242 
710	 0.189134961124605 
711	 0.189769761686521 
712	 0.190365823410249 
713	 0.190932333373161 
714	 0.191498753255236 
715	 0.192063857855908 
716	 0.192644867224317 
717	 0.193220577222131 
718	 0.193746586906875 
719	 0.194263892970244 
720	 0.194782741653831 
721	 0.195298333678697 
722	 0.195782150765258 
723	 0.196312388501551 
724	 0.196832196801444 
725	 0.197264589948326 
726	 0.197678531975685 
727	 0.19810875632771 
728	 0.198538051468283 
729	 0.198907523172074 
730	 0.199312061977782 
731	 0.199680763943598 
732	 0.19997086160513 
733	 0.200279640441429 
734	 0.20055938236049 
735	 0.20080320833925 
736	 0.201022630514772 
737	 0.201234545226836 
738	 0.201460120329808 
739	 0.201668544146232 
740	 0.20177756581234 
741	 0.201876992654959 
742	 0.201979115217527 
743	 0.202064759892803 
744	 0.202075478589131 
745	 0.202069996875354 
746	 0.202081945978746 
747	 0.202108814764758 
748	 0.201994139925663 
749	 0.201900323362149 
750	 0.201862881854214 
751	 0.201732565640146 
752	 0.201566138125688 
753	 0.201412011474291 
754	 0.201283487650952 
755	 0.201092500749116 
756	 0.20090482158632 
757	 0.200700587801277 
758	 0.20043051640734 
759	 0.200172451516321 
760	 0.199891182533593 
761	 0.199573248426616 
762	 0.199245184453796 
763	 0.1989735632246 
764	 0.198669922683728 
765	 0.198279648074269 
766	 0.197959007998176 
767	 0.197630366020979 
768	 0.197257143192148 
769	 0.196837713420915 
770	 0.196457108873869 
771	 0.196099818952162 
772	 0.195729216315228 
773	 0.195299100153814 
774	 0.194907463859069 
775	 0.194515418576882 
776	 0.194090213913502 
777	 0.193708833586054 
778	 0.193292890666815 
779	 0.192851991601729 
780	 0.192431092132199 
781	 0.192014851413381 
782	 0.191623189221284 
783	 0.191218562402157 
784	 0.190713060625393 
785	 0.190294195703136 
786	 0.189916636954464 
787	 0.189514270830371 
788	 0.189083124985128 
789	 0.188663529901138 
790	 0.188273416503325 
791	 0.187908849000304 
792	 0.187517941647586 
793	 0.187093326548926 
794	 0.186662071773294 
795	 0.186274701623147 
796	 0.185901121232285 
797	 0.185520431960908 
798	 0.185119654655432 
799	 0.184692323299143 
800	 0.184362015432246 
801	 0.184051500566833 
802	 0.183654776122376 
803	 0.183206712701602 
804	 0.182854272523936 
805	 0.182574483003016 
806	 0.182245824361499 
807	 0.181939083319747 
808	 0.181577414805771 
809	 0.181175295611353 
810	 0.18087622947673 
811	 0.180581526826136 
812	 0.180294008126017 
813	 0.180023859336326 
814	 0.179744865555618 
815	 0.179443554903735 
816	 0.179108871229597 
817	 0.178754870890576 
818	 0.178500007800152 
819	 0.178274423474588 
820	 0.178030485921836 
821	 0.17775615496432 
822	 0.177498314079229 
823	 0.17725518630629 
824	 0.17702215908556 
825	 0.176803594614987 
826	 0.17659864959788 
827	 0.176397542514941 
828	 0.176184976153706 
829	 0.175930439878684 
830	 0.175712073979996 
831	 0.175510759126967 
832	 0.175285061712615 
833	 0.175184375563426 
834	 0.1750725187829 
835	 0.174885857172227 
836	 0.174658143658353 
837	 0.174473994816886 
838	 0.174341483793442 
839	 0.174229100229108 
840	 0.174066440112102 
841	 0.173927773817141 
842	 0.173800082268229 
843	 0.173664268903024 
844	 0.173558323765157 
845	 0.173489966145672 
846	 0.173415598135131 
847	 0.173286489628033 
848	 0.173164592353024 
849	 0.173095487493288 
850	 0.173040076944397 
851	 0.172907376487334 
852	 0.172844290438989 
853	 0.172835574964348 
854	 0.172827235029318 
855	 0.172749608178186 
856	 0.172733697438671 
857	 0.172694213020537 
858	 0.172572267991906 
859	 0.172497004327892 
860	 0.172529261974832 
861	 0.172585350819822 
862	 0.172565748602603 
863	 0.172573420032848 
864	 0.172568806429017 
865	 0.172575525119088 
866	 0.172633673661707 
867	 0.172593659245972 
868	 0.172626636566254 
869	 0.172735914764571 
870	 0.172738060808403 
871	 0.172705696694752 
872	 0.172725115716913 
873	 0.172830809886452 
874	 0.172969477833607 
875	 0.173055762083107 
876	 0.173084881056641 
877	 0.173103646903207 
878	 0.173220776193208 
879	 0.173388217197343 
880	 0.173530852400167 
881	 0.173602276407032 
882	 0.173713256382494 
883	 0.17384927709863 
884	 0.173959584629726 
885	 0.174004358447643 
886	 0.174115621202164 
887	 0.174321216562196 
888	 0.174541033484106 
889	 0.174640839674509 
890	 0.174807712384573 
891	 0.174989283310455 
892	 0.175172615010941 
893	 0.175420751592176 
894	 0.175507880223725 
895	 0.175630015544674 
896	 0.175904467168536 
897	 0.176158142500531 
898	 0.176380543543576 
899	 0.176567307575924 
900	 0.176747882443521 
901	 0.177014713851045 
902	 0.177335375689472 
903	 0.17762637777191 
904	 0.177826528792275 
905	 0.178013047326722 
906	 0.178321996779559 
907	 0.178660959001326 
908	 0.178880307312387 
909	 0.179161508136486 
910	 0.179444309972582 
911	 0.179755246411355 
912	 0.180147233211572 
913	 0.180415855874368 
914	 0.180671333203033 
915	 0.180998597923075 
916	 0.181414206381125 
917	 0.181786274870786 
918	 0.182149320328482 
919	 0.182525305126818 
920	 0.182895484516825 
921	 0.183301630910457 
922	 0.183649188255229 
923	 0.183962527488667 
924	 0.184452686823825 
925	 0.184845203351527 
926	 0.18525413359221 
927	 0.185744129656129 
928	 0.186137572091987 
929	 0.186645911164142 
930	 0.187149850406828 
931	 0.187552513967702 
932	 0.188008058550172 
933	 0.188463879635494 
934	 0.188962310178582 
935	 0.189504286078738 
936	 0.189896510099152 
937	 0.19036772195058 
938	 0.190877998665613 
939	 0.191374451224405 
940	 0.192106278372296 
941	 0.192718092840283 
942	 0.193257425222424 
943	 0.19387675304603 
944	 0.194429345803509 
945	 0.194964984789568 
946	 0.195541294544736 
947	 0.19617655357385 
948	 0.196726787951941 
949	 0.197261848513514 
950	 0.197877647120287 
951	 0.198618672882258 
952	 0.199252274040523 
953	 0.199976791480717 
954	 0.200668052569699 
955	 0.201134793168013 
956	 0.201891298687509 
957	 0.202631974217032 
958	 0.203271460783498 
959	 0.203907280520703 
960	 0.204637494439806 
961	 0.205413919023752 
962	 0.206178884301617 
963	 0.206891579403103 
964	 0.207589460259021 
965	 0.208372514321229 
966	 0.209182886922254 
967	 0.209899545194118 
968	 0.210705365672213 
969	 0.211469883129607 
970	 0.212182228044219 
971	 0.212933392920498 
972	 0.213814950517127 
973	 0.214667943322303 
974	 0.215514932072363 
975	 0.216459076377724 
976	 0.217233689297771 
977	 0.218000502857153 
978	 0.218843935384927 
979	 0.219730354470764 
980	 0.220422958005394 
981	 0.221146980121995 
982	 0.222012936257557 
983	 0.222977053256963 
984	 0.223741000705576 
985	 0.224661208103953 
986	 0.225674910355 
987	 0.226515975921132 
988	 0.227311731713887 
989	 0.228238789458986 
990	 0.22918168211517 
991	 0.229969883170335 
992	 0.23094451245069 
993	 0.231775161818228 
994	 0.232581898622648 
995	 0.233568834813041 
996	 0.234348680784029 
997	 0.235254241247214 
998	 0.236256498683984 
999	 0.237224451150758 
1000	 0.238264428878528 
1001	 0.24027854239997 
1002	 0.241084084577167 
1003	 0.241962827195357 
1004	 0.242835374193277 
1005	 0.243778850958125 
1006	 0.244657399802782 
1007	 0.24553349560646 
1008	 0.24633620027571 
1009	 0.247130654507525 
1010	 0.247897538634781 
1011	 0.248653862234226 
1012	 0.249452661484852 
1013	 0.250235077464611 
1014	 0.251061677172639 
1015	 0.251922689977856 
1016	 0.252724116274622 
1017	 0.253522202086812 
1018	 0.254315908515981 
1019	 0.255080025501494 
1020	 0.255786780381499 
1021	 0.256514498224235 
1022	 0.257270389642241 
1023	 0.257985286107191 
1024	 0.258714364178062 
1025	 0.259469182732191 
1026	 0.260171409365203 
1027	 0.260838056326719 
1028	 0.261485247848638 
1029	 0.262188720881571 
1030	 0.262876617684614 
1031	 0.263539793815178 
1032	 0.264205523646747 
1033	 0.264918857567206 
1034	 0.265550675973197 
1035	 0.266169780229641 
1036	 0.266835519833348 
1037	 0.267490107406906 
1038	 0.26812257237135 
1039	 0.268772360468571 
1040	 0.269444495910423 
1041	 0.2700794586959 
1042	 0.270686360340126 
1043	 0.271281859030852 
1044	 0.271885506866475 
1045	 0.272468014507089 
1046	 0.273047884753693 
1047	 0.273684447764734 
1048	 0.274314837635631 
1049	 0.274852408884926 
1050	 0.275467018007739 
1051	 0.276112265678462 
1052	 0.276712118847136 
1053	 0.277359527823795 
1054	 0.277991664583407 
1055	 0.278551818205297 
1056	 0.279130578437085 
1057	 0.279708217511756 
1058	 0.280267312997853 
1059	 0.280835374753401 
1060	 0.281414357814761 
1061	 0.281990330914728 
1062	 0.282526001416049 
1063	 0.283133721168983 
1064	 0.283763157617903 
1065	 0.284373040592697 
1066	 0.284981037328547 
1067	 0.285557691312093 
1068	 0.286116055943749 
1069	 0.286654361371369 
1070	 0.287203739286348 
1071	 0.287771284325868 
1072	 0.288328587904576 
1073	 0.288867733918134 
1074	 0.289425601133805 
1075	 0.28997878167125 
1076	 0.290545695269248 
1077	 0.291167178933433 
1078	 0.291721902348604 
1079	 0.292275893673997 
1080	 0.292845834323834 
1081	 0.293359635625334 
1082	 0.293873647377786 
1083	 0.294375883957011 
1084	 0.294852748595068 
1085	 0.29536475818923 
1086	 0.295844561180948 
1087	 0.296381226954721 
1088	 0.296980386446549 
1089	 0.297547393757048 
1090	 0.298076801511874 
1091	 0.298644718498812 
1092	 0.299154757147085 
1093	 0.299693194797583 
1094	 0.300290214910099 
1095	 0.300871568743554 
1096	 0.30144580405619 
1097	 0.301979882304202 
1098	 0.302535564865472 
1099	 0.303084044556368 
1100	 0.303629469646957 
1101	 0.304178501244671 
1102	 0.304740953136708 
1103	 0.305310890220982 
1104	 0.305846487075466 
1105	 0.306404244962211 
1106	 0.307002755881251 
1107	 0.30752044521489 
1108	 0.308056519369852 
1109	 0.308640579910894 
1110	 0.309200901067325 
1111	 0.309796687242798 
1112	 0.310440562210763 
1113	 0.311057933358348 
1114	 0.311695844784501 
1115	 0.312292649061369 
1116	 0.31286260129427 
1117	 0.313449861056335 
1118	 0.314012746269445 
1119	 0.314586325515085 
1120	 0.315227474448396 
1121	 0.315829755862927 
1122	 0.316411740341641 
1123	 0.316996207151112 
1124	 0.317569234642874 
1125	 0.318107924168074 
1126	 0.318689557516874 
1127	 0.319280655999191 
1128	 0.319876653359336 
1129	 0.320495032845769 
1130	 0.321088868663573 
1131	 0.321695279421672 
1132	 0.32228277286999 
1133	 0.322837420212238 
1134	 0.32340616142233 
1135	 0.323986313642562 
1136	 0.324534596931199 
1137	 0.325084134308339 
1138	 0.32564927809999 
1139	 0.326208267311253 
1140	 0.326768503099166 
1141	 0.327308097671894 
1142	 0.32784635221289 
1143	 0.328379870885881 
1144	 0.328890048581788 
1145	 0.329405308340088 
1146	 0.329921247973905 
1147	 0.330436185814398 
1148	 0.330951307702129 
1149	 0.331462254361024 
1150	 0.331960854338057 
1151	 0.332486095206701 
1152	 0.3330090311055 
1153	 0.333511244030757 
1154	 0.334017495992536 
1155	 0.33453646856207 
1156	 0.335025844627086 
1157	 0.335505499234858 
1158	 0.335968153261328 
1159	 0.336408631541884 
1160	 0.336855508947944 
1161	 0.337275404217627 
1162	 0.337724119822924 
1163	 0.338199350497811 
1164	 0.338655719317952 
1165	 0.3391257244944 
1166	 0.33957201462794 
1167	 0.340007038332969 
1168	 0.340457385547413 
1169	 0.340901667319832 
1170	 0.341365700317118 
1171	 0.341787341387444 
1172	 0.342192753738287 
1173	 0.342584332050736 
1174	 0.34293542805186 
1175	 0.343315889110163 
1176	 0.343705249345991 
1177	 0.344088340111034 
1178	 0.344488177171325 
1179	 0.344865511606616 
1180	 0.345225658165487 
1181	 0.34558378933565 
1182	 0.345928646328461 
1183	 0.346279998289035 
1184	 0.346622396270844 
1185	 0.346954721416001 
1186	 0.347304077316576 
1187	 0.347669826527313 
1188	 0.348001377495035 
1189	 0.348329151586441 
1190	 0.348649846692353 
1191	 0.348936694455647 
1192	 0.349242172481722 
1193	 0.349580970045747 
1194	 0.34987683824644 
1195	 0.350142731990931 
1196	 0.350419441717691 
1197	 0.350672670574154 
1198	 0.350936037172271 
1199	 0.351204820491029 
1200	 0.351488276118879 
1201	 0.351759648250966 
1202	 0.352031078780742 
1203	 0.352293189585077 
1204	 0.352555480642316 
1205	 0.352805601651747 
1206	 0.353043354111734 
1207	 0.353280585754124 
1208	 0.353512333710131 
1209	 0.353740878769082 
1210	 0.353959534621089 
1211	 0.354185909912288 
1212	 0.354422782860648 
1213	 0.354642732338599 
1214	 0.354863105984146 
1215	 0.355072993655224 
1216	 0.355272309830078 
1217	 0.355447583824342 
1218	 0.355645162351765 
1219	 0.355852952131503 
1220	 0.356041055975277 
1221	 0.356226487419651 
1222	 0.356411028399307 
1223	 0.356583958906972 
1224	 0.356755852683743 
1225	 0.356930117505707 
1226	 0.35710287079068 
1227	 0.35727198339697 
1228	 0.357433491111241 
1229	 0.357604739949122 
1230	 0.357757053178702 
1231	 0.357877610320034 
1232	 0.358014142325877 
1233	 0.358152442748491 
1234	 0.3582869263094 
1235	 0.358426826046451 
1236	 0.358573121983426 
1237	 0.358724809719793 
1238	 0.358888951490883 
1239	 0.359029409831334 
1240	 0.359169464796233 
1241	 0.359303376610822 
1242	 0.359411590905127 
1243	 0.359533543785527 
1244	 0.35966435483416 
1245	 0.359791784487217 
1246	 0.359928390420204 
1247	 0.360046973019528 
1248	 0.360144271657313 
1249	 0.360262494697822 
1250	 0.360376194215363 
1251	 0.360479976546201 
1252	 0.360588396381443 
1253	 0.360716225030964 
1254	 0.360811669008024 
1255	 0.360875363449121 
1256	 0.360971141251929 
1257	 0.361075221609785 
1258	 0.361170281967855 
1259	 0.361283810215915 
1260	 0.361376008345895 
1261	 0.361439801247008 
1262	 0.361517359459941 
1263	 0.361597658838552 
1264	 0.361677524660148 
1265	 0.361765811451671 
1266	 0.361845097689097 
1267	 0.361916735430665 
1268	 0.361988565119489 
1269	 0.362062548358443 
1270	 0.362131350104765 
1271	 0.362202632894308 
1272	 0.362277017762542 
1273	 0.362353158183582 
1274	 0.362427030252476 
1275	 0.362507329812389 
1276	 0.362597284774174 
1277	 0.362678655639717 
1278	 0.362760284059219 
1279	 0.362836104041324 
1280	 0.362898958055346 
1281	 0.362977427386542 
1282	 0.363066150691345 
1283	 0.363144484426195 
1284	 0.363231335800194 
1285	 0.363304661826585 
1286	 0.363367148625322 
1287	 0.36344159495724 
1288	 0.363519633320763 
1289	 0.363613447088545 
1290	 0.363681511700807 
1291	 0.363743676110187 
1292	 0.363800037606416 
1293	 0.363834825255202 
1294	 0.363886028070579 
1295	 0.363951810684992 
1296	 0.363996607247683 
1297	 0.364034711021965 
1298	 0.364067648462811 
1299	 0.364088294874206 
1300	 0.364109020969102 
1301	 0.364124831068521 
1302	 0.364142941359735 
1303	 0.364171754656347 
1304	 0.364172521310926 
1305	 0.364161359679548 
1306	 0.364154118551498 
1307	 0.364141281588784 
1308	 0.364118530126203 
1309	 0.3640966391814 
1310	 0.364080196279079 
1311	 0.364063387827337 
1312	 0.36402808955361 
1313	 0.364019194107831 
1314	 0.364040925016022 
1315	 0.364031676405942 
1316	 0.364007958435729 
1317	 0.36400211484875 
1318	 0.363983810201588 
1319	 0.363982518736034 
1320	 0.364014649708505 
1321	 0.364030824658723 
1322	 0.364044157413595 
1323	 0.364045158847311 
1324	 0.364063616334771 
1325	 0.364086812044478 
1326	 0.364126383993514 
1327	 0.364171294430771 
1328	 0.364204527572348 
1329	 0.36422419908359 
1330	 0.364243733305204 
1331	 0.364239630599892 
1332	 0.36427335944341 
1333	 0.364330156962874 
1334	 0.364368936340495 
1335	 0.364410126069978 
1336	 0.364464865781494 
1337	 0.364507497937921 
1338	 0.364568889463462 
1339	 0.364671092679857 
1340	 0.364738614784465 
1341	 0.364783770709441 
1342	 0.364850182740019 
1343	 0.364924714816372 
1344	 0.364981117723092 
1345	 0.365054900485954 
1346	 0.365111893016855 
1347	 0.3651325556985 
1348	 0.365184334212657 
1349	 0.365233901567285 
1350	 0.365258567370882 
1351	 0.365302845685119 
1352	 0.365347421294799 
1353	 0.365400263335076 
1354	 0.365466813159017 
1355	 0.365528585432936 
1356	 0.365597916680403 
1357	 0.365652781062657 
1358	 0.365704230497312 
1359	 0.365750974680371 
1360	 0.365781316695075 
1361	 0.365823164880709 
1362	 0.365866718873788 
1363	 0.36590889919693 
1364	 0.365956991741326 
1365	 0.366005487983052 
1366	 0.366057883212998 
1367	 0.366102993186383 
1368	 0.366145828561293 
1369	 0.36617237469653 
1370	 0.366188221394548 
1371	 0.366196450601752 
1372	 0.366169182161677 
1373	 0.36611649699292 
1374	 0.366046381649075 
1375	 0.365936178655768 
1376	 0.365832962799906 
1377	 0.365726588917699 
1378	 0.365600938900002 
1379	 0.365465652364493 
1380	 0.365311539889755 
1381	 0.365141778157564 
1382	 0.364953512860872 
1383	 0.364754259381955 
1384	 0.364524947432381 
1385	 0.364284966605337 
1386	 0.364008272302826 
1387	 0.363714113163066 
1388	 0.363373379416081 
1389	 0.363003723796472 
1390	 0.362575904316248 
1391	 0.36212998611114 
1392	 0.361632704903446 
1393	 0.361093764634313 
1394	 0.360565706110786 
1395	 0.359989924319265 
1396	 0.359402387635069 
1397	 0.35881786097932 
1398	 0.358226376694191 
1399	 0.35762506266414 
1400	 0.357009763173577 
1401	 0.35641099160436 
1402	 0.355803178646023 
1403	 0.355214216961944 
1404	 0.354631646970612 
1405	 0.354074325156572 
1406	 0.35351926501186 
1407	 0.35300300840507 
1408	 0.352504609373029 
1409	 0.352054228223048 
1410	 0.351639458945596 
1411	 0.351256801120063 
1412	 0.35091316130605 
1413	 0.350595393999771 
1414	 0.350326912533942 
1415	 0.350104861572723 
1416	 0.349931066203754 
1417	 0.349816975200222 
1418	 0.34973337477926 
1419	 0.349652803229077 
1420	 0.349592971929037 
1421	 0.349538532217357 
1422	 0.349455522257847 
1423	 0.349380053711255 
1424	 0.349295553236119 
1425	 0.349191886676316 
1426	 0.34910697743345 
1427	 0.349025658141867 
1428	 0.348947669865968 
1429	 0.348878998724563 
1430	 0.348805574626048 
1431	 0.34873216066425 
1432	 0.348662837872501 
1433	 0.348586737921691 
1434	 0.348529300444133 
1435	 0.348482498650655 
1436	 0.3484409499929 
1437	 0.348414368648129 
1438	 0.348381865021463 
1439	 0.348351216195232 
1440	 0.348324657024797 
1441	 0.348277239924245 
1442	 0.348244730041659 
1443	 0.348225351281381 
1444	 0.348203337639968 
1445	 0.348203270847735 
1446	 0.348220919220208 
1447	 0.348238394912447 
1448	 0.348248738588433 
1449	 0.348265908918852 
1450	 0.348281034680306 
1451	 0.348281154846447 
1452	 0.348256181773932 
1453	 0.3482714728133 
1454	 0.348292376019287 
1455	 0.348318179899963 
1456	 0.348376595484546 
1457	 0.348415885038194 
1458	 0.348436934145976 
1459	 0.348478024624571 
1460	 0.348523773820379 
1461	 0.348580445982335 
1462	 0.348661529413177 
1463	 0.348720821096485 
1464	 0.348765653894701 
1465	 0.348830146964865 
1466	 0.348871824633878 
1467	 0.348957735219169 
1468	 0.349082670378773 
1469	 0.349212641936705 
1470	 0.34937012914368 
1471	 0.349529764394953 
1472	 0.349661125992139 
1473	 0.349838585872293 
1474	 0.350027615722023 
1475	 0.350224148345147 
1476	 0.350449931691407 
1477	 0.350663538751185 
1478	 0.350896716862142 
1479	 0.351117264881562 
1480	 0.351327474271116 
1481	 0.35156710638892 
1482	 0.351782415106054 
1483	 0.351969870588367 
1484	 0.352186331871887 
1485	 0.352410804533346 
1486	 0.352634063921682 
1487	 0.352865631175035 
1488	 0.353098258779556 
1489	 0.353339620222932 
1490	 0.353567426355458 
1491	 0.353796917035696 
1492	 0.354016659432945 
1493	 0.354220521256032 
1494	 0.354430148918189 
1495	 0.35464892737836 
1496	 0.354847202689636 
1497	 0.355024109586902 
1498	 0.355214738161137 
1499	 0.355400917771178 
1500	 0.35558689144233 
1501	 0.355782662439233 
1502	 0.355973198456374 
1503	 0.356156840178528 
1504	 0.356341309617256 
1505	 0.356517319964678 
1506	 0.356716853758567 
1507	 0.356901665876267 
1508	 0.357056330010357 
1509	 0.357210427429896 
1510	 0.357367317740907 
1511	 0.357527584118561 
1512	 0.357701329793455 
1513	 0.357904681378762 
1514	 0.358097128640335 
1515	 0.358293870254925 
1516	 0.358492492651683 
1517	 0.358652919344252 
1518	 0.358786876643144 
1519	 0.358922664163769 
1520	 0.359028992639202 
1521	 0.35915134799954 
1522	 0.359274538958834 
1523	 0.359409092834411 
1524	 0.35954600160943 
1525	 0.359689021094544 
1526	 0.359847631368441 
1527	 0.359991096779742 
1528	 0.360128527331226 
1529	 0.360269203074263 
1530	 0.360410609720251 
1531	 0.360549321669503 
1532	 0.360691197947254 
1533	 0.360823757152584 
1534	 0.360944489102042 
1535	 0.361071856490109 
1536	 0.36120228619743 
1537	 0.361324371517699 
1538	 0.361442246346783 
1539	 0.3615627677793 
1540	 0.361684943011364 
1541	 0.361795252813513 
1542	 0.361908392169964 
1543	 0.362008990201355 
1544	 0.362081436144766 
1545	 0.362166287299616 
1546	 0.362251111426538 
1547	 0.362341657870427 
1548	 0.362431165821078 
1549	 0.362533135457875 
1550	 0.362630426804272 
1551	 0.362727085045762 
1552	 0.362838750489864 
1553	 0.362942524214984 
1554	 0.363050821943504 
1555	 0.363166866955186 
1556	 0.363259740505418 
1557	 0.36335392024487 
1558	 0.363440265725347 
1559	 0.363506236129264 
1560	 0.363569418005566 
1561	 0.36361377742731 
1562	 0.363683340338164 
1563	 0.363749224283628 
1564	 0.363839144118879 
1565	 0.363953653505413 
1566	 0.364066161248675 
1567	 0.364194162169352 
1568	 0.364303372576645 
1569	 0.36442085772156 
1570	 0.364510557550016 
1571	 0.364586023528128 
1572	 0.364643119132485 
1573	 0.364665344410577 
1574	 0.364718538046251 
1575	 0.364759951979885 
1576	 0.364821836323867 
1577	 0.364928429945214 
1578	 0.364988748161141 
1579	 0.365031434833254 
1580	 0.365077835534553 
1581	 0.365097747163047 
1582	 0.36513649943748 
1583	 0.365173795108427 
1584	 0.36523609851978 
1585	 0.365320778298599 
1586	 0.365394513581828 
1587	 0.365490610974839 
1588	 0.365571011740187 
1589	 0.365641930674739 
1590	 0.365703175696664 
1591	 0.365755000853883 
1592	 0.365803991072129 
1593	 0.365831353324142 
1594	 0.365876311165849 
1595	 0.365926080912225 
1596	 0.365987359621091 
1597	 0.366075565842633 
1598	 0.366139174557442 
1599	 0.366201978124393 
1600	 0.366254542282102 
1601	 0.366285554042524 
1602	 0.366316351036272 
1603	 0.366336258399529 
1604	 0.366366866083307 
1605	 0.366398473922249 
1606	 0.36643056467148 
1607	 0.366477167446772 
1608	 0.366508988428846 
1609	 0.366545239014693 
1610	 0.366589157472464 
1611	 0.366609585395037 
1612	 0.366650272966576 
1613	 0.366684248354282 
1614	 0.366698530101036 
1615	 0.366745136033431 
1616	 0.366791634830009 
1617	 0.366838552251695 
1618	 0.366900182276267 
1619	 0.366951489681704 
1620	 0.366993686814977 
1621	 0.36703031791154 
1622	 0.367058495008002 
1623	 0.367082355959185 
1624	 0.367097412206798 
1625	 0.367121317391727 
1626	 0.367140146814502 
1627	 0.367170154661028 
1628	 0.367211582567655 
1629	 0.36724514359615 
1630	 0.367281361354909 
1631	 0.36730757999956 
1632	 0.367321592080141 
1633	 0.367356503153446 
1634	 0.367394417237897 
1635	 0.367438414519157 
1636	 0.367502447261213 
1637	 0.36754585683725 
1638	 0.367581105337931 
1639	 0.367615377985849 
1640	 0.367645195429721 
1641	 0.367674051820698 
1642	 0.367696709037531 
1643	 0.36772712283983 
1644	 0.367752639082353 
1645	 0.36779479535428 
1646	 0.367855713352841 
1647	 0.367898012175231 
1648	 0.367947157758011 
1649	 0.367978678406235 
1650	 0.367989208979353 
1651	 0.368008739111925 
1652	 0.3680270083539 
1653	 0.368041669894861 
1654	 0.368053412357458 
1655	 0.368067770909518 
1656	 0.368068970521854 
1657	 0.368098215083316 
1658	 0.368151446494552 
1659	 0.368183204683508 
1660	 0.368230860701366 
1661	 0.368250725084846 
1662	 0.368236654158289 
1663	 0.368244312304369 
1664	 0.368249871784472 
1665	 0.368262174244346 
1666	 0.368290843489331 
1667	 0.368299753011848 
1668	 0.368304632682218 
1669	 0.368301051175293 
1670	 0.368281858007276 
1671	 0.368268053554012 
1672	 0.368254288447594 
1673	 0.36823459499429 
1674	 0.368194702054539 
1675	 0.368192279421852 
1676	 0.368191666264887 
1677	 0.368222289217162 
1678	 0.368308841543291 
1679	 0.368355817244351 
1680	 0.368412230337131 
1681	 0.368438464963208 
1682	 0.368425238273066 
1683	 0.368438087035622 
1684	 0.368452237889102 
1685	 0.368461005867159 
1686	 0.368477990559996 
1687	 0.368488511654319 
1688	 0.368484086514038 
1689	 0.368489240139712 
1690	 0.368502909648593 
1691	 0.368512240605826 
1692	 0.368522348792019 
1693	 0.368526330945536 
1694	 0.368525481335701 
1695	 0.36852864634522 
1696	 0.368526014881084 
1697	 0.368530667892644 
1698	 0.36854403604004 
1699	 0.368552392784429 
1700	 0.368558883039011 
1701	 0.368569185856296 
1702	 0.36857599768028 
1703	 0.368593682393285 
1704	 0.368631883728878 
1705	 0.368639543973123 
1706	 0.368640199755765 
1707	 0.368636240669527 
1708	 0.368602387158497 
1709	 0.368591522391311 
1710	 0.368604225590132 
1711	 0.368588562151466 
1712	 0.368555156562031 
1713	 0.368540597801944 
1714	 0.368516423242058 
1715	 0.36850533668444 
1716	 0.368515762890087 
1717	 0.368522368410808 
1718	 0.368535411389509 
1719	 0.368527885365259 
1720	 0.368522810753593 
1721	 0.368498508413122 
1722	 0.368445391733409 
1723	 0.368407702619297 
1724	 0.36835804325722 
1725	 0.368339234502522 
1726	 0.368340443380495 
1727	 0.368326359634928 
1728	 0.368339073114681 
1729	 0.368308385008444 
1730	 0.368256946409564 
1731	 0.368186271659398 
1732	 0.368088951529244 
1733	 0.367988588226744 
1734	 0.367857320225333 
1735	 0.367754204209651 
1736	 0.367654324745339 
1737	 0.367567810148544 
1738	 0.367491637015007 
1739	 0.367421619544989 
1740	 0.367359235672919 
1741	 0.367311582136369 
1742	 0.367291702247932 
1743	 0.36723420300245 
1744	 0.367169820350844 
1745	 0.367093390391657 
1746	 0.366982342129791 
1747	 0.366937050923761 
1748	 0.366892522033388 
1749	 0.366877245521845 
1750	 0.366826444382177 
1751	 0.366720686945584 
1752	 0.366623820031647 
1753	 0.366512711826898 
1754	 0.366391823799994 
1755	 0.366326769493535 
1756	 0.366269663320932 
1757	 0.366221177279395 
1758	 0.366193633917123 
1759	 0.366112925276289 
1760	 0.366026990958283 
1761	 0.365938443396023 
1762	 0.365822135932829 
1763	 0.365744983895421 
1764	 0.365675847038504 
1765	 0.365627000058916 
1766	 0.365605977088849 
1767	 0.365580285907768 
1768	 0.365573561074047 
1769	 0.36554118522514 
1770	 0.36548046480418 
1771	 0.365423898722637 
1772	 0.365342804207246 
1773	 0.365267966324776 
1774	 0.365208316566012 
1775	 0.365112965896473 
1776	 0.365023044962056 
1777	 0.364937301908272 
1778	 0.364871947343665 
1779	 0.364874989793078 
1780	 0.364879609755441 
1781	 0.364887737970824 
1782	 0.364885042123774 
1783	 0.364832014359492 
1784	 0.364789333072764 
1785	 0.364718731843006 
1786	 0.364672809301851 
1787	 0.364642731561809 
1788	 0.364620337251631 
1789	 0.364624525366298 
1790	 0.364613331734159 
1791	 0.364582490838994 
1792	 0.364568415258907 
1793	 0.364574146314256 
1794	 0.364557361639084 
1795	 0.36454866364447 
1796	 0.364533657825016 
1797	 0.36447602368387 
1798	 0.364453759305148 
1799	 0.364441837073983 
1800	 0.364453624579855 
1801	 0.359988577093719 
1802	 0.36000873333729 
1803	 0.360011886520142 
1804	 0.360037224599754 
1805	 0.360044493413713 
1806	 0.360017703814086 
1807	 0.360029864578876 
1808	 0.36003327335332 
1809	 0.360031278158451 
1810	 0.36003326160039 
1811	 0.360051666586836 
1812	 0.360043445732387 
1813	 0.360035717792551 
1814	 0.36004625065474 
1815	 0.36005273719702 
1816	 0.360067871669282 
1817	 0.360083634901592 
1818	 0.36011495580797 
1819	 0.36011552382695 
1820	 0.360105015784421 
1821	 0.360094669309961 
1822	 0.360072370413815 
1823	 0.360045450026917 
1824	 0.360025632884577 
1825	 0.359999013458259 
1826	 0.359947567980707 
1827	 0.359892074192321 
1828	 0.359826685380792 
1829	 0.359716246177215 
1830	 0.359659687696181 
1831	 0.359629340732533 
1832	 0.35959046494225 
1833	 0.359546546087359 
1834	 0.359532884937698 
1835	 0.359475245208582 
1836	 0.359385914484524 
1837	 0.359299610735207 
1838	 0.359207994037597 
1839	 0.359126244895382 
1840	 0.359042142400173 
1841	 0.35896222081623 
1842	 0.358879413501976 
1843	 0.358792316032413 
1844	 0.358672715034981 
1845	 0.358535403807068 
1846	 0.358410620229925 
1847	 0.358295933396045 
1848	 0.358170540188335 
1849	 0.358043001616537 
1850	 0.357939397214145 
1851	 0.357859428939052 
1852	 0.357756692762728 
1853	 0.357653568284803 
1854	 0.357556559464557 
1855	 0.357394086906425 
1856	 0.357211110340782 
1857	 0.357013827276138 
1858	 0.356792014418968 
1859	 0.356551370316718 
1860	 0.356265345859889 
1861	 0.355943259482484 
1862	 0.355586319162943 
1863	 0.355204018175916 
1864	 0.354807769040462 
1865	 0.354406957709708 
1866	 0.353981827961243 
1867	 0.353504143316846 
1868	 0.352961026995436 
1869	 0.352382455373078 
1870	 0.351775787607445 
1871	 0.351106237876957 
1872	 0.350395046657614 
1873	 0.349647248815703 
1874	 0.348828179206333 
1875	 0.347927351327309 
1876	 0.346963266720442 
1877	 0.345916128241338 
1878	 0.344778861230199 
1879	 0.343543209932643 
1880	 0.342199345754957 
1881	 0.340736066660656 
1882	 0.339208364891684 
1883	 0.337591652112087 
1884	 0.335853127381437 
1885	 0.334079238578718 
1886	 0.332232660187209 
1887	 0.330261506153458 
1888	 0.328263558907285 
1889	 0.326178322793848 
1890	 0.324020030242831 
1891	 0.321863617395114 
1892	 0.319640446836854 
1893	 0.317437635151476 
1894	 0.315217567403651 
1895	 0.313016289067544 
1896	 0.31079673508016 
1897	 0.30862560784814 
1898	 0.30647658046847 
1899	 0.304404998454035 
1900	 0.302443871017646 
1901	 0.300586781558025 
1902	 0.298828057079227 
1903	 0.29719007040855 
1904	 0.29562952271991 
1905	 0.294156842604505 
1906	 0.292787977497639 
1907	 0.291494907076814 
1908	 0.290301598348595 
1909	 0.289209529284393 
1910	 0.288175175334743 
1911	 0.287223340634528 
1912	 0.286359750751596 
1913	 0.285540052528995 
1914	 0.284771729432211 
1915	 0.284063463271334 
1916	 0.283418196852536 
1917	 0.282822803744566 
1918	 0.282297417109895 
1919	 0.281828143548841 
1920	 0.281411942676799 
1921	 0.281055250638047 
1922	 0.280720084322612 
1923	 0.280438277301216 
1924	 0.280203168418883 
1925	 0.280018421201157 
1926	 0.279868687179907 
1927	 0.279769654401499 
1928	 0.27969907952996 
1929	 0.27965365948097 
1930	 0.279657159627297 
1931	 0.279690893074669 
1932	 0.279748525710364 
1933	 0.279835967544439 
1934	 0.279956092113121 
1935	 0.28011225579718 
1936	 0.280295530106106 
1937	 0.280521233315344 
1938	 0.280798788129711 
1939	 0.281083039873991 
1940	 0.28138706771363 
1941	 0.28172531635727 
1942	 0.282090104722244 
1943	 0.282500382108654 
1944	 0.282945469892602 
1945	 0.283389579391056 
1946	 0.283823674829656 
1947	 0.284237416288942 
1948	 0.284692605167792 
1949	 0.285164585923811 
1950	 0.285641313595761 
1951	 0.28613831730456 
1952	 0.286652936713499 
1953	 0.287160830229308 
1954	 0.287666179235896 
1955	 0.288188340737856 
1956	 0.288709137073892 
1957	 0.289236670737685 
1958	 0.289758536780979 
1959	 0.290298051876168 
1960	 0.290853584577969 
1961	 0.291411607051525 
1962	 0.291976060660115 
1963	 0.292551034261276 
1964	 0.293129886201912 
1965	 0.293724852367661 
1966	 0.294334126024172 
1967	 0.294930507728923 
1968	 0.295537913868384 
1969	 0.296159251419418 
1970	 0.296757725799321 
1971	 0.297349706170903 
1972	 0.29795363605833 
1973	 0.298543844549874 
1974	 0.299145270601219 
1975	 0.299771765662016 
1976	 0.300378717707446 
1977	 0.300970352439216 
1978	 0.301573912514388 
1979	 0.302150025938678 
1980	 0.302716049659601 
1981	 0.30330101760609 
1982	 0.303880936197614 
1983	 0.304479930767766 
1984	 0.305104190227109 
1985	 0.305716166017009 
1986	 0.306342380801046 
1987	 0.306945331068372 
1988	 0.307524904518802 
1989	 0.308125399466039 
1990	 0.308724221499714 
1991	 0.309307097212276 
1992	 0.309906809240183 
1993	 0.310533149077633 
1994	 0.31112814797647 
1995	 0.311718201511524 
1996	 0.312291817137799 
1997	 0.312821732079648 
1998	 0.313397267998516 
1999	 0.314003287330866 
2000	 0.314580863329799 
2001	 0.315172534665823 
2002	 0.315753382719222 
2003	 0.316316209903773 
2004	 0.316832999039053 
2005	 0.317361540369166 
2006	 0.317889207311311 
2007	 0.318416338682678 
2008	 0.31891294042499 
2009	 0.319448598118444 
2010	 0.320013273278895 
2011	 0.320562963883982 
2012	 0.321151172535471 
2013	 0.321688516092695 
2014	 0.322198297086287 
2015	 0.322691313053102 
2016	 0.323157991603566 
2017	 0.323624721646536 
2018	 0.324125414134731 
2019	 0.324657544494303 
2020	 0.325163270248695 
2021	 0.325695312700292 
2022	 0.326187976503909 
2023	 0.32665012213004 
2024	 0.32711255148362 
2025	 0.327559944698746 
2026	 0.328000903250275 
2027	 0.32843627705945 
2028	 0.328855886192117 
2029	 0.329279729953916 
2030	 0.329698263190413 
2031	 0.330115206967795 
2032	 0.330524766001276 
2033	 0.330945960422386 
2034	 0.331366730196348 
2035	 0.331790625211708 
2036	 0.332235455090709 
2037	 0.332657500521579 
2038	 0.333084504210689 
2039	 0.333482017659635 
2040	 0.333856225150685 
2041	 0.334219024386648 
2042	 0.334578928393083 
2043	 0.334907114933838 
2044	 0.335247886930665 
2045	 0.335587645482802 
2046	 0.33592770029542 
2047	 0.336251159405229 
2048	 0.336601042347015 
2049	 0.336971331305753 
2050	 0.337328011131377 
2051	 0.337708944712322 
2052	 0.338058972370306 
2053	 0.338389312438523 
2054	 0.338712125548836 
2055	 0.339021828151797 
2056	 0.339313126389372 
2057	 0.339608037491966 
2058	 0.339888448893654 
2059	 0.340181667724194 
2060	 0.340470928593216 
2061	 0.340775226142884 
2062	 0.341096813472928 
2063	 0.341408128534189 
2064	 0.341734882357978 
2065	 0.342038743258281 
2066	 0.342330084142162 
2067	 0.342615087631807 
2068	 0.34289872557761 
2069	 0.343144267789014 
2070	 0.343418649664611 
2071	 0.343690314578606 
2072	 0.343973086939972 
2073	 0.344281354382307 
2074	 0.344555317069461 
2075	 0.34481023730558 
2076	 0.345081276161578 
2077	 0.345341215541159 
2078	 0.345608072500547 
2079	 0.345902726304312 
2080	 0.346171356765537 
2081	 0.346415329753291 
2082	 0.346667899229604 
2083	 0.346920107205002 
2084	 0.347166762372477 
2085	 0.347408731804512 
2086	 0.347648988128085 
2087	 0.347896481359511 
2088	 0.348144242696081 
2089	 0.348381061370983 
2090	 0.348624564094026 
2091	 0.348855001952765 
2092	 0.349053376046296 
2093	 0.349281785633503 
2094	 0.349521975833087 
2095	 0.349763762544542 
2096	 0.350022406724024 
2097	 0.350274047694775 
2098	 0.350536935972161 
2099	 0.350782797642345 
2100	 0.351008826306401 
2101	 0.35121641458057 
2102	 0.3514380006608 
2103	 0.351636900069953 
2104	 0.351863075152467 
2105	 0.352104042660076 
2106	 0.352354912149302 
2107	 0.352610679959096 
2108	 0.352880158572174 
2109	 0.35317587978996 
2110	 0.353466358939242 
2111	 0.353786888348503 
2112	 0.354066738505816 
2113	 0.354350226817401 
2114	 0.354587381523719 
2115	 0.354809437337949 
2116	 0.354986829819258 
2117	 0.355187267496359 
2118	 0.355363387414365 
2119	 0.355578084495225 
2120	 0.355797424774225 
2121	 0.356046807333627 
2122	 0.356333267354128 
2123	 0.356610221569868 
2124	 0.356937495599911 
2125	 0.357200273252146 
2126	 0.357443232121615 
2127	 0.357661472100469 
2128	 0.357816003635401 
2129	 0.3579904728852 
2130	 0.358159228262098 
2131	 0.358341427772874 
2132	 0.358478714990188 
2133	 0.358619133758513 
2134	 0.358702638422833 
2135	 0.358725731087896 
2136	 0.358764763054427 
2137	 0.358781207574802 
2138	 0.358792951243686 
2139	 0.358807863778256 
2140	 0.358794709242686 
2141	 0.358739925818199 
2142	 0.358709303733751 
2143	 0.358686151173112 
2144	 0.358643906838697 
2145	 0.358619064793159 
2146	 0.358562764815897 
2147	 0.35848902440001 
2148	 0.358367157591711 
2149	 0.358260286488191 
2150	 0.358151025947256 
2151	 0.358007192515593 
2152	 0.357848534883697 
2153	 0.357671291750816 
2154	 0.357442899652204 
2155	 0.357252092162581 
2156	 0.35707717098071 
2157	 0.356880440055961 
2158	 0.356705122746839 
2159	 0.356484293338145 
2160	 0.356225779073845 
2161	 0.355961871415536 
2162	 0.35564617109652 
2163	 0.355369888811204 
2164	 0.355111221502236 
2165	 0.354845859521699 
2166	 0.354581354733391 
2167	 0.354338574151461 
2168	 0.354074381741514 
2169	 0.353795265724853 
2170	 0.353514688736379 
2171	 0.353234287460803 
2172	 0.35294804609791 
2173	 0.352655439799302 
2174	 0.352347082567383 
2175	 0.352034928334309 
2176	 0.351713876324095 
2177	 0.351361509438937 
2178	 0.35102960769424 
2179	 0.350716222343919 
2180	 0.350379809166007 
2181	 0.350030644412021 
2182	 0.349689610163853 
2183	 0.349323572939095 
2184	 0.348978475518632 
2185	 0.348653651491873 
2186	 0.348353475818023 
2187	 0.348041356904642 
2188	 0.347747995987994 
2189	 0.3474332867198 
2190	 0.347100304525045 
2191	 0.346785903040327 
2192	 0.346461767241414 
2193	 0.346164417349166 
2194	 0.345875647871042 
2195	 0.345610981942004 
2196	 0.345365362515378 
2197	 0.345138072255908 
2198	 0.344922029608003 
2199	 0.344744849959059 
2200	 0.344598220538961 
2201	 0.344470078674548 
2202	 0.34437910574407 
2203	 0.344301500366778 
2204	 0.344243433488471 
2205	 0.344211166008333 
2206	 0.344167364087626 
2207	 0.34413533375829 
2208	 0.344111596835904 
2209	 0.344074654825407 
2210	 0.344079003282947 
2211	 0.344107191699157 
2212	 0.344158108119365 
2213	 0.344243872121211 
2214	 0.344322990764439 
2215	 0.344424593805358 
2216	 0.344523170333822 
2217	 0.344639183379028 
2218	 0.3447273706643 
2219	 0.344826193489148 
2220	 0.344888307077621 
2221	 0.344890003309929 
2222	 0.344919276246815 
2223	 0.344984265510012 
2224	 0.345000788328423 
2225	 0.344993546907557 
2226	 0.344999060061607 
2227	 0.344936632363136 
2228	 0.344792749036238 
2229	 0.34469444107301 
2230	 0.344579992908523 
2231	 0.344481185707707 
2232	 0.344398559908142 
2233	 0.344297655361612 
2234	 0.344184496441635 
2235	 0.344089044449767 
2236	 0.343975557679852 
2237	 0.343898799439361 
2238	 0.343864595254464 
2239	 0.343809771753102 
2240	 0.343772092429745 
2241	 0.343718128244938 
2242	 0.34364524108759 
2243	 0.343578959722611 
2244	 0.343509209811599 
2245	 0.34344404559332 
2246	 0.34338986490771 
2247	 0.343318606286216 
2248	 0.343214375152377 
2249	 0.343082496131007 
2250	 0.342965796167037 
2251	 0.342818141182971 
2252	 0.342700051628423 
2253	 0.342596755148423 
2254	 0.342519359539665 
2255	 0.342448099370765 
2256	 0.342393425713698 
2257	 0.342386599848393 
2258	 0.342346141927915 
2259	 0.342288302652778 
2260	 0.342253195892108 
2261	 0.342198485198857 
2262	 0.342193492011499 
2263	 0.342223336316531 
2264	 0.342261582275205 
2265	 0.342360681514217 
2266	 0.342416252016978 
2267	 0.342464646345809 
2268	 0.342506676610378 
2269	 0.342525790667887 
2270	 0.342539666892525 
2271	 0.342561409571399 
2272	 0.342558256318324 
2273	 0.342589376834084 
2274	 0.342639332258515 
2275	 0.342669762654681 
2276	 0.342704477805007 
2277	 0.342752484974671 
2278	 0.342795376809155 
2279	 0.342829376676257 
2280	 0.342891108093976 
2281	 0.342925598714029 
2282	 0.342915273974389 
2283	 0.342943989194961 
2284	 0.34299125027989 
2285	 0.343027785472073 
2286	 0.343073738051567 
2287	 0.343112710789812 
2288	 0.343144648985897 
2289	 0.343179319907308 
2290	 0.343225052242346 
2291	 0.343251396255851 
2292	 0.343252432064783 
2293	 0.343270281104276 
2294	 0.343283023948864 
2295	 0.343302779087744 
2296	 0.343318627367134 
2297	 0.343387204251871 
2298	 0.343415308004062 
2299	 0.343426529197573 
2300	 0.34348147098164 
2301	 0.343508729303846 
2302	 0.343529290577962 
2303	 0.343562952098794 
2304	 0.343601373838124 
2305	 0.343650559242701 
2306	 0.343674190515247 
2307	 0.343712280948827 
2308	 0.343734442439903 
2309	 0.343737268181749 
2310	 0.34371102385013 
2311	 0.343683754169704 
2312	 0.343625966747137 
2313	 0.343491685811088 
2314	 0.343409818516581 
2315	 0.343333602419526 
2316	 0.343289320719785 
2317	 0.343284568888767 
2318	 0.34326021837303 
2319	 0.343264570090024 
2320	 0.343234737809829 
2321	 0.343152289278051 
2322	 0.343122807852097 
2323	 0.343128254103615 
2324	 0.343091994608713 
2325	 0.343073788556077 
2326	 0.343027857651072 
2327	 0.342920399747589 
2328	 0.342842612255368 
2329	 0.34277917961814 
2330	 0.342748266673046 
2331	 0.342741790761865 
2332	 0.342716847233693 
2333	 0.342753317219565 
2334	 0.34277885185769 
2335	 0.342790894727782 
2336	 0.342827954616738 
2337	 0.34279552293449 
2338	 0.342738905520071 
2339	 0.342649705941524 
2340	 0.342532946497706 
2341	 0.342427106134579 
2342	 0.342272776770948 
2343	 0.342126385402438 
2344	 0.34202593091586 
2345	 0.341917900232958 
2346	 0.341837615263824 
2347	 0.341688711052559 
2348	 0.341506717265742 
2349	 0.341346582278789 
2350	 0.341175708002862 
2351	 0.341010637083002 
2352	 0.34088242311925 
2353	 0.340663347243802 
2354	 0.34033386166044 
2355	 0.34009646134323 
2356	 0.339860710713713 
2357	 0.339672405716607 
2358	 0.339584707087321 
2359	 0.33940996249136 
2360	 0.339202021043038 
2361	 0.33899920025543 
2362	 0.338794227439281 
2363	 0.338550207689095 
2364	 0.338250510486306 
2365	 0.338010382856442 
2366	 0.337752121814564 
2367	 0.337524853750968 
2368	 0.337382735403406 
2369	 0.337195179817385 
2370	 0.337000694388972 
2371	 0.336778579687002 
2372	 0.336523165021588 
2373	 0.336217783495046 
2374	 0.335906569713195 
2375	 0.335597422382091 
2376	 0.335300462349434 
2377	 0.335012901059633 
2378	 0.334728457460464 
2379	 0.334374444724049 
2380	 0.333987337925865 
2381	 0.333636984879847 
2382	 0.333240251572 
2383	 0.332873930224549 
2384	 0.332612791902024 
2385	 0.332359701818575 
2386	 0.332089050977911 
2387	 0.331829756840442 
2388	 0.331541301790108 
2389	 0.331210640833703 
2390	 0.330930718671808 
2391	 0.330678889054577 
2392	 0.330293586624567 
2393	 0.329843560614091 
2394	 0.329473871441979 
2395	 0.329150178763593 
2396	 0.328825188839717 
2397	 0.328546174148908 
2398	 0.328193224701076 
2399	 0.327651966842956 
2400	 0.32726125766836 
2401	 0.326996448084823 
2402	 0.326604957278644 
2403	 0.326280819698289 
2404	 0.326007591127619 
2405	 0.325695311758006 
2406	 0.325392272459305 
2407	 0.32510685869217 
2408	 0.324731057443328 
2409	 0.324196911646582 
2410	 0.323740804872095 
2411	 0.323370729581534 
2412	 0.322965681763212 
2413	 0.322587932613549 
2414	 0.322111289932933 
2415	 0.321609348075354 
2416	 0.321223651964014 
2417	 0.320918634051177 
2418	 0.320515370663036 
2419	 0.320185644741155 
2420	 0.319750783674638 
2421	 0.31915556265903 
2422	 0.318641915159479 
2423	 0.318132864062459 
2424	 0.31773455371093 
2425	 0.317392280731924 
2426	 0.3170009812524 
2427	 0.316733228212496 
2428	 0.316311384859161 
2429	 0.315689571706214 
2430	 0.315279949326914 
2431	 0.314941714535865 
2432	 0.314550294627213 
2433	 0.314244913575947 
2434	 0.313941020496711 
2435	 0.313599072414288 
2436	 0.313248585629355 
2437	 0.312994975542786 
2438	 0.312534284387597 
2439	 0.311859612118049 
2440	 0.311310993214086 
2441	 0.310720280277434 
2442	 0.310284769263367 
2443	 0.31002844794932 
2444	 0.309643775662453 
2445	 0.309266576015405 
2446	 0.308847453021774 
2447	 0.308299811392037 
2448	 0.307881797422922 
2449	 0.307562069051678 
2450	 0.307172801969984 
2451	 0.306773062903033 
2452	 0.306348337024523 
2453	 0.305899756324159 
2454	 0.305495585028455 
2455	 0.305130151457717 
2456	 0.304671808968712 
2457	 0.304172260812909 
2458	 0.303702541328093 
2459	 0.30312248474051 
2460	 0.302766528437683 
2461	 0.302574618306058 
2462	 0.302344399779887 
2463	 0.302223405133917 
2464	 0.301933174618773 
2465	 0.301633662271673 
2466	 0.301201316521049 
2467	 0.300561538360272 
2468	 0.30009017533625 
2469	 0.29960464439195 
2470	 0.299252594185065 
2471	 0.298944329916897 
2472	 0.298584277681652 
2473	 0.298045723230997 
2474	 0.297407635719433 
2475	 0.29691907521083 
2476	 0.296455612174553 
2477	 0.296175647756133 
2478	 0.295935776743005 
2479	 0.295529246658672 
2480	 0.295356574354412 
2481	 0.295029053916195 
2482	 0.294628854494293 
2483	 0.294394612902715 
2484	 0.293792458311164 
2485	 0.293210685129047 
2486	 0.29266309591211 
2487	 0.292193592324122 
2488	 0.292005662732855 
2489	 0.291654553608893 
2490	 0.291417918942361 
2491	 0.291284698609667 
2492	 0.290887471862896 
2493	 0.290395989181543 
2494	 0.290004319653096 
2495	 0.289563168265879 
2496	 0.289126334497537 
2497	 0.288913729894483 
2498	 0.288804380553694 
2499	 0.288528104945344 
2500	 0.288192218827497 
