Wavelength	LMW200017.asd
350	 6.72905939529584E-02 
351	 6.62800122974278E-02 
352	 6.40606409468556E-02 
353	 6.32287078262912E-02 
354	 6.70657650620879E-02 
355	 7.13494396737822E-02 
356	 7.30493904279666E-02 
357	 7.13438928179056E-02 
358	 7.24799976823506E-02 
359	 7.37687059662492E-02 
360	 7.36961691371985E-02 
361	 7.18657493007605E-02 
362	 6.92350730731488E-02 
363	 6.84488196265982E-02 
364	 6.93679355272094E-02 
365	 6.73056892276277E-02 
366	 6.69253856368948E-02 
367	 6.75083046161655E-02 
368	 0.067598968936323 
369	 6.90059288168722E-02 
370	 7.03511124889486E-02 
371	 7.02282705364729E-02 
372	 6.80224258031355E-02 
373	 7.17230837415565E-02 
374	 7.37331768681475E-02 
375	 7.13140500310101E-02 
376	 7.37572257587334E-02 
377	 7.24200498360416E-02 
378	 7.12279281888334E-02 
379	 7.48943357302331E-02 
380	 7.52946353748111E-02 
381	 7.44954233190709E-02 
382	 7.46497257988692E-02 
383	 7.71870014678282E-02 
384	 7.66792093807716E-02 
385	 7.60766645121225E-02 
386	 0.077426390683935 
387	 7.88457686375514E-02 
388	 0.079639708874432 
389	 7.93019704644509E-02 
390	 7.80863363222559E-02 
391	 7.85817522998356E-02 
392	 8.05784718259152E-02 
393	 8.29948882149845E-02 
394	 8.42617964348536E-02 
395	 8.49287484392495E-02 
396	 8.45760667562339E-02 
397	 0.083988544455819 
398	 8.72230137505061E-02 
399	 8.81448126539355E-02 
400	 8.77446209995046E-02 
401	 8.90976868229761E-02 
402	 9.10174825959549E-02 
403	 9.15288628647116E-02 
404	 9.09519058979968E-02 
405	 9.18192734254652E-02 
406	 9.26881944024157E-02 
407	 9.36921678987011E-02 
408	 9.47570001219652E-02 
409	 9.43620600915998E-02 
410	 9.49255995661573E-02 
411	 9.61311878654049E-02 
412	 9.65458764169005E-02 
413	 9.68695234436009E-02 
414	 9.71768788613508E-02 
415	 9.75097740308409E-02 
416	 9.79376153323477E-02 
417	 9.81740226654074E-02 
418	 9.86036534922955E-02 
419	 9.93218931823111E-02 
420	 9.89320023456935E-02 
421	 9.80549719111658E-02 
422	 9.78105795206494E-02 
423	 9.92377650741253E-02 
424	 9.92362058970346E-02 
425	 9.88883445970317E-02 
426	 9.89830264237932E-02 
427	 9.87385416899067E-02 
428	 9.85751188950739E-02 
429	 9.84407335245656E-02 
430	 9.81962680026228E-02 
431	 0.098033951021736 
432	 9.77699265484562E-02 
433	 9.75348035328702E-02 
434	 9.77350259985946E-02 
435	 9.74803536858531E-02 
436	 0.097221534706647 
437	 9.73578367658667E-02 
438	 9.74408918385282E-02 
439	 9.76907940852071E-02 
440	 9.81106750812265E-02 
441	 9.85526771183291E-02 
442	 9.85446427661791E-02 
443	 9.87752779234918E-02 
444	 9.94230735133224E-02 
445	 0.099747453605992 
446	 0.100040726578948 
447	 0.100477613893447 
448	 0.101105436115577 
449	 0.101575961950502 
450	 0.101886047814171 
451	 0.102210738399954 
452	 0.102820343085581 
453	 0.103074067926414 
454	 0.103309461380994 
455	 0.103779309507417 
456	 0.104105484277127 
457	 0.10436677760609 
458	 0.104735829739075 
459	 0.105327470424679 
460	 0.105467952318885 
461	 0.105513240508443 
462	 0.105678857324915 
463	 0.10584894341307 
464	 0.105975443149031 
465	 0.106213301340673 
466	 0.10664130610806 
467	 0.106813788263588 
468	 0.10696841537792 
469	 0.107105125030106 
470	 0.107046681741326 
471	 0.107175711181283 
472	 0.107280811940552 
473	 0.107240971552478 
474	 0.10738692119699 
475	 0.107594709712041 
476	 0.107741079032073 
477	 0.107725240176302 
478	 0.107620238183164 
479	 0.107740100094637 
480	 0.108068963361804 
481	 0.10811655094434 
482	 0.108337306864375 
483	 0.108612101735461 
484	 0.108741750064107 
485	 0.108874757899379 
486	 0.108938080878246 
487	 0.108947124035124 
488	 0.1089902466133 
489	 0.109036195958927 
490	 0.109083924485154 
491	 0.109176996793109 
492	 0.109489193709826 
493	 0.109665541776664 
494	 0.10968074284864 
495	 0.109689648103485 
496	 0.109895977747536 
497	 0.109947738629632 
498	 0.10983996525415 
499	 0.110166296217593 
500	 0.110320740079306 
501	 0.110314250982466 
502	 0.110325424599708 
503	 0.110395998100595 
504	 0.110547139779211 
505	 0.110708002954085 
506	 0.110740338435439 
507	 0.110876122543419 
508	 0.110934820541543 
509	 0.110830198913312 
510	 0.110936029354983 
511	 0.111084620205022 
512	 0.11118842487688 
513	 0.111223432783241 
514	 0.111355085877719 
515	 0.111524872456307 
516	 0.111653010583004 
517	 0.111664685688566 
518	 0.111647325620246 
519	 0.11172764571595 
520	 0.111962819737311 
521	 0.112011303256328 
522	 0.112023436749857 
523	 0.112097786574837 
524	 0.112245443336097 
525	 0.112304244939296 
526	 0.112366662458298 
527	 0.112509020349964 
528	 0.112564973240393 
529	 0.11260036767935 
530	 0.112694038506641 
531	 0.112908249716189 
532	 0.112999613747475 
533	 0.1131295198254 
534	 0.113368179064304 
535	 0.11347622119702 
536	 0.113542431891222 
537	 0.113600688339115 
538	 0.113676853218868 
539	 0.11384646233495 
540	 0.114024185618116 
541	 0.114175859323922 
542	 0.114352153629194 
543	 0.114508303876884 
544	 0.114672652791942 
545	 0.114871969136095 
546	 0.115054597110546 
547	 0.115172633623152 
548	 0.115290623919327 
549	 0.115552883904262 
550	 0.115729360673337 
551	 0.115960451439394 
552	 0.116329208873596 
553	 0.116594385868667 
554	 0.116854563438096 
555	 0.117152129502394 
556	 0.117489150828609 
557	 0.117742713088133 
558	 0.118085663001802 
559	 0.118565570572268 
560	 0.118957513224316 
561	 0.119334672377117 
562	 0.119771172345614 
563	 0.120302530640022 
564	 0.120725366802688 
565	 0.121179872418438 
566	 0.121720055091763 
567	 0.122282913241269 
568	 0.122959785565901 
569	 0.123646692623165 
570	 0.124260382986691 
571	 0.124939480511213 
572	 0.125697341195995 
573	 0.126485105254176 
574	 0.127215329588287 
575	 0.127946887196496 
576	 0.12869993273524 
577	 0.12948634613635 
578	 0.130309819517611 
579	 0.131195918481588 
580	 0.132173218622154 
581	 0.133252522487374 
582	 0.134333282522038 
583	 0.135389595640687 
584	 0.136418915314487 
585	 0.137444030198182 
586	 0.138443991111459 
587	 0.139421399349297 
588	 0.140401873079503 
589	 0.141481982880321 
590	 0.14256881959696 
591	 0.143634471132474 
592	 0.144717909724769 
593	 0.145793722116921 
594	 0.146888331039467 
595	 0.148013408395628 
596	 0.149124011668974 
597	 0.150234014042847 
598	 0.151355371132804 
599	 0.152492618691186 
600	 0.153552974758289 
601	 0.154558003262362 
602	 0.155525372075914 
603	 0.156441940611324 
604	 0.157325971200165 
605	 0.158193181019489 
606	 0.159054265063762 
607	 0.159898584778171 
608	 0.160719511791569 
609	 0.161517150558627 
610	 0.162300147850315 
611	 0.163042760746204 
612	 0.163747116901333 
613	 0.164417563354525 
614	 0.165047223065132 
615	 0.16566555154753 
616	 0.166253658131903 
617	 0.166764414471785 
618	 0.167284366943061 
619	 0.167738566106431 
620	 0.16811318976728 
621	 0.168576245966528 
622	 0.169045445191262 
623	 0.169443952272045 
624	 0.16974265748197 
625	 0.17024331933119 
626	 0.170659509527963 
627	 0.170906802642168 
628	 0.171225367497074 
629	 0.171618577656385 
630	 0.171997977496759 
631	 0.172283070375829 
632	 0.17254747806375 
633	 0.172822111837378 
634	 0.173137899596219 
635	 0.173514747215783 
636	 0.173796261532868 
637	 0.174081368058037 
638	 0.1744283120616 
639	 0.174672608816239 
640	 0.174970650154076 
641	 0.17531246720172 
642	 0.175620058690839 
643	 0.175939449524655 
644	 0.176243298694741 
645	 0.176538114474061 
646	 0.176888275732823 
647	 0.177231292641712 
648	 0.177557038663978 
649	 0.177880856760957 
650	 0.178256771643312 
651	 0.178620250398246 
652	 0.178948402782356 
653	 0.179263456802417 
654	 0.179667177564063 
655	 0.180053196765714 
656	 0.180353024814319 
657	 0.180673557519094 
658	 0.181118818019244 
659	 0.181604751328569 
660	 0.181977520085388 
661	 0.182366004524451 
662	 0.182757734745289 
663	 0.183183785365598 
664	 0.183762327943546 
665	 0.184196357299602 
666	 0.184569033539458 
667	 0.185032180822175 
668	 0.185505725859227 
669	 0.186047631239404 
670	 0.186604450667482 
671	 0.187040333545858 
672	 0.187501525452839 
673	 0.188073334162985 
674	 0.188727193128632 
675	 0.189186402021829 
676	 0.189713801003511 
677	 0.190298628092131 
678	 0.190835646488058 
679	 0.191450963347479 
680	 0.192067549719116 
681	 0.192663376770267 
682	 0.193311402902233 
683	 0.193938191642171 
684	 0.194552531852206 
685	 0.19518482678383 
686	 0.195862356459001 
687	 0.19653953721843 
688	 0.197205783670434 
689	 0.197879194901203 
690	 0.198587280966574 
691	 0.199295644233747 
692	 0.199992088004405 
693	 0.200732213799881 
694	 0.201445304241594 
695	 0.202160525964406 
696	 0.202921814298704 
697	 0.203634794792166 
698	 0.204346675389615 
699	 0.205091932028845 
700	 0.205879020456872 
701	 0.206653414993122 
702	 0.207383762428647 
703	 0.208086574852702 
704	 0.20889892644648 
705	 0.209662563384722 
706	 0.210402324370745 
707	 0.211217821067208 
708	 0.211974093942374 
709	 0.212705878302436 
710	 0.213452965592635 
711	 0.214237600204395 
712	 0.215001136836092 
713	 0.21574324593 
714	 0.216480837667677 
715	 0.217221108268988 
716	 0.217962829680634 
717	 0.218705024884632 
718	 0.219438121215026 
719	 0.220048709741445 
720	 0.220692630169969 
721	 0.22141495250323 
722	 0.221966373716814 
723	 0.222560176135208 
724	 0.223221329587235 
725	 0.223890365329207 
726	 0.224440043993367 
727	 0.224943834987373 
728	 0.225438261275972 
729	 0.225915781156325 
730	 0.226428406081527 
731	 0.226913446850073 
732	 0.227324113538318 
733	 0.227700637877935 
734	 0.228054523102471 
735	 0.228377311600002 
736	 0.22865860174035 
737	 0.228937651513042 
738	 0.229202810532195 
739	 0.229438031799091 
740	 0.22962730496453 
741	 0.229753715799594 
742	 0.22988158724794 
743	 0.230035580778772 
744	 0.230084126246868 
745	 0.230119784148081 
746	 0.230151751417942 
747	 0.230147209572393 
748	 0.230077085395271 
749	 0.230007163039472 
750	 0.229926306132923 
751	 0.229724889829534 
752	 0.229597083195063 
753	 0.229478576267593 
754	 0.229282281531026 
755	 0.229032735024615 
756	 0.228830740554552 
757	 0.228609326210442 
758	 0.228247737835418 
759	 0.227928382467708 
760	 0.227609056641654 
761	 0.227258817858872 
762	 0.226887674830898 
763	 0.226526551731111 
764	 0.226172860307852 
765	 0.225805656347287 
766	 0.225375373936823 
767	 0.224937593706574 
768	 0.224478957501989 
769	 0.223970827429617 
770	 0.223544183129794 
771	 0.223107435675828 
772	 0.22263374190251 
773	 0.222195555370403 
774	 0.221707057926219 
775	 0.221198800848255 
776	 0.220708180741083 
777	 0.220219514703477 
778	 0.219713712700439 
779	 0.219202831329515 
780	 0.218705692538691 
781	 0.21817854261703 
782	 0.217683107039692 
783	 0.217197059488402 
784	 0.216613983295948 
785	 0.216134048167838 
786	 0.215699491733723 
787	 0.215218903207832 
788	 0.214630616288231 
789	 0.214142177537484 
790	 0.213682994636467 
791	 0.213124955820113 
792	 0.212653446168292 
793	 0.212202680069804 
794	 0.211721165827841 
795	 0.211194059169529 
796	 0.210755405465439 
797	 0.21031856648792 
798	 0.209825081851225 
799	 0.20933088307454 
800	 0.208889593299044 
801	 0.20845900069622 
802	 0.207990839503208 
803	 0.207539039968704 
804	 0.207147447392857 
805	 0.206764116070126 
806	 0.20630184523862 
807	 0.205915181367379 
808	 0.205524464416846 
809	 0.205083380217388 
810	 0.204622830045226 
811	 0.20427200135086 
812	 0.203977497522224 
813	 0.203657502825845 
814	 0.203283452609251 
815	 0.202887351355805 
816	 0.202501251227119 
817	 0.202153867969438 
818	 0.201853702803648 
819	 0.201566956890817 
820	 0.201265062864478 
821	 0.20093426166691 
822	 0.200639521943446 
823	 0.200363140099077 
824	 0.200070451860526 
825	 0.199721204810024 
826	 0.199442230210688 
827	 0.19923724463317 
828	 0.199050486763004 
829	 0.198765038612302 
830	 0.198466077787037 
831	 0.198189768545759 
832	 0.197955311342959 
833	 0.197843977427386 
834	 0.19772420804338 
835	 0.197543213436695 
836	 0.197336694403224 
837	 0.197039629549489 
838	 0.196826445194731 
839	 0.196740481680519 
840	 0.196541565721734 
841	 0.196423602390018 
842	 0.196298429549147 
843	 0.196082481077652 
844	 0.195945568232953 
845	 0.195857520626588 
846	 0.195776233252062 
847	 0.19565988215777 
848	 0.195512005778357 
849	 0.195410023013737 
850	 0.195368492496748 
851	 0.19533848504856 
852	 0.195255505698196 
853	 0.195191810013371 
854	 0.195158616734149 
855	 0.195052916330184 
856	 0.195053008909623 
857	 0.19504984725857 
858	 0.194957997397447 
859	 0.194925060948128 
860	 0.194938553680122 
861	 0.194970617336413 
862	 0.194991526434453 
863	 0.195013691988618 
864	 0.195034874523578 
865	 0.195034531980504 
866	 0.194999998360834 
867	 0.195041109492566 
868	 0.195129589924611 
869	 0.195215704093187 
870	 0.195250043151704 
871	 0.195275757335993 
872	 0.195360205902459 
873	 0.195505696229813 
874	 0.195608667443842 
875	 0.195725949521573 
876	 0.195843294754795 
877	 0.195945392242611 
878	 0.196052214072529 
879	 0.196214092817726 
880	 0.19635747288793 
881	 0.196427966617102 
882	 0.196641042281465 
883	 0.196850128766076 
884	 0.196975077200956 
885	 0.197024880278903 
886	 0.197232191694265 
887	 0.197527077940442 
888	 0.197773078112156 
889	 0.197850423493023 
890	 0.198121578123969 
891	 0.198457883805862 
892	 0.198730835104175 
893	 0.198908113069822 
894	 0.199083038112325 
895	 0.199348375760631 
896	 0.199705567803534 
897	 0.200003905243959 
898	 0.200283848402285 
899	 0.200550875187795 
900	 0.200812344308061 
901	 0.201093363585433 
902	 0.201380165714105 
903	 0.201712703045689 
904	 0.202109456197183 
905	 0.202447393369232 
906	 0.202811365990759 
907	 0.2031959715892 
908	 0.203555282274532 
909	 0.203880418718358 
910	 0.204239468207145 
911	 0.204659301176019 
912	 0.205119129877477 
913	 0.205526012770705 
914	 0.205926897585415 
915	 0.206369695482413 
916	 0.206874082167139 
917	 0.207302741185815 
918	 0.207766856999489 
919	 0.208287336650993 
920	 0.208750906836529 
921	 0.209243447017553 
922	 0.209714365330971 
923	 0.210162805346333 
924	 0.210686990424513 
925	 0.211264750656537 
926	 0.211889677531331 
927	 0.212528755323527 
928	 0.213101708773295 
929	 0.213729077197455 
930	 0.214294045633402 
931	 0.214747200288845 
932	 0.215327696623212 
933	 0.215971808070347 
934	 0.216588680894325 
935	 0.217158777994284 
936	 0.217902827374433 
937	 0.218543310161782 
938	 0.21913614375399 
939	 0.21981909788904 
940	 0.220592622418651 
941	 0.221334812858418 
942	 0.222067387771244 
943	 0.222828821877635 
944	 0.223456964775481 
945	 0.224161519052075 
946	 0.224968954845484 
947	 0.225797606351147 
948	 0.226553523528799 
949	 0.227295075717037 
950	 0.228023435714003 
951	 0.22874690691233 
952	 0.229660351645316 
953	 0.230562818763768 
954	 0.231399459632238 
955	 0.232225786185123 
956	 0.233121211822836 
957	 0.234013251908761 
958	 0.234886112689167 
959	 0.235748396494305 
960	 0.236469796888642 
961	 0.237372736619343 
962	 0.238408386648843 
963	 0.239307441400599 
964	 0.24017020768394 
965	 0.241093433316866 
966	 0.242090518429051 
967	 0.24310827996431 
968	 0.244088154854681 
969	 0.245012899308499 
970	 0.245917729370807 
971	 0.246859871802798 
972	 0.247830382130264 
973	 0.248861343862798 
974	 0.249911734081995 
975	 0.250916806685356 
976	 0.251978556138803 
977	 0.253013990405235 
978	 0.254021444690384 
979	 0.255054447466465 
980	 0.256117670847748 
981	 0.257091523985302 
982	 0.258001852758153 
983	 0.258975418704345 
984	 0.260109474575305 
985	 0.261234885579887 
986	 0.262246947711555 
987	 0.26317735879144 
988	 0.264428586313161 
989	 0.265569451160166 
990	 0.266593609437996 
991	 0.267676126137687 
992	 0.268619696567226 
993	 0.269512608443559 
994	 0.270528830958132 
995	 0.271732482459749 
996	 0.272664640277883 
997	 0.273611313333668 
998	 0.274706162847788 
999	 0.275949591106713 
1000	 0.277176829245542 
1001	 0.279445474661394 
1002	 0.280464857814614 
1003	 0.281451218917565 
1004	 0.282432869152372 
1005	 0.283439569267982 
1006	 0.284408673452619 
1007	 0.285346906198181 
1008	 0.286259759852577 
1009	 0.287183574703635 
1010	 0.288157626563397 
1011	 0.289088913750022 
1012	 0.290015113729143 
1013	 0.290939438240957 
1014	 0.291770352816414 
1015	 0.292621870953701 
1016	 0.293522686345224 
1017	 0.294402067398763 
1018	 0.295273557326761 
1019	 0.296140101540328 
1020	 0.297007148425861 
1021	 0.297846652200315 
1022	 0.298661298803563 
1023	 0.29951664831173 
1024	 0.300376287903194 
1025	 0.301179296070712 
1026	 0.301966846571454 
1027	 0.302707227080061 
1028	 0.303440333418676 
1029	 0.304201259621764 
1030	 0.304969331223659 
1031	 0.305729079579217 
1032	 0.306505133915334 
1033	 0.307262072921756 
1034	 0.30802015599956 
1035	 0.308725344710347 
1036	 0.309406369696168 
1037	 0.310111522908279 
1038	 0.310821702309408 
1039	 0.311562903496448 
1040	 0.312282466070238 
1041	 0.312956984396656 
1042	 0.313628573680228 
1043	 0.314312318756994 
1044	 0.314966936152205 
1045	 0.315624210858894 
1046	 0.316283200193517 
1047	 0.31695194353123 
1048	 0.31759433968396 
1049	 0.318274182900952 
1050	 0.318984110113262 
1051	 0.319647036772664 
1052	 0.320285912690503 
1053	 0.320928013920363 
1054	 0.321577373591658 
1055	 0.322205021568759 
1056	 0.322840326186471 
1057	 0.323458482374955 
1058	 0.324047948067212 
1059	 0.324652510699899 
1060	 0.325276397207552 
1061	 0.325857174066347 
1062	 0.326390416795279 
1063	 0.326947582979063 
1064	 0.327485061750134 
1065	 0.32801073267922 
1066	 0.328578369933008 
1067	 0.329134541621739 
1068	 0.329683552188714 
1069	 0.330248782355321 
1070	 0.330783702834161 
1071	 0.331270168315393 
1072	 0.331837263244159 
1073	 0.332443201264921 
1074	 0.33299014452427 
1075	 0.33355240205973 
1076	 0.334115451683731 
1077	 0.334604205566006 
1078	 0.335112156998237 
1079	 0.335647528192012 
1080	 0.336159951210619 
1081	 0.336649132584738 
1082	 0.337124638530119 
1083	 0.337607513690376 
1084	 0.338072392378659 
1085	 0.338574447405741 
1086	 0.339078684242302 
1087	 0.339600328868116 
1088	 0.340151961166501 
1089	 0.340709882473801 
1090	 0.341192200465095 
1091	 0.341662996644624 
1092	 0.342125426603665 
1093	 0.342599392330837 
1094	 0.343159037312097 
1095	 0.343735049837724 
1096	 0.344258613082728 
1097	 0.344742303921749 
1098	 0.345263787957714 
1099	 0.345769094462687 
1100	 0.34629623779803 
1101	 0.346869006891967 
1102	 0.347419115811476 
1103	 0.347968115227414 
1104	 0.34847720094735 
1105	 0.349006564466858 
1106	 0.349577113508028 
1107	 0.350122662314623 
1108	 0.350686077540722 
1109	 0.35125678526841 
1110	 0.35181049209026 
1111	 0.352393218985904 
1112	 0.352995301358963 
1113	 0.353580590217785 
1114	 0.354195323475018 
1115	 0.354774846409777 
1116	 0.355306416709858 
1117	 0.355884539316452 
1118	 0.356478644337359 
1119	 0.357051742325959 
1120	 0.357673829180515 
1121	 0.358294951808183 
1122	 0.358874944961397 
1123	 0.359440582872018 
1124	 0.360024228561399 
1125	 0.360598732184198 
1126	 0.361190619160702 
1127	 0.361804478103875 
1128	 0.36239942945057 
1129	 0.362992209637988 
1130	 0.363564735430694 
1131	 0.364142597958311 
1132	 0.364701970631848 
1133	 0.365223960548772 
1134	 0.365763437269615 
1135	 0.366316441709708 
1136	 0.366825308874834 
1137	 0.367343505461442 
1138	 0.367888361704991 
1139	 0.368441166436778 
1140	 0.36900792700429 
1141	 0.369558004452823 
1142	 0.370124006562498 
1143	 0.370668843339366 
1144	 0.371193510470854 
1145	 0.371713224086297 
1146	 0.37222979833482 
1147	 0.372739502858259 
1148	 0.373238587084109 
1149	 0.373731283455727 
1150	 0.374224724569087 
1151	 0.374706927271862 
1152	 0.375168821859657 
1153	 0.375621225864857 
1154	 0.376077262995552 
1155	 0.376524361977748 
1156	 0.3769736023669 
1157	 0.377440490848337 
1158	 0.377872204518327 
1159	 0.378283009546642 
1160	 0.378698478877019 
1161	 0.379081269193914 
1162	 0.379490841974894 
1163	 0.379940238205127 
1164	 0.380347874363343 
1165	 0.380721593384952 
1166	 0.381139546926691 
1167	 0.38154399932455 
1168	 0.381907138939082 
1169	 0.382282701383351 
1170	 0.382682537210663 
1171	 0.383036469424705 
1172	 0.383356065694916 
1173	 0.383684955485409 
1174	 0.383990876159422 
1175	 0.384318734812255 
1176	 0.384654072341468 
1177	 0.384987125191715 
1178	 0.385344629624512 
1179	 0.385672024539755 
1180	 0.385984132536464 
1181	 0.38629195296115 
1182	 0.38658782572222 
1183	 0.386876124481824 
1184	 0.387150851044809 
1185	 0.387409815719307 
1186	 0.387686515131132 
1187	 0.38796162557505 
1188	 0.388227414318648 
1189	 0.388507017191653 
1190	 0.388766250805239 
1191	 0.388995226887592 
1192	 0.389242387768514 
1193	 0.389503389157744 
1194	 0.389747792434009 
1195	 0.389997321561111 
1196	 0.3902275964512 
1197	 0.390422448195326 
1198	 0.390638929379495 
1199	 0.390858854325565 
1200	 0.391074799307316 
1201	 0.391297085831502 
1202	 0.391543846265858 
1203	 0.391756513841986 
1204	 0.391950662086584 
1205	 0.392151796930287 
1206	 0.392342336318612 
1207	 0.392536081992952 
1208	 0.39273430557383 
1209	 0.392927649349678 
1210	 0.393118146585554 
1211	 0.393304168063444 
1212	 0.393495565970955 
1213	 0.393671928609728 
1214	 0.393834085837305 
1215	 0.393996516457345 
1216	 0.39415395089489 
1217	 0.394296512590102 
1218	 0.394458288945768 
1219	 0.394629087451194 
1220	 0.394791356123515 
1221	 0.39496149574213 
1222	 0.395120134490185 
1223	 0.39527260844743 
1224	 0.395418406280138 
1225	 0.395562386801279 
1226	 0.39569625452938 
1227	 0.39581246167073 
1228	 0.395937119702603 
1229	 0.396054300928667 
1230	 0.396180547406234 
1231	 0.396316208313627 
1232	 0.396450261582587 
1233	 0.39658606536644 
1234	 0.396732933201184 
1235	 0.396855541169815 
1236	 0.396966716451896 
1237	 0.397082094978284 
1238	 0.39718428928884 
1239	 0.3972950592955 
1240	 0.397417729571454 
1241	 0.397526693230556 
1242	 0.397629778141631 
1243	 0.397729933852781 
1244	 0.397823683033512 
1245	 0.397916787478693 
1246	 0.397999279868562 
1247	 0.398092498845451 
1248	 0.39818773374417 
1249	 0.39828607895607 
1250	 0.398409636584669 
1251	 0.398517892601149 
1252	 0.39861356297628 
1253	 0.398705688105249 
1254	 0.39878974782183 
1255	 0.398852023946598 
1256	 0.398928038897674 
1257	 0.399006327341771 
1258	 0.399083757109096 
1259	 0.399159439532694 
1260	 0.399239582006496 
1261	 0.399330509471417 
1262	 0.399407499953723 
1263	 0.399480965886837 
1264	 0.399549863361778 
1265	 0.399610669534316 
1266	 0.399667609909396 
1267	 0.399717349770106 
1268	 0.399768944533248 
1269	 0.399825685880518 
1270	 0.399869550728873 
1271	 0.399946143666503 
1272	 0.400047206977521 
1273	 0.400138181220037 
1274	 0.40024050965213 
1275	 0.400341432381228 
1276	 0.40044505576674 
1277	 0.40053799200453 
1278	 0.400640222383683 
1279	 0.400723676561031 
1280	 0.400778324232833 
1281	 0.400851186170579 
1282	 0.40092739459206 
1283	 0.401000730222585 
1284	 0.401082169336383 
1285	 0.401158815400828 
1286	 0.40122074818062 
1287	 0.401275858984748 
1288	 0.401324525258972 
1289	 0.401369631116106 
1290	 0.401393502915529 
1291	 0.401406002546354 
1292	 0.401409320122109 
1293	 0.401394589029503 
1294	 0.401372064375584 
1295	 0.401342883984466 
1296	 0.401305341414743 
1297	 0.401241125292578 
1298	 0.40119881752546 
1299	 0.401168769762956 
1300	 0.401121840853487 
1301	 0.401087034526656 
1302	 0.401029556675071 
1303	 0.400946491947672 
1304	 0.400860970188131 
1305	 0.400780735239424 
1306	 0.400710914496586 
1307	 0.400654127559116 
1308	 0.400590737209737 
1309	 0.400534302412039 
1310	 0.400478257631711 
1311	 0.400428408784471 
1312	 0.400388671101603 
1313	 0.400342701998927 
1314	 0.400302393382126 
1315	 0.400249664114312 
1316	 0.400159756181171 
1317	 0.400131496396357 
1318	 0.400132536897861 
1319	 0.400127237514049 
1320	 0.400169713057021 
1321	 0.400185613706246 
1322	 0.400175597786922 
1323	 0.400171150040335 
1324	 0.400195153675438 
1325	 0.400215963126372 
1326	 0.400249828972604 
1327	 0.400280167365383 
1328	 0.400306394547828 
1329	 0.400350698849813 
1330	 0.400405785736785 
1331	 0.40046481983043 
1332	 0.400553266095814 
1333	 0.400665146731979 
1334	 0.400778963629003 
1335	 0.400917027243472 
1336	 0.401047632218605 
1337	 0.401182440076942 
1338	 0.401309612551835 
1339	 0.401429273850957 
1340	 0.401561532636983 
1341	 0.401710353250674 
1342	 0.401837442053031 
1343	 0.401960430743083 
1344	 0.402081118461079 
1345	 0.40219369238563 
1346	 0.402304496039026 
1347	 0.402437736795906 
1348	 0.402592736239886 
1349	 0.402731610239571 
1350	 0.402853063314817 
1351	 0.40298219670735 
1352	 0.403108702924131 
1353	 0.403230714657974 
1354	 0.403353992083839 
1355	 0.40347009572385 
1356	 0.403575782859472 
1357	 0.403687812919961 
1358	 0.403805452824326 
1359	 0.40391719032353 
1360	 0.404014035974242 
1361	 0.404129332272917 
1362	 0.404258941631975 
1363	 0.404372748748159 
1364	 0.404500767549465 
1365	 0.404614221266611 
1366	 0.404704226380594 
1367	 0.404794243890429 
1368	 0.404906070369724 
1369	 0.405002417034306 
1370	 0.405107848297908 
1371	 0.40520451392114 
1372	 0.405271993399217 
1373	 0.405340873631228 
1374	 0.405397401434997 
1375	 0.405446863183714 
1376	 0.4054655733673 
1377	 0.405481187631319 
1378	 0.405461318179861 
1379	 0.405393796164205 
1380	 0.405338759503411 
1381	 0.405267742515757 
1382	 0.405193504978754 
1383	 0.405122830214961 
1384	 0.405035779516947 
1385	 0.404953920888773 
1386	 0.404836463681981 
1387	 0.40470314229984 
1388	 0.404537804140659 
1389	 0.404357356459088 
1390	 0.404117863335137 
1391	 0.403853723894867 
1392	 0.403583067225691 
1393	 0.403278636023561 
1394	 0.402951733434616 
1395	 0.402595414147018 
1396	 0.402222442117138 
1397	 0.401852095288688 
1398	 0.401460212351432 
1399	 0.401084503043322 
1400	 0.400715541040856 
1401	 0.400343428704671 
1402	 0.399965751871733 
1403	 0.399596691486993 
1404	 0.399228765828568 
1405	 0.398872279722817 
1406	 0.398519320481329 
1407	 0.39818192482451 
1408	 0.397842553687524 
1409	 0.397536064118906 
1410	 0.397242275635112 
1411	 0.396981747071391 
1412	 0.396734618461864 
1413	 0.3965409160162 
1414	 0.396405974376149 
1415	 0.396290948686231 
1416	 0.396228975024606 
1417	 0.39620090107864 
1418	 0.396184433931045 
1419	 0.396177019896663 
1420	 0.39618534997244 
1421	 0.396215875920214 
1422	 0.396231336169741 
1423	 0.396243190974641 
1424	 0.396239766310206 
1425	 0.396228024129464 
1426	 0.39619645603784 
1427	 0.396145378081011 
1428	 0.396097174498793 
1429	 0.39602627538836 
1430	 0.395984847372496 
1431	 0.39595624446201 
1432	 0.395920898086839 
1433	 0.395895999328805 
1434	 0.395866478647823 
1435	 0.395828689528272 
1436	 0.395797529892277 
1437	 0.395773316768082 
1438	 0.395748637609709 
1439	 0.395723452229557 
1440	 0.395701320814132 
1441	 0.395671277341036 
1442	 0.395646678804345 
1443	 0.39562648302508 
1444	 0.395610505210891 
1445	 0.395615634050646 
1446	 0.395622668321617 
1447	 0.39563505112181 
1448	 0.395632726189466 
1449	 0.395616158282119 
1450	 0.395610069966383 
1451	 0.395599397923808 
1452	 0.395580219858595 
1453	 0.3955705662108 
1454	 0.395566324133831 
1455	 0.395559416330961 
1456	 0.39555525173607 
1457	 0.395552659588638 
1458	 0.395550958490767 
1459	 0.395545811266425 
1460	 0.395527858937418 
1461	 0.395532060097959 
1462	 0.395547091360616 
1463	 0.395566696807794 
1464	 0.395597455346921 
1465	 0.395637768624976 
1466	 0.395678406494063 
1467	 0.395731526280774 
1468	 0.39580375266011 
1469	 0.395878965164268 
1470	 0.395966417030155 
1471	 0.396047013552744 
1472	 0.396123549946704 
1473	 0.396213783400147 
1474	 0.396306694250479 
1475	 0.396416364832865 
1476	 0.396538134574763 
1477	 0.396656728320962 
1478	 0.396788720027407 
1479	 0.39690652028266 
1480	 0.397034831133774 
1481	 0.397187845544636 
1482	 0.397303997116726 
1483	 0.397394417290932 
1484	 0.397515921029068 
1485	 0.397620664176986 
1486	 0.397756829289607 
1487	 0.397934040765292 
1488	 0.398090420132589 
1489	 0.398252660224207 
1490	 0.398401416270708 
1491	 0.39854280094749 
1492	 0.398688156412837 
1493	 0.398826634534 
1494	 0.398964506455631 
1495	 0.399115091041417 
1496	 0.399245001671605 
1497	 0.399351048179775 
1498	 0.399475432596493 
1499	 0.399607006241605 
1500	 0.399717492730869 
1501	 0.399830957217877 
1502	 0.39993528905749 
1503	 0.400012508632063 
1504	 0.400102426170004 
1505	 0.400199236970041 
1506	 0.400300612034089 
1507	 0.400393945324558 
1508	 0.400485474003961 
1509	 0.400593823053037 
1510	 0.40068724804271 
1511	 0.400795439166313 
1512	 0.400920403728676 
1513	 0.401051624507845 
1514	 0.401184722465088 
1515	 0.401319609553567 
1516	 0.401445831833828 
1517	 0.401537997470696 
1518	 0.401592179045855 
1519	 0.401672055284987 
1520	 0.401735697292601 
1521	 0.40181984816673 
1522	 0.401925791788799 
1523	 0.402015917858794 
1524	 0.402102017549807 
1525	 0.402187570294077 
1526	 0.402269933088607 
1527	 0.402357426548374 
1528	 0.402447585016971 
1529	 0.402531144330801 
1530	 0.402621801731117 
1531	 0.402696377895665 
1532	 0.402751536032239 
1533	 0.402820438271723 
1534	 0.402881226954038 
1535	 0.402956915225295 
1536	 0.403059134226094 
1537	 0.403137279594089 
1538	 0.403202209281843 
1539	 0.403274505626072 
1540	 0.40333281530052 
1541	 0.403406045417319 
1542	 0.403521584334084 
1543	 0.403589028271957 
1544	 0.403623432168722 
1545	 0.40367101955029 
1546	 0.403696848901949 
1547	 0.403719641449922 
1548	 0.403789453522791 
1549	 0.403857057524788 
1550	 0.403919692655775 
1551	 0.403995871148381 
1552	 0.404053260250465 
1553	 0.40410938767149 
1554	 0.404166762655073 
1555	 0.404206780110543 
1556	 0.404263405634493 
1557	 0.404336669035875 
1558	 0.404400083305354 
1559	 0.404472338391544 
1560	 0.404534977130905 
1561	 0.404584048681984 
1562	 0.404647530102791 
1563	 0.404712624101468 
1564	 0.404785238514636 
1565	 0.404872486786517 
1566	 0.404947025637211 
1567	 0.405020074652416 
1568	 0.405095659021928 
1569	 0.405171497815214 
1570	 0.405232964726395 
1571	 0.405299929899892 
1572	 0.405344097378349 
1573	 0.405369041742192 
1574	 0.405386159386379 
1575	 0.405373204678836 
1576	 0.405392281408325 
1577	 0.405414010468685 
1578	 0.405444718501844 
1579	 0.405500030739694 
1580	 0.405547187149435 
1581	 0.405587471771346 
1582	 0.405635257530408 
1583	 0.405695042619688 
1584	 0.405746828056796 
1585	 0.405793209184398 
1586	 0.405846321982927 
1587	 0.405906742276897 
1588	 0.405955288270077 
1589	 0.406016450698175 
1590	 0.406048800540867 
1591	 0.40604224168911 
1592	 0.406060436150741 
1593	 0.406077708696916 
1594	 0.406092197815243 
1595	 0.406116841426565 
1596	 0.406142638224524 
1597	 0.406148904071929 
1598	 0.406180398570676 
1599	 0.406245312732505 
1600	 0.40629078026907 
1601	 0.406326462600786 
1602	 0.406378215369141 
1603	 0.406436583357218 
1604	 0.406484331316985 
1605	 0.406550227472252 
1606	 0.406601332370379 
1607	 0.40662796582692 
1608	 0.406653794904656 
1609	 0.406707907577235 
1610	 0.40676318119549 
1611	 0.406801861664179 
1612	 0.406845705829537 
1613	 0.406877446878411 
1614	 0.406879655390473 
1615	 0.406892312413793 
1616	 0.40691543489826 
1617	 0.406939376691759 
1618	 0.406965043842929 
1619	 0.406991720108186 
1620	 0.407020285346362 
1621	 0.407038611493126 
1622	 0.407047403529869 
1623	 0.407053576387808 
1624	 0.4070572537168 
1625	 0.407055926929509 
1626	 0.407035774965939 
1627	 0.407052432511111 
1628	 0.407081062766192 
1629	 0.407113880357967 
1630	 0.407178193845981 
1631	 0.407204126170017 
1632	 0.407208901235762 
1633	 0.407234194864692 
1634	 0.407253971537572 
1635	 0.407280528767237 
1636	 0.407325307746435 
1637	 0.407353730200119 
1638	 0.407367460102833 
1639	 0.407395365368886 
1640	 0.407430083472267 
1641	 0.407456722195476 
1642	 0.407479237268429 
1643	 0.407516495305328 
1644	 0.407551207313366 
1645	 0.407601306228891 
1646	 0.40767839032948 
1647	 0.407729479325848 
1648	 0.407768685640635 
1649	 0.407823650065687 
1650	 0.407874182929498 
1651	 0.407933100778476 
1652	 0.408020533254492 
1653	 0.408070310042952 
1654	 0.408106148657303 
1655	 0.408132175225114 
1656	 0.408141604008664 
1657	 0.408140371530878 
1658	 0.408118272663488 
1659	 0.40811306276691 
1660	 0.408094216239914 
1661	 0.408097949036204 
1662	 0.408129752003815 
1663	 0.408140268374723 
1664	 0.408147285865973 
1665	 0.408156571649445 
1666	 0.408161756457488 
1667	 0.408164231733477 
1668	 0.408176422853612 
1669	 0.408167925928371 
1670	 0.408138451095155 
1671	 0.408121635829342 
1672	 0.408092946214217 
1673	 0.408083879486801 
1674	 0.408085096466878 
1675	 0.408094931979121 
1676	 0.408114933118602 
1677	 0.408142276963825 
1678	 0.408187159177733 
1679	 0.408220843397974 
1680	 0.408259060058176 
1681	 0.408290297288461 
1682	 0.408309960211453 
1683	 0.408338753293515 
1684	 0.40836933006536 
1685	 0.408402380618282 
1686	 0.408437927180994 
1687	 0.408477521400607 
1688	 0.408535340162478 
1689	 0.408560000757406 
1690	 0.408566384142194 
1691	 0.408583929387416 
1692	 0.408593646349158 
1693	 0.408588360934221 
1694	 0.408580107339257 
1695	 0.408578471467404 
1696	 0.408547801725722 
1697	 0.408549005110562 
1698	 0.408576141353352 
1699	 0.40860923066684 
1700	 0.408666020325704 
1701	 0.408692424040387 
1702	 0.408727654954358 
1703	 0.408736040446389 
1704	 0.408706474476084 
1705	 0.40869202330456 
1706	 0.408663852023939 
1707	 0.408660258560403 
1708	 0.408671174418545 
1709	 0.408671642273905 
1710	 0.408675846423569 
1711	 0.408696063735279 
1712	 0.408715848867628 
1713	 0.408739780606729 
1714	 0.408799949690135 
1715	 0.408818772602343 
1716	 0.408801490932146 
1717	 0.408808937941409 
1718	 0.408813774473333 
1719	 0.408818643442883 
1720	 0.408848003536113 
1721	 0.408843637612613 
1722	 0.408818178680119 
1723	 0.408791229707972 
1724	 0.4087373981612 
1725	 0.408711444046915 
1726	 0.408685124042112 
1727	 0.408685045058186 
1728	 0.408729344286992 
1729	 0.408717166914477 
1730	 0.408699805434673 
1731	 0.408660202795213 
1732	 0.40858346276677 
1733	 0.408508069261868 
1734	 0.408422401894139 
1735	 0.408344223840935 
1736	 0.408244064599543 
1737	 0.408176348601325 
1738	 0.408128331292207 
1739	 0.408082360765066 
1740	 0.408048638800355 
1741	 0.408009375035383 
1742	 0.407987770755646 
1743	 0.40793578743392 
1744	 0.407868643752655 
1745	 0.40779922174954 
1746	 0.40769813383008 
1747	 0.407664759850158 
1748	 0.407637133081048 
1749	 0.407612826390014 
1750	 0.407591056837046 
1751	 0.407536550782107 
1752	 0.407486758497471 
1753	 0.4074512879319 
1754	 0.407383938733137 
1755	 0.407346845936134 
1756	 0.407311975116845 
1757	 0.407254361422193 
1758	 0.40723966863228 
1759	 0.407205247543981 
1760	 0.407129905336444 
1761	 0.407060193506385 
1762	 0.406984856482544 
1763	 0.406870547848695 
1764	 0.406785192597891 
1765	 0.406764015577579 
1766	 0.406738444586289 
1767	 0.406744536675627 
1768	 0.406764588321329 
1769	 0.406746569221513 
1770	 0.406718018977812 
1771	 0.406692984241149 
1772	 0.406669332292712 
1773	 0.406627653663109 
1774	 0.406592518609715 
1775	 0.406536867292847 
1776	 0.406453749953759 
1777	 0.406415508850833 
1778	 0.406394410124856 
1779	 0.406417822372132 
1780	 0.406473013170393 
1781	 0.406479981115613 
1782	 0.406472652351068 
1783	 0.406430817734277 
1784	 0.406401504523571 
1785	 0.406383471522664 
1786	 0.406357856916171 
1787	 0.406313778875477 
1788	 0.406300066889751 
1789	 0.40631195612309 
1790	 0.406316198428321 
1791	 0.406309976581888 
1792	 0.406345708658613 
1793	 0.406428391204525 
1794	 0.406440874430706 
1795	 0.406466568944836 
1796	 0.406444384098615 
1797	 0.406317850713364 
1798	 0.406272800362537 
1799	 0.406255529418842 
1800	 0.406244263711547 
1801	 0.402177873628262 
1802	 0.402203440763818 
1803	 0.402245934121851 
1804	 0.402278680703352 
1805	 0.40229001005432 
1806	 0.402287704790737 
1807	 0.40229281942417 
1808	 0.40230850511492 
1809	 0.402345650096604 
1810	 0.40236393789311 
1811	 0.4023854411489 
1812	 0.402397077840032 
1813	 0.40239479771003 
1814	 0.402364993272695 
1815	 0.402327358034103 
1816	 0.402308414220549 
1817	 0.402311575046909 
1818	 0.402328680658867 
1819	 0.402344758120428 
1820	 0.40238618572052 
1821	 0.402417202529377 
1822	 0.402438846766875 
1823	 0.402447286127019 
1824	 0.402430106955462 
1825	 0.402408348543576 
1826	 0.402353151766666 
1827	 0.402316734834836 
1828	 0.402292439424932 
1829	 0.402303616518719 
1830	 0.402263173530497 
1831	 0.402210739294798 
1832	 0.402151280707266 
1833	 0.402058624680674 
1834	 0.401973053378577 
1835	 0.401920338177485 
1836	 0.401860505897972 
1837	 0.401779290714605 
1838	 0.401736949135032 
1839	 0.401713527092884 
1840	 0.401715590476581 
1841	 0.401688757514399 
1842	 0.401687119694047 
1843	 0.40167643764937 
1844	 0.401607840229811 
1845	 0.401547450788514 
1846	 0.401499962238642 
1847	 0.401434014878121 
1848	 0.401341302847161 
1849	 0.401272779868752 
1850	 0.401226928395691 
1851	 0.401192134524475 
1852	 0.401165803811156 
1853	 0.401174048075596 
1854	 0.401148722756784 
1855	 0.401107278410323 
1856	 0.401052864480785 
1857	 0.400952296520283 
1858	 0.400845797645712 
1859	 0.400717869307137 
1860	 0.400575364663042 
1861	 0.400405664181071 
1862	 0.400234701135658 
1863	 0.400057269799118 
1864	 0.399876147729354 
1865	 0.399676532386741 
1866	 0.399424152296149 
1867	 0.399146131092911 
1868	 0.398860059520784 
1869	 0.398549773144533 
1870	 0.398245237268112 
1871	 0.397906640669141 
1872	 0.397562551299287 
1873	 0.397172506234269 
1874	 0.396749188512068 
1875	 0.396301921136467 
1876	 0.395836684795299 
1877	 0.395312792882138 
1878	 0.394704046888991 
1879	 0.394037296256309 
1880	 0.39330301626994 
1881	 0.392466152091482 
1882	 0.391620417955763 
1883	 0.390753868624782 
1884	 0.389785594912626 
1885	 0.388764636372992 
1886	 0.387696477528288 
1887	 0.386524605416255 
1888	 0.385341352395611 
1889	 0.384106213347066 
1890	 0.382811310574879 
1891	 0.381516430556425 
1892	 0.380188043628265 
1893	 0.37882663769854 
1894	 0.377437437208457 
1895	 0.376053792880948 
1896	 0.374604137637346 
1897	 0.373140298330201 
1898	 0.371715352565459 
1899	 0.370326800138391 
1900	 0.368972140047976 
1901	 0.367689811507685 
1902	 0.366486044420515 
1903	 0.365357758971196 
1904	 0.364276153937204 
1905	 0.36326062582802 
1906	 0.36232925046682 
1907	 0.36142803951288 
1908	 0.360554751957724 
1909	 0.359762643001141 
1910	 0.359009301680807 
1911	 0.358290364225179 
1912	 0.357632440141438 
1913	 0.356999379898043 
1914	 0.356386313085091 
1915	 0.355829845115787 
1916	 0.355319051220501 
1917	 0.354846263747273 
1918	 0.354414193640891 
1919	 0.354041650240681 
1920	 0.353704649374919 
1921	 0.353379664250763 
1922	 0.353103408733884 
1923	 0.352875321236425 
1924	 0.352657638420569 
1925	 0.352451953704533 
1926	 0.352303483284797 
1927	 0.352199806059693 
1928	 0.352104129323298 
1929	 0.352035871467445 
1930	 0.352015025168658 
1931	 0.351999325936387 
1932	 0.351976688906177 
1933	 0.351985579360592 
1934	 0.352017494407364 
1935	 0.352060490133637 
1936	 0.35210033001095 
1937	 0.352181513050333 
1938	 0.352279106349945 
1939	 0.352417009352698 
1940	 0.352588220198173 
1941	 0.352792631046301 
1942	 0.353019044350443 
1943	 0.353285896059463 
1944	 0.353544553340039 
1945	 0.353817347682866 
1946	 0.354096889967709 
1947	 0.354383461957323 
1948	 0.354674707151133 
1949	 0.354976436899073 
1950	 0.355285873892046 
1951	 0.355607498273851 
1952	 0.35592827133522 
1953	 0.356253771515437 
1954	 0.356573013867393 
1955	 0.356867490720123 
1956	 0.35718366505821 
1957	 0.357512670477766 
1958	 0.357845061497909 
1959	 0.358192207869303 
1960	 0.358565610091197 
1961	 0.358930697312981 
1962	 0.359302442099648 
1963	 0.359672479564814 
1964	 0.360037724747324 
1965	 0.360413711359721 
1966	 0.36079791390309 
1967	 0.361200653569195 
1968	 0.361606357935054 
1969	 0.362032804516362 
1970	 0.362442932578753 
1971	 0.362855198022033 
1972	 0.363264302591633 
1973	 0.363661964010093 
1974	 0.364072435269345 
1975	 0.364504039867679 
1976	 0.364906697767918 
1977	 0.365296273066178 
1978	 0.365686072196471 
1979	 0.366047060431442 
1980	 0.366412695775404 
1981	 0.366788198372727 
1982	 0.367158273174913 
1983	 0.367554550484026 
1984	 0.367970703415169 
1985	 0.368384517147267 
1986	 0.368818128877109 
1987	 0.369250381170633 
1988	 0.36968517049824 
1989	 0.370114885260315 
1990	 0.370555382329512 
1991	 0.370992415128925 
1992	 0.371436012876054 
1993	 0.371891580509897 
1994	 0.372328074539298 
1995	 0.372770916799398 
1996	 0.373188151145216 
1997	 0.373575278028294 
1998	 0.373977278870855 
1999	 0.374380234991421 
2000	 0.374769406950255 
2001	 0.375168215552799 
2002	 0.375526901644407 
2003	 0.37590230877698 
2004	 0.376297027978089 
2005	 0.376679357678475 
2006	 0.377080727842713 
2007	 0.377466063520276 
2008	 0.377819495767297 
2009	 0.37820385398735 
2010	 0.378612953020931 
2011	 0.37900255585132 
2012	 0.379399226817875 
2013	 0.379786407185176 
2014	 0.380156256390068 
2015	 0.380531653332298 
2016	 0.380912294076049 
2017	 0.381271204380211 
2018	 0.381638813357588 
2019	 0.382000526024966 
2020	 0.382371743438426 
2021	 0.382752552645138 
2022	 0.383121658462414 
2023	 0.383508378389104 
2024	 0.383859421784132 
2025	 0.384181236782982 
2026	 0.384507062967878 
2027	 0.384819572650173 
2028	 0.385114759006416 
2029	 0.385427114378663 
2030	 0.385745344886182 
2031	 0.386060328850635 
2032	 0.386379249539974 
2033	 0.386692215247943 
2034	 0.386993475595698 
2035	 0.387314154053262 
2036	 0.387652364043547 
2037	 0.387971306150865 
2038	 0.388316841154476 
2039	 0.388615738839824 
2040	 0.388877539188023 
2041	 0.389127887383259 
2042	 0.389375315628949 
2043	 0.389620994143069 
2044	 0.389871009470553 
2045	 0.390136616589185 
2046	 0.390385387374719 
2047	 0.390623705977333 
2048	 0.3908613764284 
2049	 0.391089016979929 
2050	 0.39132607589443 
2051	 0.391580446645379 
2052	 0.3918041005853 
2053	 0.392013320355077 
2054	 0.392227023862567 
2055	 0.392416231333395 
2056	 0.392613209404168 
2057	 0.392812491958018 
2058	 0.393023957731131 
2059	 0.393228944856184 
2060	 0.393421233715877 
2061	 0.393631017944361 
2062	 0.393858704883039 
2063	 0.394071972654595 
2064	 0.394286434561522 
2065	 0.394499094429491 
2066	 0.394704854835603 
2067	 0.394912227163471 
2068	 0.395132398780465 
2069	 0.395328192166825 
2070	 0.395529848734192 
2071	 0.395734821291577 
2072	 0.395917563471688 
2073	 0.396088018812308 
2074	 0.396257671223538 
2075	 0.396394522589032 
2076	 0.396570695672254 
2077	 0.396762372413814 
2078	 0.396958170385971 
2079	 0.39717125573437 
2080	 0.39738801633571 
2081	 0.397620667737146 
2082	 0.397839523827012 
2083	 0.398065815788623 
2084	 0.398284872422283 
2085	 0.398486346173482 
2086	 0.398671069692663 
2087	 0.398850058937827 
2088	 0.399011349565395 
2089	 0.399184068024405 
2090	 0.39935209366525 
2091	 0.399519999976487 
2092	 0.399691827667375 
2093	 0.399863310063261 
2094	 0.400023680359979 
2095	 0.400196097666927 
2096	 0.40038843860652 
2097	 0.400563595990469 
2098	 0.400722697442041 
2099	 0.400897820163262 
2100	 0.401079805413514 
2101	 0.401265155937763 
2102	 0.40143831867643 
2103	 0.401617539711341 
2104	 0.401797023302 
2105	 0.401949065860564 
2106	 0.402135856933072 
2107	 0.402342472123075 
2108	 0.402563611348282 
2109	 0.402802639442015 
2110	 0.403046490209485 
2111	 0.403332667438904 
2112	 0.403579119558294 
2113	 0.403805832705487 
2114	 0.40403925952433 
2115	 0.404252453710771 
2116	 0.404433106814189 
2117	 0.404643851979173 
2118	 0.40485428873865 
2119	 0.405076959343903 
2120	 0.405316143860693 
2121	 0.405548450411565 
2122	 0.40579309817909 
2123	 0.406021861130854 
2124	 0.406273172707283 
2125	 0.406464414740569 
2126	 0.406617525817142 
2127	 0.40676483279527 
2128	 0.406849913906575 
2129	 0.406962091637101 
2130	 0.407099969135315 
2131	 0.407221425023931 
2132	 0.407307051595858 
2133	 0.407388685868881 
2134	 0.407432059975508 
2135	 0.407424265710675 
2136	 0.40742697246316 
2137	 0.407413439321737 
2138	 0.407399028758105 
2139	 0.407396321424722 
2140	 0.407343718270566 
2141	 0.407261736922887 
2142	 0.407175092963511 
2143	 0.407036771569039 
2144	 0.406922616535769 
2145	 0.406828204468749 
2146	 0.406715472882606 
2147	 0.406606875302627 
2148	 0.406479141074574 
2149	 0.406327351479989 
2150	 0.406156113766149 
2151	 0.405975373493479 
2152	 0.405766487345023 
2153	 0.405562355784432 
2154	 0.405356997896017 
2155	 0.405135554123022 
2156	 0.404928001496586 
2157	 0.404662272871077 
2158	 0.404351058287184 
2159	 0.404042140970166 
2160	 0.403684170041347 
2161	 0.403344713013426 
2162	 0.403017913486768 
2163	 0.402682373282606 
2164	 0.402346101501982 
2165	 0.401986472099994 
2166	 0.401656380227991 
2167	 0.401336101990836 
2168	 0.401012769759301 
2169	 0.400704776505163 
2170	 0.400381735971826 
2171	 0.400066817202847 
2172	 0.399707869869111 
2173	 0.39932819227669 
2174	 0.398942453308158 
2175	 0.39850114835964 
2176	 0.398103321572185 
2177	 0.397710699254102 
2178	 0.397339035091312 
2179	 0.39699290383016 
2180	 0.396650613643108 
2181	 0.396348537120039 
2182	 0.396015331950066 
2183	 0.395675269229811 
2184	 0.395322099910915 
2185	 0.394956404026279 
2186	 0.394548964731313 
2187	 0.394190047847379 
2188	 0.393842876401001 
2189	 0.393496447894166 
2190	 0.393159170842636 
2191	 0.392845206386533 
2192	 0.392547697048593 
2193	 0.392241848673079 
2194	 0.391943037059309 
2195	 0.391667738246667 
2196	 0.391370341069872 
2197	 0.391124147995086 
2198	 0.390939091802828 
2199	 0.390747758928777 
2200	 0.390573401587149 
2201	 0.390411899240919 
2202	 0.390259925311183 
2203	 0.390115163485233 
2204	 0.39000637619901 
2205	 0.389922484011036 
2206	 0.389850793586529 
2207	 0.389796594330656 
2208	 0.389776607403494 
2209	 0.389769329722051 
2210	 0.389808926660971 
2211	 0.389911290270098 
2212	 0.38999689412584 
2213	 0.390118684981378 
2214	 0.390212377515151 
2215	 0.390298271833571 
2216	 0.390381019197274 
2217	 0.390462988644905 
2218	 0.390528120313448 
2219	 0.390567277047053 
2220	 0.390630882890493 
2221	 0.390691211188052 
2222	 0.390758498972514 
2223	 0.39086002164942 
2224	 0.390940105697604 
2225	 0.390990916453236 
2226	 0.391028758369783 
2227	 0.391032861924619 
2228	 0.391008864967162 
2229	 0.390962605817993 
2230	 0.390871989754384 
2231	 0.390805260324628 
2232	 0.39073267222183 
2233	 0.390646194292459 
2234	 0.390536594698814 
2235	 0.390468110717648 
2236	 0.390393644484967 
2237	 0.390341563977227 
2238	 0.390344519614179 
2239	 0.390325911504864 
2240	 0.390297040765404 
2241	 0.390277832693334 
2242	 0.390282149949867 
2243	 0.390256808471398 
2244	 0.390236504335718 
2245	 0.390180232233065 
2246	 0.390085755191447 
2247	 0.39001150896813 
2248	 0.389906416338027 
2249	 0.389764602007114 
2250	 0.389666579635412 
2251	 0.389573817966484 
2252	 0.389475919054315 
2253	 0.389411477480956 
2254	 0.389308106353835 
2255	 0.389146216395989 
2256	 0.389063060770507 
2257	 0.388992244432785 
2258	 0.388951761012259 
2259	 0.388980697286687 
2260	 0.388979401715455 
2261	 0.388953917241638 
2262	 0.388982090906098 
2263	 0.389031912590303 
2264	 0.389099210572423 
2265	 0.389230493367224 
2266	 0.389331691576716 
2267	 0.389438066746622 
2268	 0.389527967313453 
2269	 0.389610004386438 
2270	 0.389670480416506 
2271	 0.389729809568462 
2272	 0.389777647719954 
2273	 0.389805055377739 
2274	 0.389875573436694 
2275	 0.389932298572349 
2276	 0.389986227706896 
2277	 0.39005201690055 
2278	 0.390125914997011 
2279	 0.390185748791101 
2280	 0.390257357554595 
2281	 0.39030854249226 
2282	 0.390346867957107 
2283	 0.390385674852847 
2284	 0.390400159989887 
2285	 0.390440024540403 
2286	 0.390485888194092 
2287	 0.390539138950351 
2288	 0.390612202753258 
2289	 0.390674307602664 
2290	 0.390746833812836 
2291	 0.390800643309186 
2292	 0.390834428043627 
2293	 0.390887692456292 
2294	 0.390928872125015 
2295	 0.390980129309159 
2296	 0.391029398220906 
2297	 0.391120716356782 
2298	 0.391224482157625 
2299	 0.391352045948857 
2300	 0.391475039797873 
2301	 0.391570643138643 
2302	 0.391600532840965 
2303	 0.391624620192741 
2304	 0.39170497120843 
2305	 0.391775260267708 
2306	 0.3918489373019 
2307	 0.391964153885614 
2308	 0.392028407115821 
2309	 0.392059541664871 
2310	 0.392102885788062 
2311	 0.39214115595354 
2312	 0.392173833846134 
2313	 0.392212692837226 
2314	 0.392206445549585 
2315	 0.392163900019996 
2316	 0.392135459677328 
2317	 0.392053099329647 
2318	 0.392048434132093 
2319	 0.392096603423301 
2320	 0.392142525916402 
2321	 0.392227576825612 
2322	 0.392296374110578 
2323	 0.392361654530285 
2324	 0.392427289246297 
2325	 0.392517654268383 
2326	 0.392572013021874 
2327	 0.39260673509467 
2328	 0.392628691735245 
2329	 0.392644653980025 
2330	 0.392658588946313 
2331	 0.392687852809281 
2332	 0.392744523268059 
2333	 0.392785054920202 
2334	 0.392843386320199 
2335	 0.392911959854443 
2336	 0.392938141402428 
2337	 0.392988701022923 
2338	 0.393033469857886 
2339	 0.393010729341156 
2340	 0.392969326558694 
2341	 0.39293355938038 
2342	 0.392861006054839 
2343	 0.392792041109688 
2344	 0.392776885794192 
2345	 0.392718917313761 
2346	 0.392627606208596 
2347	 0.392550101084668 
2348	 0.39247074587117 
2349	 0.392384844782529 
2350	 0.392316607444778 
2351	 0.392207922539706 
2352	 0.392063146586829 
2353	 0.391915076769951 
2354	 0.391723937978904 
2355	 0.391582272494267 
2356	 0.391467247998612 
2357	 0.391357706027367 
2358	 0.391276827622092 
2359	 0.39117176372311 
2360	 0.391058526486445 
2361	 0.390933704151571 
2362	 0.390827255629663 
2363	 0.390666798475787 
2364	 0.390405653688873 
2365	 0.390272844925674 
2366	 0.390199275179597 
2367	 0.390081979702125 
2368	 0.390058696891648 
2369	 0.389952297953694 
2370	 0.38978495116351 
2371	 0.389553350358716 
2372	 0.389302709968273 
2373	 0.389072220208476 
2374	 0.38889345582161 
2375	 0.38872319705442 
2376	 0.388613905143864 
2377	 0.388507223084337 
2378	 0.388266351369043 
2379	 0.387997023172618 
2380	 0.387723490809332 
2381	 0.387367590585819 
2382	 0.387018598399777 
2383	 0.386783971932329 
2384	 0.386603251261233 
2385	 0.386459986385247 
2386	 0.386339977259489 
2387	 0.38613177539212 
2388	 0.385845242332397 
2389	 0.385486870978785 
2390	 0.385149780090926 
2391	 0.384918268580593 
2392	 0.38473057668099 
2393	 0.384562181179702 
2394	 0.38440836009257 
2395	 0.384195432845937 
2396	 0.383868070763208 
2397	 0.383589490329084 
2398	 0.383261131114392 
2399	 0.382860919163724 
2400	 0.382626938623586 
2401	 0.38238932262157 
2402	 0.382100853708447 
2403	 0.381868561598476 
2404	 0.381560065940655 
2405	 0.381201516730283 
2406	 0.380883956167067 
2407	 0.380590123692488 
2408	 0.380345467500864 
2409	 0.380082954266788 
2410	 0.379785202050848 
2411	 0.379531939326322 
2412	 0.379240872371221 
2413	 0.37893368912993 
2414	 0.378687893584562 
2415	 0.378334336128804 
2416	 0.377955513120526 
2417	 0.377486190855744 
2418	 0.377114938297001 
2419	 0.376747967291803 
2420	 0.376408487088318 
2421	 0.376122506115985 
2422	 0.375836194535222 
2423	 0.375562580908829 
2424	 0.375305346718737 
2425	 0.375092046803934 
2426	 0.374769901150552 
2427	 0.374418576731347 
2428	 0.374066227926845 
2429	 0.373612200236976 
2430	 0.373316286909991 
2431	 0.373075904563007 
2432	 0.372790995477811 
2433	 0.37262945784028 
2434	 0.372336620068399 
2435	 0.371949457315869 
2436	 0.371608501816474 
2437	 0.371234703483705 
2438	 0.370876284574269 
2439	 0.370491074964962 
2440	 0.370142674329918 
2441	 0.369750629859448 
2442	 0.369501211727471 
2443	 0.369442292286608 
2444	 0.369307344081082 
2445	 0.369252494342683 
2446	 0.369115359454187 
2447	 0.368887984217212 
2448	 0.368528175725772 
2449	 0.368105440725361 
2450	 0.367689322114901 
2451	 0.367089654571013 
2452	 0.366711427388809 
2453	 0.366501862397092 
2454	 0.36617431101714 
2455	 0.365841255620252 
2456	 0.365567965804784 
2457	 0.365290472258035 
2458	 0.36499264400916 
2459	 0.364757105818654 
2460	 0.364409510143578 
2461	 0.363997752124286 
2462	 0.363650258227253 
2463	 0.363230794384016 
2464	 0.36292739503281 
2465	 0.362723051632662 
2466	 0.362447596979707 
2467	 0.362194302299643 
2468	 0.361966792937326 
2469	 0.361719119133407 
2470	 0.361461095903489 
2471	 0.361236003543148 
2472	 0.360810821965016 
2473	 0.360522966797314 
2474	 0.360322102283264 
2475	 0.359885894898501 
2476	 0.359550762597587 
2477	 0.359244836451873 
2478	 0.358700935395679 
2479	 0.358360306076086 
2480	 0.358183515281869 
2481	 0.35787999772159 
2482	 0.357784990374461 
2483	 0.357685122265146 
2484	 0.357476204776737 
2485	 0.357272918234908 
2486	 0.356799829835521 
2487	 0.356396684927723 
2488	 0.356134639424889 
2489	 0.355798577538786 
2490	 0.355691477831668 
2491	 0.355552543495827 
2492	 0.355263550753672 
2493	 0.355054531889383 
2494	 0.354704126579426 
2495	 0.354454597287824 
2496	 0.354399319010806 
2497	 0.354304016448275 
2498	 0.354139358759417 
2499	 0.354029803785998 
2500	 0.353932982128914 
