Wavelength	LMW200004.asd
350	 7.95429377401573E-02 
351	 7.92138891959362E-02 
352	 7.63161817873299E-02 
353	 7.25804870300874E-02 
354	 7.54530141270112E-02 
355	 7.21686884257807E-02 
356	 7.04667377987414E-02 
357	 7.72595535858483E-02 
358	 7.57524252255183E-02 
359	 7.24944611738317E-02 
360	 7.17714617662755E-02 
361	 7.50090025655521E-02 
362	 0.073192655765844 
363	 7.18925221895986E-02 
364	 7.30762080035352E-02 
365	 7.00530642309275E-02 
366	 7.10163197517889E-02 
367	 7.27384645328574E-02 
368	 7.12836859986423E-02 
369	 7.29679679099511E-02 
370	 7.34929983040133E-02 
371	 7.26209302072445E-02 
372	 7.30809891817829E-02 
373	 0.076282583885313 
374	 7.69207493324497E-02 
375	 7.40153085387801E-02 
376	 7.54700256015753E-02 
377	 7.51492379537821E-02 
378	 7.48627026378246E-02 
379	 0.07722984331012 
380	 7.84539725430193E-02 
381	 7.73341999157327E-02 
382	 0.076312709407114 
383	 7.97072531046279E-02 
384	 0.080356436563165 
385	 7.88379083558212E-02 
386	 0.077668685899904 
387	 8.10517775233007E-02 
388	 8.21983907831443E-02 
389	 8.19126658440366E-02 
390	 8.27523001953944E-02 
391	 8.26783496291196E-02 
392	 8.32465506535868E-02 
393	 8.47523233638303E-02 
394	 8.62195123730347E-02 
395	 8.58008222796059E-02 
396	 0.085675139206891 
397	 8.73534188159444E-02 
398	 8.98118675849705E-02 
399	 9.05012817688137E-02 
400	 9.05043464845219E-02 
401	 9.18126464461011E-02 
402	 0.093016922944675 
403	 9.30801739288735E-02 
404	 9.26471468241676E-02 
405	 9.38715081207498E-02 
406	 9.45812742388445E-02 
407	 9.51804265105307E-02 
408	 9.60479241610084E-02 
409	 9.61238498751142E-02 
410	 9.64025591946896E-02 
411	 9.69837056546144E-02 
412	 9.75664729070214E-02 
413	 9.83345159095013E-02 
414	 0.098923257542764 
415	 9.93015482460256E-02 
416	 9.99161900689336E-02 
417	 9.99514801842853E-02 
418	 0.100032815525766 
419	 0.10076322582917 
420	 0.101667232966711 
421	 0.101165370885063 
422	 0.100235394172456 
423	 0.101155151276667 
424	 0.10126274564182 
425	 0.101144008724498 
426	 0.101149054085268 
427	 0.100344228722024 
428	 9.99500039367461E-02 
429	 9.98929541850058E-02 
430	 0.099750840708366 
431	 9.97119775363096E-02 
432	 9.94190738840539E-02 
433	 9.89156950422293E-02 
434	 9.86365929686234E-02 
435	 9.88267241584649E-02 
436	 9.90273877135422E-02 
437	 9.89529876387353E-02 
438	 9.91520148430314E-02 
439	 9.93218563391214E-02 
440	 9.94977440466307E-02 
441	 9.98432952684521E-02 
442	 0.100121137963007 
443	 0.100440233789605 
444	 0.100836115606341 
445	 0.101182105643129 
446	 0.101499403404002 
447	 0.101987873817775 
448	 0.102706676419002 
449	 0.10289166529681 
450	 0.103275488829475 
451	 0.103897770833243 
452	 0.104198366335593 
453	 0.104453614356137 
454	 0.104714797157546 
455	 0.105041238229939 
456	 0.10565403652557 
457	 0.105967264219998 
458	 0.106069293790846 
459	 0.106328875864795 
460	 0.106616292589198 
461	 0.106886350597859 
462	 0.107109813274014 
463	 0.107270092138785 
464	 0.107464185802268 
465	 0.107683596032891 
466	 0.107884613011132 
467	 0.108013872624488 
468	 0.108183622652148 
469	 0.108360273686048 
470	 0.10840660207996 
471	 0.108540248250334 
472	 0.108696094747175 
473	 0.108772042851272 
474	 0.108651334622841 
475	 0.10880950265601 
476	 0.109069119706312 
477	 0.109041674835246 
478	 0.109149555390573 
479	 0.109250685489429 
480	 0.10932710627978 
481	 0.109602951598133 
482	 0.109711753206368 
483	 0.109822712872279 
484	 0.110110602834731 
485	 0.110147993522811 
486	 0.110109329092228 
487	 0.110119068096263 
488	 0.110237901760244 
489	 0.110401005822281 
490	 0.110548915946717 
491	 0.110654852460766 
492	 0.110765911918459 
493	 0.110848598844386 
494	 0.110899648311717 
495	 0.110943907120455 
496	 0.111120768196281 
497	 0.111155532064099 
498	 0.11105525780886 
499	 0.111301864282563 
500	 0.11148041767995 
501	 0.111503214138326 
502	 0.11144010899244 
503	 0.111587348311126 
504	 0.111758457087824 
505	 0.111840783893481 
506	 0.111815703970041 
507	 0.111832352776469 
508	 0.111945386759578 
509	 0.112122035940736 
510	 0.112172452547594 
511	 0.11212038455559 
512	 0.112129893381203 
513	 0.112380104292881 
514	 0.112445345995022 
515	 0.11243316766823 
516	 0.112493293377823 
517	 0.112755772409915 
518	 0.112905943266003 
519	 0.112917909017027 
520	 0.112892267947382 
521	 0.113006468713179 
522	 0.113113208575179 
523	 0.113173618735975 
524	 0.113280098974517 
525	 0.113323794838828 
526	 0.113366669925034 
527	 0.113467722146663 
528	 0.113553547108416 
529	 0.113657489472859 
530	 0.113764413345792 
531	 0.113834875455523 
532	 0.113936517954242 
533	 0.114074032038158 
534	 0.114216748053117 
535	 0.114275986619585 
536	 0.114343634181326 
537	 0.114410905083941 
538	 0.114449760215655 
539	 0.114583637308568 
540	 0.114701082433443 
541	 0.114781801070963 
542	 0.114949923204079 
543	 0.115112954797406 
544	 0.115262278896339 
545	 0.115406770929 
546	 0.115532701054738 
547	 0.115635102977225 
548	 0.115759651794576 
549	 0.115982988844333 
550	 0.116119923328115 
551	 0.116257655268811 
552	 0.116488618733639 
553	 0.116805371106485 
554	 0.117007871623444 
555	 0.117149085840451 
556	 0.117404133021029 
557	 0.117693748287262 
558	 0.117984437714017 
559	 0.118271845856287 
560	 0.118599748810761 
561	 0.118857731895372 
562	 0.119154591351541 
563	 0.119614408454366 
564	 0.120011318270057 
565	 0.120350922645 
566	 0.120702740438642 
567	 0.121188568384698 
568	 0.121777571593507 
569	 0.122339767385233 
570	 0.122796642743921 
571	 0.12331806190577 
572	 0.123894522012764 
573	 0.124487440777466 
574	 0.125043271338921 
575	 0.125622964920252 
576	 0.1262611671889 
577	 0.126955357290416 
578	 0.127633407764891 
579	 0.128340210393388 
580	 0.129051657045367 
581	 0.129742702818556 
582	 0.130587366908457 
583	 0.131452675677187 
584	 0.132249994534685 
585	 0.132993080077397 
586	 0.133790140506629 
587	 0.134640864560744 
588	 0.135509408560413 
589	 0.136383092285428 
590	 0.137253723999406 
591	 0.138128904789104 
592	 0.139028306908565 
593	 0.139861943809021 
594	 0.140722887854165 
595	 0.14165287966114 
596	 0.14245523506517 
597	 0.143320620938722 
598	 0.144231050791517 
599	 0.14506648145064 
600	 0.145854478133146 
601	 0.14666332393891 
602	 0.147488635787154 
603	 0.148187324052132 
604	 0.148873471149088 
605	 0.149569993574244 
606	 0.150270119368496 
607	 0.150986473623313 
608	 0.151668561847567 
609	 0.152301420377616 
610	 0.152915697818787 
611	 0.153525897759498 
612	 0.154104431190857 
613	 0.15463292002387 
614	 0.155177445587624 
615	 0.155646307751383 
616	 0.156047682728123 
617	 0.156458820820777 
618	 0.156901856776543 
619	 0.157289799339704 
620	 0.157595657807109 
621	 0.157955312107882 
622	 0.15830745519078 
623	 0.158618804266887 
624	 0.158884943079905 
625	 0.159234989624282 
626	 0.159550851969451 
627	 0.15979276753029 
628	 0.160049069014104 
629	 0.160346617998069 
630	 0.160622265802886 
631	 0.160825476520764 
632	 0.161064395543785 
633	 0.161281934724968 
634	 0.161505879409406 
635	 0.161822756497694 
636	 0.162059422574168 
637	 0.162283848775155 
638	 0.16254352198585 
639	 0.162719839028155 
640	 0.162943587032868 
641	 0.163205484254406 
642	 0.163437815698744 
643	 0.163671152231776 
644	 0.163916516153249 
645	 0.164183824920133 
646	 0.164485433476322 
647	 0.164740299292008 
648	 0.164956379393994 
649	 0.165179672308917 
650	 0.165485363439594 
651	 0.165789475133753 
652	 0.16606417685281 
653	 0.166337078485064 
654	 0.166645188099928 
655	 0.166918945651655 
656	 0.167139105923937 
657	 0.167461583051831 
658	 0.167791584831844 
659	 0.168112428198844 
660	 0.168438718816546 
661	 0.168741646091144 
662	 0.169073187870735 
663	 0.169437809582995 
664	 0.169759876708992 
665	 0.17011065579675 
666	 0.170495580138666 
667	 0.170889077863714 
668	 0.171213082817704 
669	 0.171588369206402 
670	 0.17202056691184 
671	 0.172418113077398 
672	 0.172843212028679 
673	 0.173290640365687 
674	 0.173739953072518 
675	 0.174160098636725 
676	 0.174588399849475 
677	 0.175013034961155 
678	 0.175420955116612 
679	 0.175948292256707 
680	 0.176451004688041 
681	 0.176905755370595 
682	 0.177478076728653 
683	 0.177983917562103 
684	 0.178427060407052 
685	 0.1788818589171 
686	 0.179491894336721 
687	 0.180049391531675 
688	 0.180544967615059 
689	 0.181107153160491 
690	 0.181654274221422 
691	 0.182202318882549 
692	 0.182774848173758 
693	 0.183392505050299 
694	 0.183951427373325 
695	 0.184508990199968 
696	 0.185147746776603 
697	 0.185720106904638 
698	 0.186329151278107 
699	 0.186988987041592 
700	 0.187606613815903 
701	 0.188194427106325 
702	 0.188779108676215 
703	 0.189385610949815 
704	 0.190025944114102 
705	 0.190640557538578 
706	 0.191244933089773 
707	 0.191884918097458 
708	 0.192501966568063 
709	 0.193100912226693 
710	 0.193710096048262 
711	 0.194383965506389 
712	 0.195009183007341 
713	 0.195582326078856 
714	 0.196142566221444 
715	 0.196750979581866 
716	 0.197368414902088 
717	 0.197972070956934 
718	 0.198552402811448 
719	 0.199097614218019 
720	 0.199620696444869 
721	 0.200128088026325 
722	 0.200598268422463 
723	 0.201146070369516 
724	 0.201700771349948 
725	 0.202163487772691 
726	 0.202656732755143 
727	 0.203076461780592 
728	 0.20343069628175 
729	 0.203835508547963 
730	 0.20428634305567 
731	 0.20467184268602 
732	 0.204942590156851 
733	 0.205235227478568 
734	 0.205570236939025 
735	 0.205882518829597 
736	 0.20609209150686 
737	 0.20629807882069 
738	 0.20647494606734 
739	 0.206623997446426 
740	 0.206783392940193 
741	 0.206925052766939 
742	 0.207037141135918 
743	 0.207104307323503 
744	 0.207080741572081 
745	 0.207090613658314 
746	 0.207140736089493 
747	 0.207165293240178 
748	 0.207048589032507 
749	 0.20693556561371 
750	 0.20686241599066 
751	 0.206707664707696 
752	 0.206578573245576 
753	 0.206449794337288 
754	 0.206279710551163 
755	 0.206068838689553 
756	 0.205847608298906 
757	 0.205631864360045 
758	 0.205416038451954 
759	 0.205109471743163 
760	 0.204777218999816 
761	 0.204458929594684 
762	 0.204142066159562 
763	 0.203881975578983 
764	 0.203564758897657 
765	 0.203126300733192 
766	 0.202757880196651 
767	 0.202412694525212 
768	 0.202036110835018 
769	 0.201593023671667 
770	 0.201232050242303 
771	 0.200888202819421 
772	 0.200495280127456 
773	 0.200015254579054 
774	 0.199614301284928 
775	 0.199206103135254 
776	 0.198726731441038 
777	 0.198345283449978 
778	 0.197908797112342 
779	 0.197438324576513 
780	 0.197017228771615 
781	 0.196570969541304 
782	 0.19615472643051 
783	 0.195741854819517 
784	 0.195222671106653 
785	 0.194792353295539 
786	 0.194413959203442 
787	 0.194015168381702 
788	 0.193549638843579 
789	 0.193091060390196 
790	 0.192667212895347 
791	 0.192277503005032 
792	 0.191887201788719 
793	 0.191462217366269 
794	 0.191007210717562 
795	 0.190562388142599 
796	 0.190149453884703 
797	 0.189780010211148 
798	 0.189425025343364 
799	 0.18898594932212 
800	 0.188593783277914 
801	 0.188231073821733 
802	 0.187844650367826 
803	 0.18742962640551 
804	 0.187057774217976 
805	 0.186724318508318 
806	 0.186380608015769 
807	 0.186070810983282 
808	 0.18568657995382 
809	 0.185247183967138 
810	 0.184947100304902 
811	 0.184647232717243 
812	 0.184355701398966 
813	 0.184084206862341 
814	 0.183769022193175 
815	 0.183426281592069 
816	 0.183082197175257 
817	 0.1827686312027 
818	 0.182512837306977 
819	 0.182248023815953 
820	 0.181973555790664 
821	 0.181741326066776 
822	 0.181458162569463 
823	 0.181190912639506 
824	 0.180966469144049 
825	 0.180707895477328 
826	 0.180462950440407 
827	 0.180241129579957 
828	 0.180031012583241 
829	 0.179784711267951 
830	 0.179571675157319 
831	 0.179372060316935 
832	 0.179145487849097 
833	 0.179019813886766 
834	 0.17890043545627 
835	 0.17873838015033 
836	 0.178545697723456 
837	 0.178315527941546 
838	 0.178129785373128 
839	 0.178012247113874 
840	 0.177867481980366 
841	 0.177726669621182 
842	 0.177575563577668 
843	 0.177421115802727 
844	 0.177373890012314 
845	 0.177305126603154 
846	 0.17717789046063 
847	 0.177020156707756 
848	 0.176930947783277 
849	 0.176858824288808 
850	 0.176774776935464 
851	 0.176682361021069 
852	 0.176619910001112 
853	 0.176571650063463 
854	 0.176528752918193 
855	 0.176504272028706 
856	 0.176488240419478 
857	 0.176435694656042 
858	 0.176333434009395 
859	 0.176255477788642 
860	 0.176273468130192 
861	 0.17632580291069 
862	 0.17632382664702 
863	 0.176311319355539 
864	 0.176294650561671 
865	 0.176294447637623 
866	 0.176333063813825 
867	 0.176391460867481 
868	 0.176434858494676 
869	 0.176441247425608 
870	 0.17641209950565 
871	 0.17644871828947 
872	 0.176515310798379 
873	 0.176589286797123 
874	 0.176708733391952 
875	 0.176794655198109 
876	 0.176850831837031 
877	 0.176902494606777 
878	 0.176961523090194 
879	 0.177103191451221 
880	 0.177240775812662 
881	 0.17729277299833 
882	 0.177456621926806 
883	 0.177602173393094 
884	 0.177691543887435 
885	 0.177759814020694 
886	 0.177894888260775 
887	 0.178098323804343 
888	 0.178303024900441 
889	 0.178412168439762 
890	 0.17854527233245 
891	 0.178731757400218 
892	 0.178970874102368 
893	 0.179232710744605 
894	 0.179339863360011 
895	 0.179447863945759 
896	 0.179679884879955 
897	 0.179975939820479 
898	 0.180217114061523 
899	 0.180399416311798 
900	 0.180578966771505 
901	 0.180864237403549 
902	 0.181202032536534 
903	 0.181516255383906 
904	 0.18175665033236 
905	 0.181995343075998 
906	 0.182279122303079 
907	 0.182589486669163 
908	 0.182875615119461 
909	 0.183113280685777 
910	 0.183351508863954 
911	 0.18365061265276 
912	 0.184043942296694 
913	 0.184387142570169 
914	 0.184711442674149 
915	 0.185072836431346 
916	 0.18551141751021 
917	 0.185844250802826 
918	 0.186202521547019 
919	 0.186625918680137 
920	 0.187005102348558 
921	 0.187376528138689 
922	 0.187765824267944 
923	 0.188173196140916 
924	 0.188565609769644 
925	 0.188968697820813 
926	 0.189456605696818 
927	 0.190001631237553 
928	 0.190382102041054 
929	 0.190898135598789 
930	 0.191433035739808 
931	 0.191868314761201 
932	 0.192337932657823 
933	 0.192816776353393 
934	 0.193308314740271 
935	 0.193815574896741 
936	 0.194321921986113 
937	 0.194856533068587 
938	 0.195370633536493 
939	 0.195848274133069 
940	 0.196468801885592 
941	 0.197133729888326 
942	 0.197776292892202 
943	 0.19837077727515 
944	 0.198983219137743 
945	 0.199621581166381 
946	 0.200229333125043 
947	 0.200760010941616 
948	 0.201341931771613 
949	 0.201957673836015 
950	 0.202599063719246 
951	 0.203277560328572 
952	 0.204080209713621 
953	 0.204783225931375 
954	 0.205386488400781 
955	 0.20603124058906 
956	 0.206799475700194 
957	 0.207541763366642 
958	 0.208254802716728 
959	 0.209012110737429 
960	 0.209697675589177 
961	 0.210474005923023 
962	 0.211276687978786 
963	 0.211945157152335 
964	 0.212748854133722 
965	 0.213476830316572 
966	 0.214210661669107 
967	 0.215159929951569 
968	 0.215932984373215 
969	 0.216691243548675 
970	 0.217555625060093 
971	 0.218531171258056 
972	 0.219348052282664 
973	 0.220109919264982 
974	 0.220928305855237 
975	 0.2218613532081 
976	 0.222772599238283 
977	 0.223665604739887 
978	 0.224518097465158 
979	 0.225327855746738 
980	 0.226337282474097 
981	 0.227128981212217 
982	 0.227824342805512 
983	 0.22880083292355 
984	 0.229745425663962 
985	 0.230708443509898 
986	 0.231643376729555 
987	 0.232490854274349 
988	 0.23344230510393 
989	 0.23437115916294 
990	 0.235272643308518 
991	 0.236198789918031 
992	 0.237127456536018 
993	 0.237927387157994 
994	 0.238809341579733 
995	 0.239952659264391 
996	 0.240769993194219 
997	 0.241763689809141 
998	 0.242773883740849 
999	 0.243556854686788 
1000	 0.244569866225839 
1001	 0.247206527704253 
1002	 0.24803432997799 
1003	 0.248934699192335 
1004	 0.249836984334804 
1005	 0.250771168663575 
1006	 0.251674505731667 
1007	 0.252586929398119 
1008	 0.253483565582964 
1009	 0.254304934819524 
1010	 0.255123436656186 
1011	 0.255986047735521 
1012	 0.256785080369489 
1013	 0.257622240795178 
1014	 0.258471998882797 
1015	 0.259301155811543 
1016	 0.260116144955461 
1017	 0.260918008111582 
1018	 0.261697548720813 
1019	 0.262490409117416 
1020	 0.263272685014447 
1021	 0.264057026059319 
1022	 0.264827315860938 
1023	 0.26558717517752 
1024	 0.266366371232616 
1025	 0.26710913061977 
1026	 0.26782902068889 
1027	 0.268546795010962 
1028	 0.269235776441165 
1029	 0.269940942340777 
1030	 0.270669231557928 
1031	 0.271386682764959 
1032	 0.272115187769743 
1033	 0.272810163482078 
1034	 0.273500973137233 
1035	 0.274211706951805 
1036	 0.274857763482849 
1037	 0.27553000131911 
1038	 0.276219063121387 
1039	 0.276827299908453 
1040	 0.277487689272693 
1041	 0.278176987207355 
1042	 0.278793425935766 
1043	 0.279418847619745 
1044	 0.280063340813677 
1045	 0.280720350637941 
1046	 0.281338055281568 
1047	 0.281985181300936 
1048	 0.282641384172197 
1049	 0.283269823326449 
1050	 0.283919959242301 
1051	 0.284536815776107 
1052	 0.285120183428563 
1053	 0.285761683234007 
1054	 0.28637903778044 
1055	 0.286964012040348 
1056	 0.287600227438192 
1057	 0.288213006547842 
1058	 0.288758641239953 
1059	 0.289372271166886 
1060	 0.290034128554769 
1061	 0.290671801885131 
1062	 0.291288935418533 
1063	 0.291923011745629 
1064	 0.292541750383136 
1065	 0.293170914288359 
1066	 0.293826174023068 
1067	 0.294436480661168 
1068	 0.294997059706228 
1069	 0.295525230876525 
1070	 0.296084112496444 
1071	 0.296629211390021 
1072	 0.297212781568727 
1073	 0.297839750865625 
1074	 0.298435166511302 
1075	 0.299021232212411 
1076	 0.299602178164278 
1077	 0.300218629905557 
1078	 0.300829545644486 
1079	 0.301426860583816 
1080	 0.302016296108091 
1081	 0.302534978501697 
1082	 0.303032985864845 
1083	 0.303562461169832 
1084	 0.304086349107284 
1085	 0.30463949802635 
1086	 0.305215976664568 
1087	 0.305792640813147 
1088	 0.30639422206002 
1089	 0.306971838577517 
1090	 0.307527823574616 
1091	 0.308081090702509 
1092	 0.308631810133731 
1093	 0.309195921642253 
1094	 0.309785235799249 
1095	 0.310380391971508 
1096	 0.310959267713297 
1097	 0.311537438520013 
1098	 0.31210142426679 
1099	 0.312628743138928 
1100	 0.313209429054025 
1101	 0.313812298677009 
1102	 0.314400332593332 
1103	 0.315020958904225 
1104	 0.315612194104178 
1105	 0.316175002268796 
1106	 0.316762380222913 
1107	 0.317358716917068 
1108	 0.317974220243673 
1109	 0.318565691930105 
1110	 0.319168468964324 
1111	 0.319811182400618 
1112	 0.32049686531912 
1113	 0.32112932950501 
1114	 0.321791333154281 
1115	 0.322411774401798 
1116	 0.322946982470086 
1117	 0.323545427371985 
1118	 0.324169749079971 
1119	 0.324783297715399 
1120	 0.325446098845343 
1121	 0.326115875310057 
1122	 0.32672996604264 
1123	 0.327343165146882 
1124	 0.327958612343259 
1125	 0.328536717760361 
1126	 0.329157357220745 
1127	 0.329803982296577 
1128	 0.330442785510809 
1129	 0.331092783299745 
1130	 0.331724902825101 
1131	 0.332366217855141 
1132	 0.332998168200646 
1133	 0.333620488554035 
1134	 0.334223962655518 
1135	 0.334824757359317 
1136	 0.335398238111054 
1137	 0.335951352268728 
1138	 0.336490226991183 
1139	 0.337056550679663 
1140	 0.337617734487215 
1141	 0.338204764629006 
1142	 0.338839352567685 
1143	 0.33942581382428 
1144	 0.340015546244666 
1145	 0.34057174601475 
1146	 0.341067038129544 
1147	 0.341607793890997 
1148	 0.342156545217075 
1149	 0.342702843115681 
1150	 0.343280926308792 
1151	 0.343838907556455 
1152	 0.344340720674271 
1153	 0.34486464258054 
1154	 0.345379967406078 
1155	 0.345875206707935 
1156	 0.346383525990997 
1157	 0.346919619787826 
1158	 0.347411809249261 
1159	 0.347874737003686 
1160	 0.34835464706913 
1161	 0.348811515170096 
1162	 0.349288934069027 
1163	 0.349792758555599 
1164	 0.350285697329284 
1165	 0.350787958070677 
1166	 0.351275315897606 
1167	 0.351757418031657 
1168	 0.352221965333642 
1169	 0.352671830774701 
1170	 0.353104507649791 
1171	 0.353534650333892 
1172	 0.353952934237198 
1173	 0.354365349679899 
1174	 0.354765665149172 
1175	 0.355169910582695 
1176	 0.355575170863443 
1177	 0.355969106436744 
1178	 0.356349369230673 
1179	 0.356743801933256 
1180	 0.357150976103929 
1181	 0.357535386729196 
1182	 0.357918166781231 
1183	 0.358301192516095 
1184	 0.358666657702538 
1185	 0.358998876836591 
1186	 0.359360298770396 
1187	 0.359738880175189 
1188	 0.360093260957739 
1189	 0.360448841292116 
1190	 0.360789083958229 
1191	 0.361108775648651 
1192	 0.361431672597116 
1193	 0.361757000489745 
1194	 0.362066882180148 
1195	 0.362363829263275 
1196	 0.362661156825828 
1197	 0.362946336284383 
1198	 0.363233406641308 
1199	 0.363520008597729 
1200	 0.363814129514269 
1201	 0.364086007532497 
1202	 0.364342607165042 
1203	 0.364613400659125 
1204	 0.364876434967118 
1205	 0.3651452476376 
1206	 0.365439527042824 
1207	 0.365699246569862 
1208	 0.365945728330218 
1209	 0.366181366819324 
1210	 0.366383542946771 
1211	 0.366608199126399 
1212	 0.366843339562912 
1213	 0.367065005723944 
1214	 0.367300295507991 
1215	 0.367515965390135 
1216	 0.367717858883462 
1217	 0.367890023482177 
1218	 0.368092867554851 
1219	 0.368303035963877 
1220	 0.368499747841976 
1221	 0.368701011828796 
1222	 0.368901333534846 
1223	 0.369095414920591 
1224	 0.369280650868013 
1225	 0.369473434844054 
1226	 0.369653475488033 
1227	 0.369817146553209 
1228	 0.369975815039116 
1229	 0.370117056920838 
1230	 0.370277591597559 
1231	 0.37045085346846 
1232	 0.370605835636665 
1233	 0.370758250710518 
1234	 0.37091900455061 
1235	 0.37107565579022 
1236	 0.371208170357542 
1237	 0.371369064662154 
1238	 0.371568527343218 
1239	 0.371722816253612 
1240	 0.371867621191661 
1241	 0.371999137760604 
1242	 0.3720893086887 
1243	 0.372211508622677 
1244	 0.372357335559222 
1245	 0.37247452898637 
1246	 0.37258271405235 
1247	 0.37269758171784 
1248	 0.37279058994287 
1249	 0.372896613980082 
1250	 0.373012049665258 
1251	 0.373131711078505 
1252	 0.373242449713979 
1253	 0.373341853410447 
1254	 0.373447531813525 
1255	 0.373553468094185 
1256	 0.373664504368399 
1257	 0.373785940292497 
1258	 0.373889914227239 
1259	 0.373989484235509 
1260	 0.374088696538336 
1261	 0.374177080997136 
1262	 0.374264329986827 
1263	 0.374356066598645 
1264	 0.374440138833346 
1265	 0.374509110184932 
1266	 0.374586865375333 
1267	 0.374668454964155 
1268	 0.374749056506723 
1269	 0.374828193449085 
1270	 0.374911701515687 
1271	 0.374982207430755 
1272	 0.375040594754092 
1273	 0.375111823975121 
1274	 0.375177792683387 
1275	 0.375256854190726 
1276	 0.375346029943691 
1277	 0.375439729280301 
1278	 0.375548573904512 
1279	 0.375642464551728 
1280	 0.37573514113354 
1281	 0.375827360550635 
1282	 0.375907392848842 
1283	 0.375993272016748 
1284	 0.376076338729624 
1285	 0.376179430581382 
1286	 0.376268922788281 
1287	 0.376358256915935 
1288	 0.376436181114067 
1289	 0.376496769674484 
1290	 0.37657969677353 
1291	 0.37667347490846 
1292	 0.37675119921144 
1293	 0.376846499456865 
1294	 0.376910317960436 
1295	 0.376943868354258 
1296	 0.376979045911547 
1297	 0.377001273785455 
1298	 0.377027373977861 
1299	 0.377050074591627 
1300	 0.3770676872209 
1301	 0.377082415357274 
1302	 0.377095809045861 
1303	 0.377105538256205 
1304	 0.377111381702305 
1305	 0.377111086971536 
1306	 0.377113438041436 
1307	 0.377102867945688 
1308	 0.377063733071764 
1309	 0.377038954435033 
1310	 0.377006801260126 
1311	 0.376986729771822 
1312	 0.376972130151762 
1313	 0.37696119381698 
1314	 0.376966034089992 
1315	 0.376942404963143 
1316	 0.376898895520605 
1317	 0.376881537437157 
1318	 0.376841038317256 
1319	 0.376841141186683 
1320	 0.376897939441247 
1321	 0.376921853534289 
1322	 0.376953590246913 
1323	 0.376968835907353 
1324	 0.376964316929653 
1325	 0.37695610078346 
1326	 0.37697318657202 
1327	 0.377005012763565 
1328	 0.377034240887338 
1329	 0.377056686130306 
1330	 0.377076670403319 
1331	 0.377063611415502 
1332	 0.37711398868552 
1333	 0.377200642850424 
1334	 0.377267469527771 
1335	 0.377352467590402 
1336	 0.377434452174536 
1337	 0.37750314738417 
1338	 0.37758646793065 
1339	 0.377698390577485 
1340	 0.37778810132014 
1341	 0.377872908889635 
1342	 0.377945911748817 
1343	 0.377995131905759 
1344	 0.378062309919821 
1345	 0.378147198606627 
1346	 0.378222342570187 
1347	 0.378315951193716 
1348	 0.37843504085416 
1349	 0.378527778217121 
1350	 0.37859928941169 
1351	 0.378682084856427 
1352	 0.37876170743979 
1353	 0.378841124970953 
1354	 0.37891941140401 
1355	 0.379005075178211 
1356	 0.379094710663892 
1357	 0.379179559306027 
1358	 0.379272101179262 
1359	 0.379356764928466 
1360	 0.379430396886726 
1361	 0.379508083920933 
1362	 0.379589730198941 
1363	 0.379660863518155 
1364	 0.379730755496598 
1365	 0.379795406056862 
1366	 0.379835222288211 
1367	 0.379907123417887 
1368	 0.379990744103421 
1369	 0.380044334649643 
1370	 0.38009603007662 
1371	 0.380124266262345 
1372	 0.38012458739644 
1373	 0.380100744691784 
1374	 0.380063407335387 
1375	 0.380005923298145 
1376	 0.379944739782848 
1377	 0.379877996745667 
1378	 0.379785334056595 
1379	 0.37968137280763 
1380	 0.379552336796316 
1381	 0.379386751262772 
1382	 0.379222260250369 
1383	 0.379059000151198 
1384	 0.37886291568532 
1385	 0.378665537571153 
1386	 0.378422217249588 
1387	 0.378141688964808 
1388	 0.377841130273806 
1389	 0.37752607577656 
1390	 0.377151146267137 
1391	 0.37674761285193 
1392	 0.376322550527305 
1393	 0.375851220329894 
1394	 0.375366420054377 
1395	 0.374863757649596 
1396	 0.37434317708686 
1397	 0.373816750448874 
1398	 0.373264518859233 
1399	 0.372733562295705 
1400	 0.37220112498891 
1401	 0.371674232760417 
1402	 0.371156453817426 
1403	 0.37064085523056 
1404	 0.370113071366779 
1405	 0.369616178848791 
1406	 0.369130647773548 
1407	 0.368665387235082 
1408	 0.368204572876249 
1409	 0.367791640543705 
1410	 0.367393002552262 
1411	 0.36704664540521 
1412	 0.366733156881752 
1413	 0.36648241666689 
1414	 0.366289911070716 
1415	 0.366136004947541 
1416	 0.366029804517418 
1417	 0.365966276715683 
1418	 0.365925591389743 
1419	 0.365883092141474 
1420	 0.365865625631743 
1421	 0.365841626773951 
1422	 0.365790718680869 
1423	 0.365753988674659 
1424	 0.365711716869392 
1425	 0.365669647264387 
1426	 0.365611257397475 
1427	 0.365539862366843 
1428	 0.365482823807023 
1429	 0.365412055197345 
1430	 0.365357672359135 
1431	 0.365326963168264 
1432	 0.365284117149166 
1433	 0.365225326163322 
1434	 0.365191330769896 
1435	 0.365177716849241 
1436	 0.365156009656167 
1437	 0.36514870944093 
1438	 0.365130007165077 
1439	 0.365103403573476 
1440	 0.365067789108737 
1441	 0.365035520555938 
1442	 0.36501080313011 
1443	 0.364992539047671 
1444	 0.364979695020067 
1445	 0.364981123835337 
1446	 0.364985326847446 
1447	 0.364986571161907 
1448	 0.364991316929688 
1449	 0.364992973337322 
1450	 0.36499042035289 
1451	 0.364984862220778 
1452	 0.364976899048015 
1453	 0.364967018295137 
1454	 0.364946263322175 
1455	 0.364942440616796 
1456	 0.364938083969917 
1457	 0.36495223109369 
1458	 0.364984950738653 
1459	 0.365015564441495 
1460	 0.365057748567159 
1461	 0.365095052584278 
1462	 0.365127134123857 
1463	 0.365170680624747 
1464	 0.365210381636874 
1465	 0.365273423700925 
1466	 0.365353304592155 
1467	 0.365439539175503 
1468	 0.365546146546459 
1469	 0.365649983117386 
1470	 0.365754978036178 
1471	 0.365869961573736 
1472	 0.36597317011916 
1473	 0.366105697221574 
1474	 0.366276933712595 
1475	 0.366454183703621 
1476	 0.366667411023005 
1477	 0.366882929511981 
1478	 0.367077641361538 
1479	 0.367270444652731 
1480	 0.367463970344208 
1481	 0.367660196266356 
1482	 0.36784064986646 
1483	 0.368007494092818 
1484	 0.368197198904103 
1485	 0.368376890581359 
1486	 0.368576905483372 
1487	 0.368812964949853 
1488	 0.36901897632527 
1489	 0.369214808034156 
1490	 0.36941583931045 
1491	 0.36961016586585 
1492	 0.369808613653865 
1493	 0.370017723440705 
1494	 0.370211793930609 
1495	 0.370397785869967 
1496	 0.370584128410416 
1497	 0.370763290377645 
1498	 0.370941106622381 
1499	 0.371125375219969 
1500	 0.37129031286051 
1501	 0.371436402281549 
1502	 0.371592479648357 
1503	 0.371735799830307 
1504	 0.3718940881129 
1505	 0.372069459045102 
1506	 0.372247445270544 
1507	 0.372405591226153 
1508	 0.372540286135299 
1509	 0.372670860081038 
1510	 0.372795406071751 
1511	 0.372923519827425 
1512	 0.373075625150396 
1513	 0.373247877785647 
1514	 0.373416995503546 
1515	 0.373605581926544 
1516	 0.373793023315757 
1517	 0.373934982548472 
1518	 0.374044150806169 
1519	 0.374154538175766 
1520	 0.374225101948411 
1521	 0.374334486699299 
1522	 0.374459649869419 
1523	 0.374584738241841 
1524	 0.374719841928213 
1525	 0.374849461281093 
1526	 0.374976992458557 
1527	 0.375105565971127 
1528	 0.375237969696462 
1529	 0.375369218716343 
1530	 0.375511016538628 
1531	 0.37563124438262 
1532	 0.37573653300461 
1533	 0.37584643517072 
1534	 0.375943326609134 
1535	 0.376045708698282 
1536	 0.376156235904053 
1537	 0.376257677708456 
1538	 0.376349219527782 
1539	 0.376447242375772 
1540	 0.376541471929229 
1541	 0.376645715471467 
1542	 0.376777030621344 
1543	 0.376874232813911 
1544	 0.376957266200117 
1545	 0.377038022629812 
1546	 0.377090801910377 
1547	 0.377148767670393 
1548	 0.377234034702114 
1549	 0.37732819607815 
1550	 0.37742337736241 
1551	 0.377524775076513 
1552	 0.377638794954812 
1553	 0.377744516598906 
1554	 0.377861481798555 
1555	 0.377973481197931 
1556	 0.378057023225326 
1557	 0.378140383366011 
1558	 0.378211198008552 
1559	 0.378266900901571 
1560	 0.378324171365492 
1561	 0.378363440244165 
1562	 0.378432929128945 
1563	 0.378513377756008 
1564	 0.378592700095672 
1565	 0.378689127502298 
1566	 0.378782720358301 
1567	 0.378871139762245 
1568	 0.378964819569262 
1569	 0.379073551362142 
1570	 0.379160842342846 
1571	 0.379238689616192 
1572	 0.379315670130345 
1573	 0.379383957806018 
1574	 0.379454819355972 
1575	 0.379523364044562 
1576	 0.379590197438137 
1577	 0.379666577796791 
1578	 0.379715482143101 
1579	 0.379749120054721 
1580	 0.379783262781357 
1581	 0.379794009106183 
1582	 0.379822607932208 
1583	 0.379851277575676 
1584	 0.379895135647251 
1585	 0.379948845515031 
1586	 0.380001614225912 
1587	 0.380071887985428 
1588	 0.380135218481953 
1589	 0.380199549684591 
1590	 0.380257693534842 
1591	 0.380314576457526 
1592	 0.380363858507862 
1593	 0.380402260161531 
1594	 0.380444356039869 
1595	 0.38047869128827 
1596	 0.380522102713678 
1597	 0.380567399359369 
1598	 0.380618188349514 
1599	 0.380682625066558 
1600	 0.380739711487305 
1601	 0.380800384148494 
1602	 0.380852495921418 
1603	 0.380895044876052 
1604	 0.380940137636688 
1605	 0.380970923051715 
1606	 0.381020567224849 
1607	 0.381095059917588 
1608	 0.38114890889103 
1609	 0.38118554985927 
1610	 0.381243114873894 
1611	 0.381271785170772 
1612	 0.381285927128386 
1613	 0.381320023281997 
1614	 0.381349347003308 
1615	 0.381379912106619 
1616	 0.381417374926817 
1617	 0.381458334726957 
1618	 0.381504922084756 
1619	 0.381544983016115 
1620	 0.381573290560227 
1621	 0.381592475419251 
1622	 0.381594571023294 
1623	 0.381618146118876 
1624	 0.38164136167811 
1625	 0.38167111912775 
1626	 0.381711948132087 
1627	 0.381753225268548 
1628	 0.381796273236256 
1629	 0.381834031331765 
1630	 0.381878415074079 
1631	 0.381920387421893 
1632	 0.381953504433577 
1633	 0.381990050692499 
1634	 0.382034394238444 
1635	 0.382071602979238 
1636	 0.382096743904497 
1637	 0.382138808288591 
1638	 0.382193837839175 
1639	 0.382231493416145 
1640	 0.38227766848218 
1641	 0.382297722142874 
1642	 0.382283873190159 
1643	 0.38230585100324 
1644	 0.382330403545127 
1645	 0.382358693886851 
1646	 0.382410201870335 
1647	 0.382445123553184 
1648	 0.38246451103254 
1649	 0.382500596998063 
1650	 0.382541095504724 
1651	 0.382588980464005 
1652	 0.382658033486839 
1653	 0.382695606359652 
1654	 0.382731998190467 
1655	 0.382747568986579 
1656	 0.382725073281193 
1657	 0.382730905721033 
1658	 0.382737729464302 
1659	 0.382750208356642 
1660	 0.382771461256327 
1661	 0.382797636599123 
1662	 0.382831549450391 
1663	 0.382857617047468 
1664	 0.382887526237113 
1665	 0.382916301713912 
1666	 0.382946725257559 
1667	 0.382958994466255 
1668	 0.38296182068152 
1669	 0.382971930694496 
1670	 0.382973489887646 
1671	 0.382968568041655 
1672	 0.382962805854402 
1673	 0.38296797633983 
1674	 0.382955954051388 
1675	 0.38297012053594 
1676	 0.383015009373068 
1677	 0.383048554442196 
1678	 0.383087993984889 
1679	 0.383118758159245 
1680	 0.383152441257233 
1681	 0.383175637812297 
1682	 0.383194069137631 
1683	 0.383199884771732 
1684	 0.383182797869302 
1685	 0.383189992659768 
1686	 0.38318739847197 
1687	 0.383210291806011 
1688	 0.383276684922778 
1689	 0.383306260608646 
1690	 0.383329515008438 
1691	 0.383349055413231 
1692	 0.383343483984284 
1693	 0.383357488434468 
1694	 0.383389872103242 
1695	 0.383403096649636 
1696	 0.383417103740903 
1697	 0.38341553673293 
1698	 0.383386941804613 
1699	 0.383382268033854 
1700	 0.383373683600244 
1701	 0.383383261745734 
1702	 0.383417284427346 
1703	 0.383438068832805 
1704	 0.383476466455597 
1705	 0.383478554014332 
1706	 0.383459404436064 
1707	 0.38344244259469 
1708	 0.383399218513512 
1709	 0.383372897208258 
1710	 0.383347922963475 
1711	 0.383337731097495 
1712	 0.383329987313078 
1713	 0.38334001067929 
1714	 0.38338068331838 
1715	 0.383392882211642 
1716	 0.3834051438515 
1717	 0.383408310798703 
1718	 0.383397787417079 
1719	 0.38338485954935 
1720	 0.383368989639405 
1721	 0.383350651093849 
1722	 0.383321311028843 
1723	 0.383299272863444 
1724	 0.383261619558326 
1725	 0.383270433184603 
1726	 0.38331528977796 
1727	 0.383319892837948 
1728	 0.383359504910675 
1729	 0.38333315369255 
1730	 0.383245676933416 
1731	 0.383177500764561 
1732	 0.383094545224651 
1733	 0.383004972594461 
1734	 0.382903093135752 
1735	 0.382809781710852 
1736	 0.382704645065851 
1737	 0.382622084653538 
1738	 0.382545399307917 
1739	 0.382484577739063 
1740	 0.382451628086196 
1741	 0.382395780557386 
1742	 0.382340723230775 
1743	 0.382283493835539 
1744	 0.382211013902252 
1745	 0.3821497007536 
1746	 0.382099604604405 
1747	 0.382057842532351 
1748	 0.382008206119837 
1749	 0.38198373710234 
1750	 0.381941178558537 
1751	 0.381888088636979 
1752	 0.381826839190175 
1753	 0.381731856199874 
1754	 0.381630143953534 
1755	 0.381536386983087 
1756	 0.381436886586675 
1757	 0.381371186916782 
1758	 0.38134531526408 
1759	 0.381296123440177 
1760	 0.381218600014979 
1761	 0.381136510382044 
1762	 0.38102998395044 
1763	 0.380922225283105 
1764	 0.380871405804267 
1765	 0.380818918869043 
1766	 0.380757622021004 
1767	 0.380753567895295 
1768	 0.380742017982879 
1769	 0.380720070000803 
1770	 0.38072110964639 
1771	 0.380700144967971 
1772	 0.380656402174867 
1773	 0.380587615996239 
1774	 0.38051189437823 
1775	 0.380429149143169 
1776	 0.380320163961633 
1777	 0.38025546173179 
1778	 0.38022468857528 
1779	 0.380220245189595 
1780	 0.380265162889464 
1781	 0.380298711789414 
1782	 0.380293252455611 
1783	 0.380241628552969 
1784	 0.380209401173475 
1785	 0.3801798804408 
1786	 0.380153278878479 
1787	 0.380124962221218 
1788	 0.380096125134674 
1789	 0.380051027679906 
1790	 0.380046690438386 
1791	 0.380082869720982 
1792	 0.380081777063772 
1793	 0.380102687124731 
1794	 0.38008495100366 
1795	 0.380021778217865 
1796	 0.379980641919901 
1797	 0.379922983643734 
1798	 0.379882946577287 
1799	 0.379836009403815 
1800	 0.379822854835436 
1801	 0.374975030744934 
1802	 0.374979680662952 
1803	 0.375022600325309 
1804	 0.375074279853041 
1805	 0.375085863980467 
1806	 0.375103928785578 
1807	 0.375138994930548 
1808	 0.375154573729553 
1809	 0.375171829708835 
1810	 0.375177431694448 
1811	 0.375174693480458 
1812	 0.375151237613617 
1813	 0.375127743610354 
1814	 0.375109835632856 
1815	 0.375085963662698 
1816	 0.375049316465877 
1817	 0.375028242863807 
1818	 0.375001277573192 
1819	 0.375013462409655 
1820	 0.375056736325571 
1821	 0.375081388315054 
1822	 0.375122380091818 
1823	 0.37511960509421 
1824	 0.375076096045925 
1825	 0.375042519662673 
1826	 0.374988899893076 
1827	 0.374943965803301 
1828	 0.374882465482636 
1829	 0.374782740684141 
1830	 0.374721165483278 
1831	 0.374676423906738 
1832	 0.374620297684138 
1833	 0.374565323317294 
1834	 0.374528106754033 
1835	 0.374470702556536 
1836	 0.374400519476033 
1837	 0.374325514832634 
1838	 0.374261526062145 
1839	 0.37419732838279 
1840	 0.374136378913947 
1841	 0.374047769113215 
1842	 0.373972481593624 
1843	 0.373913748930098 
1844	 0.373814035894665 
1845	 0.373708037597376 
1846	 0.373619061209135 
1847	 0.373501332354756 
1848	 0.373369657541231 
1849	 0.373262458326102 
1850	 0.37317111933896 
1851	 0.373088854568726 
1852	 0.373015672086086 
1853	 0.372969231651948 
1854	 0.372897829438108 
1855	 0.372788066794514 
1856	 0.372654467183777 
1857	 0.372483261779019 
1858	 0.372287154696415 
1859	 0.372059754350315 
1860	 0.371811375066894 
1861	 0.37153546654805 
1862	 0.371221481682574 
1863	 0.370892992170377 
1864	 0.37058495342309 
1865	 0.370261001826047 
1866	 0.369919632536119 
1867	 0.369546462644996 
1868	 0.369133631575442 
1869	 0.368662099876364 
1870	 0.368117829135185 
1871	 0.367541549855087 
1872	 0.366925939225662 
1873	 0.366272745634841 
1874	 0.365564379338941 
1875	 0.364818769604008 
1876	 0.364015224159434 
1877	 0.363129661476256 
1878	 0.36216618971258 
1879	 0.361140804646741 
1880	 0.360021004258275 
1881	 0.358805410824337 
1882	 0.357517164441022 
1883	 0.35615694441899 
1884	 0.354683626223075 
1885	 0.353144939348023 
1886	 0.351553881648982 
1887	 0.349833362816127 
1888	 0.348070969505947 
1889	 0.346238027421055 
1890	 0.344325036297208 
1891	 0.342421420700009 
1892	 0.340459603690582 
1893	 0.338517794753814 
1894	 0.336557804094615 
1895	 0.334638612310551 
1896	 0.33268405593566 
1897	 0.33073856403512 
1898	 0.328812760332556 
1899	 0.326945633873376 
1900	 0.325148913447455 
1901	 0.323458252617479 
1902	 0.32187773221724 
1903	 0.320417224740179 
1904	 0.31901313929499 
1905	 0.317700564691939 
1906	 0.316496206058787 
1907	 0.315324747913525 
1908	 0.31422627804077 
1909	 0.313225419816657 
1910	 0.312281236496846 
1911	 0.311413003649348 
1912	 0.310613806593676 
1913	 0.309851483841456 
1914	 0.309129000206458 
1915	 0.308473211228417 
1916	 0.307883756806864 
1917	 0.307313996869588 
1918	 0.306803785091606 
1919	 0.30635422062333 
1920	 0.305931942525994 
1921	 0.30560095224915 
1922	 0.305331259290686 
1923	 0.305079014237495 
1924	 0.304865639514471 
1925	 0.304691182820745 
1926	 0.304545726854669 
1927	 0.304426421678452 
1928	 0.304357213254939 
1929	 0.304321283668852 
1930	 0.304322912883976 
1931	 0.304358617483797 
1932	 0.304414081880486 
1933	 0.304490074878941 
1934	 0.304606737429908 
1935	 0.304736011036146 
1936	 0.304881703220629 
1937	 0.305058560802801 
1938	 0.305252932135684 
1939	 0.305477634914796 
1940	 0.305726999259406 
1941	 0.30602191200961 
1942	 0.30632707672011 
1943	 0.306674921026087 
1944	 0.307033096310033 
1945	 0.307405104709811 
1946	 0.307795504598728 
1947	 0.308210584812356 
1948	 0.308620159629718 
1949	 0.309051378683987 
1950	 0.309471783001133 
1951	 0.309884179424578 
1952	 0.310309334380102 
1953	 0.310733154489202 
1954	 0.311177305821536 
1955	 0.311636289501289 
1956	 0.312085755180113 
1957	 0.312546337990991 
1958	 0.313012428193511 
1959	 0.313487936809604 
1960	 0.313970163689093 
1961	 0.314462598951737 
1962	 0.314967061269651 
1963	 0.315477558793017 
1964	 0.315999637540494 
1965	 0.316523675128821 
1966	 0.317045422142192 
1967	 0.31755178897736 
1968	 0.318073670952653 
1969	 0.31859226631097 
1970	 0.319115333685087 
1971	 0.319655324844903 
1972	 0.32018671200798 
1973	 0.320706498581352 
1974	 0.321237505774095 
1975	 0.321772346301022 
1976	 0.322313428779065 
1977	 0.32287614968509 
1978	 0.323413292579383 
1979	 0.323920758001789 
1980	 0.32445615937263 
1981	 0.324988127244643 
1982	 0.325505283308772 
1983	 0.326035812972659 
1984	 0.326582439575898 
1985	 0.327124903034806 
1986	 0.32766954595439 
1987	 0.328208369697463 
1988	 0.328745354594911 
1989	 0.329297846904174 
1990	 0.329832103402028 
1991	 0.330358526794327 
1992	 0.330905903328895 
1993	 0.331475432452329 
1994	 0.332023751381455 
1995	 0.332583793274395 
1996	 0.333115273229268 
1997	 0.333610035980306 
1998	 0.334131723499085 
1999	 0.334653632272047 
2000	 0.335175499618274 
2001	 0.335724548733159 
2002	 0.336247199768019 
2003	 0.33674216462575 
2004	 0.337250796785632 
2005	 0.337740702280466 
2006	 0.338209446806139 
2007	 0.338694026733047 
2008	 0.33918002527948 
2009	 0.339655846754714 
2010	 0.340125642557088 
2011	 0.340606768152428 
2012	 0.341091328170884 
2013	 0.341567087798787 
2014	 0.342056195488458 
2015	 0.342536907269119 
2016	 0.342963290851344 
2017	 0.343394859199307 
2018	 0.343845790605063 
2019	 0.344298338135745 
2020	 0.344742957828159 
2021	 0.345209714577206 
2022	 0.345654314188448 
2023	 0.346074338696703 
2024	 0.34650373580924 
2025	 0.34694746652535 
2026	 0.347368754212092 
2027	 0.347797042717774 
2028	 0.348171247351466 
2029	 0.348560009117449 
2030	 0.348930106969846 
2031	 0.349315042406722 
2032	 0.349697197938897 
2033	 0.350087727692326 
2034	 0.350481953806034 
2035	 0.350881712041191 
2036	 0.351303765205593 
2037	 0.35169922969074 
2038	 0.352104852372126 
2039	 0.352476366855784 
2040	 0.352826471854498 
2041	 0.353138791602044 
2042	 0.353467848766552 
2043	 0.353785256280647 
2044	 0.354107503299799 
2045	 0.354433317791586 
2046	 0.35476195833858 
2047	 0.355095842706611 
2048	 0.355412871741887 
2049	 0.355741354913158 
2050	 0.356038657736345 
2051	 0.356300326903271 
2052	 0.356570248041157 
2053	 0.356810985538285 
2054	 0.357079721893442 
2055	 0.357358078110863 
2056	 0.357652004416657 
2057	 0.35793960556109 
2058	 0.358241658074958 
2059	 0.358535504639242 
2060	 0.358826782239884 
2061	 0.35911227154945 
2062	 0.359398896637869 
2063	 0.359681702478138 
2064	 0.359955181784846 
2065	 0.360229638353383 
2066	 0.360508230987788 
2067	 0.360780922748264 
2068	 0.36105704631942 
2069	 0.361310844394097 
2070	 0.361571209265628 
2071	 0.36183630797646 
2072	 0.362078077158396 
2073	 0.362307174910885 
2074	 0.362535584770304 
2075	 0.362733653615552 
2076	 0.362965706905187 
2077	 0.363205664282424 
2078	 0.363457943432347 
2079	 0.363743771710897 
2080	 0.364007869009389 
2081	 0.364285729237009 
2082	 0.364534806819779 
2083	 0.364761175723091 
2084	 0.364977038705243 
2085	 0.365197870306711 
2086	 0.365404633990941 
2087	 0.365617499806813 
2088	 0.365836034305045 
2089	 0.366048684788677 
2090	 0.366254156430934 
2091	 0.366461530800548 
2092	 0.366654746404076 
2093	 0.366877847474917 
2094	 0.36711295791122 
2095	 0.367350464171162 
2096	 0.367628181753635 
2097	 0.367877456737093 
2098	 0.368120325185785 
2099	 0.368344857016357 
2100	 0.36855814544256 
2101	 0.368754196509229 
2102	 0.368947757397845 
2103	 0.369106065725813 
2104	 0.369319706216668 
2105	 0.369546892137784 
2106	 0.369787925348008 
2107	 0.370070783113519 
2108	 0.370338851491609 
2109	 0.370611875355838 
2110	 0.370879657739946 
2111	 0.371169066433359 
2112	 0.371422874504615 
2113	 0.371664806855774 
2114	 0.371875705431973 
2115	 0.372092371454437 
2116	 0.372271102866688 
2117	 0.372506188705737 
2118	 0.372766663299949 
2119	 0.373017006218659 
2120	 0.373298263371667 
2121	 0.37354956778343 
2122	 0.373787329200084 
2123	 0.374016575215782 
2124	 0.374235722270553 
2125	 0.374450755925408 
2126	 0.374653820189566 
2127	 0.374853791302569 
2128	 0.37506789921398 
2129	 0.375247474564239 
2130	 0.37539911841446 
2131	 0.37555488531079 
2132	 0.375681154744828 
2133	 0.375781003557183 
2134	 0.375864727841157 
2135	 0.375929128184523 
2136	 0.375985190163259 
2137	 0.376020698262723 
2138	 0.376046564273245 
2139	 0.37607143421599 
2140	 0.376068331817247 
2141	 0.376039777140019 
2142	 0.37599981209717 
2143	 0.375932022837792 
2144	 0.375868061120321 
2145	 0.375795281909773 
2146	 0.375715633393202 
2147	 0.375654225916446 
2148	 0.375555231257264 
2149	 0.375426203201145 
2150	 0.375272838114418 
2151	 0.375104110426343 
2152	 0.374891906844516 
2153	 0.374693056874172 
2154	 0.374493484132034 
2155	 0.374275914145309 
2156	 0.374048459038946 
2157	 0.373809166251205 
2158	 0.373556981193523 
2159	 0.373291059953354 
2160	 0.373014769612272 
2161	 0.372723812636168 
2162	 0.372387575594488 
2163	 0.372089267219343 
2164	 0.371816921215907 
2165	 0.371520541727013 
2166	 0.371222383766826 
2167	 0.370937246886242 
2168	 0.37064721199204 
2169	 0.37033470613044 
2170	 0.370035118421055 
2171	 0.369761409191609 
2172	 0.369461807084285 
2173	 0.369134085713991 
2174	 0.368827872565331 
2175	 0.36853916122978 
2176	 0.368226006568629 
2177	 0.367924940153237 
2178	 0.367590487433871 
2179	 0.367207199679512 
2180	 0.366843894780513 
2181	 0.366482283531542 
2182	 0.366105458031983 
2183	 0.365708535184169 
2184	 0.365342320064245 
2185	 0.364964997217904 
2186	 0.364562761740279 
2187	 0.364194197983068 
2188	 0.363847252114727 
2189	 0.363501781942178 
2190	 0.363172317850715 
2191	 0.362834312922273 
2192	 0.362485712082139 
2193	 0.362168680249747 
2194	 0.361829943624661 
2195	 0.361560479468524 
2196	 0.361352596527921 
2197	 0.361147140126233 
2198	 0.360996770600309 
2199	 0.360830660398038 
2200	 0.360651665232997 
2201	 0.36049975238837 
2202	 0.360358157761551 
2203	 0.360235384534594 
2204	 0.360124659857113 
2205	 0.360036402809714 
2206	 0.359957690915167 
2207	 0.359867089195492 
2208	 0.359846131039366 
2209	 0.359857622849087 
2210	 0.359909197089208 
2211	 0.360028558139397 
2212	 0.360140022219501 
2213	 0.360308722772154 
2214	 0.36041988807307 
2215	 0.360529229971583 
2216	 0.360613053217834 
2217	 0.360652816801156 
2218	 0.360695964516799 
2219	 0.360716906371618 
2220	 0.360749541929307 
2221	 0.360767899866443 
2222	 0.360808965191083 
2223	 0.360851196286255 
2224	 0.360936299728794 
2225	 0.360973801199032 
2226	 0.36102303157224 
2227	 0.361005063142174 
2228	 0.36093741127466 
2229	 0.360874203954185 
2230	 0.360777188715015 
2231	 0.360675068983188 
2232	 0.360544911875777 
2233	 0.360456215092729 
2234	 0.360358588149232 
2235	 0.360285481778994 
2236	 0.360272245278293 
2237	 0.360213685803033 
2238	 0.360126766197422 
2239	 0.36005971981645 
2240	 0.359986806632441 
2241	 0.359924313456584 
2242	 0.359910438508748 
2243	 0.359841434170178 
2244	 0.359752176078763 
2245	 0.359636152121865 
2246	 0.359504106449086 
2247	 0.359352823478752 
2248	 0.359220593281703 
2249	 0.35909464691021 
2250	 0.358975774154606 
2251	 0.358848580679242 
2252	 0.358758826440877 
2253	 0.35869729137228 
2254	 0.358632010078626 
2255	 0.358597722327623 
2256	 0.3585265747981 
2257	 0.358431663295385 
2258	 0.358362130753955 
2259	 0.358267468581966 
2260	 0.358228149172133 
2261	 0.358213435936317 
2262	 0.358231016049105 
2263	 0.358304550543098 
2264	 0.358361886945888 
2265	 0.358449257104675 
2266	 0.358528204126579 
2267	 0.358629863172345 
2268	 0.358685586220891 
2269	 0.35872175436666 
2270	 0.358728303504391 
2271	 0.358751927085838 
2272	 0.358757164517323 
2273	 0.358798895329956 
2274	 0.358868903628717 
2275	 0.358913246535775 
2276	 0.358932874054228 
2277	 0.358989083667711 
2278	 0.359060850986948 
2279	 0.35912657069179 
2280	 0.359201761332861 
2281	 0.359293295315413 
2282	 0.359400733913387 
2283	 0.359485460316724 
2284	 0.359597891163942 
2285	 0.359657254317858 
2286	 0.359658976693349 
2287	 0.359681262404285 
2288	 0.359673077485804 
2289	 0.359699535531887 
2290	 0.359763767924561 
2291	 0.359804221596841 
2292	 0.35983185422565 
2293	 0.359887757940385 
2294	 0.359938019155371 
2295	 0.359999482471845 
2296	 0.360090292937504 
2297	 0.36019099534053 
2298	 0.360292050644653 
2299	 0.360366885166199 
2300	 0.360407458527627 
2301	 0.360444906544521 
2302	 0.360434034473641 
2303	 0.360385311645625 
2304	 0.360403600088126 
2305	 0.36044644627005 
2306	 0.360477259053321 
2307	 0.360541292287889 
2308	 0.360581494967851 
2309	 0.360603524459118 
2310	 0.360630364807269 
2311	 0.360684231085134 
2312	 0.360675916170927 
2313	 0.360608048722924 
2314	 0.360570662141383 
2315	 0.360497496951523 
2316	 0.360479768102422 
2317	 0.360520088697735 
2318	 0.3605354924615 
2319	 0.360550282832346 
2320	 0.360564648247726 
2321	 0.360555736561293 
2322	 0.360591075037488 
2323	 0.360702695846938 
2324	 0.360739743919312 
2325	 0.360779718601291 
2326	 0.360767795817994 
2327	 0.36068653871828 
2328	 0.360562325433004 
2329	 0.360511316585247 
2330	 0.360487684798137 
2331	 0.360509507948247 
2332	 0.36058998932402 
2333	 0.360616028398248 
2334	 0.360608162658615 
2335	 0.360536450619078 
2336	 0.360424533272056 
2337	 0.360348404235952 
2338	 0.360293442442276 
2339	 0.360300093248733 
2340	 0.360301688598253 
2341	 0.360266321870372 
2342	 0.360180441007099 
2343	 0.360034849130603 
2344	 0.359923827940166 
2345	 0.359797455615077 
2346	 0.359658288898185 
2347	 0.359525465426691 
2348	 0.359379635616841 
2349	 0.359261228687511 
2350	 0.359169883683024 
2351	 0.359059644551203 
2352	 0.358995652564995 
2353	 0.358835648918719 
2354	 0.358580342993205 
2355	 0.358394964192583 
2356	 0.358196462932394 
2357	 0.358002518725623 
2358	 0.357853664747434 
2359	 0.357682721226457 
2360	 0.357459614417458 
2361	 0.357277055269707 
2362	 0.357160762039971 
2363	 0.356981479114325 
2364	 0.356752352111051 
2365	 0.356578276401038 
2366	 0.356418286332055 
2367	 0.356233025447913 
2368	 0.356069301565917 
2369	 0.355892356591965 
2370	 0.355717798056962 
2371	 0.355455240978063 
2372	 0.35516740636498 
2373	 0.35493170728272 
2374	 0.35463160521797 
2375	 0.354268964931721 
2376	 0.353938363102421 
2377	 0.353645495856498 
2378	 0.353327688245942 
2379	 0.3530108448248 
2380	 0.352692467158718 
2381	 0.352362267207216 
2382	 0.352051283118496 
2383	 0.35176341159566 
2384	 0.351500107451088 
2385	 0.351203805397987 
2386	 0.350900188386927 
2387	 0.350627214555183 
2388	 0.350325090834993 
2389	 0.350030374451969 
2390	 0.349754912947046 
2391	 0.34944087069012 
2392	 0.349137947579882 
2393	 0.348828112749043 
2394	 0.34849671202245 
2395	 0.348192576067827 
2396	 0.347867592425316 
2397	 0.347542913565906 
2398	 0.347123124739095 
2399	 0.346642358872944 
2400	 0.346277235804296 
2401	 0.345920088488557 
2402	 0.345647489380911 
2403	 0.34541290087823 
2404	 0.345037387740734 
2405	 0.344644214674845 
2406	 0.344217889925225 
2407	 0.343836398206135 
2408	 0.343510996751782 
2409	 0.343063381210162 
2410	 0.3426432180675 
2411	 0.342221226821332 
2412	 0.341781450452726 
2413	 0.34149181915054 
2414	 0.341213368833164 
2415	 0.340905576487406 
2416	 0.340559526846602 
2417	 0.340151654945626 
2418	 0.339771144992959 
2419	 0.339362394201959 
2420	 0.339001317353968 
2421	 0.338674478307573 
2422	 0.338326184581243 
2423	 0.338017046727603 
2424	 0.337623393051181 
2425	 0.33722151593577 
2426	 0.336756799121644 
2427	 0.33613219843104 
2428	 0.335715502429283 
2429	 0.335347557641062 
2430	 0.334949189564815 
2431	 0.334704379705465 
2432	 0.334350267382319 
2433	 0.3339166377947 
2434	 0.333545008437994 
2435	 0.333128210745131 
2436	 0.332787989255674 
2437	 0.332529823927368 
2438	 0.332117052313291 
2439	 0.331702505915368 
2440	 0.331303691019515 
2441	 0.330756003612289 
2442	 0.330372156767957 
2443	 0.330168819780926 
2444	 0.329831473230431 
2445	 0.329434969900131 
2446	 0.329130414134714 
2447	 0.328828833829735 
2448	 0.328479584381639 
2449	 0.328223547080791 
2450	 0.327855781560465 
2451	 0.327311668764724 
2452	 0.326903008400923 
2453	 0.326578209583318 
2454	 0.326127399697917 
2455	 0.32566382845486 
2456	 0.325288124626996 
2457	 0.324859396797641 
2458	 0.32445692619345 
2459	 0.324118192395675 
2460	 0.323733715154013 
2461	 0.323300955972252 
2462	 0.322909606889781 
2463	 0.322595918374962 
2464	 0.322226993285703 
2465	 0.32181291961071 
2466	 0.321455604950721 
2467	 0.321108498656465 
2468	 0.320777490691933 
2469	 0.320459175245776 
2470	 0.320132510177198 
2471	 0.319815996216149 
2472	 0.319330319791389 
2473	 0.318936241262083 
2474	 0.318596810995955 
2475	 0.318292385147183 
2476	 0.318035213361207 
2477	 0.317580786919107 
2478	 0.317104033114671 
2479	 0.316659390247329 
2480	 0.316257576643471 
2481	 0.316072248963376 
2482	 0.315879191851678 
2483	 0.315565070093432 
2484	 0.315229414800846 
2485	 0.314875825796242 
2486	 0.314425061837437 
2487	 0.314060569197589 
2488	 0.313773535763174 
2489	 0.313255451280495 
2490	 0.312929392442295 
2491	 0.312641053512549 
2492	 0.312227924973472 
2493	 0.312176220583525 
2494	 0.311940510278721 
2495	 0.311538649093616 
2496	 0.311433064245052 
2497	 0.311079687208757 
2498	 0.310641250193821 
2499	 0.310410167301344 
2500	 0.309992205011578 
