Wavelength	LMW200013.asd
350	 6.31751491856678E-02 
351	 6.26606232594001E-02 
352	 0.062351480500578 
353	 5.86045206896207E-02 
354	 6.37537029882268E-02 
355	 6.91993227232262E-02 
356	 6.95760034844271E-02 
357	 6.38556528973163E-02 
358	 6.34609250477482E-02 
359	 6.37390351410967E-02 
360	 6.41712043256531E-02 
361	 6.63822774837401E-02 
362	 6.16566895528733E-02 
363	 5.79072741195293E-02 
364	 5.93055780976159E-02 
365	 6.15782437561877E-02 
366	 0.061489394321651 
367	 6.12667397769965E-02 
368	 6.37990456643024E-02 
369	 6.86217123985212E-02 
370	 6.74866299926945E-02 
371	 6.33067583419794E-02 
372	 6.56665122470433E-02 
373	 6.65644923909981E-02 
374	 6.54211131835495E-02 
375	 6.41454307438109E-02 
376	 6.73524672463001E-02 
377	 6.84007599651353E-02 
378	 6.73175809960911E-02 
379	 6.64821798289529E-02 
380	 6.89211043345472E-02 
381	 6.89900395668497E-02 
382	 0.067539921058658 
383	 6.99341079864452E-02 
384	 7.07259045098767E-02 
385	 7.06067588545541E-02 
386	 7.09773286435461E-02 
387	 7.30225247196934E-02 
388	 0.073727975376683 
389	 7.38106544546526E-02 
390	 7.47552832649461E-02 
391	 7.52819883107697E-02 
392	 7.63125592514455E-02 
393	 7.77290084532236E-02 
394	 7.85373592237991E-02 
395	 7.94856439795158E-02 
396	 8.04149992602558E-02 
397	 8.10771253603269E-02 
398	 8.12427510689685E-02 
399	 8.22208382555116E-02 
400	 8.41941773727491E-02 
401	 8.64501822325178E-02 
402	 8.61930593406503E-02 
403	 8.59697662481077E-02 
404	 8.64513217615878E-02 
405	 0.086156231230867 
406	 8.75917401903093E-02 
407	 8.96188939625645E-02 
408	 9.07099646681855E-02 
409	 9.00541681192925E-02 
410	 9.00472869868557E-02 
411	 9.09407840210831E-02 
412	 9.18655769106445E-02 
413	 9.21525149621398E-02 
414	 9.24546845951221E-02 
415	 9.30591726575296E-02 
416	 9.36277107972563E-02 
417	 9.41974313593752E-02 
418	 0.094652300719626 
419	 9.47987150440295E-02 
420	 9.41372340870695E-02 
421	 9.41159023137561E-02 
422	 9.47158686625173E-02 
423	 9.49896116588363E-02 
424	 9.51650379726011E-02 
425	 9.50465955883414E-02 
426	 9.46651730598763E-02 
427	 9.45271651651385E-02 
428	 9.42767676420302E-02 
429	 9.39356024808247E-02 
430	 9.36685735113527E-02 
431	 9.37547732041763E-02 
432	 9.37445657816328E-02 
433	 9.35169775230898E-02 
434	 9.32982345981646E-02 
435	 9.32419609146321E-02 
436	 9.32306836025489E-02 
437	 9.31374595304765E-02 
438	 0.092905437338954 
439	 9.31078497990711E-02 
440	 9.36948617787976E-02 
441	 9.42568739363701E-02 
442	 9.43215033994736E-02 
443	 9.45561480330878E-02 
444	 9.51469786537831E-02 
445	 9.53943648870304E-02 
446	 9.56729818500589E-02 
447	 9.60739408700597E-02 
448	 9.65735975754095E-02 
449	 9.69881522446809E-02 
450	 9.75631468404198E-02 
451	 9.82076496837921E-02 
452	 9.85562246592324E-02 
453	 9.87588727647214E-02 
454	 9.90491461857396E-02 
455	 9.95671945142569E-02 
456	 0.100266760733912 
457	 0.100550265020927 
458	 0.100522673305152 
459	 0.100621072409848 
460	 0.100973230882295 
461	 0.101207994741309 
462	 0.101229665392168 
463	 0.101382569560781 
464	 0.101760726304258 
465	 0.102068574108705 
466	 0.102101092343305 
467	 0.102515510342192 
468	 0.102779330388688 
469	 0.102789750220354 
470	 0.102818812456738 
471	 0.10296609599079 
472	 0.103053140538888 
473	 0.103011488525039 
474	 0.103153353383055 
475	 0.103323910374417 
476	 0.103392645483668 
477	 0.103315019880437 
478	 0.103607618142449 
479	 0.10384829166011 
480	 0.103875273741189 
481	 0.103995485665825 
482	 0.104135989304208 
483	 0.104250292003446 
484	 0.104313000315826 
485	 0.104368997004847 
486	 0.104471829087301 
487	 0.104617245143421 
488	 0.104752287033605 
489	 0.104857584405607 
490	 0.104915286634553 
491	 0.104950629634309 
492	 0.10510302544314 
493	 0.105133160383262 
494	 0.105137664270377 
495	 0.105325311141708 
496	 0.10543819123067 
497	 0.10554366585675 
498	 0.105695962820327 
499	 0.105890665728269 
500	 0.105933712731058 
501	 0.105950022940366 
502	 0.10610092717955 
503	 0.106252056748357 
504	 0.106409398089 
505	 0.10651714351118 
506	 0.106474305417907 
507	 0.10651917095483 
508	 0.106652556275015 
509	 0.106809592108374 
510	 0.106906628436752 
511	 0.106869155689716 
512	 0.10681254353889 
513	 0.106926425312087 
514	 0.107051409508012 
515	 0.107150608463022 
516	 0.107234912438905 
517	 0.107375015878901 
518	 0.107460641819629 
519	 0.107519931549452 
520	 0.107618326821327 
521	 0.107761365619748 
522	 0.107870007630794 
523	 0.107917036587046 
524	 0.107935336162248 
525	 0.108034583148976 
526	 0.108172158554851 
527	 0.108284883558448 
528	 0.108373739400359 
529	 0.108411507545225 
530	 0.108459113311817 
531	 0.108621467338484 
532	 0.108802693521885 
533	 0.108948362713363 
534	 0.10904993294573 
535	 0.10918124685885 
536	 0.109256884425407 
537	 0.109334516543659 
538	 0.109503757061117 
539	 0.109665635016624 
540	 0.109811290233194 
541	 0.109954714046677 
542	 0.110129486781203 
543	 0.110301332419538 
544	 0.11047080664227 
545	 0.110649825866837 
546	 0.110863362315216 
547	 0.111032327329409 
548	 0.111163356098666 
549	 0.111337267851595 
550	 0.111572445528309 
551	 0.111821888851872 
552	 0.112065875698608 
553	 0.112403087517837 
554	 0.112678606110897 
555	 0.112924330869833 
556	 0.113258240328535 
557	 0.113594273233851 
558	 0.113975352358382 
559	 0.114424188959774 
560	 0.114918901374395 
561	 0.115264378283786 
562	 0.115596059518855 
563	 0.116111102800011 
564	 0.116639127719142 
565	 0.117123888041148 
566	 0.117608852748759 
567	 0.118238176517068 
568	 0.118883041095294 
569	 0.119563042540262 
570	 0.120297885133857 
571	 0.120989102641423 
572	 0.121703501197764 
573	 0.122466330950829 
574	 0.123264508919889 
575	 0.124030332987336 
576	 0.124809610196051 
577	 0.125627824079861 
578	 0.126412114697905 
579	 0.127297920983725 
580	 0.128314381401546 
581	 0.129424005537501 
582	 0.130499890813714 
583	 0.131561524261778 
584	 0.132624664556668 
585	 0.133683005370893 
586	 0.134702846251934 
587	 0.135743747931168 
588	 0.13684820685836 
589	 0.137861195961038 
590	 0.138913862720058 
591	 0.140032424575617 
592	 0.141142523614353 
593	 0.142259282649934 
594	 0.143341586437238 
595	 0.144385579893365 
596	 0.145514572230727 
597	 0.146667742161743 
598	 0.147826155316126 
599	 0.148981812136729 
600	 0.149986383431788 
601	 0.150944110903109 
602	 0.151927600119495 
603	 0.152907241914948 
604	 0.153831270541429 
605	 0.154689217441904 
606	 0.155501568682032 
607	 0.156345395928841 
608	 0.157180537724408 
609	 0.157976188383154 
610	 0.158723315736341 
611	 0.15946531616224 
612	 0.160167307632904 
613	 0.16080422994267 
614	 0.161461127043624 
615	 0.162094956465138 
616	 0.162662925843661 
617	 0.163134280280773 
618	 0.163644626485509 
619	 0.164124912940082 
620	 0.164533128156071 
621	 0.164949687095604 
622	 0.165357688872873 
623	 0.165741678610823 
624	 0.166094008853725 
625	 0.166467877042167 
626	 0.166844255366626 
627	 0.167210549059418 
628	 0.167570887977596 
629	 0.167958095100856 
630	 0.168309311886943 
631	 0.168577190180814 
632	 0.168878251108612 
633	 0.169149169531684 
634	 0.169423689614596 
635	 0.169802781582215 
636	 0.170092429725319 
637	 0.170359579120914 
638	 0.17066539544131 
639	 0.170933289437745 
640	 0.171259013808624 
641	 0.171603528509737 
642	 0.171880987958824 
643	 0.172174807741674 
644	 0.172481510956356 
645	 0.17279271841814 
646	 0.173104288766167 
647	 0.173427260723695 
648	 0.173767115630549 
649	 0.174122193417343 
650	 0.174470761588874 
651	 0.174823527074521 
652	 0.175173303732412 
653	 0.175502621401034 
654	 0.175916299114109 
655	 0.176288861446844 
656	 0.176560182759256 
657	 0.176930505769084 
658	 0.177364690381532 
659	 0.177796867909086 
660	 0.178162337231711 
661	 0.178587214958891 
662	 0.178991935802845 
663	 0.179386782926258 
664	 0.179944645888903 
665	 0.180345543954189 
666	 0.180753250516892 
667	 0.181347078300312 
668	 0.18174470397403 
669	 0.182219934335756 
670	 0.182791726609079 
671	 0.183262000508858 
672	 0.183749725725551 
673	 0.18430199937461 
674	 0.184904663969835 
675	 0.185428623203913 
676	 0.185946659934241 
677	 0.186487485575072 
678	 0.187066941189848 
679	 0.187744794264471 
680	 0.188358942112982 
681	 0.188897641399406 
682	 0.189567775381301 
683	 0.190225967004349 
684	 0.190845375909755 
685	 0.191451828822181 
686	 0.192148166277468 
687	 0.192854268581455 
688	 0.193529368853376 
689	 0.194171968713124 
690	 0.194858686373883 
691	 0.195567943545446 
692	 0.196284716329849 
693	 0.197043932146306 
694	 0.19778773234567 
695	 0.198522853496829 
696	 0.199273084701464 
697	 0.200003194910533 
698	 0.200753544522267 
699	 0.201524114683731 
700	 0.202268888549009 
701	 0.203014794578478 
702	 0.203790858939942 
703	 0.20459929728162 
704	 0.205374879715048 
705	 0.206088021084179 
706	 0.206814652757451 
707	 0.207656836345059 
708	 0.208438253371815 
709	 0.209183494115513 
710	 0.209933593616933 
711	 0.210721666047495 
712	 0.21152176348223 
713	 0.212276458695886 
714	 0.21296573718698 
715	 0.213738674492346 
716	 0.214488244020424 
717	 0.215198764516657 
718	 0.215918625425891 
719	 0.216580677566428 
720	 0.217245552687185 
721	 0.217928734239138 
722	 0.218516909272729 
723	 0.219167090830049 
724	 0.219843181394819 
725	 0.220452765583982 
726	 0.220981229981871 
727	 0.221529117072533 
728	 0.222086218113026 
729	 0.22254186638249 
730	 0.223020210287497 
731	 0.223494016715897 
732	 0.223919788215067 
733	 0.224279083900632 
734	 0.224641282936806 
735	 0.224982177090365 
736	 0.225260472094836 
737	 0.225596697327434 
738	 0.225880182736297 
739	 0.22607579847776 
740	 0.226248613976987 
741	 0.226388185230321 
742	 0.226536999675659 
743	 0.2266950351427 
744	 0.226718630620096 
745	 0.22673361669987 
746	 0.226755565956286 
747	 0.226746147179924 
748	 0.226691971293955 
749	 0.226631316364857 
750	 0.226550814976826 
751	 0.226372433918132 
752	 0.226228989834425 
753	 0.226078969580702 
754	 0.22586850520841 
755	 0.225627833317394 
756	 0.225411443346534 
757	 0.225169661699984 
758	 0.224822518651097 
759	 0.224503123791039 
760	 0.224143670531778 
761	 0.223744778469061 
762	 0.223412069055133 
763	 0.223072719519715 
764	 0.222691527866951 
765	 0.222269607250847 
766	 0.221890458865492 
767	 0.221450594160652 
768	 0.220956872315377 
769	 0.220476409644879 
770	 0.220063027419888 
771	 0.219616933045028 
772	 0.219120733241411 
773	 0.218669578845365 
774	 0.218180880771039 
775	 0.217650492645398 
776	 0.21710617723618 
777	 0.216613217701819 
778	 0.216121781049259 
779	 0.215603138642641 
780	 0.215050267383413 
781	 0.21451883607836 
782	 0.214030954495074 
783	 0.213549855006408 
784	 0.212989974517322 
785	 0.212483166449043 
786	 0.212002656223604 
787	 0.211502196821571 
788	 0.210959413480769 
789	 0.210450291745961 
790	 0.209950850442883 
791	 0.209422135399379 
792	 0.2089678276072 
793	 0.208515712450362 
794	 0.208017300641396 
795	 0.207465738200007 
796	 0.206981695913681 
797	 0.20651906280958 
798	 0.206042856535556 
799	 0.205589557692579 
800	 0.205169516864408 
801	 0.20473226622791 
802	 0.204238480415466 
803	 0.203759455926507 
804	 0.203337552846503 
805	 0.202947326688009 
806	 0.202529875369109 
807	 0.202137620375947 
808	 0.201724866488283 
809	 0.201277877500931 
810	 0.200835761074266 
811	 0.200483141901411 
812	 0.200188518035639 
813	 0.199876663279095 
814	 0.199432977410882 
815	 0.199025830166379 
816	 0.19865300674316 
817	 0.198265775987173 
818	 0.197984614740903 
819	 0.197710751843026 
820	 0.197400537937961 
821	 0.197072140164536 
822	 0.196743978962459 
823	 0.196454513808247 
824	 0.196193179853738 
825	 0.195868369210894 
826	 0.195574784385586 
827	 0.195337331286104 
828	 0.19513517894464 
829	 0.194874370505698 
830	 0.194587798349114 
831	 0.194307431147069 
832	 0.194067903157336 
833	 0.193917101284739 
834	 0.193779176408875 
835	 0.193606265880742 
836	 0.193390509514674 
837	 0.193134333832737 
838	 0.192921645313776 
839	 0.192776736466968 
840	 0.192602427048417 
841	 0.192490956285977 
842	 0.192367918976257 
843	 0.192174394366829 
844	 0.192039372202782 
845	 0.191955003251102 
846	 0.191855216357293 
847	 0.191681493722538 
848	 0.19158066474911 
849	 0.191530325613137 
850	 0.191484065024429 
851	 0.191392990242979 
852	 0.191301789926109 
853	 0.191265391137432 
854	 0.191257023632047 
855	 0.191137768835575 
856	 0.191118767713306 
857	 0.191109401537751 
858	 0.191025992763355 
859	 0.190984673557467 
860	 0.191001603223279 
861	 0.19102764970362 
862	 0.191016407838016 
863	 0.191063732221479 
864	 0.191077083272567 
865	 0.19105610438878 
866	 0.191060473763965 
867	 0.191101859390198 
868	 0.191178226396255 
869	 0.191268438073662 
870	 0.191335725441589 
871	 0.191351548460685 
872	 0.191417607987403 
873	 0.191563309265174 
874	 0.191670422997401 
875	 0.19177534425395 
876	 0.191872195447388 
877	 0.191964577703804 
878	 0.192099976388607 
879	 0.192270970744834 
880	 0.192402736528344 
881	 0.192459036127308 
882	 0.192649073754659 
883	 0.19290952891687 
884	 0.193093559463958 
885	 0.193102044179387 
886	 0.193369854683302 
887	 0.193667354406248 
888	 0.193866861523946 
889	 0.19399424463034 
890	 0.19420765704173 
891	 0.194469827354711 
892	 0.194747431971476 
893	 0.195042397016546 
894	 0.19520755504985 
895	 0.195404396707233 
896	 0.195749043047339 
897	 0.196166033238029 
898	 0.196421141403043 
899	 0.196631744291558 
900	 0.196928170178322 
901	 0.197193654457711 
902	 0.197501901834508 
903	 0.197877951500835 
904	 0.198304606766025 
905	 0.198690877436524 
906	 0.199028081126975 
907	 0.19934232177559 
908	 0.19966400285469 
909	 0.19992889370286 
910	 0.200317209935266 
911	 0.20080627257622 
912	 0.201247809608539 
913	 0.201704407232431 
914	 0.202163749106775 
915	 0.202633820795152 
916	 0.203132392432732 
917	 0.203534072091714 
918	 0.203991027897606 
919	 0.204533972654547 
920	 0.205018106420345 
921	 0.205488791299831 
922	 0.205958598100686 
923	 0.206451536207198 
924	 0.207008610996449 
925	 0.207587388180659 
926	 0.208185402819576 
927	 0.20878417103718 
928	 0.209321137682973 
929	 0.209969627865116 
930	 0.210594460572265 
931	 0.211098235689658 
932	 0.211657363822649 
933	 0.212268811607004 
934	 0.21288414159223 
935	 0.213480359388021 
936	 0.214156729152119 
937	 0.21483984786675 
938	 0.215503630966091 
939	 0.216170784193502 
940	 0.216976742006728 
941	 0.21769368809881 
942	 0.218407496104208 
943	 0.219236267709521 
944	 0.219881396065583 
945	 0.220621409319478 
946	 0.221430800108832 
947	 0.222183099489626 
948	 0.223028944817559 
949	 0.223725968394329 
950	 0.224353491286084 
951	 0.225136159667262 
952	 0.226075246003654 
953	 0.227034217513823 
954	 0.227901148421916 
955	 0.228655313068432 
956	 0.229584228012069 
957	 0.230549098625124 
958	 0.231457530450435 
959	 0.232291750776572 
960	 0.233158454545207 
961	 0.233998149981172 
962	 0.234875810249192 
963	 0.235891560381166 
964	 0.236853839205375 
965	 0.237769627206174 
966	 0.238718217092098 
967	 0.23977473011034 
968	 0.24073648602367 
969	 0.241737251078983 
970	 0.242693919331813 
971	 0.243465650683266 
972	 0.244571512114531 
973	 0.245692586132349 
974	 0.246739696418752 
975	 0.247817239419859 
976	 0.248917959418242 
977	 0.249920106843463 
978	 0.250870763279726 
979	 0.251895854551846 
980	 0.252871775990657 
981	 0.253813801041867 
982	 0.254826571292345 
983	 0.255989960302454 
984	 0.256996324245104 
985	 0.258116972995748 
986	 0.25927913865109 
987	 0.260281309781852 
988	 0.261427166329729 
989	 0.262547179057138 
990	 0.263548230321349 
991	 0.264460819246883 
992	 0.265586207086336 
993	 0.266636254563075 
994	 0.267710979774791 
995	 0.268945686986467 
996	 0.269832090346886 
997	 0.270850044936631 
998	 0.271967985262575 
999	 0.273030406791406 
1000	 0.274270808580523 
1001	 0.276425764160943 
1002	 0.277465967078322 
1003	 0.278462765785571 
1004	 0.27947355123091 
1005	 0.280563363345372 
1006	 0.281563077618877 
1007	 0.282480271909646 
1008	 0.283487676406771 
1009	 0.284455732506322 
1010	 0.28535847196214 
1011	 0.286367566429733 
1012	 0.287264049063095 
1013	 0.288150662547806 
1014	 0.289143387741358 
1015	 0.290059816263056 
1016	 0.290953187113875 
1017	 0.291845128162505 
1018	 0.292731517124998 
1019	 0.293570975279558 
1020	 0.294445074872583 
1021	 0.295314466496311 
1022	 0.296137583367545 
1023	 0.296927973207455 
1024	 0.297686259132112 
1025	 0.298450453452608 
1026	 0.29923718720944 
1027	 0.300046441222018 
1028	 0.300843022631207 
1029	 0.301586537269406 
1030	 0.302322593788483 
1031	 0.303082894521814 
1032	 0.30383784400761 
1033	 0.304599266683775 
1034	 0.305377311530698 
1035	 0.306141041255949 
1036	 0.306859503155952 
1037	 0.307536599320843 
1038	 0.308256380329486 
1039	 0.309026999912824 
1040	 0.309701400421907 
1041	 0.310331344107213 
1042	 0.310996511879613 
1043	 0.311611798267319 
1044	 0.312275030103131 
1045	 0.312990141781177 
1046	 0.313755973151827 
1047	 0.314417841454459 
1048	 0.315076398496374 
1049	 0.315734783585432 
1050	 0.316381863963982 
1051	 0.317067080103628 
1052	 0.31771545643494 
1053	 0.318369834134463 
1054	 0.319024572147356 
1055	 0.319619758462165 
1056	 0.320286234026994 
1057	 0.320904518719251 
1058	 0.321454376027802 
1059	 0.322038303565211 
1060	 0.322642946520968 
1061	 0.323210524488086 
1062	 0.32378909239175 
1063	 0.3244268254557 
1064	 0.325008225787612 
1065	 0.325546278483319 
1066	 0.326097036490166 
1067	 0.326647875331301 
1068	 0.327202331104874 
1069	 0.32779239162809 
1070	 0.328346536272895 
1071	 0.328852135736944 
1072	 0.329420291741967 
1073	 0.330026864814324 
1074	 0.330570901066964 
1075	 0.331125934294779 
1076	 0.331639710282066 
1077	 0.332120803220604 
1078	 0.332619590880286 
1079	 0.333132850492206 
1080	 0.333639389492232 
1081	 0.334141850684684 
1082	 0.334652895120402 
1083	 0.335137378523753 
1084	 0.335614438575635 
1085	 0.3361123564793 
1086	 0.336557242973472 
1087	 0.337058634492821 
1088	 0.337613710228594 
1089	 0.338149651407916 
1090	 0.338652399239504 
1091	 0.339200431559441 
1092	 0.339710062425491 
1093	 0.340198613854289 
1094	 0.340695990339589 
1095	 0.341181594003808 
1096	 0.341654012061774 
1097	 0.342124787714941 
1098	 0.342640751744985 
1099	 0.343208135142935 
1100	 0.343740282717368 
1101	 0.344282737482498 
1102	 0.344820805858049 
1103	 0.345341094985749 
1104	 0.345857082297781 
1105	 0.346419458947686 
1106	 0.347003095873468 
1107	 0.347586887399383 
1108	 0.34816820554095 
1109	 0.348719624386994 
1110	 0.349275011731444 
1111	 0.349853154026333 
1112	 0.350443201265272 
1113	 0.351028676292924 
1114	 0.351639019777357 
1115	 0.35222675969729 
1116	 0.352784648861709 
1117	 0.353373480900591 
1118	 0.353975776824706 
1119	 0.3545702548941 
1120	 0.355190419807383 
1121	 0.355808574017189 
1122	 0.35635860914934 
1123	 0.356927059180383 
1124	 0.357521365859116 
1125	 0.358110394797282 
1126	 0.358708476863948 
1127	 0.359344689129166 
1128	 0.359960270940163 
1129	 0.360579471660004 
1130	 0.361160998488609 
1131	 0.361738751758161 
1132	 0.362294014452274 
1133	 0.362785551342388 
1134	 0.363315062633498 
1135	 0.363859397051935 
1136	 0.364402028725171 
1137	 0.364937435348512 
1138	 0.365470986436734 
1139	 0.366008565759258 
1140	 0.366529513658869 
1141	 0.367073780276227 
1142	 0.367646775818973 
1143	 0.368193941236051 
1144	 0.36874898535872 
1145	 0.369281564816234 
1146	 0.369799000471275 
1147	 0.370298455784644 
1148	 0.370764285159099 
1149	 0.371249660039466 
1150	 0.371721809036144 
1151	 0.372220679841802 
1152	 0.372736698039802 
1153	 0.373203062272636 
1154	 0.373655104132349 
1155	 0.37407550578167 
1156	 0.37451251305974 
1157	 0.374940006465712 
1158	 0.375367018021485 
1159	 0.375807492154863 
1160	 0.376222830725614 
1161	 0.376604527006284 
1162	 0.377009995218872 
1163	 0.377432869438806 
1164	 0.377829311540111 
1165	 0.378207233756946 
1166	 0.378612995822475 
1167	 0.379010465790771 
1168	 0.379394231955437 
1169	 0.379756989310857 
1170	 0.380121658984943 
1171	 0.380471769488553 
1172	 0.380782313096816 
1173	 0.381117438300095 
1174	 0.381471230319634 
1175	 0.381810175509427 
1176	 0.382145065912951 
1177	 0.382470766691053 
1178	 0.382788383859223 
1179	 0.383107072208296 
1180	 0.383428347616005 
1181	 0.383732780186501 
1182	 0.384035639953257 
1183	 0.384327263222176 
1184	 0.384603481581544 
1185	 0.384851261293131 
1186	 0.385123426577953 
1187	 0.385401984467288 
1188	 0.385666145940005 
1189	 0.385938401996771 
1190	 0.386190348467764 
1191	 0.386421767727128 
1192	 0.386655044936029 
1193	 0.386884456249652 
1194	 0.387108115834836 
1195	 0.387314862175573 
1196	 0.387535275634132 
1197	 0.387756512109488 
1198	 0.387980538021017 
1199	 0.388209248875061 
1200	 0.388452742495265 
1201	 0.388677232265084 
1202	 0.388902065765518 
1203	 0.389111080960175 
1204	 0.389307440026119 
1205	 0.389501972761268 
1206	 0.389684042464664 
1207	 0.389870194465303 
1208	 0.390054936531772 
1209	 0.390238061801725 
1210	 0.390415324419276 
1211	 0.390599442459539 
1212	 0.390796391185017 
1213	 0.39097584704444 
1214	 0.391154782381009 
1215	 0.391324375601397 
1216	 0.39148401578429 
1217	 0.39161982525043 
1218	 0.391779841623285 
1219	 0.391947548527785 
1220	 0.392105886679258 
1221	 0.39227192444488 
1222	 0.39242618803576 
1223	 0.392576814188139 
1224	 0.39271145257815 
1225	 0.392834189189447 
1226	 0.39295813347307 
1227	 0.39305456743526 
1228	 0.393176381617065 
1229	 0.393324317588066 
1230	 0.393454001048389 
1231	 0.39359123331118 
1232	 0.393716388822686 
1233	 0.393831468574196 
1234	 0.393923662405013 
1235	 0.394036751877013 
1236	 0.394150668040653 
1237	 0.394268846634343 
1238	 0.394401604188435 
1239	 0.394518333362911 
1240	 0.394630508137515 
1241	 0.394739089616061 
1242	 0.394852094446504 
1243	 0.394941157534601 
1244	 0.394998950938219 
1245	 0.395083769327884 
1246	 0.395161438098077 
1247	 0.395247931461058 
1248	 0.395341522268541 
1249	 0.395467327320821 
1250	 0.395588686726725 
1251	 0.395692668292852 
1252	 0.395800931252256 
1253	 0.395927521312378 
1254	 0.396017345219902 
1255	 0.396082082752051 
1256	 0.396155611580682 
1257	 0.396206358531704 
1258	 0.396281621988683 
1259	 0.396374379601715 
1260	 0.396452963692571 
1261	 0.396542867964114 
1262	 0.396615952713907 
1263	 0.396680348934633 
1264	 0.396732001099489 
1265	 0.396752022931211 
1266	 0.396798187672349 
1267	 0.396850139403377 
1268	 0.396892554699052 
1269	 0.396958568548257 
1270	 0.397056376199664 
1271	 0.397125326007436 
1272	 0.397183942543582 
1273	 0.397260412660477 
1274	 0.397338963846994 
1275	 0.397415713244072 
1276	 0.397496904136599 
1277	 0.397587716440845 
1278	 0.397678622142663 
1279	 0.397772486275815 
1280	 0.397891099296835 
1281	 0.397987991246019 
1282	 0.39807324607183 
1283	 0.398155849399291 
1284	 0.398243210247675 
1285	 0.398301004467164 
1286	 0.398357549360427 
1287	 0.398414655084192 
1288	 0.39845593390485 
1289	 0.398488133903127 
1290	 0.398509282720599 
1291	 0.398510638327633 
1292	 0.398519777524726 
1293	 0.398536101571211 
1294	 0.398520491135745 
1295	 0.398486861598409 
1296	 0.398461151724865 
1297	 0.398400261517209 
1298	 0.398369615901274 
1299	 0.398387122060234 
1300	 0.398357641032225 
1301	 0.398306684731356 
1302	 0.398260214687522 
1303	 0.398199958733043 
1304	 0.398124033360188 
1305	 0.398056332662062 
1306	 0.397991569857082 
1307	 0.397917772973835 
1308	 0.397834365783275 
1309	 0.397760782805427 
1310	 0.397701784257791 
1311	 0.397626812307021 
1312	 0.397539552847594 
1313	 0.397462700163209 
1314	 0.397377017348873 
1315	 0.397309455872335 
1316	 0.397235969861579 
1317	 0.397205078471475 
1318	 0.39720982295567 
1319	 0.397205989785848 
1320	 0.397232591199119 
1321	 0.397248521718026 
1322	 0.397257810134146 
1323	 0.397260358796691 
1324	 0.397283905951882 
1325	 0.397315843244291 
1326	 0.397350013127624 
1327	 0.39741712953061 
1328	 0.397497603141151 
1329	 0.397567963045945 
1330	 0.397637011213303 
1331	 0.397703792645468 
1332	 0.397783463161412 
1333	 0.397850978145449 
1334	 0.397950341040165 
1335	 0.398082281091343 
1336	 0.398202129754672 
1337	 0.398333258224587 
1338	 0.398456364272248 
1339	 0.398571775302546 
1340	 0.398693461586697 
1341	 0.398820083543901 
1342	 0.398945361176424 
1343	 0.399080268354621 
1344	 0.399193201625404 
1345	 0.399322341484975 
1346	 0.399455615733886 
1347	 0.399585855136955 
1348	 0.399744678247676 
1349	 0.399899896247841 
1350	 0.400020551784152 
1351	 0.400153157652726 
1352	 0.400282915680538 
1353	 0.400417531533124 
1354	 0.400553823477848 
1355	 0.400693193114193 
1356	 0.400839439247252 
1357	 0.400977205726404 
1358	 0.40111681948013 
1359	 0.401241431901072 
1360	 0.40135467545634 
1361	 0.401471665462641 
1362	 0.401576641702419 
1363	 0.401690392285247 
1364	 0.40181606062999 
1365	 0.401929493329932 
1366	 0.402039025841139 
1367	 0.402142794631644 
1368	 0.402253635679689 
1369	 0.402361476362046 
1370	 0.40245138675181 
1371	 0.402536364632311 
1372	 0.402594427559033 
1373	 0.402643097867298 
1374	 0.402693568669669 
1375	 0.402751464471462 
1376	 0.402776900490652 
1377	 0.402790036627964 
1378	 0.402784957717595 
1379	 0.402754223611579 
1380	 0.402722686459335 
1381	 0.402689047117844 
1382	 0.402631544670862 
1383	 0.402555143099791 
1384	 0.402469913622877 
1385	 0.402376972899135 
1386	 0.402258956955645 
1387	 0.402135855078824 
1388	 0.4019782888263 
1389	 0.401788738330343 
1390	 0.401584981578054 
1391	 0.401354852049595 
1392	 0.401082735798398 
1393	 0.400786819840816 
1394	 0.400477354015795 
1395	 0.400140298288912 
1396	 0.399811005122017 
1397	 0.399475311901975 
1398	 0.399133939770172 
1399	 0.398778306412097 
1400	 0.398411282386015 
1401	 0.398050273977559 
1402	 0.397674644277556 
1403	 0.397317842314587 
1404	 0.3969702351134 
1405	 0.396628962917764 
1406	 0.396289198696333 
1407	 0.395963630760851 
1408	 0.395640377828722 
1409	 0.395340481683806 
1410	 0.395039350130764 
1411	 0.39478566676606 
1412	 0.394544646122633 
1413	 0.394361260732309 
1414	 0.394252457596256 
1415	 0.394171654238655 
1416	 0.394135527145045 
1417	 0.39414463929748 
1418	 0.394157778748872 
1419	 0.394171670570184 
1420	 0.394197449955758 
1421	 0.394217160356944 
1422	 0.39421543063494 
1423	 0.394211513013925 
1424	 0.394208106698741 
1425	 0.394202821065837 
1426	 0.394186620365323 
1427	 0.394168585306306 
1428	 0.394146874982129 
1429	 0.394111747698398 
1430	 0.394083292366194 
1431	 0.394056170274644 
1432	 0.394026726268324 
1433	 0.393991721878752 
1434	 0.393962259168893 
1435	 0.393939916910816 
1436	 0.393913043628322 
1437	 0.393881167904335 
1438	 0.393859007207924 
1439	 0.393839478730989 
1440	 0.393819413699151 
1441	 0.393807865486768 
1442	 0.393801885642585 
1443	 0.393784229359139 
1444	 0.393757337612559 
1445	 0.393732560364746 
1446	 0.393731320448663 
1447	 0.393742222531286 
1448	 0.393730750098605 
1449	 0.393717622655832 
1450	 0.393698622917465 
1451	 0.393686123606069 
1452	 0.393669865959477 
1453	 0.39366523146198 
1454	 0.393671246931778 
1455	 0.39366576754391 
1456	 0.393665844218312 
1457	 0.393653007353812 
1458	 0.393630633072523 
1459	 0.393607867159087 
1460	 0.39356375679024 
1461	 0.393546792462218 
1462	 0.393538010353647 
1463	 0.393540254996355 
1464	 0.393557338533616 
1465	 0.393582047945054 
1466	 0.393611036200114 
1467	 0.393656281046711 
1468	 0.393728294780453 
1469	 0.393789863365976 
1470	 0.393856611503752 
1471	 0.393920171042201 
1472	 0.39397727709066 
1473	 0.394051070270278 
1474	 0.394142849283324 
1475	 0.394234448164958 
1476	 0.394331455987357 
1477	 0.394429182285503 
1478	 0.394543388625181 
1479	 0.394673879989924 
1480	 0.394799313006643 
1481	 0.394937586916101 
1482	 0.395058526970375 
1483	 0.395153336518132 
1484	 0.395278306939675 
1485	 0.395417826424134 
1486	 0.395547561922399 
1487	 0.395683595337318 
1488	 0.395821578777363 
1489	 0.395951702241519 
1490	 0.396087536226801 
1491	 0.396244836251341 
1492	 0.396382884322349 
1493	 0.396500815939571 
1494	 0.396637385328363 
1495	 0.396785882939275 
1496	 0.396911553566886 
1497	 0.397043173568245 
1498	 0.39715778594645 
1499	 0.39724375690727 
1500	 0.397335103144938 
1501	 0.397420862974923 
1502	 0.397509795645098 
1503	 0.397595697306693 
1504	 0.397682802106305 
1505	 0.397771614166912 
1506	 0.397853836238262 
1507	 0.39793220025618 
1508	 0.398023713180347 
1509	 0.398120746612988 
1510	 0.398221185800762 
1511	 0.398320331762051 
1512	 0.398413412109183 
1513	 0.39854171717496 
1514	 0.398688193362854 
1515	 0.398829814354692 
1516	 0.398967059001692 
1517	 0.399076731117463 
1518	 0.399150124510395 
1519	 0.399236883443088 
1520	 0.399316794325454 
1521	 0.399400959342698 
1522	 0.399480685871239 
1523	 0.39956779438022 
1524	 0.399672330723017 
1525	 0.399742077277358 
1526	 0.399793161248763 
1527	 0.399854860057704 
1528	 0.399900437451542 
1529	 0.399946318710436 
1530	 0.399995457543222 
1531	 0.400057406184403 
1532	 0.400111792444054 
1533	 0.400176823588946 
1534	 0.400270639329066 
1535	 0.400347167216871 
1536	 0.400411927038746 
1537	 0.400479427760166 
1538	 0.400536286676908 
1539	 0.400612090622677 
1540	 0.400702448033648 
1541	 0.400785104359366 
1542	 0.400893735177577 
1543	 0.400974892457158 
1544	 0.401035310470396 
1545	 0.401085563558795 
1546	 0.401123655102905 
1547	 0.401145467613928 
1548	 0.401148273797199 
1549	 0.401172378218012 
1550	 0.401224092747704 
1551	 0.401276219551361 
1552	 0.401355623357699 
1553	 0.401441977534464 
1554	 0.40149951894673 
1555	 0.401562377774959 
1556	 0.401630763451128 
1557	 0.401686631111341 
1558	 0.401745586034715 
1559	 0.401800765490799 
1560	 0.401852522408608 
1561	 0.401890371589218 
1562	 0.40194450045495 
1563	 0.402001650111173 
1564	 0.402067455218962 
1565	 0.402144117092257 
1566	 0.402216993504496 
1567	 0.402294987774223 
1568	 0.402370401535799 
1569	 0.402451135574059 
1570	 0.402510887683676 
1571	 0.402572562766498 
1572	 0.402614036990254 
1573	 0.402628151721087 
1574	 0.402647109371372 
1575	 0.4026531425542 
1576	 0.402665516271038 
1577	 0.402673704020732 
1578	 0.40269245532275 
1579	 0.402714707956575 
1580	 0.402745239169252 
1581	 0.402780883670322 
1582	 0.402824827906202 
1583	 0.402881563844643 
1584	 0.40293332809284 
1585	 0.402990191710696 
1586	 0.403047614218373 
1587	 0.403114992276129 
1588	 0.403162137263902 
1589	 0.403206245361213 
1590	 0.403237520871821 
1591	 0.403232055398045 
1592	 0.40325304367918 
1593	 0.403286466805147 
1594	 0.403315162583056 
1595	 0.403349460972993 
1596	 0.403388942026983 
1597	 0.403434806271791 
1598	 0.40346805541278 
1599	 0.40350150312206 
1600	 0.403534754475102 
1601	 0.403543083006822 
1602	 0.403574273907128 
1603	 0.403623048402808 
1604	 0.403672035523042 
1605	 0.403752781300704 
1606	 0.403801058340276 
1607	 0.40383210896144 
1608	 0.40385924583414 
1609	 0.403868597265943 
1610	 0.403869215392944 
1611	 0.403870221558392 
1612	 0.403877791204392 
1613	 0.403900228697284 
1614	 0.403914319508 
1615	 0.403946982405541 
1616	 0.403985101023626 
1617	 0.404008111392003 
1618	 0.404040137080062 
1619	 0.404079992251076 
1620	 0.404126489270598 
1621	 0.404163648260596 
1622	 0.40421168091596 
1623	 0.404227615802521 
1624	 0.404219505058071 
1625	 0.404228053235553 
1626	 0.404226349435276 
1627	 0.404235282826423 
1628	 0.404255371906152 
1629	 0.404271211369155 
1630	 0.404281976273495 
1631	 0.404299680100403 
1632	 0.404328762343626 
1633	 0.404343057083432 
1634	 0.404343902461612 
1635	 0.404372528249546 
1636	 0.40440674112028 
1637	 0.404442412631368 
1638	 0.40449966347723 
1639	 0.404540407905467 
1640	 0.404569920410182 
1641	 0.404605242067202 
1642	 0.404644490756109 
1643	 0.404680825537843 
1644	 0.404712806454783 
1645	 0.404748899459616 
1646	 0.404781279779373 
1647	 0.404827658425908 
1648	 0.404882380364872 
1649	 0.404936888358861 
1650	 0.405005594471247 
1651	 0.405059734046324 
1652	 0.405110262922525 
1653	 0.405152405444363 
1654	 0.40519486290814 
1655	 0.405214635757977 
1656	 0.405215490792767 
1657	 0.405219646371267 
1658	 0.405208191877517 
1659	 0.405201119003584 
1660	 0.405196242708816 
1661	 0.405189037138694 
1662	 0.405168794904248 
1663	 0.405168189745307 
1664	 0.405178293038484 
1665	 0.405188537723773 
1666	 0.405218412981752 
1667	 0.405222831104087 
1668	 0.405216466122924 
1669	 0.405209320397935 
1670	 0.405189816723476 
1671	 0.405170536591375 
1672	 0.405138117082459 
1673	 0.40513416019031 
1674	 0.405127704823278 
1675	 0.405149825570704 
1676	 0.405214328713999 
1677	 0.405257200417075 
1678	 0.405308198302283 
1679	 0.405350059738276 
1680	 0.405391948328335 
1681	 0.405414824968471 
1682	 0.405420206486321 
1683	 0.405436451804402 
1684	 0.405433360517118 
1685	 0.405456650140779 
1686	 0.405500040828184 
1687	 0.405542310233059 
1688	 0.405608956992428 
1689	 0.405640195976779 
1690	 0.405654959171725 
1691	 0.405676671447321 
1692	 0.40568140821447 
1693	 0.405690278415485 
1694	 0.405711417098107 
1695	 0.405719410291126 
1696	 0.40570494959099 
1697	 0.405711052123882 
1698	 0.405725830836983 
1699	 0.405742110336699 
1700	 0.405773482156345 
1701	 0.405786123777479 
1702	 0.405795403616609 
1703	 0.40579510046533 
1704	 0.405779419786355 
1705	 0.405770309866598 
1706	 0.405743884708227 
1707	 0.405750021343555 
1708	 0.405790909363547 
1709	 0.40578866551543 
1710	 0.405788250985902 
1711	 0.4057743574653 
1712	 0.405704896685554 
1713	 0.405693116804468 
1714	 0.405716381928779 
1715	 0.405725802116367 
1716	 0.405741421131377 
1717	 0.405770252606833 
1718	 0.405818254256798 
1719	 0.405832452976722 
1720	 0.405854702137685 
1721	 0.405852318455174 
1722	 0.405801604594167 
1723	 0.405778753401115 
1724	 0.405766311084721 
1725	 0.405746322104574 
1726	 0.405724404786795 
1727	 0.405704393753019 
1728	 0.405693044723544 
1729	 0.405653777487491 
1730	 0.405592137143388 
1731	 0.40556164371117 
1732	 0.405541570754299 
1733	 0.405483981061123 
1734	 0.405434864892547 
1735	 0.405362208471132 
1736	 0.405224715719388 
1737	 0.405151496373865 
1738	 0.405107657758742 
1739	 0.405070099509781 
1740	 0.40506242712077 
1741	 0.405025137558644 
1742	 0.404998280297849 
1743	 0.404930467882857 
1744	 0.40482464928129 
1745	 0.404734754073333 
1746	 0.404611717799045 
1747	 0.404564844298939 
1748	 0.404551530653446 
1749	 0.404529085140252 
1750	 0.404514837901188 
1751	 0.404472840405678 
1752	 0.404409533683223 
1753	 0.404385115624708 
1754	 0.404350249284198 
1755	 0.404336755386754 
1756	 0.404335389447975 
1757	 0.404274794317319 
1758	 0.404246853186329 
1759	 0.404206195274534 
1760	 0.404113037733017 
1761	 0.404063861889096 
1762	 0.403996964709661 
1763	 0.40390695320513 
1764	 0.403866666094487 
1765	 0.403826579192075 
1766	 0.403810567451193 
1767	 0.403835390522854 
1768	 0.403837475990036 
1769	 0.403840499059472 
1770	 0.403830150930315 
1771	 0.403792626107395 
1772	 0.40374082811361 
1773	 0.403653944741964 
1774	 0.403596154806218 
1775	 0.403556057392163 
1776	 0.403495136361263 
1777	 0.40346766556696 
1778	 0.403459389590892 
1779	 0.403454155315 
1780	 0.403461746391084 
1781	 0.403480346036539 
1782	 0.403476334272527 
1783	 0.403421860211375 
1784	 0.403398437409031 
1785	 0.403379747022912 
1786	 0.403355372111839 
1787	 0.403339853378132 
1788	 0.403336441474178 
1789	 0.403332431804281 
1790	 0.403326668332184 
1791	 0.403326313119103 
1792	 0.403334535061218 
1793	 0.403355343840029 
1794	 0.403365143141811 
1795	 0.403397392749473 
1796	 0.403378080581303 
1797	 0.403297866937571 
1798	 0.40326054823643 
1799	 0.403215492835891 
1800	 0.403201054573387 
1801	 0.39862490057992 
1802	 0.398647794642343 
1803	 0.398650998134508 
1804	 0.398687939195024 
1805	 0.398723255821384 
1806	 0.398717460537993 
1807	 0.398721500322291 
1808	 0.398725410207335 
1809	 0.398734909513412 
1810	 0.398745974447254 
1811	 0.398757355906348 
1812	 0.398758594112482 
1813	 0.398788413634388 
1814	 0.398813398729592 
1815	 0.39883366621048 
1816	 0.398841162624595 
1817	 0.398847997590879 
1818	 0.398838495172365 
1819	 0.398848046551481 
1820	 0.398866913577646 
1821	 0.398881338964279 
1822	 0.398900063115642 
1823	 0.398889756361826 
1824	 0.398861239937491 
1825	 0.398833722495156 
1826	 0.39879423136366 
1827	 0.398740602056341 
1828	 0.398699107565389 
1829	 0.39865528588327 
1830	 0.398620219516377 
1831	 0.398597528428013 
1832	 0.398577578482946 
1833	 0.398517148821212 
1834	 0.398465171988083 
1835	 0.398398344914771 
1836	 0.398313021712699 
1837	 0.398245809837437 
1838	 0.398181665378056 
1839	 0.398143898199482 
1840	 0.398123825743527 
1841	 0.398107634176086 
1842	 0.398094515809478 
1843	 0.398080714253791 
1844	 0.398034806302895 
1845	 0.397968734133709 
1846	 0.397908869634511 
1847	 0.397868148559773 
1848	 0.3978058032398 
1849	 0.397758395350785 
1850	 0.397729992646639 
1851	 0.397723891400787 
1852	 0.397697061257513 
1853	 0.397698169856688 
1854	 0.397686388925725 
1855	 0.397661081642633 
1856	 0.397634617036421 
1857	 0.397562345071303 
1858	 0.397473251126073 
1859	 0.397343473452365 
1860	 0.397215790216873 
1861	 0.397064109683466 
1862	 0.396926088291561 
1863	 0.396768400640072 
1864	 0.396601737197274 
1865	 0.396412354247491 
1866	 0.39618376505195 
1867	 0.395932194118085 
1868	 0.395686644450071 
1869	 0.395415596679116 
1870	 0.395116328280101 
1871	 0.394809338062515 
1872	 0.394503912231616 
1873	 0.394164824327949 
1874	 0.393781035483769 
1875	 0.393374459433853 
1876	 0.392908678363865 
1877	 0.392398064207545 
1878	 0.391844421163634 
1879	 0.391234649136994 
1880	 0.390568835534966 
1881	 0.389834239016699 
1882	 0.38906190200629 
1883	 0.388251810476964 
1884	 0.387364475183478 
1885	 0.386420338850086 
1886	 0.385463309602024 
1887	 0.384411629403032 
1888	 0.383322149566595 
1889	 0.382215816029493 
1890	 0.381056632668101 
1891	 0.379861553712135 
1892	 0.378600939626062 
1893	 0.37735380449722 
1894	 0.376079672883994 
1895	 0.37478599080099 
1896	 0.373499446688264 
1897	 0.372237950193204 
1898	 0.370940754747455 
1899	 0.369668417496859 
1900	 0.368427764789113 
1901	 0.367221217611353 
1902	 0.36608869266746 
1903	 0.365022397078856 
1904	 0.363995170109415 
1905	 0.363014727477896 
1906	 0.362122616900903 
1907	 0.361238515107725 
1908	 0.360418980733986 
1909	 0.359670247267776 
1910	 0.358932021293406 
1911	 0.358259815438236 
1912	 0.357632243776965 
1913	 0.357038582348367 
1914	 0.356482567725859 
1915	 0.355963194819507 
1916	 0.355480374299607 
1917	 0.355041676204357 
1918	 0.354624274951268 
1919	 0.354243567305935 
1920	 0.353897997948933 
1921	 0.353563700173926 
1922	 0.353274109894771 
1923	 0.353034694851183 
1924	 0.352818015485732 
1925	 0.352639438657982 
1926	 0.35248696635173 
1927	 0.352370791168272 
1928	 0.352259222434843 
1929	 0.35218669492698 
1930	 0.352151816067718 
1931	 0.352127116564525 
1932	 0.352117226932908 
1933	 0.352110232402111 
1934	 0.352105317442656 
1935	 0.352141585327554 
1936	 0.352205982716424 
1937	 0.35228691578603 
1938	 0.352400419689542 
1939	 0.352522740138192 
1940	 0.352656863298265 
1941	 0.352802397601674 
1942	 0.352972280433397 
1943	 0.353192077117533 
1944	 0.353410645918779 
1945	 0.353638978092248 
1946	 0.35387712685451 
1947	 0.354119437048464 
1948	 0.354373995560066 
1949	 0.354651099459078 
1950	 0.354925614637342 
1951	 0.35521739703657 
1952	 0.355485856899956 
1953	 0.355759073488087 
1954	 0.35603869988901 
1955	 0.356313980794631 
1956	 0.356596577725222 
1957	 0.356885230632323 
1958	 0.357177061985526 
1959	 0.357480388992765 
1960	 0.357792800543957 
1961	 0.358113772572681 
1962	 0.358444774185865 
1963	 0.358785134732149 
1964	 0.359135524175367 
1965	 0.359484294749166 
1966	 0.359848923208518 
1967	 0.36022087932948 
1968	 0.360600739962498 
1969	 0.360993692556679 
1970	 0.361375156387088 
1971	 0.361768598584442 
1972	 0.362149800760811 
1973	 0.362509850114897 
1974	 0.362887951627708 
1975	 0.363282803525099 
1976	 0.363654808591226 
1977	 0.364043213532104 
1978	 0.364411709775935 
1979	 0.364754052756236 
1980	 0.365133911757799 
1981	 0.365503219932033 
1982	 0.365866774726421 
1983	 0.366240871539638 
1984	 0.366626941924022 
1985	 0.367004240072115 
1986	 0.367373360919127 
1987	 0.367761702670743 
1988	 0.368162902231549 
1989	 0.368557462673168 
1990	 0.368967665738659 
1991	 0.36936199047487 
1992	 0.369760327481456 
1993	 0.370161788108713 
1994	 0.370545249724526 
1995	 0.370919196241982 
1996	 0.371299659406979 
1997	 0.371659105829764 
1998	 0.372035701552096 
1999	 0.372438043526358 
2000	 0.37282347184353 
2001	 0.373203902573263 
2002	 0.373575857430224 
2003	 0.373977760109045 
2004	 0.374350972782946 
2005	 0.374729873347368 
2006	 0.375128657893219 
2007	 0.375499671213792 
2008	 0.37583667098065 
2009	 0.376198750746061 
2010	 0.37656616936851 
2011	 0.376923824829118 
2012	 0.377298094984995 
2013	 0.377650670255709 
2014	 0.377977287496717 
2015	 0.378312419385778 
2016	 0.378641570046923 
2017	 0.378975558847813 
2018	 0.379316119515054 
2019	 0.379667480423197 
2020	 0.380010651420933 
2021	 0.380347637393443 
2022	 0.380697094419776 
2023	 0.381059061994034 
2024	 0.381413064372352 
2025	 0.381780494173713 
2026	 0.382130236117989 
2027	 0.382493084714175 
2028	 0.38279509368987 
2029	 0.383101387244261 
2030	 0.383397316969396 
2031	 0.3836756295856 
2032	 0.38392500379565 
2033	 0.384189330624535 
2034	 0.384431886665734 
2035	 0.38470800360413 
2036	 0.385008255061113 
2037	 0.385293423347356 
2038	 0.385611593833179 
2039	 0.385887496902754 
2040	 0.386133826694275 
2041	 0.38637397326573 
2042	 0.386595689992019 
2043	 0.386814237014947 
2044	 0.387047345889004 
2045	 0.387283327579459 
2046	 0.387527673630406 
2047	 0.387796126752258 
2048	 0.388032678148144 
2049	 0.388268541824412 
2050	 0.388488318394525 
2051	 0.388669261835407 
2052	 0.388874445371506 
2053	 0.389081697894841 
2054	 0.389292158622254 
2055	 0.38951178200532 
2056	 0.389737167987763 
2057	 0.389952191448289 
2058	 0.390172584703717 
2059	 0.39036925172499 
2060	 0.390549679102968 
2061	 0.390733330274731 
2062	 0.390890059929545 
2063	 0.391076932281695 
2064	 0.391284958862999 
2065	 0.391481298860432 
2066	 0.39169444725655 
2067	 0.391889613420704 
2068	 0.392066654101872 
2069	 0.392240948402203 
2070	 0.392431788084786 
2071	 0.39262454231056 
2072	 0.39281748351516 
2073	 0.393030754926886 
2074	 0.39321656609649 
2075	 0.393376309695493 
2076	 0.393561654904717 
2077	 0.39373925938726 
2078	 0.393936937710218 
2079	 0.394170845703325 
2080	 0.394381344602902 
2081	 0.394602743836348 
2082	 0.394798573291052 
2083	 0.394983584406394 
2084	 0.395135981179686 
2085	 0.3953047588127 
2086	 0.395461610461624 
2087	 0.395623655036527 
2088	 0.395784670050145 
2089	 0.395958989180567 
2090	 0.396136573507418 
2091	 0.396311361912958 
2092	 0.396499299585493 
2093	 0.396680936044563 
2094	 0.396849777766557 
2095	 0.3970280982446 
2096	 0.397228430212794 
2097	 0.397405247876953 
2098	 0.397571433015125 
2099	 0.39774005046818 
2100	 0.397880007220982 
2101	 0.397985791550463 
2102	 0.398121197108113 
2103	 0.398235899786892 
2104	 0.398395727302052 
2105	 0.398587802257364 
2106	 0.398779188222296 
2107	 0.398982045521542 
2108	 0.39920321658973 
2109	 0.399436791163826 
2110	 0.399682925293482 
2111	 0.39998442177604 
2112	 0.400238162237194 
2113	 0.400487566870377 
2114	 0.400703510734869 
2115	 0.400926254484667 
2116	 0.401122369282984 
2117	 0.401324646972231 
2118	 0.401525114514023 
2119	 0.401738670508209 
2120	 0.401939486591359 
2121	 0.402161373869418 
2122	 0.40242514152281 
2123	 0.402647431086271 
2124	 0.402871056845281 
2125	 0.403063542081619 
2126	 0.40323819059813 
2127	 0.403383553404561 
2128	 0.403489521214179 
2129	 0.403593759649722 
2130	 0.403671197700711 
2131	 0.40375079421072 
2132	 0.403808578762435 
2133	 0.403857072457015 
2134	 0.403894379082084 
2135	 0.403908853425911 
2136	 0.403923594357872 
2137	 0.403939588655941 
2138	 0.403936859747942 
2139	 0.403936721882336 
2140	 0.403893289792035 
2141	 0.403810625156011 
2142	 0.403734136188814 
2143	 0.403621670669234 
2144	 0.403521493921089 
2145	 0.403438906128509 
2146	 0.403339345948843 
2147	 0.403247326422068 
2148	 0.403123472991279 
2149	 0.402968192172397 
2150	 0.4027930251183 
2151	 0.402591374297797 
2152	 0.402344208215085 
2153	 0.402100825247324 
2154	 0.401834926925098 
2155	 0.401581600302375 
2156	 0.40132647144789 
2157	 0.401060441716581 
2158	 0.400813667397436 
2159	 0.400521259164329 
2160	 0.400187432135107 
2161	 0.399859433030158 
2162	 0.399489844554275 
2163	 0.399154584325373 
2164	 0.398844284572504 
2165	 0.398519577757682 
2166	 0.398208808203641 
2167	 0.397919476357825 
2168	 0.39760693698983 
2169	 0.397291899640084 
2170	 0.396966508370377 
2171	 0.396650083360735 
2172	 0.396284367353662 
2173	 0.395868692831614 
2174	 0.395489115458496 
2175	 0.395105110577939 
2176	 0.394703560578299 
2177	 0.394305686906286 
2178	 0.393913863364026 
2179	 0.393466888207681 
2180	 0.393077661702322 
2181	 0.392761688795856 
2182	 0.392413889241335 
2183	 0.392064947391003 
2184	 0.391734022216588 
2185	 0.3913738852785 
2186	 0.39098081557139 
2187	 0.390615307171177 
2188	 0.390246722406241 
2189	 0.389896086933918 
2190	 0.389555238849212 
2191	 0.389226293790472 
2192	 0.388911582051748 
2193	 0.388601009337177 
2194	 0.388281312351042 
2195	 0.388007569132873 
2196	 0.387761189755508 
2197	 0.387522857580816 
2198	 0.387326621426445 
2199	 0.38712638629833 
2200	 0.386904179451159 
2201	 0.386727725268362 
2202	 0.386587591431348 
2203	 0.386449894927404 
2204	 0.386344313612482 
2205	 0.386273740717944 
2206	 0.386215310650118 
2207	 0.38616315980161 
2208	 0.38616096380825 
2209	 0.386204363458497 
2210	 0.386246930808883 
2211	 0.386321558343766 
2212	 0.386398901467785 
2213	 0.386486243592213 
2214	 0.386578636355761 
2215	 0.386706840943214 
2216	 0.386803612448886 
2217	 0.386885658285776 
2218	 0.386967594696189 
2219	 0.387038591335967 
2220	 0.387104943274078 
2221	 0.387158774056761 
2222	 0.3872310313854 
2223	 0.387297891972577 
2224	 0.387337711801632 
2225	 0.387378238750115 
2226	 0.387434284459422 
2227	 0.387420154641235 
2228	 0.387360247602895 
2229	 0.387319233262931 
2230	 0.387231695699526 
2231	 0.387181960582687 
2232	 0.387178252405595 
2233	 0.387120026405132 
2234	 0.387024452843695 
2235	 0.386958053469426 
2236	 0.386869127599349 
2237	 0.386810838589318 
2238	 0.386790424958416 
2239	 0.386759408259225 
2240	 0.386744767827967 
2241	 0.386705938592194 
2242	 0.386660668449203 
2243	 0.386606244843395 
2244	 0.38653214889068 
2245	 0.386458978525289 
2246	 0.386365411778385 
2247	 0.386294541295612 
2248	 0.386212729186309 
2249	 0.386122623635798 
2250	 0.386031406647592 
2251	 0.385943032618439 
2252	 0.385854436044053 
2253	 0.385749437687858 
2254	 0.385676756110634 
2255	 0.385622560224769 
2256	 0.385563424000069 
2257	 0.385503805662461 
2258	 0.385477632544578 
2259	 0.385474814962144 
2260	 0.385458590715708 
2261	 0.385446874112182 
2262	 0.385465164400523 
2263	 0.385469236804657 
2264	 0.385516477775862 
2265	 0.385638313845086 
2266	 0.385731923623686 
2267	 0.385839200749136 
2268	 0.385931479536554 
2269	 0.386012813992535 
2270	 0.386082991770569 
2271	 0.386176615069622 
2272	 0.38625372326891 
2273	 0.386321405411097 
2274	 0.386392518315136 
2275	 0.386440416216726 
2276	 0.386444137331706 
2277	 0.386504385754084 
2278	 0.386595324927919 
2279	 0.386641474415805 
2280	 0.38668957578849 
2281	 0.386734458364061 
2282	 0.386733139528707 
2283	 0.386780182708127 
2284	 0.386860868678262 
2285	 0.38694228882097 
2286	 0.387048292912322 
2287	 0.387126249229863 
2288	 0.387220892139664 
2289	 0.387273584571127 
2290	 0.387269816692932 
2291	 0.38730088933276 
2292	 0.38731327570735 
2293	 0.387352842763351 
2294	 0.387422988810574 
2295	 0.387492793285282 
2296	 0.387554911423095 
2297	 0.387665609665563 
2298	 0.387763741386403 
2299	 0.387863328687237 
2300	 0.387972964584091 
2301	 0.388032049240125 
2302	 0.388144617601016 
2303	 0.38825331835103 
2304	 0.388314220683601 
2305	 0.388406939137077 
2306	 0.388448304087284 
2307	 0.388414850639417 
2308	 0.388446152373982 
2309	 0.388498490167998 
2310	 0.388534400339638 
2311	 0.3885877063235 
2312	 0.388629390876693 
2313	 0.388655258227314 
2314	 0.38867220866283 
2315	 0.388682877478976 
2316	 0.388702514454489 
2317	 0.388705647865319 
2318	 0.388735455205906 
2319	 0.388777503944622 
2320	 0.388837142378389 
2321	 0.388914354812928 
2322	 0.388987373288664 
2323	 0.38909274068562 
2324	 0.389180232891087 
2325	 0.389277810045815 
2326	 0.389334428519028 
2327	 0.389364435029704 
2328	 0.389377621014758 
2329	 0.389383235590224 
2330	 0.389393234328446 
2331	 0.389451785213035 
2332	 0.389551842145964 
2333	 0.389585375024602 
2334	 0.389595398661002 
2335	 0.389622288712456 
2336	 0.389601290583324 
2337	 0.389602164672246 
2338	 0.389641133416257 
2339	 0.389645725258917 
2340	 0.389663699879758 
2341	 0.389704931536219 
2342	 0.389699739361914 
2343	 0.389628804608844 
2344	 0.389506869101563 
2345	 0.389408877381022 
2346	 0.389260260279234 
2347	 0.389155193544182 
2348	 0.389070152124124 
2349	 0.389025199744144 
2350	 0.389018642560219 
2351	 0.388979112033981 
2352	 0.38901343587125 
2353	 0.388914594961916 
2354	 0.38866374214756 
2355	 0.388524290045753 
2356	 0.388393935284419 
2357	 0.388271191936624 
2358	 0.388220637981684 
2359	 0.388131436138902 
2360	 0.387994843176786 
2361	 0.387858784447227 
2362	 0.387718392763174 
2363	 0.387592605527961 
2364	 0.387477429916301 
2365	 0.387346546043697 
2366	 0.387209583304235 
2367	 0.387079603288166 
2368	 0.386947402547025 
2369	 0.386808287816846 
2370	 0.38668857783316 
2371	 0.386545298018592 
2372	 0.386360618928883 
2373	 0.386103613504838 
2374	 0.38587470523474 
2375	 0.385692862922447 
2376	 0.385476503031707 
2377	 0.385266638972536 
2378	 0.385024594617604 
2379	 0.384726543744972 
2380	 0.384442986566111 
2381	 0.384140959392274 
2382	 0.383896628527439 
2383	 0.383729670865257 
2384	 0.383587120602123 
2385	 0.383474034069751 
2386	 0.383269398089317 
2387	 0.383004673504768 
2388	 0.382746987879039 
2389	 0.382495972929103 
2390	 0.382285924541278 
2391	 0.382159247028643 
2392	 0.382057097280071 
2393	 0.381881236098446 
2394	 0.38171116742425 
2395	 0.381393263326431 
2396	 0.380940613052511 
2397	 0.380580003797363 
2398	 0.380219762163996 
2399	 0.379841367876714 
2400	 0.379585735660597 
2401	 0.379354790944691 
2402	 0.379074093839709 
2403	 0.378902880380365 
2404	 0.378740834103035 
2405	 0.378525139394045 
2406	 0.378254468450101 
2407	 0.377951843051411 
2408	 0.377667341220226 
2409	 0.377346066218785 
2410	 0.377074976445232 
2411	 0.376781351920478 
2412	 0.376507654986028 
2413	 0.376249266827416 
2414	 0.375879703549696 
2415	 0.375526886148223 
2416	 0.375147562603714 
2417	 0.374642596362082 
2418	 0.374247705897315 
2419	 0.373890124572762 
2420	 0.373633072851108 
2421	 0.373478109120861 
2422	 0.373223078738279 
2423	 0.373031281670061 
2424	 0.372747509411804 
2425	 0.372352428118762 
2426	 0.371986019126263 
2427	 0.371612679819707 
2428	 0.371281798603469 
2429	 0.370893612586405 
2430	 0.370659141362202 
2431	 0.370589449392916 
2432	 0.370345423979631 
2433	 0.370162797480909 
2434	 0.369866932392265 
2435	 0.369333366478986 
2436	 0.36894373581029 
2437	 0.368614382468609 
2438	 0.368218525119488 
2439	 0.367785920868465 
2440	 0.367482724944486 
2441	 0.367184217507179 
2442	 0.366925167085776 
2443	 0.366888841829119 
2444	 0.366716669026021 
2445	 0.366409922285833 
2446	 0.366237609633624 
2447	 0.366103930107691 
2448	 0.365859297112392 
2449	 0.365677976870335 
2450	 0.365376285277227 
2451	 0.364879535448572 
2452	 0.364512137102307 
2453	 0.364201275170671 
2454	 0.36387320633795 
2455	 0.36354395596115 
2456	 0.363247730487646 
2457	 0.362969159736179 
2458	 0.362673301393554 
2459	 0.362417504549182 
2460	 0.362130705973585 
2461	 0.361804546571696 
2462	 0.361507530637905 
2463	 0.361129120501409 
2464	 0.360891027930404 
2465	 0.360818198187166 
2466	 0.360584689272024 
2467	 0.360403016262965 
2468	 0.360192172688018 
2469	 0.359829400238797 
2470	 0.359533586326754 
2471	 0.359183051985105 
2472	 0.358760653239805 
2473	 0.358322745793069 
2474	 0.358067683780643 
2475	 0.357935560466016 
2476	 0.357738983279101 
2477	 0.357598917118357 
2478	 0.357252160523856 
2479	 0.356890894038465 
2480	 0.356720790064785 
2481	 0.356512581147626 
2482	 0.356421408330124 
2483	 0.356352214334167 
2484	 0.3560799074593 
2485	 0.355646621810892 
2486	 0.355211455417295 
2487	 0.354966749117624 
2488	 0.354669124306428 
2489	 0.354410565529181 
2490	 0.354374050241387 
2491	 0.354120558283839 
2492	 0.354022895711648 
2493	 0.354032375768899 
2494	 0.353783635448437 
2495	 0.353521196510898 
2496	 0.353218713234747 
2497	 0.352947750852093 
2498	 0.352706367119231 
2499	 0.352601599845701 
2500	 0.352485820499898 
