Wavelength	LMW200015.asd
350	 6.64338848268069E-02 
351	 6.60027316897137E-02 
352	 6.62567828096271E-02 
353	 0.065858429583308 
354	 7.49181046574067E-02 
355	 7.21925123719832E-02 
356	 6.67870439189333E-02 
357	 7.00614130502151E-02 
358	 7.05819242899792E-02 
359	 6.51906617072703E-02 
360	 6.05252274207983E-02 
361	 6.70345491334323E-02 
362	 6.51733851213632E-02 
363	 6.23232120821848E-02 
364	 6.32621143628766E-02 
365	 6.35387949770914E-02 
366	 6.44472373298676E-02 
367	 6.49137967159654E-02 
368	 6.44804683263637E-02 
369	 6.75784755729486E-02 
370	 6.89721347675662E-02 
371	 6.77790634014394E-02 
372	 6.64587178939603E-02 
373	 6.69720270638761E-02 
374	 6.84697390980209E-02 
375	 7.00622803721931E-02 
376	 7.17485647288435E-02 
377	 7.10014602242766E-02 
378	 7.03249629253574E-02 
379	 7.20821308474081E-02 
380	 7.11316827372274E-02 
381	 7.03075515921109E-02 
382	 7.10401274498413E-02 
383	 7.32135710321044E-02 
384	 0.074384101370583 
385	 7.33888554945254E-02 
386	 0.071904473193821 
387	 7.67877071699551E-02 
388	 7.98628518856542E-02 
389	 7.95545896189359E-02 
390	 7.74159488577585E-02 
391	 7.79344079637271E-02 
392	 0.079018792240994 
393	 0.079754105155178 
394	 8.05507398818613E-02 
395	 8.21240630678322E-02 
396	 8.32701740847936E-02 
397	 8.34193737632913E-02 
398	 0.083965802212433 
399	 8.50371824530728E-02 
400	 8.62257074195142E-02 
401	 8.70513885687362E-02 
402	 8.81633880480138E-02 
403	 8.86712196179716E-02 
404	 8.87225802094804E-02 
405	 8.95306274899326E-02 
406	 9.04435645562154E-02 
407	 9.16383579257965E-02 
408	 9.29324360229288E-02 
409	 9.27696878887176E-02 
410	 9.28288725591592E-02 
411	 9.32914209390368E-02 
412	 9.36890288457438E-02 
413	 9.44950527510291E-02 
414	 9.52321784519193E-02 
415	 0.09550976386289 
416	 9.51070465473001E-02 
417	 0.095844684751713 
418	 9.68029985700342E-02 
419	 9.69393528060207E-02 
420	 9.72734849998539E-02 
421	 9.71712148651902E-02 
422	 9.71190895971095E-02 
423	 9.80834577751567E-02 
424	 9.79253748646956E-02 
425	 9.69763423522377E-02 
426	 9.61328530581359E-02 
427	 0.096788039457868 
428	 9.68265248294252E-02 
429	 9.63977187666103E-02 
430	 9.62566665010167E-02 
431	 9.61877925436316E-02 
432	 0.096005203057993 
433	 9.56751845675156E-02 
434	 9.53260149838085E-02 
435	 0.095832649116789 
436	 9.62697330969343E-02 
437	 9.59411929729124E-02 
438	 9.55706112336436E-02 
439	 9.58833666332689E-02 
440	 9.64244511651726E-02 
441	 9.63238627900392E-02 
442	 9.67487283554768E-02 
443	 9.74188395553323E-02 
444	 9.79353563878841E-02 
445	 9.79195069653142E-02 
446	 9.82333404265476E-02 
447	 9.88022965624531E-02 
448	 9.93116892378692E-02 
449	 9.97180961455645E-02 
450	 0.10019333230303 
451	 0.10072846827632 
452	 0.101160170400855 
453	 0.101521533013596 
454	 0.101892502972023 
455	 0.102296225519491 
456	 0.102592403669475 
457	 0.102876281571148 
458	 0.103197774954084 
459	 0.103558468744514 
460	 0.103787754950439 
461	 0.103900625234586 
462	 0.104012759821557 
463	 0.104355684480817 
464	 0.104508221944657 
465	 0.104648229413717 
466	 0.104975990146074 
467	 0.105065490914844 
468	 0.105235599650785 
469	 0.105437878243945 
470	 0.105352897630743 
471	 0.105463872572571 
472	 0.105665696541438 
473	 0.105794110484831 
474	 0.105769001641631 
475	 0.10584545021249 
476	 0.106048852008882 
477	 0.106260556019513 
478	 0.106150169103981 
479	 0.106242197668349 
480	 0.10660818822363 
481	 0.106597771037916 
482	 0.106723215089593 
483	 0.106970352283584 
484	 0.107184267769521 
485	 0.107260745601304 
486	 0.107298544935434 
487	 0.107311667065657 
488	 0.107250683616554 
489	 0.107294767445421 
490	 0.107473321898463 
491	 0.107718377446607 
492	 0.10780360820891 
493	 0.107862811576767 
494	 0.107949189795509 
495	 0.108085474627784 
496	 0.108379101113379 
497	 0.108421422562414 
498	 0.108239426950808 
499	 0.108575127628172 
500	 0.108722319115221 
501	 0.108709405035091 
502	 0.108748670654834 
503	 0.108845093702275 
504	 0.108975612337248 
505	 0.109098552606045 
506	 0.109162566111039 
507	 0.10922143503299 
508	 0.109302562314567 
509	 0.109413455578336 
510	 0.109532426079591 
511	 0.109624964076689 
512	 0.10967397746589 
513	 0.109681814760135 
514	 0.109689343150325 
515	 0.109826728634407 
516	 0.110086896167489 
517	 0.110229612380962 
518	 0.11028489751393 
519	 0.110294459072224 
520	 0.110315963127876 
521	 0.110410782045476 
522	 0.110539669025531 
523	 0.110662137673414 
524	 0.110745022937076 
525	 0.110805455193688 
526	 0.110845147645271 
527	 0.110887114317473 
528	 0.111032954541055 
529	 0.111192330514334 
530	 0.111311181184189 
531	 0.111374637504756 
532	 0.111514904963825 
533	 0.111667218823783 
534	 0.111777628113782 
535	 0.111872529357092 
536	 0.111960345454768 
537	 0.112088054034757 
538	 0.112283492939877 
539	 0.112350782354518 
540	 0.112452783888838 
541	 0.112641577013449 
542	 0.112784738773756 
543	 0.113001349957629 
544	 0.113218384672693 
545	 0.113356827618342 
546	 0.113531106009701 
547	 0.1136724463622 
548	 0.113804522075874 
549	 0.114027634232912 
550	 0.114299606283937 
551	 0.11453551742935 
552	 0.114728426001272 
553	 0.115102738475561 
554	 0.115442183377681 
555	 0.115715280008236 
556	 0.115994127515814 
557	 0.116337143889056 
558	 0.116702113554389 
559	 0.117063974458636 
560	 0.117450734897833 
561	 0.117845293874909 
562	 0.118257737389075 
563	 0.118711494465427 
564	 0.119259842055844 
565	 0.119759018028589 
566	 0.120232731430842 
567	 0.120898746407453 
568	 0.121549347013091 
569	 0.122183290837187 
570	 0.122851272648274 
571	 0.123616739334506 
572	 0.124338207077509 
573	 0.125041223564508 
574	 0.125853926071563 
575	 0.126591044233456 
576	 0.127337838517759 
577	 0.128167475728745 
578	 0.129037900622308 
579	 0.129926073606269 
580	 0.130868529066413 
581	 0.131914395029709 
582	 0.132997676102655 
583	 0.134055898627559 
584	 0.135080848634252 
585	 0.136144987573904 
586	 0.1371412622172 
587	 0.138136511865652 
588	 0.139207941370757 
589	 0.140241107470196 
590	 0.141339916767249 
591	 0.142486493250774 
592	 0.143555808537663 
593	 0.144640646051972 
594	 0.145719944310799 
595	 0.146785817584028 
596	 0.147929528687751 
597	 0.149111641694571 
598	 0.150271539787979 
599	 0.151347115305761 
600	 0.152345854391459 
601	 0.153332998723839 
602	 0.154322985301792 
603	 0.155227958234253 
604	 0.156156767553129 
605	 0.157053529919506 
606	 0.157842962946902 
607	 0.158677027336914 
608	 0.159504692292125 
609	 0.160302083128693 
610	 0.161091089430821 
611	 0.161839415015455 
612	 0.16254656690403 
613	 0.163219624093643 
614	 0.163873507832476 
615	 0.164484501235149 
616	 0.16504224530611 
617	 0.165549797524215 
618	 0.166076799885566 
619	 0.166556423624751 
620	 0.166961057742081 
621	 0.167389512233014 
622	 0.167798629539935 
623	 0.16816863986649 
624	 0.168506229817701 
625	 0.168938614394407 
626	 0.169349740894272 
627	 0.169685309672999 
628	 0.169996715277527 
629	 0.17040948253637 
630	 0.170795259445846 
631	 0.17103424171752 
632	 0.171333767634085 
633	 0.171618229806535 
634	 0.171892973807203 
635	 0.172227369281677 
636	 0.172546355662807 
637	 0.172850720220365 
638	 0.173146550999667 
639	 0.173411814415113 
640	 0.173711017938665 
641	 0.17405168579735 
642	 0.174402358137402 
643	 0.1746762175826 
644	 0.174966054905885 
645	 0.175314642020587 
646	 0.175668065466699 
647	 0.175994540257041 
648	 0.176294585755788 
649	 0.176596334966595 
650	 0.176987520984894 
651	 0.177362979174287 
652	 0.177698219108582 
653	 0.178043854892126 
654	 0.178393723281195 
655	 0.178745658034351 
656	 0.179100349042997 
657	 0.179457580906011 
658	 0.179889100112246 
659	 0.180332741639401 
660	 0.180685035212688 
661	 0.181079517823499 
662	 0.181499050323868 
663	 0.181949586891654 
664	 0.182496492893128 
665	 0.182915002155342 
666	 0.183308930454413 
667	 0.183815631963543 
668	 0.184271966256336 
669	 0.184771140551005 
670	 0.185294144395247 
671	 0.185734857333556 
672	 0.186259746421409 
673	 0.186860353447874 
674	 0.187467039930474 
675	 0.187930248500883 
676	 0.188461211140515 
677	 0.189044922269533 
678	 0.189589055436226 
679	 0.190218724657476 
680	 0.190854393234705 
681	 0.191456646917083 
682	 0.192061991561603 
683	 0.192698609007422 
684	 0.19334528449029 
685	 0.1939823573236 
686	 0.194648027110859 
687	 0.195346876013765 
688	 0.19604261203324 
689	 0.196682556824596 
690	 0.197379035418565 
691	 0.198094302884713 
692	 0.198793156452207 
693	 0.199490543303514 
694	 0.200201747021543 
695	 0.200934172237045 
696	 0.201686032885742 
697	 0.202424768953481 
698	 0.203172037949548 
699	 0.203940183357584 
700	 0.204726086419184 
701	 0.205502772092306 
702	 0.206255982693121 
703	 0.206993256469815 
704	 0.207778609190621 
705	 0.208500812047256 
706	 0.209223734712913 
707	 0.210069609513593 
708	 0.210832671878689 
709	 0.211559865946983 
710	 0.212304538173857 
711	 0.213090484195183 
712	 0.213865906795409 
713	 0.214616922427639 
714	 0.215353609329523 
715	 0.216130241665411 
716	 0.216869630262513 
717	 0.217569287507147 
718	 0.218277428231219 
719	 0.218934057693316 
720	 0.21960350564384 
721	 0.220298363948006 
722	 0.220894954516914 
723	 0.221507880078391 
724	 0.222146636863811 
725	 0.222778220647 
726	 0.223355564949177 
727	 0.223889769453906 
728	 0.224393257889017 
729	 0.22487628651826 
730	 0.225369239400003 
731	 0.225857753911733 
732	 0.226307968638667 
733	 0.226656115780689 
734	 0.227009838813941 
735	 0.227351285410417 
736	 0.227626411635395 
737	 0.227908418233342 
738	 0.228173762392769 
739	 0.228400569852136 
740	 0.228577955573711 
741	 0.228737171383485 
742	 0.228875162996103 
743	 0.22898106276695 
744	 0.229043278973121 
745	 0.229085793829804 
746	 0.229109878914115 
747	 0.229100973596257 
748	 0.229016546768624 
749	 0.228950402056887 
750	 0.228889089363265 
751	 0.228681180849426 
752	 0.228540723692005 
753	 0.228414851358277 
754	 0.228218575861365 
755	 0.227956071997986 
756	 0.22773962308247 
757	 0.227511837844248 
758	 0.227158274379579 
759	 0.226854926572762 
760	 0.226534453116352 
761	 0.226163316962498 
762	 0.22577852884138 
763	 0.225429258267737 
764	 0.225070442868544 
765	 0.224665763029568 
766	 0.224278800751112 
767	 0.223853826151953 
768	 0.223376794073123 
769	 0.222871131023119 
770	 0.222452756940617 
771	 0.222028512543296 
772	 0.221553751770025 
773	 0.221066243919383 
774	 0.220589972091828 
775	 0.220091174193239 
776	 0.219556135573873 
777	 0.219064729034367 
778	 0.218572217707668 
779	 0.21806445727164 
780	 0.217543156173407 
781	 0.217016503302868 
782	 0.216512552549825 
783	 0.21601623725868 
784	 0.215473170315834 
785	 0.214995998358357 
786	 0.21452046230918 
787	 0.21399371002785 
788	 0.213466814880065 
789	 0.212980713148785 
790	 0.212492033598558 
791	 0.211950789407316 
792	 0.211464196807368 
793	 0.21099850474162 
794	 0.210518752783167 
795	 0.210004733275133 
796	 0.209542207316071 
797	 0.209086536516948 
798	 0.208605139539689 
799	 0.208124925565905 
800	 0.207672386765644 
801	 0.207242746428991 
802	 0.20681318087847 
803	 0.206335631494302 
804	 0.205896489114001 
805	 0.205490168266488 
806	 0.205062839809753 
807	 0.204697196289991 
808	 0.204299739131482 
809	 0.203837697806117 
810	 0.203380155421605 
811	 0.203040551978856 
812	 0.202747789701445 
813	 0.202415160751929 
814	 0.202046680076573 
815	 0.201644390788587 
816	 0.201230115326093 
817	 0.200842736370331 
818	 0.200554981382083 
819	 0.200291875484551 
820	 0.199994355838866 
821	 0.199638293928051 
822	 0.199323808447908 
823	 0.199068612737124 
824	 0.19882813384462 
825	 0.198482574990127 
826	 0.198174523532508 
827	 0.197938765113618 
828	 0.197742505911561 
829	 0.197445751384167 
830	 0.197145801944774 
831	 0.196871034973088 
832	 0.196628797123669 
833	 0.196525625775213 
834	 0.196423717586807 
835	 0.196240587603986 
836	 0.195976836778484 
837	 0.195734151549147 
838	 0.195547189647169 
839	 0.195401530712944 
840	 0.195224048555185 
841	 0.195115011164026 
842	 0.194974103541041 
843	 0.194735422724024 
844	 0.194607904990361 
845	 0.19455710715329 
846	 0.19448026853974 
847	 0.194290949460436 
848	 0.194190290513424 
849	 0.194107409186912 
850	 0.194027880634009 
851	 0.193990484573539 
852	 0.193912910180263 
853	 0.193865860899218 
854	 0.193857627296333 
855	 0.193778933190382 
856	 0.193727770654835 
857	 0.193690391998473 
858	 0.193643940246689 
859	 0.193609694492128 
860	 0.193583888377408 
861	 0.193590371889722 
862	 0.19363841238254 
863	 0.193638031744447 
864	 0.193662310207212 
865	 0.193704879737776 
866	 0.193715420289448 
867	 0.193716987586175 
868	 0.193804553531044 
869	 0.193933101541089 
870	 0.193929435570525 
871	 0.193935808555792 
872	 0.194026284097782 
873	 0.194187557495455 
874	 0.194290338932019 
875	 0.194423047975774 
876	 0.19453851488682 
877	 0.194603930709577 
878	 0.194701336721548 
879	 0.19486645875199 
880	 0.195005359418339 
881	 0.195054279656787 
882	 0.195272958725209 
883	 0.195526022961032 
884	 0.195683569649896 
885	 0.195698290164332 
886	 0.195923184429827 
887	 0.196215536500742 
888	 0.196438681093031 
889	 0.196536587396482 
890	 0.196812238396186 
891	 0.197144278754525 
892	 0.197418088767145 
893	 0.197609256105545 
894	 0.19774583826522 
895	 0.197975417135935 
896	 0.198352591598922 
897	 0.198733298213 
898	 0.198986020678442 
899	 0.199224290272848 
900	 0.199543561507578 
901	 0.199792869823666 
902	 0.200068343252296 
903	 0.20040232973982 
904	 0.200792059869675 
905	 0.201202907297933 
906	 0.201573361067711 
907	 0.201894436892444 
908	 0.202197174610147 
909	 0.202540440204281 
910	 0.202925560070892 
911	 0.20335276989233 
912	 0.203815619206095 
913	 0.20427530933542 
914	 0.204716233791167 
915	 0.20517230101652 
916	 0.205695894732622 
917	 0.206097899196977 
918	 0.20652527827151 
919	 0.207026782211976 
920	 0.207490190954507 
921	 0.207950075636349 
922	 0.208428634444656 
923	 0.208946096934962 
924	 0.20951746668644 
925	 0.210082332532128 
926	 0.210667927820185 
927	 0.211269338021083 
928	 0.211788178941038 
929	 0.212452689543057 
930	 0.213072113601974 
931	 0.213518027497824 
932	 0.214052432028951 
933	 0.214689896764132 
934	 0.215334176493795 
935	 0.215930274924711 
936	 0.216660133960762 
937	 0.217336746746815 
938	 0.217967061472562 
939	 0.21862704544863 
940	 0.219385524942783 
941	 0.220093339665109 
942	 0.220806649994362 
943	 0.221604631961549 
944	 0.222299733013257 
945	 0.223049852615235 
946	 0.223846504381799 
947	 0.224611626222795 
948	 0.225355970807868 
949	 0.226093946861992 
950	 0.226823166008959 
951	 0.227566477055632 
952	 0.228512372159513 
953	 0.229372730151396 
954	 0.230158436893965 
955	 0.231035769672861 
956	 0.2319307506246 
957	 0.232845480086797 
958	 0.233745386983438 
959	 0.234586034356725 
960	 0.235368481616062 
961	 0.23631801515395 
962	 0.237348653201823 
963	 0.238209695769104 
964	 0.239010619866402 
965	 0.240000830963868 
966	 0.241078261310312 
967	 0.241971307486558 
968	 0.242944274553147 
969	 0.243923942326877 
970	 0.244847138138206 
971	 0.245719504735846 
972	 0.246816527089298 
973	 0.247872792026902 
974	 0.248868312161278 
975	 0.249957861927902 
976	 0.251107088664531 
977	 0.252146565996684 
978	 0.253104483128795 
979	 0.254117756393983 
980	 0.255104505290067 
981	 0.256038206327171 
982	 0.256984381096144 
983	 0.258034766920171 
984	 0.259115057206995 
985	 0.260206853160816 
986	 0.261239058134739 
987	 0.262194115232757 
988	 0.263446060343333 
989	 0.264648295958951 
990	 0.265702730471974 
991	 0.266702969105032 
992	 0.267859275205769 
993	 0.268730349580542 
994	 0.269613174294371 
995	 0.2708814582228 
996	 0.271739961785291 
997	 0.272821143712342 
998	 0.274012090303441 
999	 0.275032130726006 
1000	 0.276170653200512 
1001	 0.278692359180915 
1002	 0.27968830327936 
1003	 0.28062734753179 
1004	 0.281593649151934 
1005	 0.282544756340621 
1006	 0.283498980421821 
1007	 0.284450755994141 
1008	 0.285427233343151 
1009	 0.286384488899123 
1010	 0.287350377791456 
1011	 0.288286695229769 
1012	 0.289216045081454 
1013	 0.290169932533411 
1014	 0.291075300757436 
1015	 0.291941389337775 
1016	 0.292810258365284 
1017	 0.29367509890649 
1018	 0.294509510358326 
1019	 0.295331350772892 
1020	 0.296194801530906 
1021	 0.297061391197116 
1022	 0.297909495972629 
1023	 0.298756897100913 
1024	 0.299596415386134 
1025	 0.30043173306617 
1026	 0.301204574673186 
1027	 0.301935329268249 
1028	 0.30265336319631 
1029	 0.303387644589253 
1030	 0.304163384152553 
1031	 0.304912477214315 
1032	 0.305671286445321 
1033	 0.306461181085538 
1034	 0.307219930992894 
1035	 0.307899253634004 
1036	 0.308648315288236 
1037	 0.309407723597635 
1038	 0.310106141042097 
1039	 0.310828944408106 
1040	 0.311522042904628 
1041	 0.312170194608614 
1042	 0.312861777339028 
1043	 0.313568496124387 
1044	 0.314248351068279 
1045	 0.314932167626882 
1046	 0.315612428195197 
1047	 0.316255386849316 
1048	 0.316893809872031 
1049	 0.317562371489738 
1050	 0.318251663306916 
1051	 0.318957020450865 
1052	 0.319610722494367 
1053	 0.320244790558604 
1054	 0.320895518108941 
1055	 0.321512728079933 
1056	 0.322141323860587 
1057	 0.322752220195808 
1058	 0.323353063367462 
1059	 0.323950115321839 
1060	 0.324546221967633 
1061	 0.325098238566377 
1062	 0.325637734104415 
1063	 0.326167107237328 
1064	 0.326715520066859 
1065	 0.327288782674664 
1066	 0.32787712555254 
1067	 0.328489663491281 
1068	 0.329048378074124 
1069	 0.329567832894222 
1070	 0.330102642564702 
1071	 0.330631404455257 
1072	 0.33117831411782 
1073	 0.331722763624045 
1074	 0.332261044141405 
1075	 0.33282454574202 
1076	 0.333341555255738 
1077	 0.333811776901994 
1078	 0.33435261447294 
1079	 0.334914792723574 
1080	 0.335449606925122 
1081	 0.335984863410194 
1082	 0.336499817913721 
1083	 0.336984631155076 
1084	 0.337397758023482 
1085	 0.33787845783334 
1086	 0.338337332213479 
1087	 0.338857373940908 
1088	 0.339442852781937 
1089	 0.340009701579705 
1090	 0.34051236812153 
1091	 0.341045967438102 
1092	 0.341496818485293 
1093	 0.341959760061807 
1094	 0.342510766250126 
1095	 0.343018809199963 
1096	 0.343554567844164 
1097	 0.344078606298116 
1098	 0.344592541046931 
1099	 0.345100821790824 
1100	 0.345609300569929 
1101	 0.346081121187075 
1102	 0.346606332797939 
1103	 0.347169723628174 
1104	 0.347688586511007 
1105	 0.34823097412304 
1106	 0.348811620183064 
1107	 0.349347937928197 
1108	 0.349906475653297 
1109	 0.350487675110915 
1110	 0.351059471158062 
1111	 0.351643253719245 
1112	 0.352236816268303 
1113	 0.352815699349489 
1114	 0.353400968460196 
1115	 0.353983444181804 
1116	 0.354548456918254 
1117	 0.355136227649053 
1118	 0.35574207264184 
1119	 0.356323677231956 
1120	 0.356960350617371 
1121	 0.357574940892537 
1122	 0.358149300406714 
1123	 0.358763140861563 
1124	 0.359354839135496 
1125	 0.35991972634011 
1126	 0.360500016199418 
1127	 0.361077968824843 
1128	 0.361664832015737 
1129	 0.3622656410983 
1130	 0.362844130908466 
1131	 0.363427070640951 
1132	 0.364008425389793 
1133	 0.364573417775816 
1134	 0.365129949938441 
1135	 0.36569029774862 
1136	 0.366242744430321 
1137	 0.366764271859301 
1138	 0.367284083878573 
1139	 0.367831661385948 
1140	 0.368395341149199 
1141	 0.368943441952142 
1142	 0.369521612921176 
1143	 0.370050849886249 
1144	 0.3705272907766 
1145	 0.371043583625692 
1146	 0.371579736174889 
1147	 0.372079863572131 
1148	 0.372573401367167 
1149	 0.373071834324452 
1150	 0.373545097172615 
1151	 0.374019916536893 
1152	 0.374520214015537 
1153	 0.375009950312689 
1154	 0.375472382211089 
1155	 0.375911647264637 
1156	 0.376349348926683 
1157	 0.376771981883084 
1158	 0.377188016018072 
1159	 0.377590859702555 
1160	 0.378003458565313 
1161	 0.378413631325031 
1162	 0.378824190071792 
1163	 0.37925131560067 
1164	 0.379654779735786 
1165	 0.380046394332862 
1166	 0.380427209977066 
1167	 0.380802600639839 
1168	 0.381174641597195 
1169	 0.381552131782299 
1170	 0.381936979496758 
1171	 0.382306447785166 
1172	 0.382682787219885 
1173	 0.383029555193483 
1174	 0.38335211277891 
1175	 0.383681368313208 
1176	 0.383996067693938 
1177	 0.384313967541914 
1178	 0.384634210094332 
1179	 0.384951286334482 
1180	 0.3852771166402 
1181	 0.385580217845107 
1182	 0.385870798062656 
1183	 0.386160920047876 
1184	 0.386438957307119 
1185	 0.386686806092276 
1186	 0.386968113505823 
1187	 0.387275795623059 
1188	 0.387542361325449 
1189	 0.38780341411511 
1190	 0.388056916351983 
1191	 0.388277856646244 
1192	 0.388514137647992 
1193	 0.388769543162569 
1194	 0.389002599372502 
1195	 0.389207676663105 
1196	 0.389435411471582 
1197	 0.389673879455397 
1198	 0.389900447061982 
1199	 0.390126713407338 
1200	 0.390372487423179 
1201	 0.390579060078164 
1202	 0.390749935392337 
1203	 0.390953715526615 
1204	 0.391161712808382 
1205	 0.391360385066062 
1206	 0.391569331941637 
1207	 0.391770091379188 
1208	 0.391958210474597 
1209	 0.392144850598247 
1210	 0.392332994237403 
1211	 0.392520485539436 
1212	 0.392708076659961 
1213	 0.392881823672139 
1214	 0.393047536560469 
1215	 0.39321708464285 
1216	 0.393382481277979 
1217	 0.39352875918978 
1218	 0.393697570325615 
1219	 0.39389215967033 
1220	 0.394050209583893 
1221	 0.394194075751345 
1222	 0.394344966082352 
1223	 0.394487817211051 
1224	 0.394620863248617 
1225	 0.394752194500991 
1226	 0.394885484220931 
1227	 0.395002096959175 
1228	 0.395125994007478 
1229	 0.395261391317845 
1230	 0.395394481329152 
1231	 0.395529535711754 
1232	 0.395654984591245 
1233	 0.395776962669854 
1234	 0.395898999027173 
1235	 0.396019978290461 
1236	 0.396130865872743 
1237	 0.396248056387488 
1238	 0.396376634145048 
1239	 0.396490793360478 
1240	 0.396602112843906 
1241	 0.396701612238615 
1242	 0.396792525606591 
1243	 0.396877954201407 
1244	 0.396942527823214 
1245	 0.397022844141739 
1246	 0.397100957724086 
1247	 0.39718799581458 
1248	 0.397283902112462 
1249	 0.397389386009847 
1250	 0.397484147021215 
1251	 0.397588353650352 
1252	 0.397687247231406 
1253	 0.397785854070764 
1254	 0.397877734750159 
1255	 0.397965549419416 
1256	 0.398056813663154 
1257	 0.398154588963307 
1258	 0.398230925126165 
1259	 0.39829145917345 
1260	 0.398367605104762 
1261	 0.398438339435763 
1262	 0.398504779963273 
1263	 0.398592535797454 
1264	 0.398657901437988 
1265	 0.398682017250252 
1266	 0.398734734601086 
1267	 0.398786418014142 
1268	 0.398864309948581 
1269	 0.398934752894408 
1270	 0.399016415930149 
1271	 0.399101869004977 
1272	 0.399186825339528 
1273	 0.399275192704889 
1274	 0.399377207086354 
1275	 0.399474185099092 
1276	 0.399576341048331 
1277	 0.399663534941698 
1278	 0.399741746187493 
1279	 0.399826577190459 
1280	 0.399890094841087 
1281	 0.399977019187194 
1282	 0.400092536417829 
1283	 0.400191997557157 
1284	 0.400297824512647 
1285	 0.400399641202773 
1286	 0.400470776681113 
1287	 0.400536250040274 
1288	 0.400571785683333 
1289	 0.400578734850512 
1290	 0.400588316075674 
1291	 0.400571326609281 
1292	 0.400567460464372 
1293	 0.400577555278884 
1294	 0.400554838964874 
1295	 0.400514066651909 
1296	 0.400480014019859 
1297	 0.400424384863926 
1298	 0.400380013057485 
1299	 0.400362779475163 
1300	 0.400306438058009 
1301	 0.400210102937208 
1302	 0.400141523814633 
1303	 0.400057806124314 
1304	 0.399999710021172 
1305	 0.399960536414607 
1306	 0.399918702983086 
1307	 0.399848982858404 
1308	 0.399768311038728 
1309	 0.399694933422479 
1310	 0.399613457653565 
1311	 0.399547403898555 
1312	 0.39948789570113 
1313	 0.399425949170194 
1314	 0.399369224925871 
1315	 0.399309837578178 
1316	 0.399224615424344 
1317	 0.399199001204877 
1318	 0.39921661278189 
1319	 0.399209471395472 
1320	 0.399228823098684 
1321	 0.399237857795709 
1322	 0.399218535292019 
1323	 0.39921112216652 
1324	 0.399250223567409 
1325	 0.399299975244043 
1326	 0.399344904380749 
1327	 0.399383538621538 
1328	 0.399402977772183 
1329	 0.39943192072669 
1330	 0.399483516918805 
1331	 0.399541858222636 
1332	 0.399632934179984 
1333	 0.399755047395644 
1334	 0.399867088103249 
1335	 0.400000059419717 
1336	 0.400121221105477 
1337	 0.400234767279304 
1338	 0.400359808628549 
1339	 0.400496609616591 
1340	 0.400619685072899 
1341	 0.40073726854235 
1342	 0.40086254284847 
1343	 0.400982818710049 
1344	 0.401101495450787 
1345	 0.401256007528358 
1346	 0.401401479562533 
1347	 0.401547141606891 
1348	 0.40172820374063 
1349	 0.401887017969555 
1350	 0.402018967508428 
1351	 0.402147588509211 
1352	 0.402253345057412 
1353	 0.402380619872476 
1354	 0.402515076321628 
1355	 0.40263848762941 
1356	 0.402767143164823 
1357	 0.402886372652848 
1358	 0.402978272701075 
1359	 0.403100562279724 
1360	 0.403247772664399 
1361	 0.403376345032668 
1362	 0.403509896701539 
1363	 0.403637737412192 
1364	 0.403758511764942 
1365	 0.4038702980119 
1366	 0.403972760091717 
1367	 0.404076492468937 
1368	 0.404209827081847 
1369	 0.404317758583472 
1370	 0.404415136486302 
1371	 0.404519778091455 
1372	 0.404572112846862 
1373	 0.40461680774607 
1374	 0.404668948188701 
1375	 0.404740937743874 
1376	 0.404761472174046 
1377	 0.40476460959701 
1378	 0.404744224848763 
1379	 0.40467499203086 
1380	 0.404629493720493 
1381	 0.40458709847833 
1382	 0.404531013803122 
1383	 0.404484582207947 
1384	 0.404406618789922 
1385	 0.404312943165144 
1386	 0.404193593909025 
1387	 0.404059526771216 
1388	 0.403892674954055 
1389	 0.403685935849967 
1390	 0.403483693942922 
1391	 0.403268545130062 
1392	 0.402995812722595 
1393	 0.402698481165223 
1394	 0.40238226876278 
1395	 0.402036117922769 
1396	 0.401696125788047 
1397	 0.401348243714013 
1398	 0.401003973763891 
1399	 0.400643494284604 
1400	 0.400257400915691 
1401	 0.399894079542813 
1402	 0.399539921029117 
1403	 0.399174430164727 
1404	 0.398807015247203 
1405	 0.398448769595813 
1406	 0.398069515434534 
1407	 0.397729701217269 
1408	 0.397397897291375 
1409	 0.397104320883976 
1410	 0.396846585486997 
1411	 0.396602371987947 
1412	 0.39636603755216 
1413	 0.396183938859449 
1414	 0.396045022307724 
1415	 0.395941401350153 
1416	 0.39588991998545 
1417	 0.395876006899313 
1418	 0.395877837921288 
1419	 0.395879879318486 
1420	 0.395913443545663 
1421	 0.395953896401099 
1422	 0.395983255507181 
1423	 0.396000560656069 
1424	 0.39599323164485 
1425	 0.395961845264657 
1426	 0.395938059973747 
1427	 0.395888609164781 
1428	 0.395862024234929 
1429	 0.395854129771108 
1430	 0.395822325330806 
1431	 0.395784649547391 
1432	 0.39574935085283 
1433	 0.395697665501403 
1434	 0.395663630272692 
1435	 0.395641357785494 
1436	 0.395615525375897 
1437	 0.395595646521587 
1438	 0.395568176358645 
1439	 0.395533215731656 
1440	 0.395512665246435 
1441	 0.395468002285265 
1442	 0.395434111222187 
1443	 0.395421162336832 
1444	 0.395397758922793 
1445	 0.395394827151892 
1446	 0.395402062421632 
1447	 0.395395002157069 
1448	 0.395389580512801 
1449	 0.395379953137732 
1450	 0.395373381850548 
1451	 0.395370605636949 
1452	 0.395362186047456 
1453	 0.395365798535713 
1454	 0.395388493901318 
1455	 0.395388349661004 
1456	 0.395391589878975 
1457	 0.395381535542185 
1458	 0.395340937011639 
1459	 0.395328808128292 
1460	 0.395322416824164 
1461	 0.395315943616222 
1462	 0.395321926331802 
1463	 0.395328029398368 
1464	 0.395325332977009 
1465	 0.395341019894618 
1466	 0.39536292579274 
1467	 0.395402825444259 
1468	 0.395463082789067 
1469	 0.395520044667103 
1470	 0.395589316797224 
1471	 0.395660093694685 
1472	 0.395720671466005 
1473	 0.395820647091589 
1474	 0.395913041657608 
1475	 0.396019917188597 
1476	 0.39615472805804 
1477	 0.396253132149645 
1478	 0.396392705428995 
1479	 0.396535511290855 
1480	 0.396643897757591 
1481	 0.396784076967124 
1482	 0.396904009401719 
1483	 0.396997803773036 
1484	 0.397121547476195 
1485	 0.397257007378297 
1486	 0.39739487609988 
1487	 0.397547176950269 
1488	 0.397691144440317 
1489	 0.397838980811954 
1490	 0.397975674770588 
1491	 0.398107360181163 
1492	 0.398243072541137 
1493	 0.398367265789043 
1494	 0.398500498913064 
1495	 0.398651884600852 
1496	 0.398778391639143 
1497	 0.398896911510863 
1498	 0.39902049248203 
1499	 0.399129959102965 
1500	 0.39923796742303 
1501	 0.399357648169502 
1502	 0.399456346133617 
1503	 0.399535528989366 
1504	 0.399617524163536 
1505	 0.399702931544745 
1506	 0.399793375863326 
1507	 0.399862143084029 
1508	 0.399944797764388 
1509	 0.400036608088605 
1510	 0.400113365998821 
1511	 0.400200140609481 
1512	 0.400308227529391 
1513	 0.400440673121341 
1514	 0.400571409642271 
1515	 0.400718948903496 
1516	 0.400861110479143 
1517	 0.400964562616257 
1518	 0.401022183071917 
1519	 0.401106632392795 
1520	 0.401182364950131 
1521	 0.401262885801895 
1522	 0.40135023256815 
1523	 0.401432685240961 
1524	 0.401508878036747 
1525	 0.401589184559982 
1526	 0.401676434023882 
1527	 0.40175339497489 
1528	 0.401827651949549 
1529	 0.40189485553449 
1530	 0.401949400959082 
1531	 0.402013835659314 
1532	 0.402074749554052 
1533	 0.402141855560363 
1534	 0.402222228974659 
1535	 0.402292825182048 
1536	 0.402347996091858 
1537	 0.402426788733705 
1538	 0.402522042625977 
1539	 0.402606034999881 
1540	 0.402700656431418 
1541	 0.402791068377885 
1542	 0.402880662817129 
1543	 0.402949318411008 
1544	 0.403021875918124 
1545	 0.403071293635834 
1546	 0.403085017960113 
1547	 0.403097252883967 
1548	 0.403126929497683 
1549	 0.403165712834947 
1550	 0.403222476133606 
1551	 0.403284067286057 
1552	 0.403338450649878 
1553	 0.403385267651087 
1554	 0.403439205638856 
1555	 0.403511597501161 
1556	 0.403591081121464 
1557	 0.403669727235285 
1558	 0.403741144065517 
1559	 0.403788638326166 
1560	 0.403837116579035 
1561	 0.403859975011491 
1562	 0.403921118578624 
1563	 0.403992235068178 
1564	 0.404072432675959 
1565	 0.404185629389948 
1566	 0.404268387360921 
1567	 0.404344009651843 
1568	 0.404415360148396 
1569	 0.404476505446587 
1570	 0.40452548924643 
1571	 0.404567309725802 
1572	 0.404609321777713 
1573	 0.404645669923407 
1574	 0.404671297885107 
1575	 0.404687818988024 
1576	 0.40471302135551 
1577	 0.404729183183475 
1578	 0.404743745036202 
1579	 0.404759116843036 
1580	 0.40478501944089 
1581	 0.404809418745374 
1582	 0.40483797526716 
1583	 0.404879112044183 
1584	 0.404925713140787 
1585	 0.404968037426471 
1586	 0.405017220629838 
1587	 0.405085283600809 
1588	 0.405143594051224 
1589	 0.405210186029691 
1590	 0.40525263081116 
1591	 0.405279824479966 
1592	 0.40530930679235 
1593	 0.405313084059169 
1594	 0.405334024328995 
1595	 0.405366447700776 
1596	 0.405400011237983 
1597	 0.405444706756489 
1598	 0.405477935260151 
1599	 0.40550508994374 
1600	 0.405538136692593 
1601	 0.405557506751514 
1602	 0.405592828405423 
1603	 0.40564964647675 
1604	 0.405698087291017 
1605	 0.405747485692247 
1606	 0.405801864399172 
1607	 0.405868177714891 
1608	 0.40590936269162 
1609	 0.405967399380224 
1610	 0.406004603351272 
1611	 0.405985757079966 
1612	 0.405990797910951 
1613	 0.405998631451634 
1614	 0.406011149525063 
1615	 0.406062529624092 
1616	 0.40610669295695 
1617	 0.406162807668366 
1618	 0.406213023122434 
1619	 0.406245973878442 
1620	 0.40629096258684 
1621	 0.406311046089477 
1622	 0.406306138758141 
1623	 0.406311036508658 
1624	 0.40630645775614 
1625	 0.406320857247358 
1626	 0.406338946884532 
1627	 0.406358285139306 
1628	 0.406395184110606 
1629	 0.406413286255522 
1630	 0.406419816790608 
1631	 0.406432560684745 
1632	 0.406438502628079 
1633	 0.406460627496057 
1634	 0.406496911141318 
1635	 0.406513865035748 
1636	 0.406530908129494 
1637	 0.406545717442832 
1638	 0.406535190154277 
1639	 0.406563731066481 
1640	 0.406618299348715 
1641	 0.406659692509868 
1642	 0.406716160535122 
1643	 0.4067568590001 
1644	 0.406781845386406 
1645	 0.406820001460583 
1646	 0.406856119852866 
1647	 0.406906976809395 
1648	 0.406968209936915 
1649	 0.407030618317265 
1650	 0.407106113797004 
1651	 0.407171590785276 
1652	 0.40724505313871 
1653	 0.407292871098111 
1654	 0.407333925967717 
1655	 0.407353601875749 
1656	 0.407344118040813 
1657	 0.407341955661661 
1658	 0.407325158330912 
1659	 0.407318932183101 
1660	 0.407317240896136 
1661	 0.407309874478873 
1662	 0.407296641680868 
1663	 0.407296206207144 
1664	 0.407289825533846 
1665	 0.407306104231331 
1666	 0.407359956646801 
1667	 0.407371752068411 
1668	 0.407387945405481 
1669	 0.407370610227679 
1670	 0.407301102901053 
1671	 0.407267044457782 
1672	 0.407219284967535 
1673	 0.407206391114672 
1674	 0.40721876331592 
1675	 0.407237657926284 
1676	 0.407277520002332 
1677	 0.407318063930186 
1678	 0.407372365370457 
1679	 0.407420209127224 
1680	 0.407488568253606 
1681	 0.40751608598169 
1682	 0.407510035139032 
1683	 0.407530164137626 
1684	 0.40752558566657 
1685	 0.407557623872508 
1686	 0.407635844613387 
1687	 0.407682723452469 
1688	 0.407737112303399 
1689	 0.40776483299772 
1690	 0.407768102163598 
1691	 0.407778171052358 
1692	 0.407780596729788 
1693	 0.407773621501648 
1694	 0.407743936487091 
1695	 0.407753226703262 
1696	 0.407772428952789 
1697	 0.407792269447256 
1698	 0.407852935080364 
1699	 0.407877981144986 
1700	 0.407878974028923 
1701	 0.407879524473481 
1702	 0.407864887940028 
1703	 0.407866795715064 
1704	 0.407873754110036 
1705	 0.40787364459006 
1706	 0.407876003100097 
1707	 0.407883967950226 
1708	 0.407878235669002 
1709	 0.40789099368232 
1710	 0.407933078198824 
1711	 0.407951138055746 
1712	 0.407956704423984 
1713	 0.407978908055057 
1714	 0.408012705112886 
1715	 0.408016031701959 
1716	 0.408010260009049 
1717	 0.408014067258989 
1718	 0.40798895752445 
1719	 0.407993903446663 
1720	 0.408034914331191 
1721	 0.4080503697987 
1722	 0.408071125103068 
1723	 0.408061528138489 
1724	 0.408026826600217 
1725	 0.40800679308279 
1726	 0.407968235960438 
1727	 0.407945011517198 
1728	 0.407950745336343 
1729	 0.407914283652823 
1730	 0.407854232689027 
1731	 0.407807197942322 
1732	 0.407755654827645 
1733	 0.407688846868796 
1734	 0.407617595761802 
1735	 0.407536037991394 
1736	 0.407420469038816 
1737	 0.407346686963477 
1738	 0.407287555758542 
1739	 0.407252993176419 
1740	 0.407248146747778 
1741	 0.407222111850434 
1742	 0.407219794535067 
1743	 0.407169270313951 
1744	 0.40708064055296 
1745	 0.407011409186875 
1746	 0.406923111472184 
1747	 0.406864133053769 
1748	 0.40684975594912 
1749	 0.406808375588865 
1750	 0.406741159733941 
1751	 0.40670315495427 
1752	 0.406641462484756 
1753	 0.406601451611298 
1754	 0.40657130965731 
1755	 0.406519537035765 
1756	 0.406475780538089 
1757	 0.406436323714906 
1758	 0.406415183613739 
1759	 0.406377544157748 
1760	 0.406316755107541 
1761	 0.406232523071353 
1762	 0.406131002429721 
1763	 0.406051281500284 
1764	 0.405992408550758 
1765	 0.405991055157181 
1766	 0.40599902115167 
1767	 0.405977563600931 
1768	 0.405973197496697 
1769	 0.405956012121274 
1770	 0.405946725328129 
1771	 0.405954724147521 
1772	 0.405919011264232 
1773	 0.405862690102338 
1774	 0.405812239408346 
1775	 0.405744805413362 
1776	 0.405691544908492 
1777	 0.4056524343026 
1778	 0.405614864184207 
1779	 0.405650874962275 
1780	 0.405714909314494 
1781	 0.405762382334138 
1782	 0.405785235468915 
1783	 0.405724661569482 
1784	 0.405681147621225 
1785	 0.405612640210718 
1786	 0.405577011004093 
1787	 0.405553733484833 
1788	 0.405524394551359 
1789	 0.405503026653893 
1790	 0.405508070449864 
1791	 0.40551768990238 
1792	 0.405542066909304 
1793	 0.405627718176128 
1794	 0.405652292242628 
1795	 0.405657728784266 
1796	 0.405635579994181 
1797	 0.405552981006025 
1798	 0.405518581291295 
1799	 0.40547011736374 
1800	 0.40546659528424 
1801	 0.401307390599193 
1802	 0.40133265663359 
1803	 0.401354706304885 
1804	 0.401384131424081 
1805	 0.401426527131621 
1806	 0.40143322600412 
1807	 0.401430499093811 
1808	 0.40142648363763 
1809	 0.401413550735665 
1810	 0.401409553355987 
1811	 0.401400914209744 
1812	 0.401396928241236 
1813	 0.401416421315461 
1814	 0.401436399334212 
1815	 0.401431153312032 
1816	 0.401408892063985 
1817	 0.401403831112383 
1818	 0.401379214324623 
1819	 0.401384138021883 
1820	 0.401425804871261 
1821	 0.401441926347894 
1822	 0.401416608109043 
1823	 0.401408395352872 
1824	 0.40138057619838 
1825	 0.401342963849365 
1826	 0.401345168143064 
1827	 0.401337102138747 
1828	 0.401309609124931 
1829	 0.401268603500692 
1830	 0.401231697234695 
1831	 0.401187942180276 
1832	 0.401129835206253 
1833	 0.401076300453306 
1834	 0.401022754929499 
1835	 0.400965160864834 
1836	 0.400920165932294 
1837	 0.400892752186288 
1838	 0.400866426218053 
1839	 0.400840325363117 
1840	 0.400830102500272 
1841	 0.400792234748083 
1842	 0.400765012109946 
1843	 0.400761429234176 
1844	 0.400734222032588 
1845	 0.400686246473302 
1846	 0.400600104152083 
1847	 0.400489039091772 
1848	 0.400376316157148 
1849	 0.400316516503096 
1850	 0.400267819025299 
1851	 0.400253003252762 
1852	 0.400220665034321 
1853	 0.400215040128708 
1854	 0.400185756548949 
1855	 0.40013425265236 
1856	 0.400098105368538 
1857	 0.400048558855602 
1858	 0.399971829566372 
1859	 0.399881832374178 
1860	 0.399769734526415 
1861	 0.39964263074451 
1862	 0.399472761513117 
1863	 0.399284391621429 
1864	 0.399076998147297 
1865	 0.398860284472045 
1866	 0.398628919909818 
1867	 0.398382222278934 
1868	 0.398143468955931 
1869	 0.397878362876733 
1870	 0.397602879288727 
1871	 0.397291749093808 
1872	 0.396966879957517 
1873	 0.396592235921106 
1874	 0.39619471827918 
1875	 0.395764325282601 
1876	 0.395285745058797 
1877	 0.394774868836613 
1878	 0.394201629705447 
1879	 0.393558892166275 
1880	 0.392868550319282 
1881	 0.392115628286427 
1882	 0.391326786855427 
1883	 0.390502097124717 
1884	 0.389600361113489 
1885	 0.388648073851786 
1886	 0.387640770851886 
1887	 0.386528995568394 
1888	 0.385396959656033 
1889	 0.384192507225106 
1890	 0.382928555846918 
1891	 0.381670203731614 
1892	 0.380358825584672 
1893	 0.379048718596939 
1894	 0.377724243779378 
1895	 0.37643007307785 
1896	 0.375089016656811 
1897	 0.373739060890375 
1898	 0.372415793030988 
1899	 0.371109489083939 
1900	 0.369795469951094 
1901	 0.368566846357492 
1902	 0.36740984307342 
1903	 0.366296018696658 
1904	 0.365255469039027 
1905	 0.364298277895223 
1906	 0.363425995280861 
1907	 0.362572133473112 
1908	 0.361748703822048 
1909	 0.360973298141746 
1910	 0.360216911589211 
1911	 0.359512099257738 
1912	 0.358858893375449 
1913	 0.358244937109073 
1914	 0.357682327617312 
1915	 0.357151087627243 
1916	 0.356650585859259 
1917	 0.356193627746154 
1918	 0.355801485195086 
1919	 0.355454320467665 
1920	 0.355132321245531 
1921	 0.354832335405613 
1922	 0.354550276078926 
1923	 0.354287388301573 
1924	 0.354059164797082 
1925	 0.353853665442608 
1926	 0.353707118444353 
1927	 0.353618532210463 
1928	 0.353518664791846 
1929	 0.353463548058486 
1930	 0.353460530804326 
1931	 0.353429519068782 
1932	 0.353397836640412 
1933	 0.353400584799899 
1934	 0.35339701549203 
1935	 0.353431009153225 
1936	 0.353498551621416 
1937	 0.353579551770086 
1938	 0.353673860582216 
1939	 0.353796842832799 
1940	 0.353931904792216 
1941	 0.354098490296766 
1942	 0.354316193469123 
1943	 0.354565057305412 
1944	 0.354810531781836 
1945	 0.355055873970582 
1946	 0.355309222457752 
1947	 0.355553113492333 
1948	 0.355816687657314 
1949	 0.356102149481555 
1950	 0.356389562550185 
1951	 0.356690640027562 
1952	 0.35697596703466 
1953	 0.357278493361111 
1954	 0.35758282643528 
1955	 0.357876869673065 
1956	 0.358181759319151 
1957	 0.358494768949064 
1958	 0.358820048396924 
1959	 0.359133252456409 
1960	 0.359440211514836 
1961	 0.359771003547711 
1962	 0.360101066951226 
1963	 0.360443685654171 
1964	 0.360814764172206 
1965	 0.361180158242661 
1966	 0.361532510449333 
1967	 0.36189772620897 
1968	 0.362273238728332 
1969	 0.362651667970538 
1970	 0.363040807826742 
1971	 0.363459642186434 
1972	 0.363852461265189 
1973	 0.364239516486363 
1974	 0.364629562918564 
1975	 0.365013123112979 
1976	 0.36539155056003 
1977	 0.36578307165443 
1978	 0.366155646860428 
1979	 0.366518139700694 
1980	 0.366884076264139 
1981	 0.36724708384874 
1982	 0.367591934459477 
1983	 0.36797046245607 
1984	 0.368359133171097 
1985	 0.368753037145233 
1986	 0.369169086779213 
1987	 0.36958543971081 
1988	 0.369999755554641 
1989	 0.370431860605871 
1990	 0.370872298802624 
1991	 0.3713071210225 
1992	 0.37173700407487 
1993	 0.37217395361545 
1994	 0.372587059985467 
1995	 0.372991184261593 
1996	 0.373380623770682 
1997	 0.373737044319854 
1998	 0.374116830824354 
1999	 0.374494027664356 
2000	 0.374876392905366 
2001	 0.375271056148808 
2002	 0.375663640896379 
2003	 0.376063696306023 
2004	 0.376461282339686 
2005	 0.376846360898484 
2006	 0.377228534907229 
2007	 0.377616127443536 
2008	 0.377993736555308 
2009	 0.378371128764988 
2010	 0.378764224174527 
2011	 0.379136245401181 
2012	 0.379490916624581 
2013	 0.379845048735567 
2014	 0.38019111713631 
2015	 0.380535208872883 
2016	 0.380879658934589 
2017	 0.381219342876192 
2018	 0.381572998454266 
2019	 0.381945884213023 
2020	 0.382297055478679 
2021	 0.382645403606035 
2022	 0.382993488702414 
2023	 0.383338408034163 
2024	 0.383667642953987 
2025	 0.383989382132886 
2026	 0.384312375204463 
2027	 0.384626725875072 
2028	 0.384928944363488 
2029	 0.385233406056193 
2030	 0.385543452089143 
2031	 0.38584211564068 
2032	 0.386124378080847 
2033	 0.38641999429224 
2034	 0.386713263245977 
2035	 0.387020478330403 
2036	 0.387349623957983 
2037	 0.387654821811545 
2038	 0.387980017436279 
2039	 0.388263477298007 
2040	 0.388514496613485 
2041	 0.388750311630118 
2042	 0.388965918400691 
2043	 0.389190745211021 
2044	 0.389428275292208 
2045	 0.389675772306746 
2046	 0.389919326600166 
2047	 0.390179593251224 
2048	 0.390417687549719 
2049	 0.390656935891373 
2050	 0.390871458550711 
2051	 0.391060554229626 
2052	 0.391252894250218 
2053	 0.391393305931441 
2054	 0.391591559147442 
2055	 0.391825189681754 
2056	 0.392064747254631 
2057	 0.392298917728673 
2058	 0.392575142662303 
2059	 0.392801677538749 
2060	 0.392999858001504 
2061	 0.393196525974416 
2062	 0.393367440528383 
2063	 0.393561652003278 
2064	 0.393758602613605 
2065	 0.393950738567722 
2066	 0.394162011789961 
2067	 0.394357919432505 
2068	 0.394533286006567 
2069	 0.394706990392726 
2070	 0.394903883227496 
2071	 0.395117806105881 
2072	 0.395306096880866 
2073	 0.395507490243722 
2074	 0.395680606608088 
2075	 0.395801803742445 
2076	 0.39597535719031 
2077	 0.396153273748964 
2078	 0.396353536460431 
2079	 0.396605401324456 
2080	 0.396825625127836 
2081	 0.39705482769192 
2082	 0.397262550549651 
2083	 0.397452145782703 
2084	 0.397627653664716 
2085	 0.39780348401104 
2086	 0.397966554048063 
2087	 0.3981356821902 
2088	 0.398303845391459 
2089	 0.398467964746121 
2090	 0.398626928525826 
2091	 0.398790923745728 
2092	 0.398945350077086 
2093	 0.399117133490073 
2094	 0.399308388862897 
2095	 0.399487348979288 
2096	 0.399673856483066 
2097	 0.399852829720813 
2098	 0.400027404658844 
2099	 0.400183363294477 
2100	 0.400358268018431 
2101	 0.400544301740672 
2102	 0.400706676502806 
2103	 0.400853464278117 
2104	 0.401029540295123 
2105	 0.401187804557196 
2106	 0.401385509410856 
2107	 0.401641413669422 
2108	 0.401860116193004 
2109	 0.402066511900295 
2110	 0.402292123809711 
2111	 0.402524645713138 
2112	 0.402745536457481 
2113	 0.402987704204453 
2114	 0.403212146003847 
2115	 0.403410300085847 
2116	 0.40356168828271 
2117	 0.403774009070693 
2118	 0.403993341963235 
2119	 0.404219887425146 
2120	 0.404487120842006 
2121	 0.404727963781738 
2122	 0.404963680241632 
2123	 0.40518310245648 
2124	 0.405401438099008 
2125	 0.405604043218817 
2126	 0.405815867586093 
2127	 0.405967660377191 
2128	 0.406076688960787 
2129	 0.406181068684812 
2130	 0.406242959548831 
2131	 0.406280431249058 
2132	 0.406330751293104 
2133	 0.406387936060271 
2134	 0.406434136454037 
2135	 0.406474536716509 
2136	 0.406496186203916 
2137	 0.406516467025542 
2138	 0.406516304784721 
2139	 0.406496308404791 
2140	 0.406459359575841 
2141	 0.406423834947971 
2142	 0.40634624301573 
2143	 0.40621111741411 
2144	 0.406098526285847 
2145	 0.405967869299345 
2146	 0.405838154000846 
2147	 0.405732119902186 
2148	 0.405608673033153 
2149	 0.405449173620723 
2150	 0.405264420067604 
2151	 0.405071372817975 
2152	 0.404847290184442 
2153	 0.40462551090045 
2154	 0.404388950558359 
2155	 0.404162555490697 
2156	 0.403952034040717 
2157	 0.403697711488763 
2158	 0.403446346210247 
2159	 0.403152296814443 
2160	 0.402790783196135 
2161	 0.402448613719963 
2162	 0.40208731164302 
2163	 0.401735740439679 
2164	 0.401385991303119 
2165	 0.401037183468691 
2166	 0.40069952164709 
2167	 0.400360843769505 
2168	 0.400049321893097 
2169	 0.399780319730831 
2170	 0.399448466543555 
2171	 0.399106857220464 
2172	 0.398756355375694 
2173	 0.39836253829035 
2174	 0.397985397148531 
2175	 0.397627764222489 
2176	 0.397246987538637 
2177	 0.396831753634726 
2178	 0.396438163090298 
2179	 0.396032923668198 
2180	 0.395657677779854 
2181	 0.395315670924781 
2182	 0.394962550355284 
2183	 0.394634928402894 
2184	 0.394291501781549 
2185	 0.393920355992227 
2186	 0.393508151911436 
2187	 0.393147169229404 
2188	 0.3927792871703 
2189	 0.392436106521185 
2190	 0.392133102912744 
2191	 0.391819923951313 
2192	 0.391504288220214 
2193	 0.39119849922331 
2194	 0.39089191513404 
2195	 0.390615672352352 
2196	 0.390353351852634 
2197	 0.390104774105537 
2198	 0.389869636775413 
2199	 0.389672209785187 
2200	 0.389499210375291 
2201	 0.389338623318994 
2202	 0.389220842288492 
2203	 0.389105088617171 
2204	 0.389005316760055 
2205	 0.388905381918776 
2206	 0.388844256833556 
2207	 0.388803570574668 
2208	 0.388795793468348 
2209	 0.388817132335154 
2210	 0.388863722892502 
2211	 0.388953267331633 
2212	 0.389042089721147 
2213	 0.389164536205677 
2214	 0.38926593681809 
2215	 0.389384752493779 
2216	 0.389472271335455 
2217	 0.389533704411501 
2218	 0.3895979425994 
2219	 0.389637977212504 
2220	 0.389691252178068 
2221	 0.389731090049327 
2222	 0.389813837995775 
2223	 0.389894623202868 
2224	 0.389975762117254 
2225	 0.390024511164997 
2226	 0.390081190639067 
2227	 0.390075782756626 
2228	 0.390028926573455 
2229	 0.389959146806121 
2230	 0.389829644779589 
2231	 0.389737596125493 
2232	 0.389620722484834 
2233	 0.38953839159206 
2234	 0.389483399877824 
2235	 0.389431807567351 
2236	 0.38938053749112 
2237	 0.389353640377715 
2238	 0.389364516152681 
2239	 0.389350613284951 
2240	 0.389342909715189 
2241	 0.389333205536566 
2242	 0.389324510007293 
2243	 0.389288851377419 
2244	 0.389249861692756 
2245	 0.389198447139261 
2246	 0.389110671037193 
2247	 0.388998933901968 
2248	 0.388894226617247 
2249	 0.388776256110095 
2250	 0.388672717711332 
2251	 0.388562333883633 
2252	 0.388479919943915 
2253	 0.388418475519996 
2254	 0.388345644324435 
2255	 0.388280710931083 
2256	 0.388217557460147 
2257	 0.388126572369531 
2258	 0.388098546773566 
2259	 0.388126163036133 
2260	 0.388122808633529 
2261	 0.388124081973609 
2262	 0.388149549184566 
2263	 0.388157149842913 
2264	 0.388196174536479 
2265	 0.388297923687697 
2266	 0.388377862040111 
2267	 0.388449208161703 
2268	 0.388537047305709 
2269	 0.38865707846919 
2270	 0.388737896722544 
2271	 0.388795127415262 
2272	 0.388852824981328 
2273	 0.388906748372095 
2274	 0.388973422603401 
2275	 0.389040934822201 
2276	 0.38914457894037 
2277	 0.389210042962615 
2278	 0.38925369372542 
2279	 0.389292278746188 
2280	 0.389325363552643 
2281	 0.389349703988207 
2282	 0.389334309426473 
2283	 0.38937128622646 
2284	 0.38943423666529 
2285	 0.389491365638029 
2286	 0.389570751340347 
2287	 0.389646645634172 
2288	 0.389716977557465 
2289	 0.389786418020759 
2290	 0.389878936240333 
2291	 0.389951991302635 
2292	 0.390005821436147 
2293	 0.390063853050839 
2294	 0.390125445152281 
2295	 0.39016281621127 
2296	 0.390153999688359 
2297	 0.390204480044777 
2298	 0.390255686473401 
2299	 0.390314647041519 
2300	 0.390462738383449 
2301	 0.390571580030669 
2302	 0.390627384579659 
2303	 0.390692377647122 
2304	 0.390728816976564 
2305	 0.390773999818348 
2306	 0.390825258906482 
2307	 0.390884451792069 
2308	 0.390966605808535 
2309	 0.391077270354704 
2310	 0.391139415350937 
2311	 0.391225325470878 
2312	 0.391246438528962 
2313	 0.391178559478096 
2314	 0.391171936204733 
2315	 0.391163523773328 
2316	 0.391172181587682 
2317	 0.391200458747174 
2318	 0.391233275182425 
2319	 0.391265833675173 
2320	 0.391314937353329 
2321	 0.391392281321513 
2322	 0.391458484259312 
2323	 0.391533822400291 
2324	 0.391601261344374 
2325	 0.391691921311683 
2326	 0.39173753039607 
2327	 0.391745366941586 
2328	 0.391755922173884 
2329	 0.391752522308961 
2330	 0.391754979856441 
2331	 0.391826214169402 
2332	 0.391895847382929 
2333	 0.391971008183135 
2334	 0.392008979483583 
2335	 0.392091123025723 
2336	 0.392184974396612 
2337	 0.392173363969971 
2338	 0.392235353073752 
2339	 0.392244541326236 
2340	 0.392165935123063 
2341	 0.392209442955808 
2342	 0.392183497907206 
2343	 0.392046103578957 
2344	 0.391972445406684 
2345	 0.391908818785389 
2346	 0.391820259141948 
2347	 0.391754908787552 
2348	 0.391749186031364 
2349	 0.391694103006471 
2350	 0.391614543984247 
2351	 0.391555961716158 
2352	 0.391532858420455 
2353	 0.391413674827581 
2354	 0.391200020737878 
2355	 0.391052609840103 
2356	 0.390890284713549 
2357	 0.390772931004899 
2358	 0.390731436256148 
2359	 0.390640982731417 
2360	 0.390498283364343 
2361	 0.390393573282459 
2362	 0.390355785926001 
2363	 0.390245404762185 
2364	 0.390112008824953 
2365	 0.38997671216968 
2366	 0.389805272374696 
2367	 0.389588674268669 
2368	 0.389291786381076 
2369	 0.389106738907925 
2370	 0.388949755863445 
2371	 0.388777204211764 
2372	 0.388645791894626 
2373	 0.388504359734531 
2374	 0.388245116058665 
2375	 0.387973905388879 
2376	 0.387740113652905 
2377	 0.387538012645615 
2378	 0.387315284565041 
2379	 0.387038790308673 
2380	 0.386780296798209 
2381	 0.386534002130429 
2382	 0.386296589885275 
2383	 0.386112304497174 
2384	 0.385977554778555 
2385	 0.385832408067635 
2386	 0.385639082249411 
2387	 0.385392768467963 
2388	 0.385115609521044 
2389	 0.384865039050069 
2390	 0.384627847866657 
2391	 0.384420991343696 
2392	 0.384212766528939 
2393	 0.383959202912498 
2394	 0.383688839123196 
2395	 0.383444061771405 
2396	 0.383213820056377 
2397	 0.382958453350921 
2398	 0.382753334042426 
2399	 0.382447062039811 
2400	 0.382105806918625 
2401	 0.381842108974418 
2402	 0.381495647366283 
2403	 0.381229582215555 
2404	 0.381037106403546 
2405	 0.380802427544681 
2406	 0.380544855941576 
2407	 0.380307965455213 
2408	 0.380079357121511 
2409	 0.379745785389018 
2410	 0.379429984668269 
2411	 0.379133270899204 
2412	 0.37876352366534 
2413	 0.378417176944765 
2414	 0.37806771212657 
2415	 0.377688124958284 
2416	 0.377312310270825 
2417	 0.376882648934744 
2418	 0.376545589512839 
2419	 0.376268374547086 
2420	 0.375953616412702 
2421	 0.375675349235034 
2422	 0.375426312150225 
2423	 0.375128007501911 
2424	 0.374891662354358 
2425	 0.374812379660803 
2426	 0.374531042815849 
2427	 0.374162045478359 
2428	 0.373853173188532 
2429	 0.373415558776348 
2430	 0.373086527374732 
2431	 0.372861601038331 
2432	 0.372614569556946 
2433	 0.372456368452697 
2434	 0.372171297213209 
2435	 0.371767916421074 
2436	 0.371426974693242 
2437	 0.371061326312619 
2438	 0.370664521189799 
2439	 0.370317515986602 
2440	 0.369959114282367 
2441	 0.369399573170162 
2442	 0.369097854892508 
2443	 0.369050249887887 
2444	 0.368885208677262 
2445	 0.368844619830381 
2446	 0.368750598525893 
2447	 0.368534386654404 
2448	 0.368236050630237 
2449	 0.367927145511995 
2450	 0.367621916820782 
2451	 0.367230908812205 
2452	 0.36692007522407 
2453	 0.366662710825673 
2454	 0.366294471049971 
2455	 0.365852283946245 
2456	 0.365455802195625 
2457	 0.365083291401431 
2458	 0.364760960535169 
2459	 0.364442926972113 
2460	 0.364132958087082 
2461	 0.363875461946702 
2462	 0.363613540906487 
2463	 0.363303691157542 
2464	 0.363031992945963 
2465	 0.362834267858413 
2466	 0.362539582638151 
2467	 0.362210767239799 
2468	 0.361987682963674 
2469	 0.361735826421984 
2470	 0.361411674404363 
2471	 0.361242728092009 
2472	 0.360914651459693 
2473	 0.360595415103891 
2474	 0.360455477472653 
2475	 0.360220496019222 
2476	 0.359948616936322 
2477	 0.359752187504182 
2478	 0.359429736177059 
2479	 0.359202152897254 
2480	 0.359110285960231 
2481	 0.358820191090227 
2482	 0.358595623774621 
2483	 0.358487508677487 
2484	 0.358089658638987 
2485	 0.357717271642635 
2486	 0.357412010954382 
2487	 0.356977439715668 
2488	 0.356610827026678 
2489	 0.356343527045955 
2490	 0.356217550957069 
2491	 0.355961612414051 
2492	 0.355726700473544 
2493	 0.355663974097071 
2494	 0.355334755841326 
2495	 0.355093672336306 
2496	 0.355139292967153 
2497	 0.354996332019974 
2498	 0.35479816111817 
2499	 0.354580234158925 
2500	 0.354164030690271 
