Wavelength	LMW200005.asd
350	 6.92062924919132E-02 
351	 7.83502305673488E-02 
352	 8.06734078921407E-02 
353	 6.93716271077746E-02 
354	 6.70740998674441E-02 
355	 7.13084766932066E-02 
356	 7.45486563920931E-02 
357	 7.14036724496981E-02 
358	 7.11540648646644E-02 
359	 6.89700866092912E-02 
360	 6.68900934966136E-02 
361	 7.04461797992586E-02 
362	 7.00585182059697E-02 
363	 0.069063923018499 
364	 6.98704903676192E-02 
365	 7.10411416663463E-02 
366	 7.06713511865087E-02 
367	 7.07386382452253E-02 
368	 7.28150641237644E-02 
369	 0.072346976089989 
370	 7.28552833743304E-02 
371	 7.39408390524757E-02 
372	 7.27549185969779E-02 
373	 7.23414091115765E-02 
374	 7.24977147086898E-02 
375	 7.27209511002768E-02 
376	 0.072910157524587 
377	 7.04643977204794E-02 
378	 7.05857513166691E-02 
379	 7.68920045810209E-02 
380	 7.67062120516315E-02 
381	 0.075095779867938 
382	 7.53018740659454E-02 
383	 7.81358837606417E-02 
384	 7.80159950716527E-02 
385	 0.076479352140805 
386	 7.60404265813765E-02 
387	 7.92198355717473E-02 
388	 8.10499373697577E-02 
389	 8.04148158231629E-02 
390	 7.85017428810053E-02 
391	 8.01467878598991E-02 
392	 8.15024329356739E-02 
393	 8.17710789956482E-02 
394	 8.30128547034053E-02 
395	 8.45176541505302E-02 
396	 8.53726704100264E-02 
397	 0.085510041396265 
398	 8.68581169700338E-02 
399	 8.73815842396599E-02 
400	 8.78907410592058E-02 
401	 8.95659795489079E-02 
402	 8.95217338540457E-02 
403	 0.089525870137047 
404	 9.00267821527552E-02 
405	 8.99088168654599E-02 
406	 9.05641011237807E-02 
407	 9.24682852400395E-02 
408	 9.47034104366984E-02 
409	 9.30700390692579E-02 
410	 9.30307413652552E-02 
411	 0.094368637052624 
412	 9.45350938850097E-02 
413	 9.53684012462762E-02 
414	 9.59394348136852E-02 
415	 9.61243091553578E-02 
416	 9.71330705442656E-02 
417	 9.67271953542601E-02 
418	 9.63402839780568E-02 
419	 9.72835813566956E-02 
420	 9.73933480265131E-02 
421	 9.72105988275153E-02 
422	 9.72696573981555E-02 
423	 9.79179957419323E-02 
424	 9.78004042194724E-02 
425	 9.75780707957389E-02 
426	 9.76222403895852E-02 
427	 9.72743189820353E-02 
428	 9.70663846814361E-02 
429	 9.70585368733663E-02 
430	 9.70704232106702E-02 
431	 9.65220210104871E-02 
432	 9.61703216962636E-02 
433	 9.61335136494588E-02 
434	 0.095882839962628 
435	 9.58300024488971E-02 
436	 9.58364365562897E-02 
437	 9.57515148246015E-02 
438	 9.56123733845541E-02 
439	 0.095906398648437 
440	 9.64168036278466E-02 
441	 9.66408844679123E-02 
442	 9.69488034791266E-02 
443	 9.73229256353708E-02 
444	 9.76293458309718E-02 
445	 9.75935559669599E-02 
446	 9.78901715849684E-02 
447	 9.85254734416671E-02 
448	 9.92097929334592E-02 
449	 9.93317011257811E-02 
450	 9.96866397393635E-02 
451	 0.100363058054114 
452	 0.100821407259731 
453	 0.101084699966609 
454	 0.101190536879076 
455	 0.101322749346219 
456	 0.102069255674361 
457	 0.102326869128646 
458	 0.102357522129594 
459	 0.102900921207777 
460	 0.103169716120501 
461	 0.103136612751968 
462	 0.103078572445763 
463	 0.103597536684484 
464	 0.103848615017455 
465	 0.103923167364667 
466	 0.104103996203021 
467	 0.10431307512681 
468	 0.104468151595609 
469	 0.104560247870382 
470	 0.104651135106738 
471	 0.104946691683745 
472	 0.105113407593273 
473	 0.104996326024354 
474	 0.105050368693305 
475	 0.105237823858486 
476	 0.105351593923629 
477	 0.105195971600214 
478	 0.105324719861036 
479	 0.105491471685226 
480	 0.105546378496141 
481	 0.105565202830505 
482	 0.105818510738922 
483	 0.106105066567267 
484	 0.10617755205518 
485	 0.106182149546906 
486	 0.10622673882003 
487	 0.106289925116681 
488	 0.106255275938827 
489	 0.106288475060347 
490	 0.106395218309624 
491	 0.106555036829528 
492	 0.106800107441023 
493	 0.106747212457209 
494	 0.106613870191411 
495	 0.106824740727469 
496	 0.106960580994073 
497	 0.107054064765286 
498	 0.107157314685902 
499	 0.107284026545964 
500	 0.107445894551372 
501	 0.107606902165306 
502	 0.107715684411353 
503	 0.107719180033005 
504	 0.107718287070853 
505	 0.107767215686219 
506	 0.107867969359356 
507	 0.10796222124015 
508	 0.10803599204799 
509	 0.108076313076471 
510	 0.108032884601952 
511	 0.108014483703959 
512	 0.108074265331974 
513	 0.108219217505163 
514	 0.108373428146372 
515	 0.108434977733383 
516	 0.108425377097529 
517	 0.108577205077758 
518	 0.10870064483372 
519	 0.10874244817465 
520	 0.108736851164259 
521	 0.108929977910768 
522	 0.109042884535759 
523	 0.109031372905234 
524	 0.109121326613915 
525	 0.109110316477896 
526	 0.109135671259082 
527	 0.109299040056205 
528	 0.109355422452008 
529	 0.109425761229202 
530	 0.109519802827038 
531	 0.109580641155338 
532	 0.109685553525574 
533	 0.109799331550767 
534	 0.109892046111132 
535	 0.109973784986635 
536	 0.110078211242972 
537	 0.110199084344729 
538	 0.110305189176669 
539	 0.110319115421921 
540	 0.11038676928425 
541	 0.110548064014643 
542	 0.110681892035368 
543	 0.110838189363202 
544	 0.111006104269676 
545	 0.111155023115089 
546	 0.111229184879032 
547	 0.111342120899091 
548	 0.111500107406256 
549	 0.111619045636061 
550	 0.111759160796599 
551	 0.11192985863141 
552	 0.112129269879039 
553	 0.112355585061646 
554	 0.112581060541178 
555	 0.112787370996258 
556	 0.112973415931507 
557	 0.11323354192393 
558	 0.113499922532145 
559	 0.113765549294282 
560	 0.11417613397522 
561	 0.114483800111237 
562	 0.11472801566915 
563	 0.115032572452908 
564	 0.115362374285035 
565	 0.115782640204607 
566	 0.116243508594539 
567	 0.116569025716109 
568	 0.116954505325944 
569	 0.117450977525754 
570	 0.118033833753655 
571	 0.118560804087148 
572	 0.119096410483457 
573	 0.119664931593998 
574	 0.120252125341941 
575	 0.120750394636298 
576	 0.12129520428099 
577	 0.121952781359684 
578	 0.12255164833222 
579	 0.123192742851802 
580	 0.123908601609879 
581	 0.124693361362917 
582	 0.125476494208812 
583	 0.126254516333358 
584	 0.127010314300037 
585	 0.127696661893087 
586	 0.128450710860538 
587	 0.129255419082222 
588	 0.130062762697929 
589	 0.130927915111403 
590	 0.131761143759282 
591	 0.132558837702488 
592	 0.133397875530563 
593	 0.134209842541012 
594	 0.135049501397214 
595	 0.135935938361366 
596	 0.136732262964051 
597	 0.137555518350242 
598	 0.13839153235925 
599	 0.139164048198196 
600	 0.139890823948871 
601	 0.14062654037281 
602	 0.141382847345945 
603	 0.142089414791218 
604	 0.142799565733866 
605	 0.143487406795407 
606	 0.144115717323325 
607	 0.144735220589178 
608	 0.145366518165993 
609	 0.14600525166616 
610	 0.146621977547919 
611	 0.147152572398513 
612	 0.147665667069652 
613	 0.148216244256922 
614	 0.148705409010407 
615	 0.149146646090999 
616	 0.14956078590863 
617	 0.149969541743032 
618	 0.150350248229668 
619	 0.15071393994683 
620	 0.151063095283761 
621	 0.151367122019843 
622	 0.151653563849222 
623	 0.151944156635685 
624	 0.152252323074018 
625	 0.152550233664518 
626	 0.152843523934548 
627	 0.153113748360327 
628	 0.153306224348801 
629	 0.153576623189961 
630	 0.153876572944096 
631	 0.15412121670084 
632	 0.154324941903466 
633	 0.154508029930653 
634	 0.154712733365665 
635	 0.154988690250182 
636	 0.155214519347826 
637	 0.155423795435968 
638	 0.155654302764787 
639	 0.155885551931471 
640	 0.156101652011294 
641	 0.156314176693621 
642	 0.156546022149456 
643	 0.15679648705006 
644	 0.157016490372009 
645	 0.157216826257663 
646	 0.157501859301276 
647	 0.157753448553111 
648	 0.157984704717238 
649	 0.158235405625044 
650	 0.158485546489064 
651	 0.15872061035588 
652	 0.158957918170875 
653	 0.159237521485487 
654	 0.159490660471862 
655	 0.159748600397966 
656	 0.160034670703973 
657	 0.160296788598051 
658	 0.160631218550696 
659	 0.160997465275274 
660	 0.161298635509599 
661	 0.161562277931857 
662	 0.161888916700365 
663	 0.162276469387088 
664	 0.162565232492772 
665	 0.16286587645903 
666	 0.163196357271728 
667	 0.163543648629944 
668	 0.16386852601202 
669	 0.164254838560915 
670	 0.164684822839736 
671	 0.165058023590587 
672	 0.165434961762438 
673	 0.165839121990137 
674	 0.166269454915763 
675	 0.166682390572743 
676	 0.167105505826236 
677	 0.167519569053612 
678	 0.167905176071879 
679	 0.168383570454497 
680	 0.168856240391325 
681	 0.169298501387976 
682	 0.169807757088101 
683	 0.170256255198175 
684	 0.170697577539236 
685	 0.171198681165742 
686	 0.171691022502462 
687	 0.172228112456979 
688	 0.172775157875988 
689	 0.173247986550618 
690	 0.173773752555195 
691	 0.174317629660551 
692	 0.174846091293093 
693	 0.175375530038229 
694	 0.175928417349404 
695	 0.176499641955699 
696	 0.17707100788535 
697	 0.177616096780716 
698	 0.178173707241233 
699	 0.178768008528513 
700	 0.179399644565584 
701	 0.179983500955734 
702	 0.180529329255071 
703	 0.181081528825673 
704	 0.181725034383685 
705	 0.182312621640309 
706	 0.18286564830049 
707	 0.183477348769352 
708	 0.184030334165249 
709	 0.184601156881629 
710	 0.185220041720308 
711	 0.18582454046746 
712	 0.186388312326683 
713	 0.186931965749814 
714	 0.187490058517579 
715	 0.188084661271829 
716	 0.188672054419146 
717	 0.189233885738994 
718	 0.189772934859728 
719	 0.190298405495894 
720	 0.190813017514948 
721	 0.191307527700478 
722	 0.191743271193741 
723	 0.192261967261843 
724	 0.192789920668475 
725	 0.193217335573981 
726	 0.19366391957896 
727	 0.194101543287826 
728	 0.194501642027703 
729	 0.194846275483192 
730	 0.195234839727782 
731	 0.195573393385266 
732	 0.195824782505059 
733	 0.196180390208321 
734	 0.196478275875297 
735	 0.196710787426237 
736	 0.196931970869458 
737	 0.197153298950728 
738	 0.197355413960456 
739	 0.197525256905509 
740	 0.197660537864753 
741	 0.197775939481841 
742	 0.197869129939087 
743	 0.1979304442329 
744	 0.197937091184912 
745	 0.197941553867729 
746	 0.197947001121742 
747	 0.197928262841299 
748	 0.197844279266591 
749	 0.197809785120856 
750	 0.197801194966232 
751	 0.197618848458381 
752	 0.197481396917214 
753	 0.197354300311866 
754	 0.197175102103785 
755	 0.19697444000701 
756	 0.19679599275094 
757	 0.196604188903758 
758	 0.196335482298181 
759	 0.196054173933595 
760	 0.195757328315543 
761	 0.195445647634154 
762	 0.195131447081686 
763	 0.194876017593317 
764	 0.194592436280582 
765	 0.194222882854951 
766	 0.19389952006683 
767	 0.193568729215298 
768	 0.19319606169381 
769	 0.192774457654136 
770	 0.192415283400183 
771	 0.192082363976418 
772	 0.191728997264011 
773	 0.191316620880342 
774	 0.190923222998391 
775	 0.190525338167435 
776	 0.1901029682883 
777	 0.189715905326258 
778	 0.189289953159784 
779	 0.188845533921076 
780	 0.188438098680694 
781	 0.188040250522591 
782	 0.187661825406144 
783	 0.187268381232233 
784	 0.186787362385554 
785	 0.186380930449015 
786	 0.1860072252063 
787	 0.185605205255282 
788	 0.185162261303537 
789	 0.184755541005909 
790	 0.184371915399916 
791	 0.183972302222113 
792	 0.183589599209516 
793	 0.183204775661989 
794	 0.182811088146106 
795	 0.18241571386214 
796	 0.182017138567027 
797	 0.181636775822446 
798	 0.181270941908295 
799	 0.180862128266452 
800	 0.180506870725641 
801	 0.180172701024701 
802	 0.17980268089695 
803	 0.179402691740117 
804	 0.179081611707016 
805	 0.178801094867766 
806	 0.178445444962209 
807	 0.178110893782973 
808	 0.177768984247943 
809	 0.177414372916163 
810	 0.177086028325412 
811	 0.176831970625915 
812	 0.17656905130872 
813	 0.176237207155014 
814	 0.175922475072207 
815	 0.175598248733818 
816	 0.175283048058146 
817	 0.175006557812533 
818	 0.17476059636311 
819	 0.174529149070425 
820	 0.174291035669228 
821	 0.174027087569386 
822	 0.173777517451731 
823	 0.173550310671591 
824	 0.17333115780051 
825	 0.17307877342907 
826	 0.17288038380437 
827	 0.172690528542184 
828	 0.172459244400341 
829	 0.172243304300069 
830	 0.172038617733481 
831	 0.171825834107455 
832	 0.171597307715969 
833	 0.171463277543605 
834	 0.171363813125074 
835	 0.171222672963501 
836	 0.170978146623475 
837	 0.170766818551146 
838	 0.170648504948401 
839	 0.170583654557466 
840	 0.170393401233932 
841	 0.170266065994882 
842	 0.170150407848779 
843	 0.169989596731095 
844	 0.169931356425753 
845	 0.169817990742038 
846	 0.169679010880842 
847	 0.169609976968638 
848	 0.169528180417358 
849	 0.16946818620041 
850	 0.169408741971484 
851	 0.169289806879812 
852	 0.169216790856796 
853	 0.169168654702398 
854	 0.169121632844459 
855	 0.169076226460457 
856	 0.169088703727495 
857	 0.169066170265085 
858	 0.168958588143784 
859	 0.168907102825959 
860	 0.168918888776516 
861	 0.168945457575315 
862	 0.168939559437034 
863	 0.168981833507162 
864	 0.168967010026917 
865	 0.168925453802709 
866	 0.168954304256236 
867	 0.168952718273785 
868	 0.169001695629455 
869	 0.169087148708509 
870	 0.169093381353302 
871	 0.169082890923689 
872	 0.169111298958605 
873	 0.169192766822809 
874	 0.169277348415705 
875	 0.169368708193171 
876	 0.169432627360801 
877	 0.169467529031846 
878	 0.169571797785689 
879	 0.169718454393645 
880	 0.169850748768371 
881	 0.169929261624483 
882	 0.17003364963605 
883	 0.170161389350528 
884	 0.170280126799339 
885	 0.170363334867297 
886	 0.170519227125087 
887	 0.170703718604302 
888	 0.170863848444981 
889	 0.170963086361844 
890	 0.171076697270804 
891	 0.171234917406956 
892	 0.171447593129817 
893	 0.171700674553587 
894	 0.171846473065281 
895	 0.171998548706996 
896	 0.172232961859445 
897	 0.172461875667169 
898	 0.172664446880418 
899	 0.172846918659791 
900	 0.173043397830751 
901	 0.173337894729881 
902	 0.173575295187511 
903	 0.173802846255897 
904	 0.174097740721699 
905	 0.174363978384622 
906	 0.174648236480503 
907	 0.174929731505831 
908	 0.1751716777134 
909	 0.175424520086536 
910	 0.175715334863764 
911	 0.176037711097051 
912	 0.176361209246513 
913	 0.176666836140489 
914	 0.176956589626152 
915	 0.177277957841775 
916	 0.177692656792173 
917	 0.17803673291623 
918	 0.178378547202436 
919	 0.178753529188865 
920	 0.179120562475677 
921	 0.179453937768285 
922	 0.179801704195036 
923	 0.180182379455846 
924	 0.180554229645306 
925	 0.180952088834805 
926	 0.181419827954849 
927	 0.181922606687249 
928	 0.182286577051733 
929	 0.182823468944904 
930	 0.183321281704736 
931	 0.183651689912801 
932	 0.184196701278923 
933	 0.184607720269152 
934	 0.185016783699922 
935	 0.185571965760503 
936	 0.186053586671324 
937	 0.186512242846647 
938	 0.187005923101119 
939	 0.187570926069471 
940	 0.188154270167528 
941	 0.188741064799502 
942	 0.189306426626388 
943	 0.189851133080642 
944	 0.190476968576539 
945	 0.191048469653147 
946	 0.191590679217377 
947	 0.192177542340757 
948	 0.19273649577947 
949	 0.193301622662393 
950	 0.193896187640308 
951	 0.194543885525139 
952	 0.195319842368533 
953	 0.195999230093753 
954	 0.196580714940339 
955	 0.19719266663694 
956	 0.197841216107109 
957	 0.198515112949648 
958	 0.199168273532159 
959	 0.199788583794336 
960	 0.200654734354416 
961	 0.201417875859122 
962	 0.202050207690818 
963	 0.202751773312708 
964	 0.203554483070689 
965	 0.204303708839045 
966	 0.205002334214165 
967	 0.20575759284106 
968	 0.206530092401502 
969	 0.207277925326276 
970	 0.20801379058124 
971	 0.208786406360113 
972	 0.209625588268195 
973	 0.210489661164302 
974	 0.211326973613408 
975	 0.212109664714892 
976	 0.212938770871283 
977	 0.213748372411283 
978	 0.21456025319774 
979	 0.215431318506416 
980	 0.216250608956435 
981	 0.216990552357767 
982	 0.217762384962962 
983	 0.218686424798312 
984	 0.219478339034779 
985	 0.220413600536999 
986	 0.221388454264876 
987	 0.222159283222258 
988	 0.223020132496811 
989	 0.223927750903854 
990	 0.224787292239263 
991	 0.225561644706233 
992	 0.226570494113795 
993	 0.227343675718681 
994	 0.228066197058583 
995	 0.229074483159065 
996	 0.229974559077433 
997	 0.230780694794697 
998	 0.231678568780641 
999	 0.232754945351023 
1000	 0.233514369718955 
1001	 0.235444500327413 
1002	 0.236278859665269 
1003	 0.23712089962918 
1004	 0.237925323093187 
1005	 0.238648338871597 
1006	 0.239447685806232 
1007	 0.24026331822847 
1008	 0.241091932658449 
1009	 0.241913533432521 
1010	 0.242769794832601 
1011	 0.243640768197198 
1012	 0.244427604031304 
1013	 0.245229424928318 
1014	 0.246036843533555 
1015	 0.246760650473382 
1016	 0.247504453310491 
1017	 0.248271137191743 
1018	 0.249058084291256 
1019	 0.249799419887178 
1020	 0.250535872479259 
1021	 0.251306102375328 
1022	 0.252042259798335 
1023	 0.252698946275285 
1024	 0.253391379071163 
1025	 0.254109656914367 
1026	 0.254741430720834 
1027	 0.255405719320946 
1028	 0.256104292043629 
1029	 0.256749338014475 
1030	 0.257446391959703 
1031	 0.258123026942151 
1032	 0.258823430104987 
1033	 0.259479125953887 
1034	 0.260153613765795 
1035	 0.260776511424012 
1036	 0.261379524119061 
1037	 0.261994545354209 
1038	 0.262567105393352 
1039	 0.263153388367904 
1040	 0.263743533473526 
1041	 0.264334837246995 
1042	 0.264960477012837 
1043	 0.265576227850643 
1044	 0.266167975365145 
1045	 0.266753507971817 
1046	 0.267347180434557 
1047	 0.26792274859042 
1048	 0.268475188892543 
1049	 0.269054472662825 
1050	 0.269665535497788 
1051	 0.270261593208559 
1052	 0.2708319093684 
1053	 0.271432554727456 
1054	 0.272024167343699 
1055	 0.272565027813147 
1056	 0.273168982279583 
1057	 0.273753594716157 
1058	 0.274298636694562 
1059	 0.274881639832002 
1060	 0.275511644092025 
1061	 0.276079113600475 
1062	 0.276648677000932 
1063	 0.277267130609399 
1064	 0.277822608607045 
1065	 0.278373754821231 
1066	 0.278947626735084 
1067	 0.279467499782282 
1068	 0.280012587985628 
1069	 0.280618341624191 
1070	 0.281186505237924 
1071	 0.281738778667037 
1072	 0.282316347157622 
1073	 0.282896048246405 
1074	 0.28345386515137 
1075	 0.2840220615677 
1076	 0.284559058240869 
1077	 0.285089497330231 
1078	 0.28564302083559 
1079	 0.286199168439603 
1080	 0.286752819757275 
1081	 0.287306928279508 
1082	 0.287848534530792 
1083	 0.288377369751595 
1084	 0.288885631915995 
1085	 0.289428804815941 
1086	 0.289959512404515 
1087	 0.290509832326254 
1088	 0.291094892938378 
1089	 0.291658333618168 
1090	 0.292189545281907 
1091	 0.292725204850174 
1092	 0.293230239183447 
1093	 0.293757570309409 
1094	 0.294314940934883 
1095	 0.294861486602197 
1096	 0.295438356822245 
1097	 0.29598346142876 
1098	 0.296527203113115 
1099	 0.297065043564213 
1100	 0.297611480007928 
1101	 0.298157089395636 
1102	 0.298703062566637 
1103	 0.299265155616063 
1104	 0.299794115522929 
1105	 0.300331124875717 
1106	 0.300845787041149 
1107	 0.301368513369405 
1108	 0.301931210559508 
1109	 0.302482218027282 
1110	 0.303045920628737 
1111	 0.303620943244502 
1112	 0.304220216398711 
1113	 0.304789566083665 
1114	 0.305354129597447 
1115	 0.305918879435387 
1116	 0.306459600813 
1117	 0.307026038280582 
1118	 0.307600728347759 
1119	 0.308198781906285 
1120	 0.308800345952365 
1121	 0.309362565890758 
1122	 0.309918967110819 
1123	 0.310468909396842 
1124	 0.311018568098215 
1125	 0.311549211334914 
1126	 0.312114530036378 
1127	 0.312688026125607 
1128	 0.313272564793409 
1129	 0.313904357974313 
1130	 0.314479955245052 
1131	 0.315035080881701 
1132	 0.3155872162228 
1133	 0.316105592238226 
1134	 0.316635313927855 
1135	 0.317173320654745 
1136	 0.317704474968188 
1137	 0.318229411454052 
1138	 0.318729094747981 
1139	 0.319259871884026 
1140	 0.319804935081393 
1141	 0.32033349732496 
1142	 0.320877584343017 
1143	 0.321405455227851 
1144	 0.32191518938306 
1145	 0.322421445269751 
1146	 0.322922639465413 
1147	 0.323420862495401 
1148	 0.32391547158434 
1149	 0.324398603826099 
1150	 0.324878369251756 
1151	 0.325350954840314 
1152	 0.325810898894731 
1153	 0.326277060183053 
1154	 0.326756304624175 
1155	 0.327254246812555 
1156	 0.327732070408201 
1157	 0.328228864153485 
1158	 0.328680227661008 
1159	 0.329088300726236 
1160	 0.329525207219853 
1161	 0.32994472731498 
1162	 0.330380398471647 
1163	 0.330848614925919 
1164	 0.331296327185326 
1165	 0.331729193493844 
1166	 0.332177683576368 
1167	 0.332617501283864 
1168	 0.333043004742573 
1169	 0.333459385006525 
1170	 0.333870376125354 
1171	 0.334265947928257 
1172	 0.334638699771404 
1173	 0.335027785416775 
1174	 0.335427007892788 
1175	 0.335802750928913 
1176	 0.336170585023377 
1177	 0.336539368688924 
1178	 0.336884266175456 
1179	 0.337244103462342 
1180	 0.337617406501078 
1181	 0.337987333583806 
1182	 0.338374237487173 
1183	 0.338738306514322 
1184	 0.339080202060961 
1185	 0.339412107874381 
1186	 0.339734857154177 
1187	 0.340017356003509 
1188	 0.340338096738445 
1189	 0.340686347976896 
1190	 0.341001003072795 
1191	 0.341316944253623 
1192	 0.341617908112127 
1193	 0.341894177192334 
1194	 0.342171239397951 
1195	 0.342443491756298 
1196	 0.342713498793129 
1197	 0.342969570355043 
1198	 0.343233358208562 
1199	 0.34349949849067 
1200	 0.343770418936078 
1201	 0.344036674471604 
1202	 0.344305301953245 
1203	 0.344568506630332 
1204	 0.344830525121228 
1205	 0.345085975529512 
1206	 0.345346138705836 
1207	 0.345584568693443 
1208	 0.345809041013992 
1209	 0.34603034514435 
1210	 0.346231147641753 
1211	 0.346441165001948 
1212	 0.346650505755627 
1213	 0.346862116910661 
1214	 0.347093304730626 
1215	 0.347297506476343 
1216	 0.347489822573172 
1217	 0.347670734299268 
1218	 0.347856246341826 
1219	 0.348021602862443 
1220	 0.348202833024667 
1221	 0.348395766903959 
1222	 0.348585452589795 
1223	 0.348782894062664 
1224	 0.348961301860885 
1225	 0.349141496683909 
1226	 0.349306335126755 
1227	 0.349444016768594 
1228	 0.34959157987359 
1229	 0.349738800952283 
1230	 0.349883825476689 
1231	 0.350031274431668 
1232	 0.350172378530969 
1233	 0.350309321896483 
1234	 0.350438900358273 
1235	 0.350574818925713 
1236	 0.350704371147928 
1237	 0.350848921370133 
1238	 0.351016576880674 
1239	 0.351151266084545 
1240	 0.351275500725251 
1241	 0.351403256374448 
1242	 0.351516393920575 
1243	 0.351628477347238 
1244	 0.351749824360522 
1245	 0.351860778515703 
1246	 0.351937568628562 
1247	 0.352044921928061 
1248	 0.352168159208864 
1249	 0.352300315764156 
1250	 0.352410203186812 
1251	 0.35254794727891 
1252	 0.352655046730807 
1253	 0.352739200967222 
1254	 0.352827604564285 
1255	 0.352912979137904 
1256	 0.352994838552966 
1257	 0.353065661894072 
1258	 0.353145007469235 
1259	 0.353221639033677 
1260	 0.353307318976682 
1261	 0.35340739930091 
1262	 0.353493444590841 
1263	 0.353572210467562 
1264	 0.353660026655292 
1265	 0.353756333776414 
1266	 0.353835442673672 
1267	 0.35390868159287 
1268	 0.353986685584076 
1269	 0.354059729892238 
1270	 0.354110109411731 
1271	 0.354182610003898 
1272	 0.354282546513047 
1273	 0.35434397155493 
1274	 0.354380967238939 
1275	 0.354442836062054 
1276	 0.354489926807201 
1277	 0.354558379057564 
1278	 0.354663374683695 
1279	 0.354742567778437 
1280	 0.354807138226937 
1281	 0.354887085976634 
1282	 0.35496146086238 
1283	 0.35504732501088 
1284	 0.355162756825835 
1285	 0.355255642915623 
1286	 0.355325716667123 
1287	 0.355410771858089 
1288	 0.355478479738163 
1289	 0.355520627215194 
1290	 0.355588983084164 
1291	 0.355664196261264 
1292	 0.355739017826983 
1293	 0.355834297082249 
1294	 0.355893315201169 
1295	 0.355928411754463 
1296	 0.355983833663154 
1297	 0.356029811610686 
1298	 0.356079223668645 
1299	 0.356149873246979 
1300	 0.356201820541769 
1301	 0.35622490978535 
1302	 0.356268952915302 
1303	 0.356330685950584 
1304	 0.3563781842725 
1305	 0.356412877366897 
1306	 0.356462439378031 
1307	 0.356481709685067 
1308	 0.356489134183322 
1309	 0.35651343449955 
1310	 0.356544622484315 
1311	 0.356569390043738 
1312	 0.356609120957009 
1313	 0.356622554228861 
1314	 0.356620642384017 
1315	 0.356613433824274 
1316	 0.356567567267639 
1317	 0.356569793929359 
1318	 0.356591659419898 
1319	 0.356617552551773 
1320	 0.35667961708802 
1321	 0.356721692106563 
1322	 0.356757363450559 
1323	 0.35678224544697 
1324	 0.356828871598905 
1325	 0.35686685732296 
1326	 0.356894353113566 
1327	 0.356934587141927 
1328	 0.356934918278801 
1329	 0.356921293262014 
1330	 0.356934153055905 
1331	 0.356946078925544 
1332	 0.356966496906102 
1333	 0.357011273842678 
1334	 0.357040699333394 
1335	 0.357047534028029 
1336	 0.357093143637967 
1337	 0.357177726443338 
1338	 0.35722053307004 
1339	 0.357261400680416 
1340	 0.357301138353364 
1341	 0.35730044977616 
1342	 0.357328949476009 
1343	 0.357388794099959 
1344	 0.357431556890048 
1345	 0.357475928748917 
1346	 0.357537257360199 
1347	 0.357568292604797 
1348	 0.357620593922208 
1349	 0.357680422695576 
1350	 0.357697594543324 
1351	 0.357723783023556 
1352	 0.357746308102864 
1353	 0.357781932140105 
1354	 0.357813717316547 
1355	 0.357847212472628 
1356	 0.357895630187159 
1357	 0.357930183415 
1358	 0.357952525042945 
1359	 0.357982789954085 
1360	 0.358012783955295 
1361	 0.358050018309389 
1362	 0.358099268450565 
1363	 0.358129591977276 
1364	 0.35814833586792 
1365	 0.358179133161343 
1366	 0.358212074376839 
1367	 0.358231953248423 
1368	 0.358261445680274 
1369	 0.358282221689407 
1370	 0.358269796306414 
1371	 0.35825602962795 
1372	 0.358232619210495 
1373	 0.358195350218336 
1374	 0.358141494852061 
1375	 0.358076808968967 
1376	 0.357982337276994 
1377	 0.357858790189192 
1378	 0.357740673874348 
1379	 0.3576132572533 
1380	 0.357466692556034 
1381	 0.357317005197843 
1382	 0.357144058714033 
1383	 0.356936734494744 
1384	 0.356733164533541 
1385	 0.356546604058822 
1386	 0.356311931863385 
1387	 0.35606343334237 
1388	 0.35577860173093 
1389	 0.355467325791677 
1390	 0.355100187664067 
1391	 0.354715212996994 
1392	 0.354290274953577 
1393	 0.353816416018107 
1394	 0.353339299336251 
1395	 0.352824338445081 
1396	 0.352300082886152 
1397	 0.351784465038818 
1398	 0.351254207463206 
1399	 0.350735906302082 
1400	 0.35022515295851 
1401	 0.349720423644565 
1402	 0.349217322671456 
1403	 0.348722219381769 
1404	 0.348233669655412 
1405	 0.347754723716225 
1406	 0.347263760176794 
1407	 0.346813784188578 
1408	 0.346374018277685 
1409	 0.345976612542823 
1410	 0.345612036723336 
1411	 0.345281938560635 
1412	 0.3449762849784 
1413	 0.344718133265492 
1414	 0.344503842921782 
1415	 0.344331622510019 
1416	 0.344230439416123 
1417	 0.344153196535031 
1418	 0.344114870556987 
1419	 0.344092531088645 
1420	 0.344051385044344 
1421	 0.344027746813965 
1422	 0.343982349557554 
1423	 0.343924638351479 
1424	 0.343873317631961 
1425	 0.343817201983923 
1426	 0.343764545440861 
1427	 0.343717779334822 
1428	 0.343664419004572 
1429	 0.343606957334544 
1430	 0.343553781982459 
1431	 0.343494621675543 
1432	 0.343445318658087 
1433	 0.343403798276148 
1434	 0.34336206566936 
1435	 0.343321812878498 
1436	 0.343287974567717 
1437	 0.343253226127986 
1438	 0.343231241622214 
1439	 0.343227550915842 
1440	 0.343211986474282 
1441	 0.343189886022368 
1442	 0.343177197240174 
1443	 0.343155912324871 
1444	 0.343147727640429 
1445	 0.343165036822991 
1446	 0.343177585026485 
1447	 0.343187407967083 
1448	 0.343190713836729 
1449	 0.343185300129746 
1450	 0.34318057382001 
1451	 0.343174005559881 
1452	 0.343159840860799 
1453	 0.34316155223553 
1454	 0.34316645923684 
1455	 0.343175118892763 
1456	 0.343201417090043 
1457	 0.343217054478966 
1458	 0.343214596599011 
1459	 0.343239943994698 
1460	 0.343271125612629 
1461	 0.343314696243617 
1462	 0.343387258412042 
1463	 0.343452305275189 
1464	 0.343518354812606 
1465	 0.343586601559265 
1466	 0.343642718433389 
1467	 0.343729070844632 
1468	 0.343831489160737 
1469	 0.343944102434405 
1470	 0.344086018723682 
1471	 0.344219002269357 
1472	 0.344345919267152 
1473	 0.344492212372122 
1474	 0.344634921551466 
1475	 0.344800771414746 
1476	 0.344997919826984 
1477	 0.345180458650047 
1478	 0.345377800162838 
1479	 0.345566502628589 
1480	 0.345730452037624 
1481	 0.345915585898784 
1482	 0.346094031346547 
1483	 0.346265269265927 
1484	 0.346451014149146 
1485	 0.346636038985782 
1486	 0.346838123360205 
1487	 0.347066439977689 
1488	 0.34727201672137 
1489	 0.347479723149834 
1490	 0.347685507407971 
1491	 0.347878816211588 
1492	 0.348072335564308 
1493	 0.348276866444546 
1494	 0.348464570749427 
1495	 0.348635309991682 
1496	 0.348809250277547 
1497	 0.348986302776981 
1498	 0.349146716132441 
1499	 0.349290396534607 
1500	 0.349444291785348 
1501	 0.349588148398196 
1502	 0.349740420243407 
1503	 0.349913173436396 
1504	 0.350067084679861 
1505	 0.350193233556267 
1506	 0.350335509495894 
1507	 0.350477835169025 
1508	 0.350615612918813 
1509	 0.350776731033065 
1510	 0.35092634601223 
1511	 0.351050230663529 
1512	 0.351189258462549 
1513	 0.351358981151634 
1514	 0.351520274162681 
1515	 0.351684519717809 
1516	 0.351864150706521 
1517	 0.352010771816633 
1518	 0.352126539861091 
1519	 0.352257814115366 
1520	 0.352381728541374 
1521	 0.352504355472989 
1522	 0.35262948823966 
1523	 0.352751244534627 
1524	 0.352868889373411 
1525	 0.352988886775959 
1526	 0.353105588096376 
1527	 0.35322507208766 
1528	 0.35334857410252 
1529	 0.35346438513786 
1530	 0.353577839550379 
1531	 0.353694283589395 
1532	 0.353806819713597 
1533	 0.353918997926581 
1534	 0.354042992951121 
1535	 0.354148504770305 
1536	 0.354235663758134 
1537	 0.354332192149784 
1538	 0.354419350145359 
1539	 0.354515672311509 
1540	 0.354623007815411 
1541	 0.354728839781111 
1542	 0.354850217889627 
1543	 0.354946223610654 
1544	 0.355034099681553 
1545	 0.355110373731341 
1546	 0.355156957891239 
1547	 0.355210424181918 
1548	 0.355274262105492 
1549	 0.355357889798395 
1550	 0.355476417961879 
1551	 0.355577824047663 
1552	 0.355683296770601 
1553	 0.355787385828769 
1554	 0.355874654613803 
1555	 0.355977962838739 
1556	 0.356074888175888 
1557	 0.356147767487654 
1558	 0.356202413094326 
1559	 0.356250991122083 
1560	 0.356298127248162 
1561	 0.356327907249355 
1562	 0.356382010686477 
1563	 0.356433548747117 
1564	 0.356515420877573 
1565	 0.35662092899801 
1566	 0.35672841282049 
1567	 0.356867794260916 
1568	 0.356970464711178 
1569	 0.357066267014063 
1570	 0.35714885819326 
1571	 0.357214445267593 
1572	 0.357277612504991 
1573	 0.357335101530676 
1574	 0.357380719783367 
1575	 0.35740491224046 
1576	 0.357443128396771 
1577	 0.357482213321937 
1578	 0.357519179555297 
1579	 0.357559258806916 
1580	 0.357599429472901 
1581	 0.357633545744771 
1582	 0.35767168931119 
1583	 0.357709172525801 
1584	 0.357760423674324 
1585	 0.357808835420097 
1586	 0.357877668938916 
1587	 0.357981805551733 
1588	 0.358060791759013 
1589	 0.358152060724996 
1590	 0.358215220118023 
1591	 0.35824237509663 
1592	 0.358286133370431 
1593	 0.358317591469639 
1594	 0.358363269107655 
1595	 0.358426115839783 
1596	 0.3584806655967 
1597	 0.358544697709872 
1598	 0.358591530222299 
1599	 0.358630863775756 
1600	 0.358661275325557 
1601	 0.358662181686637 
1602	 0.358686655442974 
1603	 0.358726117686818 
1604	 0.358754619416301 
1605	 0.358776520859662 
1606	 0.358817319076924 
1607	 0.358865998921248 
1608	 0.358905445963149 
1609	 0.358966388881654 
1610	 0.359028582775421 
1611	 0.359049120211811 
1612	 0.359072732829169 
1613	 0.359091428406038 
1614	 0.359107808785286 
1615	 0.35913102068249 
1616	 0.35914816779998 
1617	 0.359180391002255 
1618	 0.359217779716168 
1619	 0.359264822942206 
1620	 0.359310432241562 
1621	 0.359351312421728 
1622	 0.359390862439976 
1623	 0.35942876645836 
1624	 0.359461112285242 
1625	 0.35949948669307 
1626	 0.359541827152882 
1627	 0.359566931219714 
1628	 0.359596021813985 
1629	 0.359603690030583 
1630	 0.35957906345557 
1631	 0.35959354626176 
1632	 0.359612827613164 
1633	 0.359634749532897 
1634	 0.359679835736851 
1635	 0.359710129224042 
1636	 0.35972652126128 
1637	 0.35975911459728 
1638	 0.359801813970302 
1639	 0.359840328874223 
1640	 0.359880215582943 
1641	 0.359923964860888 
1642	 0.359975441084156 
1643	 0.36001071352797 
1644	 0.360044326622706 
1645	 0.360072475383773 
1646	 0.360079001595235 
1647	 0.360108636748727 
1648	 0.360151183490183 
1649	 0.3601857909014 
1650	 0.360231554602153 
1651	 0.360258975408319 
1652	 0.36027527255159 
1653	 0.360289655650549 
1654	 0.360289898423025 
1655	 0.360303811090842 
1656	 0.36031761966081 
1657	 0.360338625878568 
1658	 0.360372894722991 
1659	 0.360396280957463 
1660	 0.360424332757761 
1661	 0.360436721764716 
1662	 0.360433618819099 
1663	 0.360440109844837 
1664	 0.360442151353782 
1665	 0.360445268402195 
1666	 0.360458099990998 
1667	 0.360457143701044 
1668	 0.360449542304603 
1669	 0.36043458649682 
1670	 0.360406101805171 
1671	 0.360388082899543 
1672	 0.360355015641459 
1673	 0.36035398827063 
1674	 0.360371149910581 
1675	 0.360394734010644 
1676	 0.360439660149853 
1677	 0.360482064518598 
1678	 0.360545873353849 
1679	 0.360575091610798 
1680	 0.360584657255553 
1681	 0.360609593650889 
1682	 0.360618948734642 
1683	 0.360636926141136 
1684	 0.360684703597001 
1685	 0.360698822549605 
1686	 0.360684037988787 
1687	 0.360683988040559 
1688	 0.360676596839245 
1689	 0.36067868576996 
1690	 0.36068493986154 
1691	 0.360699382755135 
1692	 0.360734269080639 
1693	 0.360737605593863 
1694	 0.360728925046308 
1695	 0.360728298344209 
1696	 0.360701494169047 
1697	 0.360702910138325 
1698	 0.360733054539545 
1699	 0.360747257288189 
1700	 0.360761275526463 
1701	 0.360773093749199 
1702	 0.360782391581196 
1703	 0.360790731773528 
1704	 0.360807412724727 
1705	 0.36080272723778 
1706	 0.360776391533357 
1707	 0.360769054319886 
1708	 0.360757455278121 
1709	 0.360748875143673 
1710	 0.360755333040455 
1711	 0.360752824969829 
1712	 0.360733583568794 
1713	 0.360737734864947 
1714	 0.360763686479489 
1715	 0.360768462183552 
1716	 0.36077432065782 
1717	 0.360774028902496 
1718	 0.360761014691943 
1719	 0.360747522774606 
1720	 0.360740227773264 
1721	 0.360715864220605 
1722	 0.360674211940404 
1723	 0.360639933935626 
1724	 0.360591210857564 
1725	 0.360568626469842 
1726	 0.360571051230137 
1727	 0.360537115091588 
1728	 0.360503377922577 
1729	 0.360456528945931 
1730	 0.360378521003316 
1731	 0.360324760122655 
1732	 0.360293771852838 
1733	 0.360218593491717 
1734	 0.360115746422664 
1735	 0.360031252616204 
1736	 0.35992750166805 
1737	 0.359851629270848 
1738	 0.35979754567295 
1739	 0.359741019516407 
1740	 0.359686350980055 
1741	 0.359638015036349 
1742	 0.359613559056508 
1743	 0.3595569733937 
1744	 0.359485774638166 
1745	 0.35940830635634 
1746	 0.359300823313526 
1747	 0.359248504471446 
1748	 0.359220295084169 
1749	 0.359162391185162 
1750	 0.35911465426631 
1751	 0.359057130623286 
1752	 0.35897097893333 
1753	 0.358895198684035 
1754	 0.358801555030466 
1755	 0.358714485105455 
1756	 0.358622880313019 
1757	 0.358541606975972 
1758	 0.35850683010302 
1759	 0.358455530286275 
1760	 0.358376881821578 
1761	 0.358311535708932 
1762	 0.358237584633506 
1763	 0.358158094256939 
1764	 0.358102887371082 
1765	 0.358052472790659 
1766	 0.35801284470637 
1767	 0.357982252091444 
1768	 0.35794669023501 
1769	 0.357923303442386 
1770	 0.357878926844913 
1771	 0.357814369842188 
1772	 0.35776242013634 
1773	 0.357715500283431 
1774	 0.357656917698812 
1775	 0.357572496322737 
1776	 0.357491832469121 
1777	 0.357406249583778 
1778	 0.357331890748433 
1779	 0.357313150135815 
1780	 0.357297788528043 
1781	 0.357271292451615 
1782	 0.35726450494995 
1783	 0.357284481797999 
1784	 0.357265383964439 
1785	 0.357222076174424 
1786	 0.35720227820709 
1787	 0.357155404890689 
1788	 0.357134694484138 
1789	 0.357167640153359 
1790	 0.357175845545743 
1791	 0.357164008238066 
1792	 0.357162077181318 
1793	 0.357174490061392 
1794	 0.357155339779868 
1795	 0.357131118337772 
1796	 0.357099543271191 
1797	 0.357031880192957 
1798	 0.356995094679185 
1799	 0.356946064835729 
1800	 0.356953993416307 
1801	 0.352261399471126 
1802	 0.352277454920417 
1803	 0.352301027520152 
1804	 0.35233723534265 
1805	 0.352386869979592 
1806	 0.352427414687818 
1807	 0.352453788431844 
1808	 0.352480147871692 
1809	 0.352513163205844 
1810	 0.35252628195195 
1811	 0.352519122370762 
1812	 0.3525289246824 
1813	 0.352521690950869 
1814	 0.352506118344763 
1815	 0.352481108141511 
1816	 0.352444097676387 
1817	 0.352432496632669 
1818	 0.352425830386225 
1819	 0.352428671513731 
1820	 0.352457182096473 
1821	 0.352468412653498 
1822	 0.352451596390336 
1823	 0.352452542777044 
1824	 0.352415422052146 
1825	 0.352394958766945 
1826	 0.352388167352204 
1827	 0.352333898512248 
1828	 0.352280400719362 
1829	 0.3522024260219 
1830	 0.352139220882684 
1831	 0.352077394760381 
1832	 0.35201521763848 
1833	 0.351935479229953 
1834	 0.351870913128846 
1835	 0.351804342189949 
1836	 0.351751239090918 
1837	 0.351696737976488 
1838	 0.351609810157962 
1839	 0.351534096240214 
1840	 0.351455914601109 
1841	 0.351351070443552 
1842	 0.351245112827284 
1843	 0.351206225343729 
1844	 0.351155645622032 
1845	 0.351066174773154 
1846	 0.350979317133192 
1847	 0.350892194914904 
1848	 0.35076949504445 
1849	 0.350646742886597 
1850	 0.350544403881474 
1851	 0.350471952143161 
1852	 0.350359351033633 
1853	 0.350241927624185 
1854	 0.350133565245011 
1855	 0.349996287758875 
1856	 0.349840408584594 
1857	 0.349649880604092 
1858	 0.349439087546824 
1859	 0.349210691345091 
1860	 0.348976667722799 
1861	 0.34872316855503 
1862	 0.34848121736106 
1863	 0.348229842788897 
1864	 0.347961343290724 
1865	 0.347651945791078 
1866	 0.347276397541068 
1867	 0.346850734090162 
1868	 0.346387473844099 
1869	 0.345877330732629 
1870	 0.345321663727677 
1871	 0.344740531284418 
1872	 0.344135472239727 
1873	 0.34349247447799 
1874	 0.342795412388804 
1875	 0.342060951964416 
1876	 0.341250832002932 
1877	 0.340354292260656 
1878	 0.339383661140538 
1879	 0.338324584124988 
1880	 0.33718805036901 
1881	 0.335965814721801 
1882	 0.334679070359803 
1883	 0.33332300370745 
1884	 0.331858543333481 
1885	 0.330346961094942 
1886	 0.328758673188209 
1887	 0.327046546518036 
1888	 0.325308245849509 
1889	 0.323497757623687 
1890	 0.321601634224402 
1891	 0.319719176716394 
1892	 0.31777857327934 
1893	 0.315866554855412 
1894	 0.313951656106767 
1895	 0.312055575671659 
1896	 0.310111336999759 
1897	 0.308182477423322 
1898	 0.306286197385526 
1899	 0.304454439231981 
1900	 0.302723629746364 
1901	 0.301106991350813 
1902	 0.299567793216893 
1903	 0.298126513801361 
1904	 0.296741725098726 
1905	 0.295432051992657 
1906	 0.294225437689878 
1907	 0.293042317545999 
1908	 0.291946995247892 
1909	 0.290967547968257 
1910	 0.290033620432861 
1911	 0.289175268896005 
1912	 0.288385287572032 
1913	 0.287647067309013 
1914	 0.286957694932912 
1915	 0.286313340674221 
1916	 0.285718779050488 
1917	 0.285202686888982 
1918	 0.28471896510407 
1919	 0.284279360773106 
1920	 0.283906272994349 
1921	 0.28356537315736 
1922	 0.283259563859974 
1923	 0.282998513706525 
1924	 0.282770660145136 
1925	 0.282582262056546 
1926	 0.282428741679951 
1927	 0.282301816307434 
1928	 0.28222667216231 
1929	 0.28220475450121 
1930	 0.282219841133714 
1931	 0.282273884631883 
1932	 0.282350823852552 
1933	 0.282419168322105 
1934	 0.282513439288276 
1935	 0.28264127228192 
1936	 0.282778687328366 
1937	 0.282963671569999 
1938	 0.283204764222696 
1939	 0.28345125715025 
1940	 0.283717665961844 
1941	 0.284020916020703 
1942	 0.284345191394683 
1943	 0.284680976276689 
1944	 0.285031801806 
1945	 0.285401026760234 
1946	 0.285779787545861 
1947	 0.286165610538184 
1948	 0.286558152883604 
1949	 0.286968343800667 
1950	 0.287385229419579 
1951	 0.287802097701262 
1952	 0.288233310036458 
1953	 0.288690069971804 
1954	 0.289152821450032 
1955	 0.289588304554065 
1956	 0.29002919789617 
1957	 0.290491401121008 
1958	 0.290948374665454 
1959	 0.291421536921069 
1960	 0.291935497779891 
1961	 0.292432969473614 
1962	 0.292920849684074 
1963	 0.293422376473288 
1964	 0.293930597304804 
1965	 0.294434051184832 
1966	 0.294962489982976 
1967	 0.295502600761235 
1968	 0.29604949738392 
1969	 0.296626609309174 
1970	 0.297170320746766 
1971	 0.29770910890763 
1972	 0.298244207017935 
1973	 0.298768748785263 
1974	 0.299284638272108 
1975	 0.299789214006409 
1976	 0.300300124688366 
1977	 0.300822971841592 
1978	 0.30131874704486 
1979	 0.301814047705313 
1980	 0.302335778699348 
1981	 0.30285782682785 
1982	 0.303369104696601 
1983	 0.30390067805405 
1984	 0.304463100732988 
1985	 0.305007737491435 
1986	 0.305561484896239 
1987	 0.306094439062354 
1988	 0.306610589695163 
1989	 0.307131650077077 
1990	 0.307647399135039 
1991	 0.308175453307181 
1992	 0.308715604878867 
1993	 0.309289669720062 
1994	 0.309831384885427 
1995	 0.310369583099986 
1996	 0.310893805579469 
1997	 0.311403375739125 
1998	 0.311911834425189 
1999	 0.312405049558721 
2000	 0.312909450515804 
2001	 0.313421073512976 
2002	 0.313915932631516 
2003	 0.31443437731244 
2004	 0.314946469805124 
2005	 0.315451449650502 
2006	 0.315969021643319 
2007	 0.316454876815986 
2008	 0.316902558378153 
2009	 0.317381792829637 
2010	 0.317858335544501 
2011	 0.318332772525986 
2012	 0.318841360394607 
2013	 0.319316958322022 
2014	 0.319757742919251 
2015	 0.320214592530134 
2016	 0.320660786944596 
2017	 0.321086655852282 
2018	 0.32154488680011 
2019	 0.322030189254442 
2020	 0.32248337693832 
2021	 0.322953214154295 
2022	 0.323388501343087 
2023	 0.323781962312517 
2024	 0.324187729687565 
2025	 0.324589099590099 
2026	 0.324981909294805 
2027	 0.325376007820562 
2028	 0.325751226927757 
2029	 0.326126528258771 
2030	 0.326487276885914 
2031	 0.326857879621048 
2032	 0.327227751449821 
2033	 0.32760105488734 
2034	 0.327976124805541 
2035	 0.328351413072778 
2036	 0.328740014884572 
2037	 0.329109564218316 
2038	 0.329482591755681 
2039	 0.329832426314421 
2040	 0.330173049102452 
2041	 0.330477227579747 
2042	 0.33077168649007 
2043	 0.331075933443374 
2044	 0.331397992172446 
2045	 0.331732443496072 
2046	 0.332060453857184 
2047	 0.332419204248367 
2048	 0.332734183273996 
2049	 0.333018485303352 
2050	 0.333312741512202 
2051	 0.333581891190931 
2052	 0.333869357242588 
2053	 0.334171987221903 
2054	 0.334470593689206 
2055	 0.334789572235749 
2056	 0.335086909315861 
2057	 0.335352265781245 
2058	 0.335585492121518 
2059	 0.335842780189645 
2060	 0.336071997387306 
2061	 0.336328599042946 
2062	 0.336614991654937 
2063	 0.336892895171722 
2064	 0.337171783823379 
2065	 0.337446732199645 
2066	 0.337738961566064 
2067	 0.338006571816106 
2068	 0.338251003586469 
2069	 0.3384992367448 
2070	 0.338747450471281 
2071	 0.338990144129359 
2072	 0.339228863055453 
2073	 0.339471554312735 
2074	 0.339699476989057 
2075	 0.339901610646508 
2076	 0.340131236276829 
2077	 0.340369725153936 
2078	 0.340606655505321 
2079	 0.34085211064771 
2080	 0.341099968833599 
2081	 0.341352112869279 
2082	 0.341597208008731 
2083	 0.341837807437586 
2084	 0.342095538753507 
2085	 0.342338653306072 
2086	 0.342577187340223 
2087	 0.342801144772112 
2088	 0.343013467553441 
2089	 0.343233239065101 
2090	 0.343446785038671 
2091	 0.343652830852139 
2092	 0.34385577091996 
2093	 0.344069933150079 
2094	 0.344271174547541 
2095	 0.344483475774942 
2096	 0.344733280835564 
2097	 0.344952035250433 
2098	 0.345159068842594 
2099	 0.345354533855887 
2100	 0.345539300694935 
2101	 0.345698587416888 
2102	 0.345879393479202 
2103	 0.346048203370094 
2104	 0.346248461717018 
2105	 0.346455838841641 
2106	 0.3466924638399 
2107	 0.346969909548052 
2108	 0.347228803911628 
2109	 0.347501741564477 
2110	 0.34777511631182 
2111	 0.348058575239888 
2112	 0.34831661952406 
2113	 0.348572544954457 
2114	 0.348824852872476 
2115	 0.34904513089179 
2116	 0.349217376845343 
2117	 0.3494320769803 
2118	 0.349641433480621 
2119	 0.34987207174368 
2120	 0.350133048727054 
2121	 0.350374071376724 
2122	 0.350625057625028 
2123	 0.350854219919312 
2124	 0.351065913716149 
2125	 0.35128069833865 
2126	 0.351495528896217 
2127	 0.351692749517265 
2128	 0.351884571633774 
2129	 0.352063938482277 
2130	 0.35222375693988 
2131	 0.352383342559532 
2132	 0.352513312589657 
2133	 0.352636650453461 
2134	 0.352724300563143 
2135	 0.352774253034953 
2136	 0.352823188127575 
2137	 0.352861982220933 
2138	 0.352870394639845 
2139	 0.352851769124183 
2140	 0.352829579959783 
2141	 0.352772942675104 
2142	 0.35272722668093 
2143	 0.352699967954062 
2144	 0.352641054248486 
2145	 0.352563835105007 
2146	 0.3524775439497 
2147	 0.352374475132983 
2148	 0.352249019093421 
2149	 0.352129341205912 
2150	 0.352014446833475 
2151	 0.35186849836998 
2152	 0.351716090923744 
2153	 0.351529083291064 
2154	 0.351300118935203 
2155	 0.351085399734341 
2156	 0.350850371106071 
2157	 0.350623933019715 
2158	 0.350404060969579 
2159	 0.35017492300621 
2160	 0.349940517343588 
2161	 0.349702299757563 
2162	 0.349461651308276 
2163	 0.349215580823418 
2164	 0.348964843148068 
2165	 0.348710988886682 
2166	 0.348444696979738 
2167	 0.348163839822321 
2168	 0.347899229005657 
2169	 0.34763608057075 
2170	 0.347360078265701 
2171	 0.34710412782787 
2172	 0.346803976152684 
2173	 0.34646716220831 
2174	 0.346138730774381 
2175	 0.345779606227076 
2176	 0.34544519426296 
2177	 0.345119151532922 
2178	 0.344793756057001 
2179	 0.34447768912031 
2180	 0.344161412132368 
2181	 0.343846939876957 
2182	 0.343534597566952 
2183	 0.343254441351046 
2184	 0.342926679225026 
2185	 0.342586608963222 
2186	 0.342221481775335 
2187	 0.341878615600349 
2188	 0.341512303871719 
2189	 0.341175507791314 
2190	 0.340856167863266 
2191	 0.340552516888852 
2192	 0.340255342806285 
2193	 0.339972160726833 
2194	 0.339707504495425 
2195	 0.33946235305333 
2196	 0.339225361999659 
2197	 0.33901013895577 
2198	 0.338817073932331 
2199	 0.33865098885142 
2200	 0.338513013327297 
2201	 0.338379129589039 
2202	 0.338277150128459 
2203	 0.338177251437166 
2204	 0.338073058930713 
2205	 0.337960992866354 
2206	 0.337874505749725 
2207	 0.337771976096993 
2208	 0.337748550113023 
2209	 0.337770826990214 
2210	 0.337805177343881 
2211	 0.337913307889426 
2212	 0.337978734777231 
2213	 0.33803159125667 
2214	 0.338102715721506 
2215	 0.338166138652957 
2216	 0.338255298587474 
2217	 0.338377590718659 
2218	 0.338482656410599 
2219	 0.338631083589269 
2220	 0.338714636584689 
2221	 0.338746939494378 
2222	 0.338786362241493 
2223	 0.338808654900955 
2224	 0.338812034383776 
2225	 0.338818173194747 
2226	 0.338853560199507 
2227	 0.338814247205605 
2228	 0.338714120449776 
2229	 0.338660268178026 
2230	 0.338586535592423 
2231	 0.338529712002424 
2232	 0.338509171988403 
2233	 0.33845805356729 
2234	 0.338389213756769 
2235	 0.338317698788498 
2236	 0.338250812456621 
2237	 0.338159693513335 
2238	 0.338016443708424 
2239	 0.33793152123764 
2240	 0.337861508329337 
2241	 0.337797426860734 
2242	 0.337801614929342 
2243	 0.337754678336647 
2244	 0.337685465040723 
2245	 0.337594364396662 
2246	 0.337486308969309 
2247	 0.337373401309988 
2248	 0.337276953400658 
2249	 0.337185732065319 
2250	 0.337083888241087 
2251	 0.336972726034698 
2252	 0.336900110051009 
2253	 0.336842351612712 
2254	 0.336776967514943 
2255	 0.336756138331432 
2256	 0.336681551060219 
2257	 0.336547159041966 
2258	 0.336466990363351 
2259	 0.336383171355584 
2260	 0.336330133979499 
2261	 0.336306445615421 
2262	 0.336297949580848 
2263	 0.336320479964235 
2264	 0.336338988712518 
2265	 0.336359003877254 
2266	 0.336411265447066 
2267	 0.33649394727655 
2268	 0.336558283203861 
2269	 0.336648767123067 
2270	 0.336728745573222 
2271	 0.336780354708878 
2272	 0.336809846578391 
2273	 0.3368152176428 
2274	 0.336840429581864 
2275	 0.336868164560722 
2276	 0.336872583355833 
2277	 0.336931308987565 
2278	 0.337045256402435 
2279	 0.337102929538615 
2280	 0.337167086421768 
2281	 0.337211386774589 
2282	 0.337205012632026 
2283	 0.337239577246845 
2284	 0.337295494789245 
2285	 0.337340818321119 
2286	 0.337386810434846 
2287	 0.337438406861026 
2288	 0.33749783274575 
2289	 0.337552387878145 
2290	 0.337617003015646 
2291	 0.337662702102628 
2292	 0.337685960913306 
2293	 0.337717187691749 
2294	 0.337745266980282 
2295	 0.337774719181817 
2296	 0.337814257776577 
2297	 0.337843491476938 
2298	 0.337853880895209 
2299	 0.337866137921254 
2300	 0.337874919275387 
2301	 0.337868228543299 
2302	 0.337879803574466 
2303	 0.337900941994233 
2304	 0.337935587801196 
2305	 0.338002268159129 
2306	 0.338064998427565 
2307	 0.338154081630815 
2308	 0.33821111815594 
2309	 0.338283291609058 
2310	 0.338295186572912 
2311	 0.338246270763433 
2312	 0.338228146215942 
2313	 0.338191153969928 
2314	 0.338158157106855 
2315	 0.338132611738868 
2316	 0.338122084681016 
2317	 0.338090148739283 
2318	 0.338085448086027 
2319	 0.338148553637312 
2320	 0.338155908528808 
2321	 0.338140230254994 
2322	 0.338124554845251 
2323	 0.338078063020557 
2324	 0.338029280005771 
2325	 0.337993377950887 
2326	 0.337936808991028 
2327	 0.337850679014517 
2328	 0.337765591993241 
2329	 0.337717589835535 
2330	 0.337704472828549 
2331	 0.337724633669445 
2332	 0.337747433726211 
2333	 0.337747748318934 
2334	 0.337743148090857 
2335	 0.337688748489163 
2336	 0.337652434754077 
2337	 0.33765567944348 
2338	 0.33761250309676 
2339	 0.337568229398841 
2340	 0.33749267928058 
2341	 0.337367513287253 
2342	 0.337239102315084 
2343	 0.337126198213085 
2344	 0.337080209592908 
2345	 0.336990728795997 
2346	 0.336894187969102 
2347	 0.336800518398388 
2348	 0.336676958201801 
2349	 0.336579418661612 
2350	 0.336542868532692 
2351	 0.336434207561055 
2352	 0.336276793413897 
2353	 0.336143998182148 
2354	 0.335994234364126 
2355	 0.335831468214898 
2356	 0.33570929574932 
2357	 0.335531121371844 
2358	 0.335263178601097 
2359	 0.335051972345506 
2360	 0.334840959378783 
2361	 0.334635401710076 
2362	 0.334498458768772 
2363	 0.334289820306206 
2364	 0.333981890531915 
2365	 0.333782017943408 
2366	 0.333608277360802 
2367	 0.333429758590852 
2368	 0.333329520405473 
2369	 0.333195354090585 
2370	 0.333044319965625 
2371	 0.332885679892322 
2372	 0.332639660842326 
2373	 0.33243833461267 
2374	 0.332227405804493 
2375	 0.33188578858659 
2376	 0.33159566382265 
2377	 0.331304802085214 
2378	 0.330929433348244 
2379	 0.330625814084684 
2380	 0.330287171928061 
2381	 0.329901668914118 
2382	 0.329593281037501 
2383	 0.329296407435053 
2384	 0.329063503573655 
2385	 0.328873927499828 
2386	 0.328604535741519 
2387	 0.328322060182822 
2388	 0.328055082427102 
2389	 0.327745438811154 
2390	 0.327497074762978 
2391	 0.327265479298262 
2392	 0.327003774076765 
2393	 0.326801351639052 
2394	 0.326540824997465 
2395	 0.326207089126444 
2396	 0.325822945083257 
2397	 0.325375793023945 
2398	 0.324906383835875 
2399	 0.324436725592592 
2400	 0.324076300429918 
2401	 0.323716172566328 
2402	 0.323329838241228 
2403	 0.323060570220924 
2404	 0.322752692163173 
2405	 0.32244248192344 
2406	 0.322180367781215 
2407	 0.321864825106294 
2408	 0.321513219702002 
2409	 0.32115786441044 
2410	 0.320888964467865 
2411	 0.320612276987744 
2412	 0.320262436158939 
2413	 0.319888156985715 
2414	 0.319410239843671 
2415	 0.318867746442951 
2416	 0.318490217992287 
2417	 0.3182871267508 
2418	 0.317930701374147 
2419	 0.317598776918874 
2420	 0.317233179746735 
2421	 0.316720715669502 
2422	 0.316272300970956 
2423	 0.315911484644882 
2424	 0.315533510301789 
2425	 0.315091200825569 
2426	 0.314721195342016 
2427	 0.314423882104769 
2428	 0.314074802967123 
2429	 0.31373707051512 
2430	 0.313392452863316 
2431	 0.313036957607155 
2432	 0.312677412829965 
2433	 0.312282531397263 
2434	 0.3119446663704 
2435	 0.311649868695145 
2436	 0.311282528736997 
2437	 0.310986307258877 
2438	 0.310590639444267 
2439	 0.310016334549967 
2440	 0.30959051010847 
2441	 0.309145180875772 
2442	 0.308734501404986 
2443	 0.308500514059731 
2444	 0.308142765711727 
2445	 0.307734262126385 
2446	 0.307382109610372 
2447	 0.306916759569795 
2448	 0.306560734228082 
2449	 0.306388663862239 
2450	 0.306002896281794 
2451	 0.305547133837538 
2452	 0.305153260317629 
2453	 0.304629374649202 
2454	 0.304225192508337 
2455	 0.304007602982416 
2456	 0.303583760758862 
2457	 0.303023932050049 
2458	 0.302597852704154 
2459	 0.302091604569523 
2460	 0.301777852831168 
2461	 0.301713385985219 
2462	 0.30148282360534 
2463	 0.301248097708836 
2464	 0.300954075300842 
2465	 0.300576033182029 
2466	 0.300208121710325 
2467	 0.299836410044023 
2468	 0.299526697423845 
2469	 0.299176966094268 
2470	 0.298887314286675 
2471	 0.298651617364216 
2472	 0.298205356796283 
2473	 0.297745161615976 
2474	 0.297381781730953 
2475	 0.296884029871762 
2476	 0.29646602038993 
2477	 0.296204250676582 
2478	 0.295854936328004 
2479	 0.295569424046991 
2480	 0.295197995650647 
2481	 0.294808792616726 
2482	 0.294523675069077 
2483	 0.294158225865741 
2484	 0.293910087049945 
2485	 0.293551493873361 
2486	 0.293091112270031 
2487	 0.292864312794565 
2488	 0.292622231895338 
2489	 0.292379395520079 
2490	 0.292149609120194 
2491	 0.291704616448756 
2492	 0.291147824781795 
2493	 0.290636449319081 
2494	 0.290196875896802 
2495	 0.289914615217943 
2496	 0.289757516833812 
2497	 0.289596995285919 
2498	 0.289530312855312 
2499	 0.289516755067446 
2500	 0.289398392562369 
