Wavelength	LMW300000.asd
350	 0.121267975791065 
351	 0.12056194394029 
352	 0.118955759901844 
353	 0.11887635683465 
354	 0.115667209972824 
355	 0.116499199042935 
356	 0.118697623815247 
357	 0.118984226354048 
358	 0.122947629778911 
359	 0.121927262097816 
360	 0.118007659810963 
361	 0.119382975947799 
362	 0.118381002424476 
363	 0.117733846055724 
364	 0.118476537606638 
365	 0.116846645792351 
366	 0.118869328733983 
367	 0.120403309163927 
368	 0.118067374472263 
369	 0.123350247368019 
370	 0.124014812118199 
371	 0.12092880050503 
372	 0.123471771837402 
373	 0.125111242474261 
374	 0.125454038453498 
375	 0.125416328071045 
376	 0.126750290271223 
377	 0.12791812293016 
378	 0.130433821495232 
379	 0.135024697394121 
380	 0.135747515069261 
381	 0.136480523484674 
382	 0.138271064808789 
383	 0.139771424324939 
384	 0.141102745212157 
385	 0.141556592601414 
386	 0.141889226470176 
387	 0.146057010828024 
388	 0.148526524869591 
389	 0.149810581898788 
390	 0.151772145384715 
391	 0.15227545730924 
392	 0.154058585345043 
393	 0.157583123670197 
394	 0.161099618283982 
395	 0.162001888296548 
396	 0.163574322268265 
397	 0.167721288766236 
398	 0.171701292367369 
399	 0.17368609307668 
400	 0.175525096957535 
401	 0.179452173529887 
402	 0.181141515429927 
403	 0.182745637190791 
404	 0.185011679664382 
405	 0.186885890878409 
406	 0.18898540302642 
407	 0.191622777668831 
408	 0.194267092026619 
409	 0.194086476695095 
410	 0.195947931761683 
411	 0.198926567705856 
412	 0.199947779130508 
413	 0.202011880633572 
414	 0.203503835913443 
415	 0.204113883227842 
416	 0.205673241485507 
417	 0.206633026817036 
418	 0.207196709251036 
419	 0.207879752565766 
420	 0.208868158849287 
421	 0.208904221875363 
422	 0.208585830098426 
423	 0.209475952218273 
424	 0.209822866360481 
425	 0.209335934145728 
426	 0.208482836502969 
427	 0.208777609236626 
428	 0.208399108167032 
429	 0.207526278399409 
430	 0.206882928755964 
431	 0.206435822573201 
432	 0.205835029918399 
433	 0.205225566339673 
434	 0.20520329930841 
435	 0.205320376791692 
436	 0.205504891600111 
437	 0.20585227585396 
438	 0.206736948423851 
439	 0.207541832387807 
440	 0.208495738476129 
441	 0.210117679081445 
442	 0.211578945104074 
443	 0.212991226711638 
444	 0.214492602134038 
445	 0.21608802446165 
446	 0.21796395698006 
447	 0.219830212753029 
448	 0.221361002413303 
449	 0.222651519564629 
450	 0.224276564721036 
451	 0.226193349137469 
452	 0.227834843267076 
453	 0.22921092793873 
454	 0.230531956610069 
455	 0.232016350222566 
456	 0.233876294526293 
457	 0.235265976152111 
458	 0.236316753411083 
459	 0.237540012942521 
460	 0.238527721380439 
461	 0.239467737463345 
462	 0.240515517684675 
463	 0.241718971821272 
464	 0.242631669345998 
465	 0.243406531474427 
466	 0.244298424311411 
467	 0.245218411436296 
468	 0.246096286394728 
469	 0.24686906427164 
470	 0.247490040415398 
471	 0.247968736286669 
472	 0.24865492890908 
473	 0.249632002589159 
474	 0.250238905828981 
475	 0.250827323625122 
476	 0.251522190101542 
477	 0.252313959480226 
478	 0.252930683337761 
479	 0.253493354117078 
480	 0.254141269128748 
481	 0.254994100995878 
482	 0.255609599988872 
483	 0.256186433133098 
484	 0.256989516025654 
485	 0.257806204830312 
486	 0.258386176690859 
487	 0.258786529654819 
488	 0.259317648953916 
489	 0.260048248864376 
490	 0.260785654061692 
491	 0.261415149062216 
492	 0.262135016841566 
493	 0.262858152632842 
494	 0.263563924169209 
495	 0.264256708040094 
496	 0.264915631944718 
497	 0.265509662624218 
498	 0.266089021135684 
499	 0.266832529388774 
500	 0.267413808005464 
501	 0.267912312019485 
502	 0.268492357153367 
503	 0.269111625647924 
504	 0.269746300402355 
505	 0.270357045669452 
506	 0.270900138656051 
507	 0.27157024498055 
508	 0.272132308420037 
509	 0.272476591104945 
510	 0.273054357928527 
511	 0.273581638960203 
512	 0.274075168737976 
513	 0.274685223675958 
514	 0.275237633079034 
515	 0.275765748736203 
516	 0.27629862615708 
517	 0.276818175287528 
518	 0.277290089188986 
519	 0.277764847180855 
520	 0.278298793873879 
521	 0.278822769915397 
522	 0.279340293731553 
523	 0.279847320562456 
524	 0.280328450543044 
525	 0.280784717668881 
526	 0.281214619235703 
527	 0.281638388676453 
528	 0.282146266217778 
529	 0.28267091013196 
530	 0.283162459939097 
531	 0.28358394760877 
532	 0.28385383993611 
533	 0.284273144666229 
534	 0.284925711955573 
535	 0.285335628949125 
536	 0.285794327798742 
537	 0.286297639600308 
538	 0.286744815584224 
539	 0.287185194209386 
540	 0.287548478785577 
541	 0.2878811941953 
542	 0.288394945029452 
543	 0.288850510838888 
544	 0.289244309587602 
545	 0.28964831631444 
546	 0.290166085076253 
547	 0.290637307117158 
548	 0.291045052381164 
549	 0.291496081630283 
550	 0.291903867042274 
551	 0.292361780933706 
552	 0.292921727399327 
553	 0.293452505735674 
554	 0.293990229133068 
555	 0.29451114053378 
556	 0.29498093612596 
557	 0.295550367414446 
558	 0.296125586981455 
559	 0.296654931800252 
560	 0.297213043023267 
561	 0.297738410309164 
562	 0.298189560966937 
563	 0.298583223998942 
564	 0.299208959146713 
565	 0.299750002462486 
566	 0.300181416318452 
567	 0.300837641583158 
568	 0.301579716871393 
569	 0.30237197600803 
570	 0.303175752718948 
571	 0.30387649462876 
572	 0.304591023456441 
573	 0.305333499889754 
574	 0.306032634903238 
575	 0.306542170287942 
576	 0.307083858333275 
577	 0.307790938056207 
578	 0.308479973761947 
579	 0.309208703125399 
580	 0.309968362880077 
581	 0.310744602712712 
582	 0.311656417171905 
583	 0.312615034433373 
584	 0.313532419662232 
585	 0.314351883294353 
586	 0.315149592965118 
587	 0.315871588973413 
588	 0.316491307990705 
589	 0.317268265741289 
590	 0.318015969881693 
591	 0.31869511001308 
592	 0.319413240794396 
593	 0.320140026007603 
594	 0.320867501846169 
595	 0.321625865831209 
596	 0.322539430938075 
597	 0.323593489013462 
598	 0.324645858142136 
599	 0.325515453369428 
600	 0.326346906267218 
601	 0.327150469829844 
602	 0.327905139743907 
603	 0.328562555253753 
604	 0.329168965308989 
605	 0.329807022580615 
606	 0.330535025582087 
607	 0.331215690127752 
608	 0.331822796401252 
609	 0.332424815688065 
610	 0.333185077274272 
611	 0.333912202836126 
612	 0.334640620504528 
613	 0.335407556555249 
614	 0.336081733590276 
615	 0.336727748019473 
616	 0.337334309453892 
617	 0.337846579299115 
618	 0.338391380519285 
619	 0.338916756970108 
620	 0.339406404478574 
621	 0.339988098905068 
622	 0.340516853885155 
623	 0.340993241020669 
624	 0.341470741067099 
625	 0.3419245404851 
626	 0.342368032114666 
627	 0.342822994465322 
628	 0.343318496109126 
629	 0.3438754843243 
630	 0.344355465021658 
631	 0.344669942846598 
632	 0.345091195153565 
633	 0.345480122480252 
634	 0.345870568396723 
635	 0.346419795892926 
636	 0.346790806233879 
637	 0.347161057400446 
638	 0.347651224573117 
639	 0.348019632013428 
640	 0.348338686396629 
641	 0.348702063354254 
642	 0.349185158783184 
643	 0.349608130174176 
644	 0.349980732043131 
645	 0.350352865761295 
646	 0.350805068208329 
647	 0.351204708401716 
648	 0.351577088798628 
649	 0.351981909456688 
650	 0.352414878007904 
651	 0.352812360251105 
652	 0.353178545769016 
653	 0.35357710003253 
654	 0.354005100776079 
655	 0.354438567647641 
656	 0.354845941597919 
657	 0.355168313937959 
658	 0.355614748539717 
659	 0.356123120988481 
660	 0.356520537729893 
661	 0.356904532195265 
662	 0.357354542236973 
663	 0.357880892048401 
664	 0.358402390519046 
665	 0.358764592538343 
666	 0.359153072635765 
667	 0.359723073271556 
668	 0.360043484108412 
669	 0.360471676429612 
670	 0.361034911584808 
671	 0.361480255795618 
672	 0.361971596042569 
673	 0.362451214229595 
674	 0.362891563228446 
675	 0.36342641806016 
676	 0.363962761915232 
677	 0.364439871800061 
678	 0.364845731929291 
679	 0.365400564960237 
680	 0.365929992813617 
681	 0.36639925468312 
682	 0.367000719925027 
683	 0.367526136556975 
684	 0.367988577583815 
685	 0.368467240562391 
686	 0.369059047001554 
687	 0.369616763023608 
688	 0.370139721964778 
689	 0.370723392679452 
690	 0.371240992800964 
691	 0.371759316904365 
692	 0.372331772194391 
693	 0.372939535544994 
694	 0.373478072892539 
695	 0.373992675470219 
696	 0.374560461936689 
697	 0.375076196849816 
698	 0.375620134282983 
699	 0.376217741989925 
700	 0.376824321834627 
701	 0.377396533419756 
702	 0.377949294686567 
703	 0.378502425779403 
704	 0.379043557908113 
705	 0.379601199224097 
706	 0.380190289613131 
707	 0.380795752243673 
708	 0.381236862368677 
709	 0.38170067789558 
710	 0.382275994854314 
711	 0.382854818062454 
712	 0.383468624002313 
713	 0.384020425402367 
714	 0.384449576566314 
715	 0.384944481705252 
716	 0.385470073261997 
717	 0.386003807153796 
718	 0.386528690553471 
719	 0.386977578299859 
720	 0.387331946446492 
721	 0.387645666551505 
722	 0.388085571037197 
723	 0.388652979786773 
724	 0.389182229861645 
725	 0.389517692982054 
726	 0.389871796762811 
727	 0.390277405571355 
728	 0.390677101664022 
729	 0.390950706166492 
730	 0.391303433319385 
731	 0.391600605264132 
732	 0.391775280886093 
733	 0.392072591582775 
734	 0.392355416259824 
735	 0.39261108715268 
736	 0.392861194067001 
737	 0.393022817906878 
738	 0.393202545497608 
739	 0.393396298127122 
740	 0.39347123136003 
741	 0.393571790686555 
742	 0.393741342773218 
743	 0.393923565565882 
744	 0.393849488021098 
745	 0.393769023363712 
746	 0.393785894047215 
747	 0.393895868181739 
748	 0.393906377891305 
749	 0.393846181932609 
750	 0.393735806389147 
751	 0.393561593790997 
752	 0.393503562914534 
753	 0.393474929796648 
754	 0.39336347961273 
755	 0.393172207557076 
756	 0.393038590114188 
757	 0.392906670020773 
758	 0.392647653022357 
759	 0.392409802208358 
760	 0.392172916931789 
761	 0.391942970053712 
762	 0.391775154311722 
763	 0.391527380431846 
764	 0.391219181470675 
765	 0.390904733543156 
766	 0.39061394405831 
767	 0.390291132842896 
768	 0.389975383963223 
769	 0.389723734452157 
770	 0.389350471308121 
771	 0.389036872840321 
772	 0.388796181261204 
773	 0.388409224477902 
774	 0.388024196865384 
775	 0.387700013178841 
776	 0.38742241102259 
777	 0.387035460642557 
778	 0.386632606737677 
779	 0.386229464497433 
780	 0.385819192347179 
781	 0.385477318522934 
782	 0.385179916325919 
783	 0.384858461192623 
784	 0.384420133111865 
785	 0.384063696131653 
786	 0.383743058144079 
787	 0.383395804274408 
788	 0.383044633304622 
789	 0.382652110359102 
790	 0.382262677974553 
791	 0.381926271251097 
792	 0.381542374548458 
793	 0.381208076606482 
794	 0.380904580594633 
795	 0.380516604407054 
796	 0.380128471623082 
797	 0.379787756250395 
798	 0.379470120082212 
799	 0.379025597560918 
800	 0.378717739108372 
801	 0.378437293311354 
802	 0.378029570510596 
803	 0.377620692154445 
804	 0.377380444730026 
805	 0.377180789527357 
806	 0.376752230521372 
807	 0.37636284517325 
808	 0.375971145152961 
809	 0.375584048020101 
810	 0.375306594627589 
811	 0.375035166475721 
812	 0.374755273410552 
813	 0.374479546765305 
814	 0.374245606297828 
815	 0.373928350388443 
816	 0.37359058663207 
817	 0.373347512243387 
818	 0.373131332278176 
819	 0.372869616698627 
820	 0.372568638968658 
821	 0.372296385177543 
822	 0.371980018249472 
823	 0.371731901786197 
824	 0.371564157090187 
825	 0.371284604899349 
826	 0.371078639024906 
827	 0.370900721436293 
828	 0.370666957696363 
829	 0.370375979366013 
830	 0.370098461141661 
831	 0.36985010560691 
832	 0.369630922004378 
833	 0.369545748344754 
834	 0.369444823530787 
835	 0.369249299462823 
836	 0.368977709960737 
837	 0.368718618654824 
838	 0.368585628447537 
839	 0.36854869432974 
840	 0.368339477849006 
841	 0.368198143896071 
842	 0.368040109247881 
843	 0.3677774403225 
844	 0.367585767703231 
845	 0.36746725454325 
846	 0.367404334994189 
847	 0.367343527207999 
848	 0.367122544401947 
849	 0.366934336681322 
850	 0.366867444677608 
851	 0.366872985909215 
852	 0.366683478192612 
853	 0.366527440688756 
854	 0.366505713659343 
855	 0.366430260718744 
856	 0.366444741805899 
857	 0.366403531369762 
858	 0.366211440023353 
859	 0.366054828848996 
860	 0.36597997214388 
861	 0.365966673310094 
862	 0.365973067579034 
863	 0.366036883346484 
864	 0.365982184228326 
865	 0.365880967724307 
866	 0.365921339401638 
867	 0.365913678706261 
868	 0.365867967338993 
869	 0.36583538343029 
870	 0.365875137400818 
871	 0.365815364080128 
872	 0.365784579278883 
873	 0.365849718482444 
874	 0.365899369320942 
875	 0.36594972674787 
876	 0.365984359336912 
877	 0.36599013383244 
878	 0.365955774014686 
879	 0.366122308599057 
880	 0.366273855200803 
881	 0.36616988936441 
882	 0.36618081561427 
883	 0.366257210058498 
884	 0.36636327419871 
885	 0.366479660770532 
886	 0.366641791022032 
887	 0.366814148319113 
888	 0.366906794485262 
889	 0.366836571072523 
890	 0.36694908423816 
891	 0.367153710385547 
892	 0.367362667551306 
893	 0.367565056900292 
894	 0.367590386702108 
895	 0.367669087979678 
896	 0.367924489303085 
897	 0.36814652990032 
898	 0.368354143091077 
899	 0.368519391140176 
900	 0.368646804378724 
901	 0.368834490311265 
902	 0.369080319714039 
903	 0.369315647198477 
904	 0.369482942684159 
905	 0.369658873004688 
906	 0.369883367872039 
907	 0.370140233927582 
908	 0.370376138074939 
909	 0.370506890230438 
910	 0.370736478918284 
911	 0.3710713585586 
912	 0.371380862004657 
913	 0.371668162574929 
914	 0.3719144464329 
915	 0.372197987661818 
916	 0.372632596734208 
917	 0.37284254059239 
918	 0.373088629750213 
919	 0.373508319572104 
920	 0.373978512789231 
921	 0.374201363220429 
922	 0.37445556434561 
923	 0.374872483533231 
924	 0.375221541510791 
925	 0.375529964845275 
926	 0.375885061580322 
927	 0.376321496889076 
928	 0.37674734969126 
929	 0.377297211940847 
930	 0.377741947506398 
931	 0.37797516552603 
932	 0.378376327766112 
933	 0.378741037735475 
934	 0.379108046263728 
935	 0.379539656673324 
936	 0.37996375239007 
937	 0.380431703723951 
938	 0.380937754088214 
939	 0.381476754929842 
940	 0.382140484007192 
941	 0.382585877838234 
942	 0.38297224093542 
943	 0.383554738589776 
944	 0.384086997204176 
945	 0.384643522237154 
946	 0.385215614123493 
947	 0.385755425335514 
948	 0.386235559631223 
949	 0.38667055747578 
950	 0.387092769540887 
951	 0.387573887322605 
952	 0.388322816394414 
953	 0.389090514090251 
954	 0.389688641398189 
955	 0.390096589660892 
956	 0.390814034133484 
957	 0.39148869277299 
958	 0.392032994958218 
959	 0.392569308703979 
960	 0.393185790806469 
961	 0.393858220626513 
962	 0.394529737474052 
963	 0.395139115182773 
964	 0.395675991373708 
965	 0.396372393677348 
966	 0.397207392643532 
967	 0.397983671131 
968	 0.398647711903889 
969	 0.399240009765996 
970	 0.399894046758131 
971	 0.400729524848222 
972	 0.401494442558875 
973	 0.402265899173487 
974	 0.403043596812673 
975	 0.403773216517443 
976	 0.404480086871042 
977	 0.40527194968458 
978	 0.406105407087061 
979	 0.406839663152047 
980	 0.40742034768297 
981	 0.407970251038805 
982	 0.408585614589626 
983	 0.409328218358374 
984	 0.410267089196662 
985	 0.411124319919777 
986	 0.411866713512852 
987	 0.412611109411414 
988	 0.413345338033944 
989	 0.414205017634974 
990	 0.415092367242791 
991	 0.415854056335633 
992	 0.416707145513308 
993	 0.417363145325006 
994	 0.417968941975849 
995	 0.418789948369123 
996	 0.419670881847308 
997	 0.420587317175609 
998	 0.421431657538095 
999	 0.422175007205632 
1000	 0.423149380075811 
1001	 0.425925126131321 
1002	 0.426705865792501 
1003	 0.427498027906073 
1004	 0.428267982722963 
1005	 0.42905955253545 
1006	 0.429825017921921 
1007	 0.430563510130496 
1008	 0.431287876121681 
1009	 0.431977117987908 
1010	 0.432685412560748 
1011	 0.433327309932729 
1012	 0.433955611609163 
1013	 0.43464877435938 
1014	 0.435297960510642 
1015	 0.435933982209684 
1016	 0.43657874637356 
1017	 0.437233726281494 
1018	 0.437892871792239 
1019	 0.438555680450376 
1020	 0.439212429099792 
1021	 0.439828610020454 
1022	 0.440446077954913 
1023	 0.441074025032087 
1024	 0.441672252890619 
1025	 0.442321844657388 
1026	 0.442931669813206 
1027	 0.443466359192138 
1028	 0.444035015126419 
1029	 0.444588993740343 
1030	 0.445142418507784 
1031	 0.445731177169432 
1032	 0.446361140673923 
1033	 0.446967939509161 
1034	 0.44756931518292 
1035	 0.44817441141275 
1036	 0.448737208896054 
1037	 0.449307147536811 
1038	 0.449873936600148 
1039	 0.450441550383992 
1040	 0.45105226245254 
1041	 0.451679485617972 
1042	 0.45233046321543 
1043	 0.452997262499111 
1044	 0.453626937766823 
1045	 0.454258757240328 
1046	 0.454825866802814 
1047	 0.455359450373916 
1048	 0.455893049548719 
1049	 0.456413717091011 
1050	 0.457010875439193 
1051	 0.457625843589337 
1052	 0.458191457330541 
1053	 0.458802662711939 
1054	 0.45937299166025 
1055	 0.459860438629523 
1056	 0.460377611995369 
1057	 0.460884316283373 
1058	 0.461332223602566 
1059	 0.46182153379993 
1060	 0.462341721149063 
1061	 0.462857029337743 
1062	 0.463361562881019 
1063	 0.463849323417621 
1064	 0.464284070096902 
1065	 0.464683381275262 
1066	 0.465075930774184 
1067	 0.465447660990508 
1068	 0.465822462087471 
1069	 0.466219171102573 
1070	 0.466583785749112 
1071	 0.466904933478184 
1072	 0.467267320693509 
1073	 0.467667974835822 
1074	 0.467992686189226 
1075	 0.468290527907534 
1076	 0.468589890600388 
1077	 0.468874942923325 
1078	 0.469151398929685 
1079	 0.469471324145212 
1080	 0.469798446656321 
1081	 0.470056888280949 
1082	 0.47032349780768 
1083	 0.470588414719281 
1084	 0.470829876507404 
1085	 0.471105372521024 
1086	 0.471383601294359 
1087	 0.471671292644112 
1088	 0.471980192213636 
1089	 0.472299870298311 
1090	 0.47257849769791 
1091	 0.47288298075022 
1092	 0.473195400912805 
1093	 0.473517680795633 
1094	 0.47384719294151 
1095	 0.474189751535766 
1096	 0.474544213823302 
1097	 0.474883591960857 
1098	 0.475252445359683 
1099	 0.475659263258011 
1100	 0.476050657458311 
1101	 0.476433770413651 
1102	 0.476838949783987 
1103	 0.477265146878881 
1104	 0.477664796725414 
1105	 0.478085091295805 
1106	 0.47853002874074 
1107	 0.478947794745843 
1108	 0.479398846494994 
1109	 0.479844724248909 
1110	 0.480323547347576 
1111	 0.480853272059689 
1112	 0.481435600103364 
1113	 0.481989221251967 
1114	 0.482589700864536 
1115	 0.483155620618918 
1116	 0.483687974668213 
1117	 0.484254600826767 
1118	 0.484847860961642 
1119	 0.485404303838563 
1120	 0.485978146395734 
1121	 0.486533630709457 
1122	 0.487098916306288 
1123	 0.487694567089695 
1124	 0.488296974892903 
1125	 0.488944942083657 
1126	 0.489545125658342 
1127	 0.490122139570923 
1128	 0.490704752400685 
1129	 0.49127072187767 
1130	 0.491837246402647 
1131	 0.492424346641271 
1132	 0.492995035205158 
1133	 0.493544230053152 
1134	 0.494099423164578 
1135	 0.494661742328786 
1136	 0.495188942462966 
1137	 0.495731611079684 
1138	 0.496267363219452 
1139	 0.496811410030337 
1140	 0.497366306872773 
1141	 0.49789551055742 
1142	 0.498410213952548 
1143	 0.498940629810263 
1144	 0.499466814617681 
1145	 0.499981403796834 
1146	 0.500528896135033 
1147	 0.501027763871698 
1148	 0.501454235294778 
1149	 0.501934664508865 
1150	 0.502445149155165 
1151	 0.502921285474024 
1152	 0.503386851318775 
1153	 0.503860953903676 
1154	 0.504306156027972 
1155	 0.504700073260905 
1156	 0.505118117079349 
1157	 0.505564224411446 
1158	 0.505958878934346 
1159	 0.506329638411819 
1160	 0.50668760750254 
1161	 0.507000004170966 
1162	 0.50734453889812 
1163	 0.507680000989998 
1164	 0.508033754695978 
1165	 0.508422954687294 
1166	 0.508796717764034 
1167	 0.509151401260487 
1168	 0.509513037616922 
1169	 0.509831950564231 
1170	 0.510111824665371 
1171	 0.510411393135245 
1172	 0.510697115872546 
1173	 0.510980790595131 
1174	 0.511272284712532 
1175	 0.511552038392023 
1176	 0.51181487117223 
1177	 0.51208480963185 
1178	 0.512346817566508 
1179	 0.51262125511354 
1180	 0.512905120048874 
1181	 0.513183067756494 
1182	 0.513461136804265 
1183	 0.513759818547483 
1184	 0.514027904708022 
1185	 0.514277991516835 
1186	 0.514541145177485 
1187	 0.514803647707918 
1188	 0.515053506930573 
1189	 0.51531093573307 
1190	 0.515548208277292 
1191	 0.515759486005628 
1192	 0.515980601545698 
1193	 0.516193159275363 
1194	 0.51641475140382 
1195	 0.516655055062418 
1196	 0.516871662561484 
1197	 0.517077832007461 
1198	 0.517283797874716 
1199	 0.517482797087383 
1200	 0.517657297147553 
1201	 0.517861732857469 
1202	 0.518085312806293 
1203	 0.518290551532866 
1204	 0.518499501728379 
1205	 0.51870005390603 
1206	 0.518884402595458 
1207	 0.519080010170501 
1208	 0.519296381746375 
1209	 0.519479245193702 
1210	 0.519635762208322 
1211	 0.519811578459855 
1212	 0.519980092564404 
1213	 0.520145720991507 
1214	 0.520336521390974 
1215	 0.52050572731235 
1216	 0.520661526958112 
1217	 0.520788419300588 
1218	 0.520941872464552 
1219	 0.521095887091883 
1220	 0.521253310113208 
1221	 0.521424620261352 
1222	 0.521583985018517 
1223	 0.521736599035949 
1224	 0.521891887246895 
1225	 0.522049828510756 
1226	 0.522200868698793 
1227	 0.522357354783356 
1228	 0.52249747501226 
1229	 0.522602077726374 
1230	 0.522742467304008 
1231	 0.522908074712163 
1232	 0.523051904220661 
1233	 0.523195540861054 
1234	 0.523367629477382 
1235	 0.523491619757085 
1236	 0.523564680400044 
1237	 0.523685875103109 
1238	 0.523814328428817 
1239	 0.523943739669375 
1240	 0.524104639836424 
1241	 0.524229304192087 
1242	 0.524331595103752 
1243	 0.524439029780561 
1244	 0.524523379677049 
1245	 0.524630962177371 
1246	 0.524756950719154 
1247	 0.524872800652688 
1248	 0.524986176537075 
1249	 0.525111388166617 
1250	 0.525229440460059 
1251	 0.525362778310121 
1252	 0.525482461590742 
1253	 0.525616848139458 
1254	 0.525717102036236 
1255	 0.525786831363867 
1256	 0.525875171090907 
1257	 0.525950676540506 
1258	 0.526046213580038 
1259	 0.526174015780638 
1260	 0.526263680776617 
1261	 0.526341994738384 
1262	 0.526415159291067 
1263	 0.526442537585677 
1264	 0.526512327153714 
1265	 0.526606099218084 
1266	 0.526699985296653 
1267	 0.526813600794895 
1268	 0.526929868681107 
1269	 0.527041476019685 
1270	 0.527143336460618 
1271	 0.527266801800978 
1272	 0.527398883660675 
1273	 0.527537576088268 
1274	 0.527681992999432 
1275	 0.527845849498788 
1276	 0.528034330911791 
1277	 0.528204971298213 
1278	 0.528389958916996 
1279	 0.528558942678015 
1280	 0.528687743485409 
1281	 0.528856448842177 
1282	 0.529062351623446 
1283	 0.529239788789381 
1284	 0.529440809642481 
1285	 0.529613556419468 
1286	 0.52971410115881 
1287	 0.529805100267672 
1288	 0.529866186268714 
1289	 0.529883423633165 
1290	 0.529898457619675 
1291	 0.529902117644681 
1292	 0.529879149492406 
1293	 0.529837648531428 
1294	 0.529769938111293 
1295	 0.529670945053261 
1296	 0.529563147261888 
1297	 0.529421143379645 
1298	 0.52929291117236 
1299	 0.52917578306527 
1300	 0.529028272220112 
1301	 0.528875734502722 
1302	 0.52869792639606 
1303	 0.528493268566911 
1304	 0.528264200418003 
1305	 0.528027975793923 
1306	 0.527815275312516 
1307	 0.527606805147771 
1308	 0.527391890735963 
1309	 0.527190482878534 
1310	 0.526994391473829 
1311	 0.526813231126975 
1312	 0.526639894510648 
1313	 0.526480551666908 
1314	 0.526336640624435 
1315	 0.526203686753225 
1316	 0.526059042093222 
1317	 0.52597056702601 
1318	 0.525927685510801 
1319	 0.525875362907662 
1320	 0.525854142799732 
1321	 0.525837631129656 
1322	 0.525805945564901 
1323	 0.525802321201809 
1324	 0.525853111610975 
1325	 0.525908440875131 
1326	 0.525985246313529 
1327	 0.526078218488907 
1328	 0.526176107852726 
1329	 0.526288977786996 
1330	 0.52642841743459 
1331	 0.526584203828722 
1332	 0.526775088991705 
1333	 0.526997499207873 
1334	 0.527227537205472 
1335	 0.527482325194709 
1336	 0.527748159992027 
1337	 0.52804430557342 
1338	 0.528314485468643 
1339	 0.528573721415623 
1340	 0.528859030229671 
1341	 0.529139375090069 
1342	 0.529431488709413 
1343	 0.529757265056905 
1344	 0.53007679803802 
1345	 0.530371877538311 
1346	 0.530665988572682 
1347	 0.530955536723159 
1348	 0.53125959870371 
1349	 0.531576459802829 
1350	 0.531867745732648 
1351	 0.532157248725379 
1352	 0.532441222518484 
1353	 0.532728958091483 
1354	 0.533011885864059 
1355	 0.533291142739459 
1356	 0.533571909587614 
1357	 0.533848850150063 
1358	 0.534122436751068 
1359	 0.534391484994394 
1360	 0.534653832307987 
1361	 0.534922302327575 
1362	 0.535185400664021 
1363	 0.535448220872452 
1364	 0.535726366959172 
1365	 0.535991261521271 
1366	 0.536250208838975 
1367	 0.5365010696613 
1368	 0.536741690097866 
1369	 0.536957378784741 
1370	 0.537154401367695 
1371	 0.537337439549113 
1372	 0.537494724954369 
1373	 0.537626230600864 
1374	 0.537760002240479 
1375	 0.537879863731325 
1376	 0.537993246350602 
1377	 0.53811426948659 
1378	 0.5382062544088 
1379	 0.538267558597421 
1380	 0.538335409780577 
1381	 0.53840690985292 
1382	 0.538441956221728 
1383	 0.538487323867833 
1384	 0.538474495548427 
1385	 0.538436863240273 
1386	 0.538329655487302 
1387	 0.538172429010507 
1388	 0.537966108713083 
1389	 0.537700754229091 
1390	 0.537391151095117 
1391	 0.537053821218965 
1392	 0.53664924896991 
1393	 0.536160243252025 
1394	 0.535639953534691 
1395	 0.53504644464442 
1396	 0.534427530762742 
1397	 0.533815552689808 
1398	 0.533175114051318 
1399	 0.532553312953891 
1400	 0.531915034707197 
1401	 0.531326718282252 
1402	 0.530739933144875 
1403	 0.530214372326455 
1404	 0.52972595844037 
1405	 0.529289762819854 
1406	 0.528890631614296 
1407	 0.528548792930722 
1408	 0.528217081491425 
1409	 0.528010460443704 
1410	 0.527840743427749 
1411	 0.527826007797904 
1412	 0.527918461701961 
1413	 0.528152840648695 
1414	 0.528544765180067 
1415	 0.529020057547103 
1416	 0.529619175822135 
1417	 0.530302805605682 
1418	 0.530962238371928 
1419	 0.53164159024305 
1420	 0.532331774018621 
1421	 0.532960857478119 
1422	 0.533558632593771 
1423	 0.534124341978042 
1424	 0.534592287068784 
1425	 0.534971044225092 
1426	 0.535316524144096 
1427	 0.535579947458474 
1428	 0.535845279897664 
1429	 0.536084390512506 
1430	 0.536277937371351 
1431	 0.536425417722719 
1432	 0.53657179700356 
1433	 0.536676954798413 
1434	 0.536785269251868 
1435	 0.536894306004281 
1436	 0.53699288741539 
1437	 0.537079708267001 
1438	 0.537145969253354 
1439	 0.537200014382263 
1440	 0.537252311805589 
1441	 0.537267497975743 
1442	 0.537283087944127 
1443	 0.537288351881834 
1444	 0.537260828464201 
1445	 0.537238760639765 
1446	 0.53721347819711 
1447	 0.537198090864377 
1448	 0.537174661618639 
1449	 0.53712509744998 
1450	 0.537074426063625 
1451	 0.537023249839081 
1452	 0.536961283843485 
1453	 0.536903444414429 
1454	 0.536855256064783 
1455	 0.536785792350336 
1456	 0.536700479136854 
1457	 0.53662141314985 
1458	 0.536534453490089 
1459	 0.536451543470491 
1460	 0.536369628248618 
1461	 0.536287554252606 
1462	 0.536201762433369 
1463	 0.536124966576838 
1464	 0.536052936462735 
1465	 0.535980572985586 
1466	 0.535897864198095 
1467	 0.535843717998715 
1468	 0.535795223985612 
1469	 0.535771822381196 
1470	 0.535775442834839 
1471	 0.535794935151745 
1472	 0.535824806546618 
1473	 0.535867262354795 
1474	 0.535907669122393 
1475	 0.535973382842203 
1476	 0.53605604904391 
1477	 0.536133041203087 
1478	 0.536250539838313 
1479	 0.536370440138919 
1480	 0.536486227979754 
1481	 0.536618367958579 
1482	 0.536724276780126 
1483	 0.536809423751646 
1484	 0.53691426419978 
1485	 0.537001766077685 
1486	 0.537125723294092 
1487	 0.537277955984467 
1488	 0.537425587442203 
1489	 0.537606358907623 
1490	 0.537744416803256 
1491	 0.537866404431062 
1492	 0.537987676244581 
1493	 0.538091053628047 
1494	 0.538187499257662 
1495	 0.538283432140842 
1496	 0.538370366681381 
1497	 0.538438271252524 
1498	 0.538502594084153 
1499	 0.538569006864818 
1500	 0.538623296767416 
1501	 0.538647106185293 
1502	 0.538700365135945 
1503	 0.538770241178369 
1504	 0.538824860308211 
1505	 0.538898287117772 
1506	 0.538984190067607 
1507	 0.539036072938463 
1508	 0.539074046008849 
1509	 0.539121576589932 
1510	 0.539172099833278 
1511	 0.539217941637472 
1512	 0.53927587436953 
1513	 0.539342728780417 
1514	 0.539380496453965 
1515	 0.539441783721339 
1516	 0.539538925215099 
1517	 0.539600536715859 
1518	 0.539649471860069 
1519	 0.539706520622278 
1520	 0.539748666669782 
1521	 0.539801988256889 
1522	 0.539871553073872 
1523	 0.539931176706255 
1524	 0.539980815494152 
1525	 0.540044754072845 
1526	 0.540108898954101 
1527	 0.540183713698021 
1528	 0.540282804220755 
1529	 0.540354176808129 
1530	 0.540423068511677 
1531	 0.540481234335776 
1532	 0.5405114317484 
1533	 0.540558688837501 
1534	 0.54061797828523 
1535	 0.540664582355989 
1536	 0.540700435939943 
1537	 0.540748710427807 
1538	 0.540788261593479 
1539	 0.540841196941155 
1540	 0.540917928269932 
1541	 0.540986245695005 
1542	 0.541073920367418 
1543	 0.5411275765241 
1544	 0.541157526452957 
1545	 0.541187222059112 
1546	 0.54119045745017 
1547	 0.541194513498004 
1548	 0.541234908030852 
1549	 0.541286314848749 
1550	 0.541346226572521 
1551	 0.541420123504038 
1552	 0.54147845357316 
1553	 0.541531179805414 
1554	 0.541602419148505 
1555	 0.541675882604355 
1556	 0.541761753831502 
1557	 0.541865877342198 
1558	 0.541948099169074 
1559	 0.542014135446585 
1560	 0.542077703164141 
1561	 0.54211824860325 
1562	 0.542180192218898 
1563	 0.542246588060769 
1564	 0.542317173298722 
1565	 0.542388412753236 
1566	 0.54248550267421 
1567	 0.54259775822381 
1568	 0.542711155556677 
1569	 0.542863849206446 
1570	 0.542955622067495 
1571	 0.543024177930972 
1572	 0.543084225394136 
1573	 0.543105790727172 
1574	 0.543144329045828 
1575	 0.543172521883454 
1576	 0.543220333030622 
1577	 0.543291474185935 
1578	 0.543331125001396 
1579	 0.543373995238547 
1580	 0.543403474403557 
1581	 0.543401302684807 
1582	 0.543408427079785 
1583	 0.543398384278154 
1584	 0.543427159716193 
1585	 0.543458565558458 
1586	 0.543515285394617 
1587	 0.543613466849724 
1588	 0.543714384633557 
1589	 0.543853179972217 
1590	 0.543947767463505 
1591	 0.544036228635709 
1592	 0.544114862467564 
1593	 0.544155570274042 
1594	 0.544204402817914 
1595	 0.544261165779286 
1596	 0.544310077153459 
1597	 0.544336491954452 
1598	 0.544382278118863 
1599	 0.544438390571947 
1600	 0.54449194438236 
1601	 0.544560915506645 
1602	 0.544617207700501 
1603	 0.544670249384722 
1604	 0.544716863154562 
1605	 0.544735785495429 
1606	 0.544781020547147 
1607	 0.544846221347704 
1608	 0.544895680319837 
1609	 0.544958588754247 
1610	 0.545024654998655 
1611	 0.545068545832396 
1612	 0.545119786219358 
1613	 0.545161278611974 
1614	 0.545197753171903 
1615	 0.545232101048258 
1616	 0.5452765349324 
1617	 0.545359395383343 
1618	 0.545452859557037 
1619	 0.54552552246565 
1620	 0.545580209025658 
1621	 0.545629253985909 
1622	 0.545648083861724 
1623	 0.5456849963989 
1624	 0.545726129795875 
1625	 0.545777610069575 
1626	 0.545831775404375 
1627	 0.545880967031844 
1628	 0.545941086448931 
1629	 0.545991399001857 
1630	 0.546030444639422 
1631	 0.546071523426763 
1632	 0.546111985469178 
1633	 0.54616118203228 
1634	 0.546209339179358 
1635	 0.546259339615739 
1636	 0.54632761855834 
1637	 0.546367642001004 
1638	 0.546380740165644 
1639	 0.546424684121124 
1640	 0.546476384799719 
1641	 0.546518777586947 
1642	 0.546565454265524 
1643	 0.546626742476123 
1644	 0.546669953640883 
1645	 0.546757114187901 
1646	 0.546897708309993 
1647	 0.546995091860232 
1648	 0.547100425874762 
1649	 0.547179975304842 
1650	 0.547230694137268 
1651	 0.547288898885298 
1652	 0.547347512157566 
1653	 0.547384015896283 
1654	 0.547411490212163 
1655	 0.547424347351363 
1656	 0.547398899701402 
1657	 0.547413293777567 
1658	 0.547435048861831 
1659	 0.547460950938821 
1660	 0.547503285834392 
1661	 0.547552707115179 
1662	 0.547603776888038 
1663	 0.547661398970734 
1664	 0.547746961688845 
1665	 0.547804889222704 
1666	 0.547845040306225 
1667	 0.54789646396759 
1668	 0.54795077979019 
1669	 0.547990425300375 
1670	 0.548023180058565 
1671	 0.548063232498175 
1672	 0.548089625078908 
1673	 0.548129209526291 
1674	 0.54817890143094 
1675	 0.548237029700088 
1676	 0.548294710996677 
1677	 0.548367072390647 
1678	 0.548450101369233 
1679	 0.548553156403834 
1680	 0.548703259089432 
1681	 0.548784258861386 
1682	 0.548853311531373 
1683	 0.548907928007387 
1684	 0.548896436623276 
1685	 0.548930608727936 
1686	 0.548984008184807 
1687	 0.549040660106084 
1688	 0.549116201464604 
1689	 0.549164922939856 
1690	 0.549211763420453 
1691	 0.549255426735685 
1692	 0.549271658545175 
1693	 0.54931000995772 
1694	 0.549359829833096 
1695	 0.549413261077194 
1696	 0.549462117093869 
1697	 0.54953782414232 
1698	 0.549642189733413 
1699	 0.549727237803515 
1700	 0.549828209467909 
1701	 0.54990712296801 
1702	 0.549968892638641 
1703	 0.550025359833812 
1704	 0.550085066241952 
1705	 0.550114080252289 
1706	 0.550101971278957 
1707	 0.550124772036535 
1708	 0.550151361514364 
1709	 0.550165614159404 
1710	 0.550189173327553 
1711	 0.550213157505076 
1712	 0.550198758519721 
1713	 0.55024719280318 
1714	 0.550347205886748 
1715	 0.55042246852027 
1716	 0.550517401257238 
1717	 0.550601684264111 
1718	 0.55069217737206 
1719	 0.550738430227076 
1720	 0.550772208673616 
1721	 0.550790032276633 
1722	 0.550757261885069 
1723	 0.550748599617563 
1724	 0.550738277232442 
1725	 0.550746441071272 
1726	 0.550757873769497 
1727	 0.550779635630667 
1728	 0.550831480738894 
1729	 0.550854788482103 
1730	 0.550884799393609 
1731	 0.550867592838216 
1732	 0.550829312962102 
1733	 0.550764481496775 
1734	 0.55062758681509 
1735	 0.550568913583318 
1736	 0.550530843816921 
1737	 0.550493282367335 
1738	 0.550494509869867 
1739	 0.550470854868173 
1740	 0.550410657229265 
1741	 0.550411935813763 
1742	 0.550471129976312 
1743	 0.55046385224033 
1744	 0.550452172665778 
1745	 0.550429963874774 
1746	 0.550345481549375 
1747	 0.550361897091492 
1748	 0.550394739755536 
1749	 0.5504028525321 
1750	 0.550413464945805 
1751	 0.550395910092831 
1752	 0.550389939479869 
1753	 0.550376679137984 
1754	 0.550319846665664 
1755	 0.550301723313622 
1756	 0.550274425199839 
1757	 0.550254080394887 
1758	 0.550279408861978 
1759	 0.550254600528007 
1760	 0.550219770319308 
1761	 0.550215165348691 
1762	 0.550205695809923 
1763	 0.550205653136498 
1764	 0.550211213779574 
1765	 0.550230276834003 
1766	 0.550264438410822 
1767	 0.550301854747155 
1768	 0.550341404371147 
1769	 0.550369227296689 
1770	 0.550401587735984 
1771	 0.550430091600255 
1772	 0.550426142374348 
1773	 0.550398259187664 
1774	 0.550351737773224 
1775	 0.550296151851312 
1776	 0.550262473608991 
1777	 0.550262585218766 
1778	 0.550290862609583 
1779	 0.550362379408443 
1780	 0.550445409363737 
1781	 0.550507940495836 
1782	 0.550547130378593 
1783	 0.550512450177768 
1784	 0.5505055098508 
1785	 0.550492223606942 
1786	 0.550483679430312 
1787	 0.550463964450649 
1788	 0.550482489255731 
1789	 0.550547112886448 
1790	 0.55058261920145 
1791	 0.550636142779374 
1792	 0.550674664898861 
1793	 0.550673819590219 
1794	 0.550674131514374 
1795	 0.550693647149623 
1796	 0.550689948034587 
1797	 0.550655644473374 
1798	 0.55063535508167 
1799	 0.550592105974543 
1800	 0.550596686359967 
1801	 0.54620920565297 
1802	 0.54635046935944 
1803	 0.546474480320361 
1804	 0.54655292797188 
1805	 0.546626166255329 
1806	 0.546670442683326 
1807	 0.546715125462031 
1808	 0.546754209459378 
1809	 0.546816904079633 
1810	 0.546855226704944 
1811	 0.546873138499347 
1812	 0.546872276115485 
1813	 0.546913099898148 
1814	 0.546906472573745 
1815	 0.546854885015286 
1816	 0.546835182745767 
1817	 0.546805244498226 
1818	 0.546731884501613 
1819	 0.546719788510878 
1820	 0.546753994721454 
1821	 0.54674633175712 
1822	 0.546771523913962 
1823	 0.546795240212031 
1824	 0.546786121291259 
1825	 0.546790872602932 
1826	 0.546744600839159 
1827	 0.546680583517125 
1828	 0.546595441696885 
1829	 0.546458319076791 
1830	 0.546336893907276 
1831	 0.546207309186757 
1832	 0.546081622225714 
1833	 0.545949364541099 
1834	 0.545846122283434 
1835	 0.545742965924631 
1836	 0.545628774248067 
1837	 0.545488293228444 
1838	 0.545351172437955 
1839	 0.545247627145741 
1840	 0.545163386720415 
1841	 0.54506287846161 
1842	 0.544989118093466 
1843	 0.544932794170639 
1844	 0.544822498789143 
1845	 0.544713283270529 
1846	 0.544647086105984 
1847	 0.544621811095791 
1848	 0.544602925761675 
1849	 0.544616897373935 
1850	 0.544679084916516 
1851	 0.544793742977889 
1852	 0.54488193776265 
1853	 0.545002252557135 
1854	 0.545142948644396 
1855	 0.54523710720077 
1856	 0.545337599714072 
1857	 0.545415763665478 
1858	 0.545478122045935 
1859	 0.545552822207903 
1860	 0.545621310956463 
1861	 0.54567487969971 
1862	 0.545736581630178 
1863	 0.545822872724751 
1864	 0.545909382714785 
1865	 0.545990380873868 
1866	 0.546080267032947 
1867	 0.54612965159633 
1868	 0.546153698742333 
1869	 0.546213591511138 
1870	 0.546270249340315 
1871	 0.546299190191046 
1872	 0.546333719226286 
1873	 0.546357122981981 
1874	 0.546326594244848 
1875	 0.546295815960439 
1876	 0.546256283506893 
1877	 0.546163647387651 
1878	 0.546022133167787 
1879	 0.545829366752367 
1880	 0.545606665398211 
1881	 0.545351420975753 
1882	 0.545052522748654 
1883	 0.544727959334466 
1884	 0.544330788698886 
1885	 0.543897876834361 
1886	 0.543407043765835 
1887	 0.542875877298854 
1888	 0.542353506496375 
1889	 0.541764350573095 
1890	 0.541150061626341 
1891	 0.540546278114156 
1892	 0.53989951715643 
1893	 0.5392866378663 
1894	 0.538681465364207 
1895	 0.538107352523657 
1896	 0.537532266877228 
1897	 0.536962066446426 
1898	 0.536450664927928 
1899	 0.536008488607057 
1900	 0.535603499422638 
1901	 0.535318719157569 
1902	 0.53509926462757 
1903	 0.534965886464407 
1904	 0.534860718480871 
1905	 0.534837480804669 
1906	 0.534856503340529 
1907	 0.534858594538227 
1908	 0.534872520987059 
1909	 0.534947656466659 
1910	 0.535008443474528 
1911	 0.535074090235527 
1912	 0.535174411593154 
1913	 0.535252747944143 
1914	 0.535319919632849 
1915	 0.535380668382322 
1916	 0.535444288130582 
1917	 0.5354863187524 
1918	 0.535527965699981 
1919	 0.535547931668169 
1920	 0.53557789494693 
1921	 0.535619093372211 
1922	 0.535640565625452 
1923	 0.535682807041858 
1924	 0.535711514423688 
1925	 0.535723901837564 
1926	 0.535751073832641 
1927	 0.535787632417126 
1928	 0.535814779757218 
1929	 0.53583845668232 
1930	 0.535871993529531 
1931	 0.5358915653537 
1932	 0.53588062776605 
1933	 0.535874485547236 
1934	 0.535889286469441 
1935	 0.535909521218393 
1936	 0.535930877064714 
1937	 0.535972922333343 
1938	 0.536024027407796 
1939	 0.536089743222045 
1940	 0.536165661951675 
1941	 0.536267649908143 
1942	 0.536372832878128 
1943	 0.536509851600811 
1944	 0.536646972654013 
1945	 0.536774799957622 
1946	 0.53690698166134 
1947	 0.537044122463534 
1948	 0.537168813185826 
1949	 0.537305149163746 
1950	 0.537415531022227 
1951	 0.53751427197455 
1952	 0.537589149220582 
1953	 0.537655451279166 
1954	 0.537732720475762 
1955	 0.53778721320948 
1956	 0.537862841987637 
1957	 0.537959104746094 
1958	 0.538072873390105 
1959	 0.538172346688676 
1960	 0.538285970476558 
1961	 0.538402885311845 
1962	 0.538520543024811 
1963	 0.538629880153962 
1964	 0.538742145876147 
1965	 0.538865313866047 
1966	 0.538968058285445 
1967	 0.539050303168548 
1968	 0.539153994266152 
1969	 0.539260741620986 
1970	 0.539381669271497 
1971	 0.539522516036173 
1972	 0.539650272771877 
1973	 0.539787654679629 
1974	 0.539916650406876 
1975	 0.540029505926552 
1976	 0.540141871667586 
1977	 0.540303018487028 
1978	 0.540456154245037 
1979	 0.540609160122297 
1980	 0.540793878710252 
1981	 0.540943242662308 
1982	 0.541049914196902 
1983	 0.541204723852173 
1984	 0.541379573308663 
1985	 0.541532892752211 
1986	 0.54170050947126 
1987	 0.541864012403393 
1988	 0.541998731905312 
1989	 0.542157591178695 
1990	 0.542344734552904 
1991	 0.542521352383762 
1992	 0.542696805406701 
1993	 0.542879523493985 
1994	 0.543049576291424 
1995	 0.543198845458248 
1996	 0.543370776671779 
1997	 0.543525029985135 
1998	 0.543727537943547 
1999	 0.543988514933916 
2000	 0.544216529015418 
2001	 0.544455051891441 
2002	 0.544685984634463 
2003	 0.544926622100939 
2004	 0.545155092899246 
2005	 0.545380250825952 
2006	 0.545630725865505 
2007	 0.545852249301141 
2008	 0.546033562220147 
2009	 0.546237672164353 
2010	 0.546459821128816 
2011	 0.546659486691214 
2012	 0.546836403415746 
2013	 0.547032827375034 
2014	 0.547227835053325 
2015	 0.547419485746473 
2016	 0.547619595804524 
2017	 0.547869752342964 
2018	 0.548128715306288 
2019	 0.54842817944127 
2020	 0.548683668702148 
2021	 0.548964198989509 
2022	 0.549197031104384 
2023	 0.549369308859362 
2024	 0.549570828791211 
2025	 0.549772900130439 
2026	 0.549965391087192 
2027	 0.550158266161356 
2028	 0.550342270481844 
2029	 0.550533502577442 
2030	 0.550708025626672 
2031	 0.55091232107181 
2032	 0.551130898808786 
2033	 0.551362998120334 
2034	 0.55162097320361 
2035	 0.551864869742361 
2036	 0.552147588176375 
2037	 0.552366624115927 
2038	 0.552554258433694 
2039	 0.552727551959833 
2040	 0.552867800829397 
2041	 0.552970798809149 
2042	 0.553108582219544 
2043	 0.553277757601416 
2044	 0.55342537185359 
2045	 0.553590609756853 
2046	 0.553733303648349 
2047	 0.553853901559105 
2048	 0.553978309816557 
2049	 0.55409050319064 
2050	 0.554217214725398 
2051	 0.554356789741184 
2052	 0.554478235341164 
2053	 0.554604052379603 
2054	 0.554720676480552 
2055	 0.554809362741163 
2056	 0.554916194443037 
2057	 0.555011707195736 
2058	 0.555102458958888 
2059	 0.555195651257156 
2060	 0.555279664373595 
2061	 0.555379504695743 
2062	 0.555487140134168 
2063	 0.555600569918338 
2064	 0.555735015397198 
2065	 0.555847592063233 
2066	 0.555949044997623 
2067	 0.556059211946085 
2068	 0.556188073872778 
2069	 0.556268367819617 
2070	 0.556359792410973 
2071	 0.556457847939143 
2072	 0.556544073110107 
2073	 0.556614396178923 
2074	 0.556682898265912 
2075	 0.556727002534246 
2076	 0.556818275919213 
2077	 0.556925004161317 
2078	 0.557028339694793 
2079	 0.557199966426967 
2080	 0.557301318490324 
2081	 0.55734318645992 
2082	 0.557404327775462 
2083	 0.557444750701868 
2084	 0.557487119828841 
2085	 0.557535600388849 
2086	 0.557594278048836 
2087	 0.557651594725781 
2088	 0.557700588326549 
2089	 0.557766081021027 
2090	 0.557862278491321 
2091	 0.557920362233846 
2092	 0.557956526411412 
2093	 0.558011606583393 
2094	 0.558054662442766 
2095	 0.558102045987778 
2096	 0.558164524528376 
2097	 0.558228439040427 
2098	 0.558278446389857 
2099	 0.558344411731054 
2100	 0.558415354276584 
2101	 0.558501650651866 
2102	 0.558582624198758 
2103	 0.55866206756785 
2104	 0.558751219963411 
2105	 0.558828637365375 
2106	 0.558950329147693 
2107	 0.559090983652764 
2108	 0.559249587041387 
2109	 0.559463317366395 
2110	 0.559650932187242 
2111	 0.559847097872395 
2112	 0.560026146067464 
2113	 0.560194837668623 
2114	 0.560354229991754 
2115	 0.560510767273292 
2116	 0.560635594123751 
2117	 0.560825778168067 
2118	 0.561044601701462 
2119	 0.561251414770865 
2120	 0.561479003855587 
2121	 0.561726619114989 
2122	 0.56198528336558 
2123	 0.562228768646132 
2124	 0.56252890725811 
2125	 0.562761192159873 
2126	 0.56293725280171 
2127	 0.563115292868706 
2128	 0.563291308138583 
2129	 0.563423770008389 
2130	 0.563521188599317 
2131	 0.563609996342409 
2132	 0.563673764594855 
2133	 0.563705110682479 
2134	 0.563711653129267 
2135	 0.563709916216961 
2136	 0.56366237275841 
2137	 0.563568175721043 
2138	 0.563458328486681 
2139	 0.563322423315783 
2140	 0.563163419597005 
2141	 0.562972000965736 
2142	 0.562765667770995 
2143	 0.562518103365022 
2144	 0.562285131803525 
2145	 0.562048715789342 
2146	 0.561800223122593 
2147	 0.561575312816423 
2148	 0.56132228858553 
2149	 0.560995715111759 
2150	 0.560619081136804 
2151	 0.560229384226139 
2152	 0.559773470185779 
2153	 0.559330503683156 
2154	 0.55889784839798 
2155	 0.558417242728209 
2156	 0.55790972490841 
2157	 0.557369366885905 
2158	 0.556798927442433 
2159	 0.556194240174851 
2160	 0.555535027972036 
2161	 0.554881333778271 
2162	 0.554195292225032 
2163	 0.553517070261312 
2164	 0.552849671804947 
2165	 0.552162006516282 
2166	 0.551459314923636 
2167	 0.550749044113103 
2168	 0.55001589348025 
2169	 0.549270812227899 
2170	 0.548487785088258 
2171	 0.547706878076507 
2172	 0.546839654893394 
2173	 0.545913428790819 
2174	 0.544956612482534 
2175	 0.543927438810757 
2176	 0.542892897060974 
2177	 0.541801922349875 
2178	 0.540738196249696 
2179	 0.539674568017031 
2180	 0.53859017375381 
2181	 0.537526045657857 
2182	 0.536429421739436 
2183	 0.535291140569286 
2184	 0.534134510198993 
2185	 0.532991335652461 
2186	 0.531817811184015 
2187	 0.530694246906929 
2188	 0.529584703672266 
2189	 0.528504741867316 
2190	 0.527439266834846 
2191	 0.526425191778731 
2192	 0.525403430465109 
2193	 0.524494170798834 
2194	 0.523642142290012 
2195	 0.522881014200261 
2196	 0.522225656223524 
2197	 0.521621588344642 
2198	 0.521058766088592 
2199	 0.520616005669357 
2200	 0.520272419271124 
2201	 0.519991988263026 
2202	 0.51980055584289 
2203	 0.519719103743058 
2204	 0.519689203008642 
2205	 0.519713195973795 
2206	 0.519846638250639 
2207	 0.520077258052854 
2208	 0.520381557639988 
2209	 0.520796344714993 
2210	 0.521235000850095 
2211	 0.521785855204853 
2212	 0.522289058699687 
2213	 0.522806074864027 
2214	 0.52334283770408 
2215	 0.523888633229259 
2216	 0.524441789615022 
2217	 0.525062625768342 
2218	 0.525610015149444 
2219	 0.526126112157466 
2220	 0.52662581430663 
2221	 0.527084257206183 
2222	 0.527535001371022 
2223	 0.527977227666958 
2224	 0.528366835855472 
2225	 0.528707633420041 
2226	 0.529011741667247 
2227	 0.529242379729774 
2228	 0.529413107132025 
2229	 0.529545071757053 
2230	 0.529599449710662 
2231	 0.529648943838363 
2232	 0.529647331796199 
2233	 0.529660526711426 
2234	 0.52965050340329 
2235	 0.529650171431616 
2236	 0.529674475794573 
2237	 0.529647232361046 
2238	 0.529585515038835 
2239	 0.529527470319499 
2240	 0.529452988868538 
2241	 0.529357076106766 
2242	 0.529269726215167 
2243	 0.529143402670358 
2244	 0.52897753252185 
2245	 0.528793906055779 
2246	 0.528579482131883 
2247	 0.528330795237593 
2248	 0.528085612763291 
2249	 0.52780781834713 
2250	 0.527544995643408 
2251	 0.527273648600669 
2252	 0.5270315494268 
2253	 0.526781856387875 
2254	 0.526576956565985 
2255	 0.526415591214123 
2256	 0.526252414095743 
2257	 0.526081265757513 
2258	 0.525979832789745 
2259	 0.525898227659328 
2260	 0.525871689694539 
2261	 0.525922407723176 
2262	 0.525986393316053 
2263	 0.526081733732954 
2264	 0.526206770871925 
2265	 0.526363938434799 
2266	 0.526548821837383 
2267	 0.526781520042496 
2268	 0.527022749110487 
2269	 0.527273167634829 
2270	 0.527570168887972 
2271	 0.527917197917737 
2272	 0.528217408845128 
2273	 0.528515788888559 
2274	 0.528838487417777 
2275	 0.529149816116113 
2276	 0.529421440146761 
2277	 0.529754968225608 
2278	 0.530114566780268 
2279	 0.530497419927719 
2280	 0.530913376339946 
2281	 0.531330900840464 
2282	 0.53179637603185 
2283	 0.532225652227213 
2284	 0.532672834265158 
2285	 0.533053148311244 
2286	 0.533370735344166 
2287	 0.533711940438014 
2288	 0.534008113457663 
2289	 0.534334401377973 
2290	 0.534702692175719 
2291	 0.535048278587392 
2292	 0.535386933552396 
2293	 0.535720392150878 
2294	 0.536055151873646 
2295	 0.536364288712033 
2296	 0.536634415687988 
2297	 0.536943129724044 
2298	 0.53722059066076 
2299	 0.537511085101657 
2300	 0.537847625479501 
2301	 0.538079770083958 
2302	 0.538253021314784 
2303	 0.538450415490153 
2304	 0.538609328950411 
2305	 0.538780905735796 
2306	 0.539004062982372 
2307	 0.539289865286835 
2308	 0.539539999015127 
2309	 0.539839348959875 
2310	 0.540053480991591 
2311	 0.540228725375752 
2312	 0.540378314402332 
2313	 0.540487408742664 
2314	 0.540547025552788 
2315	 0.54051770868993 
2316	 0.540576366862234 
2317	 0.540624357633752 
2318	 0.540703824076359 
2319	 0.540878015784341 
2320	 0.540992122292203 
2321	 0.541041214059887 
2322	 0.541136977333396 
2323	 0.541279201992308 
2324	 0.541386788295286 
2325	 0.541524447666287 
2326	 0.541608981695138 
2327	 0.541663402193672 
2328	 0.541633111493237 
2329	 0.541642597369605 
2330	 0.541665455068576 
2331	 0.541690480482746 
2332	 0.541775079182692 
2333	 0.541859746948311 
2334	 0.541905790315177 
2335	 0.54196533135244 
2336	 0.542001853028564 
2337	 0.54197117925936 
2338	 0.541966751905571 
2339	 0.541970992834991 
2340	 0.541940955050638 
2341	 0.542013569431833 
2342	 0.542039671561328 
2343	 0.541907803520289 
2344	 0.541834243070138 
2345	 0.541782868460184 
2346	 0.541652688821136 
2347	 0.54162719903288 
2348	 0.541735417883336 
2349	 0.541776220073681 
2350	 0.541834060365236 
2351	 0.541853493500129 
2352	 0.541855172572954 
2353	 0.541801485398781 
2354	 0.541634646382083 
2355	 0.541611256160048 
2356	 0.54164367002568 
2357	 0.541671691630963 
2358	 0.541768804351373 
2359	 0.5418758820057 
2360	 0.541993416825174 
2361	 0.542085660649935 
2362	 0.542249832033884 
2363	 0.542308673764089 
2364	 0.542212523884801 
2365	 0.542220622006881 
2366	 0.542275267469545 
2367	 0.54229231661277 
2368	 0.542362852060171 
2369	 0.542393378490473 
2370	 0.542411452357008 
2371	 0.542315781283862 
2372	 0.54221351228112 
2373	 0.542084701592555 
2374	 0.541956504565219 
2375	 0.541822026251262 
2376	 0.541659929279135 
2377	 0.541409584334688 
2378	 0.541100347666552 
2379	 0.540812241508593 
2380	 0.540586485389691 
2381	 0.540439709130189 
2382	 0.540293932869205 
2383	 0.540100972660123 
2384	 0.539893123036324 
2385	 0.539738047808163 
2386	 0.539581536186224 
2387	 0.539436607905939 
2388	 0.539376985497632 
2389	 0.539234576067806 
2390	 0.538977038248737 
2391	 0.538788173139313 
2392	 0.538585372717421 
2393	 0.538261686828998 
2394	 0.537994537452987 
2395	 0.537809125315187 
2396	 0.537550207111532 
2397	 0.53728971023439 
2398	 0.53699851241039 
2399	 0.536615955197005 
2400	 0.536266547047823 
2401	 0.535903652565104 
2402	 0.535587051274999 
2403	 0.535321638668133 
2404	 0.534979760919844 
2405	 0.534646481044783 
2406	 0.534320923959309 
2407	 0.533951914638147 
2408	 0.533633746500973 
2409	 0.533293920216869 
2410	 0.532865973149732 
2411	 0.532480490666864 
2412	 0.532059196476836 
2413	 0.531601005423451 
2414	 0.531195672601033 
2415	 0.530776816693997 
2416	 0.530398564250231 
2417	 0.530100186301025 
2418	 0.529666549679402 
2419	 0.52915164996302 
2420	 0.528709633554653 
2421	 0.528171805265413 
2422	 0.527728976409518 
2423	 0.527459946730803 
2424	 0.527125064017626 
2425	 0.52676656620366 
2426	 0.526290120710714 
2427	 0.525732954416583 
2428	 0.525309717346472 
2429	 0.524820413325433 
2430	 0.524502445288661 
2431	 0.524406673622526 
2432	 0.524192655405926 
2433	 0.524012961283169 
2434	 0.523754631656697 
2435	 0.523448380929828 
2436	 0.523106048257039 
2437	 0.52265271811569 
2438	 0.522208224416373 
2439	 0.521748672087966 
2440	 0.521375515869174 
2441	 0.520982196216382 
2442	 0.520742801549714 
2443	 0.5206690605139 
2444	 0.52053834059135 
2445	 0.520465085181251 
2446	 0.520361586106371 
2447	 0.520281109825895 
2448	 0.520034077030583 
2449	 0.519670274687546 
2450	 0.519427392246471 
2451	 0.519042482766046 
2452	 0.518963230940426 
2453	 0.519206492162647 
2454	 0.519146537213743 
2455	 0.519126451365388 
2456	 0.51897899551857 
2457	 0.51858920306178 
2458	 0.518393107907231 
2459	 0.518249950742866 
2460	 0.518097680725518 
2461	 0.51796351109266 
2462	 0.517854119618723 
2463	 0.517709136342654 
2464	 0.517625974806476 
2465	 0.517689586427915 
2466	 0.517608791257096 
2467	 0.517473195842595 
2468	 0.517428583227733 
2469	 0.517370366826408 
2470	 0.517446476056003 
2471	 0.517347347145368 
2472	 0.517300862368145 
2473	 0.517231013512052 
2474	 0.517005051303417 
2475	 0.516881605842019 
2476	 0.516828505668109 
2477	 0.51663216898874 
2478	 0.516261921316613 
2479	 0.516124669099823 
2480	 0.516158012547753 
2481	 0.515984061889279 
2482	 0.516037812071179 
2483	 0.516221996124376 
2484	 0.516138961270899 
2485	 0.515942026648492 
2486	 0.515652195764795 
2487	 0.515364398710294 
2488	 0.515010195407802 
2489	 0.514738443493708 
2490	 0.514720887850353 
2491	 0.514503807410363 
2492	 0.514387711406528 
2493	 0.514599252966999 
2494	 0.514546153753662 
2495	 0.514546382084879 
2496	 0.514694439673381 
2497	 0.514305991543239 
2498	 0.514008799492314 
2499	 0.514042750642117 
2500	 0.51378868313511 
