Wavelength	LMW300003.asd
350	 0.116766993276458 
351	 0.12407905618538 
352	 0.120682671771477 
353	 0.113654544362391 
354	 0.120499050714787 
355	 0.125261901770014 
356	 0.123251819237779 
357	 0.116738679159325 
358	 0.12254824824443 
359	 0.121027871373835 
360	 0.115345371104745 
361	 0.121614892205912 
362	 0.121345906260452 
363	 0.120916531377927 
364	 0.123385771963688 
365	 0.121704981992298 
366	 0.121984832886792 
367	 0.122517294581046 
368	 0.121839283209786 
369	 0.128888165298614 
370	 0.13019151394371 
371	 0.125737121906756 
372	 0.124934398493401 
373	 0.128208474171376 
374	 0.130933686831373 
375	 0.131192151171188 
376	 0.133020697237786 
377	 0.133800063709728 
378	 0.133171464634133 
379	 0.132299281793033 
380	 0.135747432868619 
381	 0.138190450989752 
382	 0.13928612721143 
383	 0.142297844786964 
384	 0.142637937745215 
385	 0.14236714722136 
386	 0.143991843247301 
387	 0.149500467132037 
388	 0.152041093189584 
389	 0.152420999887209 
390	 0.153662721867985 
391	 0.155625162290954 
392	 0.158558959008273 
393	 0.161805585728221 
394	 0.164095525405467 
395	 0.166891275775672 
396	 0.168979114412677 
397	 0.170130856627972 
398	 0.17326892822213 
399	 0.176438179180537 
400	 0.179000603598362 
401	 0.180993446685652 
402	 0.183356701199667 
403	 0.185596053541727 
404	 0.187754810422605 
405	 0.190465076600827 
406	 0.193244484005871 
407	 0.195612115846451 
408	 0.197295146389565 
409	 0.198384911212245 
410	 0.199911214324254 
411	 0.201915025518025 
412	 0.20386483491987 
413	 0.204967232170801 
414	 0.205969533563133 
415	 0.207413546954277 
416	 0.209426961682194 
417	 0.210128984897959 
418	 0.210600626266138 
419	 0.211921322375579 
420	 0.212605562406184 
421	 0.212810460190745 
422	 0.212894495641756 
423	 0.213244961774691 
424	 0.213269590595418 
425	 0.212883493284989 
426	 0.212297200868177 
427	 0.212145096108102 
428	 0.21164644642227 
429	 0.210972389513617 
430	 0.210535779322859 
431	 0.210358318167586 
432	 0.209876387032751 
433	 0.209243154231861 
434	 0.209265403668583 
435	 0.209046236723531 
436	 0.209027846855941 
437	 0.209543244165966 
438	 0.209904888947096 
439	 0.210905328063667 
440	 0.21249630298054 
441	 0.214154146753202 
442	 0.215273933301657 
443	 0.216500814789672 
444	 0.218156532968894 
445	 0.219885951656314 
446	 0.22172408342222 
447	 0.223486046111969 
448	 0.225010168298135 
449	 0.226392073219942 
450	 0.228194411617353 
451	 0.230257011235557 
452	 0.231836703395647 
453	 0.233326667500553 
454	 0.234831420720647 
455	 0.236356963670563 
456	 0.237793030281907 
457	 0.239140642534298 
458	 0.240432640242529 
459	 0.241691733596671 
460	 0.242741510757675 
461	 0.243828200246961 
462	 0.24493326239341 
463	 0.245609808594683 
464	 0.246555017721205 
465	 0.247615915187043 
466	 0.248508810658103 
467	 0.249470674737351 
468	 0.250308447451869 
469	 0.250989920732278 
470	 0.251628639663896 
471	 0.252353399223845 
472	 0.253089874779294 
473	 0.253768393385556 
474	 0.254401719328693 
475	 0.255137789355995 
476	 0.255910817029002 
477	 0.25658162227719 
478	 0.257269270515267 
479	 0.25787504900584 
480	 0.258458022600348 
481	 0.259319503586054 
482	 0.260072590890777 
483	 0.260772693916201 
484	 0.261528787560678 
485	 0.262157454285244 
486	 0.262603324480534 
487	 0.263053057497877 
488	 0.263848770837712 
489	 0.264479006214179 
490	 0.265129889654621 
491	 0.265934386277722 
492	 0.26658612885668 
493	 0.267232285976901 
494	 0.267894673799715 
495	 0.268553132592233 
496	 0.269340501696108 
497	 0.269933060504806 
498	 0.270354337608188 
499	 0.271208539242179 
500	 0.271856647578523 
501	 0.272340135287835 
502	 0.272888733444952 
503	 0.273603407183087 
504	 0.274399087959296 
505	 0.27511879697941 
506	 0.275570166559094 
507	 0.276031704134739 
508	 0.276506062770234 
509	 0.276980795026294 
510	 0.277569001292801 
511	 0.278135312461576 
512	 0.278716454686465 
513	 0.279401729729265 
514	 0.279845540204348 
515	 0.280309711647868 
516	 0.280918369377415 
517	 0.281455819869479 
518	 0.281883187549258 
519	 0.282287643274333 
520	 0.282789916060841 
521	 0.283420686354522 
522	 0.283981970516736 
523	 0.284432091594222 
524	 0.284903463291249 
525	 0.285298125228527 
526	 0.285720070768209 
527	 0.286241036300183 
528	 0.28669811156483 
529	 0.287172735943627 
530	 0.287628024600426 
531	 0.287972022572702 
532	 0.288414182684316 
533	 0.28898011226109 
534	 0.289594693601377 
535	 0.290028524352796 
536	 0.290474854471258 
537	 0.290933690615756 
538	 0.291338404666743 
539	 0.291702867305121 
540	 0.292089427341926 
541	 0.292527895410695 
542	 0.293002964351951 
543	 0.293415044502373 
544	 0.293834123965147 
545	 0.294337940369841 
546	 0.294845854153691 
547	 0.295267314396999 
548	 0.295644224357834 
549	 0.296121780783344 
550	 0.296571476478396 
551	 0.297053408120278 
552	 0.2976062923603 
553	 0.298127276471932 
554	 0.298665466475727 
555	 0.299190167796134 
556	 0.299651508704709 
557	 0.300210653242868 
558	 0.300840769354058 
559	 0.301471888617699 
560	 0.301999848660351 
561	 0.302492007033822 
562	 0.30291595972468 
563	 0.303274241284996 
564	 0.303936893999537 
565	 0.304523321926371 
566	 0.304977171297282 
567	 0.305647243450374 
568	 0.306315466834322 
569	 0.307050662521308 
570	 0.307898473034483 
571	 0.308612897758889 
572	 0.309326580623306 
573	 0.310068828994283 
574	 0.310782162248307 
575	 0.311320370872545 
576	 0.311864933010346 
577	 0.312538982743333 
578	 0.313223487201191 
579	 0.313976796928075 
580	 0.314796815908687 
581	 0.315663019020162 
582	 0.316613498325765 
583	 0.317571674195433 
584	 0.31845984443179 
585	 0.319212624662651 
586	 0.319980333477951 
587	 0.320741353271914 
588	 0.321443528313645 
589	 0.322144548687681 
590	 0.322851778842789 
591	 0.323568778845612 
592	 0.324299645128251 
593	 0.325091904814044 
594	 0.325846002696868 
595	 0.326549828462291 
596	 0.32750035322447 
597	 0.328585425087752 
598	 0.32964230224852 
599	 0.330512367608177 
600	 0.331362399590857 
601	 0.33218820871861 
602	 0.332954057652648 
603	 0.333603395282414 
604	 0.334211327294381 
605	 0.334831222819492 
606	 0.335497159738959 
607	 0.336190211770152 
608	 0.336829442919772 
609	 0.337462509945563 
610	 0.338281926910049 
611	 0.339068560090974 
612	 0.339798122092567 
613	 0.340493772017003 
614	 0.341180061533633 
615	 0.341812258314558 
616	 0.342401361573383 
617	 0.342991679771886 
618	 0.343550363799951 
619	 0.344064575997864 
620	 0.344553322446492 
621	 0.345103660928832 
622	 0.345583743827652 
623	 0.346037122166329 
624	 0.346561022617074 
625	 0.347097858464782 
626	 0.347552154454734 
627	 0.347944308446399 
628	 0.348448600241225 
629	 0.348969137749218 
630	 0.349437731638884 
631	 0.349824449420663 
632	 0.350215653951229 
633	 0.350594727960259 
634	 0.351013875392112 
635	 0.351560554614699 
636	 0.351920215388157 
637	 0.352269919556913 
638	 0.352740705720876 
639	 0.353134030770847 
640	 0.35351049709984 
641	 0.353923636868843 
642	 0.354403242523613 
643	 0.354794672578859 
644	 0.355198689739089 
645	 0.355655379046534 
646	 0.356082670586444 
647	 0.356444604535245 
648	 0.35680684517838 
649	 0.357228410609601 
650	 0.35758797210647 
651	 0.357991659275331 
652	 0.358450618707574 
653	 0.358888327642758 
654	 0.359280877361917 
655	 0.359659836262052 
656	 0.360049938240589 
657	 0.360420193057348 
658	 0.360835501179915 
659	 0.361290150357491 
660	 0.36174444255319 
661	 0.362207408783805 
662	 0.362643219419975 
663	 0.363071019893103 
664	 0.363598469580502 
665	 0.363945857475063 
666	 0.36432404925436 
667	 0.364932231666171 
668	 0.365288450987563 
669	 0.365745601503564 
670	 0.366313416624492 
671	 0.366718086528606 
672	 0.367235406129521 
673	 0.367767779428029 
674	 0.368228516876792 
675	 0.368704855930293 
676	 0.369213025763032 
677	 0.369709847773273 
678	 0.370152032372047 
679	 0.370714262438182 
680	 0.371241801478367 
681	 0.371719118447382 
682	 0.372349080855813 
683	 0.372866355674844 
684	 0.373290713061963 
685	 0.373730473035011 
686	 0.37431662282084 
687	 0.374910474748564 
688	 0.375481764175809 
689	 0.376074503581675 
690	 0.376602189273106 
691	 0.377080830520762 
692	 0.377569156170153 
693	 0.378185443457725 
694	 0.378806655782455 
695	 0.379385677374734 
696	 0.379916006695092 
697	 0.380431381271361 
698	 0.381030819431761 
699	 0.381695329037515 
700	 0.382281546341657 
701	 0.382771108179553 
702	 0.383285323404579 
703	 0.383895349375277 
704	 0.384447257707397 
705	 0.384952868875774 
706	 0.385509670765326 
707	 0.386201093771225 
708	 0.386588017608833 
709	 0.387028236723958 
710	 0.387664911721315 
711	 0.3882111619901 
712	 0.388840385837625 
713	 0.389418439699634 
714	 0.389828297218979 
715	 0.390319439820576 
716	 0.390864937027839 
717	 0.391413401735183 
718	 0.3919049211101 
719	 0.392400615276988 
720	 0.3927951545773 
721	 0.393094322306034 
722	 0.393556956465893 
723	 0.394072239335812 
724	 0.39456206339637 
725	 0.39497545992194 
726	 0.395360895013918 
727	 0.395751331804701 
728	 0.3961301098291 
729	 0.3964399384182 
730	 0.396767503867621 
731	 0.397036182075536 
732	 0.397227053460868 
733	 0.397527998966581 
734	 0.397858858062947 
735	 0.398138027890674 
736	 0.398306930920646 
737	 0.39846160182346 
738	 0.398678209903956 
739	 0.398903063341194 
740	 0.398953973291724 
741	 0.399039744925525 
742	 0.399212104937406 
743	 0.399409201929291 
744	 0.399359071525861 
745	 0.399274698610247 
746	 0.399261448264534 
747	 0.399340814050768 
748	 0.399359440501483 
749	 0.399292967945848 
750	 0.399164271607239 
751	 0.399036429128767 
752	 0.398967911942704 
753	 0.398903756150508 
754	 0.398784639111671 
755	 0.398619797448858 
756	 0.398495967649533 
757	 0.398364898225951 
758	 0.39812717658091 
759	 0.397877715364368 
760	 0.397585931027974 
761	 0.397293602046002 
762	 0.397140042782655 
763	 0.396918541794618 
764	 0.396640175179957 
765	 0.396356232766211 
766	 0.396073173336247 
767	 0.395736609893848 
768	 0.395407539246807 
769	 0.395168390208225 
770	 0.3948030919317 
771	 0.39448258151048 
772	 0.394222488825988 
773	 0.393819078752635 
774	 0.393454327584556 
775	 0.393143491200017 
776	 0.392842590775044 
777	 0.392455412917204 
778	 0.392037008953433 
779	 0.391604986006867 
780	 0.391175510981241 
781	 0.390851115014076 
782	 0.390584607715403 
783	 0.390284904549555 
784	 0.389842694907205 
785	 0.389434284501349 
786	 0.389078408646717 
787	 0.388753081407993 
788	 0.388432231264499 
789	 0.388005983484367 
790	 0.387574023691417 
791	 0.387260131198406 
792	 0.386840798655163 
793	 0.386475256100877 
794	 0.386167993211329 
795	 0.385783486922744 
796	 0.385382134663129 
797	 0.385043726899163 
798	 0.384753297408767 
799	 0.384310588766568 
800	 0.384041181202282 
801	 0.383798936686949 
802	 0.383381681351551 
803	 0.382947316058055 
804	 0.382694639798389 
805	 0.382499178439351 
806	 0.382076827799407 
807	 0.381685284916668 
808	 0.381312002710105 
809	 0.380951149189723 
810	 0.38063933888104 
811	 0.380388366879467 
812	 0.380136393528673 
813	 0.379842269793505 
814	 0.379574914138812 
815	 0.379226007719014 
816	 0.378866901330149 
817	 0.378611428691927 
818	 0.378364637827401 
819	 0.378106538767551 
820	 0.377829434120968 
821	 0.377535271112014 
822	 0.377219516885867 
823	 0.376971015350281 
824	 0.376789113066279 
825	 0.376508713737281 
826	 0.376290095935113 
827	 0.376105148113267 
828	 0.375880619263069 
829	 0.375567285153385 
830	 0.375258738187906 
831	 0.375012110231501 
832	 0.374853001866961 
833	 0.374769371086925 
834	 0.374662241104359 
835	 0.374469888840353 
836	 0.374184548774217 
837	 0.37388308169865 
838	 0.373710541195723 
839	 0.373661084794609 
840	 0.373466137736891 
841	 0.373308668980743 
842	 0.373153323999745 
843	 0.372940071370658 
844	 0.372701905643989 
845	 0.372592724699282 
846	 0.372562267391782 
847	 0.372465424872156 
848	 0.372248713761229 
849	 0.372096748248077 
850	 0.372037828122365 
851	 0.371951426351915 
852	 0.371787798601224 
853	 0.371707521671268 
854	 0.371722412478568 
855	 0.371593424102198 
856	 0.371596493303973 
857	 0.371571342343063 
858	 0.371389754187822 
859	 0.37125535119655 
860	 0.371223130408092 
861	 0.371214786177344 
862	 0.371148466449669 
863	 0.371197276897767 
864	 0.371155488686667 
865	 0.371071267066732 
866	 0.371120091951918 
867	 0.371137498668331 
868	 0.371113816189372 
869	 0.371090181540856 
870	 0.371131428865811 
871	 0.371092779860351 
872	 0.371041367006426 
873	 0.371056492842383 
874	 0.371174834093145 
875	 0.37120644042537 
876	 0.371221809574365 
877	 0.371284666637876 
878	 0.371238335425117 
879	 0.371373952643321 
880	 0.371510811231736 
881	 0.371420294977499 
882	 0.371399523466747 
883	 0.371497172539747 
884	 0.371646314672527 
885	 0.371741382690727 
886	 0.371890698661513 
887	 0.372037326372609 
888	 0.372093741158231 
889	 0.372006701814577 
890	 0.372159662488683 
891	 0.372443743978944 
892	 0.372697975382197 
893	 0.372801648966617 
894	 0.372857493898527 
895	 0.372965656828057 
896	 0.373162531527664 
897	 0.373374172789921 
898	 0.373566186560005 
899	 0.37373525193507 
900	 0.373894388883754 
901	 0.374058943081095 
902	 0.374296723639396 
903	 0.374530276283988 
904	 0.374684448390824 
905	 0.374894313611136 
906	 0.375119941936593 
907	 0.375352886608365 
908	 0.37559176106184 
909	 0.375784885169582 
910	 0.376037574868025 
911	 0.376371812072161 
912	 0.376728236714807 
913	 0.376973527575942 
914	 0.377182893237733 
915	 0.377437028980607 
916	 0.377780893960525 
917	 0.37807023788275 
918	 0.378397957817992 
919	 0.37880649096619 
920	 0.379231965207166 
921	 0.379493367692804 
922	 0.379750783752786 
923	 0.380114042122109 
924	 0.380523223040999 
925	 0.380887425382687 
926	 0.381265622885182 
927	 0.381679461872241 
928	 0.382018433536215 
929	 0.382530549800013 
930	 0.382986683401008 
931	 0.383245528647524 
932	 0.383648907648787 
933	 0.384081466419026 
934	 0.384492090700943 
935	 0.384879877309973 
936	 0.385345064947574 
937	 0.385766938151029 
938	 0.386234243443541 
939	 0.386850915640777 
940	 0.387559727910047 
941	 0.387957750050649 
942	 0.388300700605044 
943	 0.388950492281714 
944	 0.389538578934396 
945	 0.390136928498063 
946	 0.390699165670072 
947	 0.391169605454481 
948	 0.391692092040372 
949	 0.392155192199465 
950	 0.392579528690678 
951	 0.393068088006087 
952	 0.393724152242202 
953	 0.39446742088065 
954	 0.395111989732701 
955	 0.395535254476262 
956	 0.396189259473007 
957	 0.396804669409902 
958	 0.397378722183247 
959	 0.398052293342604 
960	 0.39864255446567 
961	 0.399246526019563 
962	 0.399885163398647 
963	 0.400526572191082 
964	 0.401225195254612 
965	 0.401875491642215 
966	 0.402510921776196 
967	 0.403242841565968 
968	 0.404001727664609 
969	 0.404706703725198 
970	 0.405374680336834 
971	 0.406091073047791 
972	 0.406922780874855 
973	 0.407703921231488 
974	 0.408439582767483 
975	 0.409242235248565 
976	 0.410043065244302 
977	 0.410814298077905 
978	 0.41155732864694 
979	 0.412269609912507 
980	 0.41281099491736 
981	 0.413379576339754 
982	 0.414122526657563 
983	 0.415058860963624 
984	 0.415871525806955 
985	 0.416759099987732 
986	 0.417601930182107 
987	 0.418200680560664 
988	 0.418951909538243 
989	 0.419827341187986 
990	 0.420678459517797 
991	 0.421372655034157 
992	 0.422103203380601 
993	 0.422768771430167 
994	 0.423463755618772 
995	 0.424313100042434 
996	 0.425177762940822 
997	 0.426165316267986 
998	 0.427115757740248 
999	 0.427879661867007 
1000	 0.428733899968976 
1001	 0.431588815273938 
1002	 0.432251485187443 
1003	 0.432927992909844 
1004	 0.433665126156889 
1005	 0.434493035374122 
1006	 0.435280113936568 
1007	 0.436099759580322 
1008	 0.436876350165609 
1009	 0.437596816886208 
1010	 0.4382469504553 
1011	 0.438941827895001 
1012	 0.439619658324022 
1013	 0.440279300997386 
1014	 0.440979213525822 
1015	 0.441586761188876 
1016	 0.442190622162977 
1017	 0.442870502559321 
1018	 0.443591791311842 
1019	 0.444287486565118 
1020	 0.444954357279804 
1021	 0.44564382054463 
1022	 0.446266574966886 
1023	 0.446774215808435 
1024	 0.44734303422512 
1025	 0.447941970888199 
1026	 0.448484213670855 
1027	 0.449043396015297 
1028	 0.449621470151218 
1029	 0.450197522345794 
1030	 0.450803546970073 
1031	 0.451416078506702 
1032	 0.452060453023767 
1033	 0.452735855976193 
1034	 0.453384881463977 
1035	 0.453911860522054 
1036	 0.454425629374757 
1037	 0.45495984676164 
1038	 0.455497935878997 
1039	 0.456109231504956 
1040	 0.456769120877663 
1041	 0.4574008441778 
1042	 0.457965190983821 
1043	 0.458571923674511 
1044	 0.459184595245087 
1045	 0.459803065785884 
1046	 0.460402303987223 
1047	 0.461022318529437 
1048	 0.461592756961654 
1049	 0.462152854854267 
1050	 0.462750033596254 
1051	 0.463385683209242 
1052	 0.464002596867507 
1053	 0.464602812396149 
1054	 0.465175745832427 
1055	 0.465682105665355 
1056	 0.466240159850375 
1057	 0.466757269054517 
1058	 0.467211981062959 
1059	 0.46770895175267 
1060	 0.468257630743656 
1061	 0.468700041807172 
1062	 0.469069054915661 
1063	 0.469504077115458 
1064	 0.469897379413173 
1065	 0.470270057475727 
1066	 0.470728516502128 
1067	 0.471189640420129 
1068	 0.471610311352019 
1069	 0.471970658031277 
1070	 0.472322215854201 
1071	 0.472642917059357 
1072	 0.472996835285096 
1073	 0.473337624882934 
1074	 0.473676361435556 
1075	 0.474064971938786 
1076	 0.474344255814645 
1077	 0.474615570364825 
1078	 0.474936114687445 
1079	 0.475230869235201 
1080	 0.47552505830629 
1081	 0.475761752680118 
1082	 0.475995002404335 
1083	 0.476248233883081 
1084	 0.476476040838626 
1085	 0.476744530538923 
1086	 0.477049457257651 
1087	 0.4773478291505 
1088	 0.477657612156628 
1089	 0.477970676207878 
1090	 0.478260749172072 
1091	 0.47854885300414 
1092	 0.478828712645737 
1093	 0.479147142271973 
1094	 0.47950063308175 
1095	 0.479830223966816 
1096	 0.480164751581887 
1097	 0.480518966330775 
1098	 0.480885656563386 
1099	 0.481277758912432 
1100	 0.481656390351086 
1101	 0.482016183221696 
1102	 0.482422717624792 
1103	 0.482849735402659 
1104	 0.483269705069413 
1105	 0.483727957162985 
1106	 0.484184965885706 
1107	 0.484629570662925 
1108	 0.485096839654983 
1109	 0.48556663164339 
1110	 0.486081277227308 
1111	 0.486613882550208 
1112	 0.487175792850413 
1113	 0.487714957817148 
1114	 0.488285718195191 
1115	 0.488828062559178 
1116	 0.489315114236283 
1117	 0.489868762303441 
1118	 0.490471190227479 
1119	 0.491025695423599 
1120	 0.491619981503481 
1121	 0.492205341089337 
1122	 0.492748584357059 
1123	 0.493352316708543 
1124	 0.493942149919453 
1125	 0.494548746730389 
1126	 0.495141994738603 
1127	 0.495714432607463 
1128	 0.496307111763358 
1129	 0.496924729084758 
1130	 0.49751498063596 
1131	 0.498107238350861 
1132	 0.498697503802316 
1133	 0.499261444689931 
1134	 0.499829278372809 
1135	 0.500408173721686 
1136	 0.500978501674061 
1137	 0.501513483187928 
1138	 0.502084758410942 
1139	 0.502646819487494 
1140	 0.503207068921206 
1141	 0.50375797545598 
1142	 0.5043172390726 
1143	 0.504855854153587 
1144	 0.505378136013405 
1145	 0.50589946829117 
1146	 0.506436794447515 
1147	 0.506928800313768 
1148	 0.507376310133007 
1149	 0.507844996990236 
1150	 0.508306602970037 
1151	 0.508751313551717 
1152	 0.509211091006221 
1153	 0.509672299907513 
1154	 0.510106875579573 
1155	 0.510508088333217 
1156	 0.510933858982473 
1157	 0.511379624646144 
1158	 0.511777507197213 
1159	 0.512161704576467 
1160	 0.512541257269709 
1161	 0.512883611166272 
1162	 0.513236971142089 
1163	 0.51359878086866 
1164	 0.513953099723461 
1165	 0.514299118818552 
1166	 0.514640614412841 
1167	 0.514992657047046 
1168	 0.515350020426362 
1169	 0.515672661801481 
1170	 0.515982710068402 
1171	 0.516280953858489 
1172	 0.516546336217219 
1173	 0.51682992551529 
1174	 0.517118372592199 
1175	 0.517399293442294 
1176	 0.517668151008827 
1177	 0.517953965380456 
1178	 0.518251725724608 
1179	 0.518536023628778 
1180	 0.518828247601259 
1181	 0.519113059575285 
1182	 0.519385054454451 
1183	 0.519655219638637 
1184	 0.519921699116733 
1185	 0.520195683304607 
1186	 0.520447962886942 
1187	 0.520679906522977 
1188	 0.520925885040644 
1189	 0.521177626375617 
1190	 0.521406609187713 
1191	 0.52162614891338 
1192	 0.521850429105318 
1193	 0.52205219361867 
1194	 0.522269942276684 
1195	 0.52251060250003 
1196	 0.522737493828392 
1197	 0.522957259353994 
1198	 0.52317766602742 
1199	 0.523396235184122 
1200	 0.523612141746817 
1201	 0.523825906489727 
1202	 0.524038097983335 
1203	 0.524251702252686 
1204	 0.524467396267572 
1205	 0.524673691612993 
1206	 0.524879580709129 
1207	 0.525077980807 
1208	 0.525276088355826 
1209	 0.525454791991822 
1210	 0.525619509109943 
1211	 0.525784181101258 
1212	 0.525919054818409 
1213	 0.526077341987055 
1214	 0.526265189835731 
1215	 0.526428464707706 
1216	 0.526585222242339 
1217	 0.526741174438359 
1218	 0.526895959240855 
1219	 0.527029560705521 
1220	 0.527184426696652 
1221	 0.527363284869617 
1222	 0.52751650688678 
1223	 0.527651994394217 
1224	 0.527807486842315 
1225	 0.527974837624261 
1226	 0.528120459905133 
1227	 0.52826403609109 
1228	 0.528410451109497 
1229	 0.528521474436798 
1230	 0.528666520645558 
1231	 0.528869218433739 
1232	 0.529026907816584 
1233	 0.529171264182722 
1234	 0.529312482773651 
1235	 0.52944012487762 
1236	 0.529526227217104 
1237	 0.52965042858992 
1238	 0.529795576271638 
1239	 0.529925166067117 
1240	 0.530063874537201 
1241	 0.530182667607967 
1242	 0.530288920373339 
1243	 0.530390631772019 
1244	 0.530457349222968 
1245	 0.530565564899963 
1246	 0.530694728437749 
1247	 0.53081900605758 
1248	 0.530971018426559 
1249	 0.531117805341272 
1250	 0.53122514320029 
1251	 0.531329060246612 
1252	 0.531442720366744 
1253	 0.531547488139334 
1254	 0.531662346171113 
1255	 0.531801450698769 
1256	 0.531906456166722 
1257	 0.531994578430702 
1258	 0.532087106843703 
1259	 0.532164671411491 
1260	 0.532248740665048 
1261	 0.532341618846632 
1262	 0.532424364682132 
1263	 0.53249169923646 
1264	 0.532568360522023 
1265	 0.532648369322622 
1266	 0.532727365302779 
1267	 0.532805597211129 
1268	 0.532896729641804 
1269	 0.532978978171344 
1270	 0.533050456908273 
1271	 0.533145698255788 
1272	 0.533242863551532 
1273	 0.533362583208238 
1274	 0.533498321270982 
1275	 0.533646345484655 
1276	 0.53381400727415 
1277	 0.53398480830377 
1278	 0.534183538740703 
1279	 0.534359102387867 
1280	 0.534514330607214 
1281	 0.534696552904755 
1282	 0.534903617702241 
1283	 0.535076484567522 
1284	 0.535266968606225 
1285	 0.535430550341836 
1286	 0.535515604639722 
1287	 0.535607652259939 
1288	 0.535673885647155 
1289	 0.53571691585901 
1290	 0.535739122212084 
1291	 0.535737868468769 
1292	 0.535726094723536 
1293	 0.535697583677848 
1294	 0.53564172921467 
1295	 0.535584189923976 
1296	 0.53547883235299 
1297	 0.535323907815563 
1298	 0.535164814977475 
1299	 0.53496170731415 
1300	 0.534775354014942 
1301	 0.534577940719197 
1302	 0.534389363572622 
1303	 0.534213032589733 
1304	 0.534034941757961 
1305	 0.533828462510745 
1306	 0.533608794573497 
1307	 0.533420568021217 
1308	 0.53319865475011 
1309	 0.532991464564113 
1310	 0.532802915409161 
1311	 0.532616931728836 
1312	 0.532409950090808 
1313	 0.53223758904752 
1314	 0.532090322423298 
1315	 0.531944752997734 
1316	 0.53178614401768 
1317	 0.531691670397762 
1318	 0.531638745587282 
1319	 0.531588718996034 
1320	 0.531578940936257 
1321	 0.531572138123144 
1322	 0.53156277346709 
1323	 0.531572850863418 
1324	 0.531614090752747 
1325	 0.531676236470585 
1326	 0.531750686486718 
1327	 0.531840921496271 
1328	 0.531925872694219 
1329	 0.532005974844479 
1330	 0.532127128983994 
1331	 0.532240134080467 
1332	 0.532429931459188 
1333	 0.532687251826134 
1334	 0.532933999003454 
1335	 0.533208600615346 
1336	 0.533499786902145 
1337	 0.533816254578168 
1338	 0.534115655902986 
1339	 0.534438212027829 
1340	 0.534744961323797 
1341	 0.535024134339096 
1342	 0.535319580195146 
1343	 0.535626709579353 
1344	 0.535931184541744 
1345	 0.536239330871088 
1346	 0.536533189817626 
1347	 0.536827456309882 
1348	 0.537146096827054 
1349	 0.537447787730835 
1350	 0.537739713474105 
1351	 0.53802374961812 
1352	 0.538288495218007 
1353	 0.538572799813344 
1354	 0.538856835154672 
1355	 0.539145494732491 
1356	 0.539455613093136 
1357	 0.53974346266177 
1358	 0.540026912943509 
1359	 0.54030301207672 
1360	 0.540558526169115 
1361	 0.540823559518089 
1362	 0.541087023376149 
1363	 0.541348728768138 
1364	 0.541618087773963 
1365	 0.541884551162753 
1366	 0.542149064758426 
1367	 0.542410334833031 
1368	 0.542666246878465 
1369	 0.542890458331545 
1370	 0.543097477423597 
1371	 0.543293030214265 
1372	 0.543471328206981 
1373	 0.543641644350092 
1374	 0.543790485710643 
1375	 0.543918885583694 
1376	 0.544043294164439 
1377	 0.544162281815537 
1378	 0.544250682891963 
1379	 0.54432228419494 
1380	 0.544380790287305 
1381	 0.544416360005526 
1382	 0.544433946608938 
1383	 0.544457903303693 
1384	 0.544435044804491 
1385	 0.544397029160664 
1386	 0.544297555504003 
1387	 0.544168210642713 
1388	 0.543972481430662 
1389	 0.543719788562253 
1390	 0.54341142835508 
1391	 0.543056742739392 
1392	 0.542634506954744 
1393	 0.542155150970688 
1394	 0.541645360138045 
1395	 0.541078649356669 
1396	 0.540487145733066 
1397	 0.539889371126919 
1398	 0.539250305161828 
1399	 0.538640639247502 
1400	 0.538018106053704 
1401	 0.537438499390245 
1402	 0.53686998105622 
1403	 0.53633725284941 
1404	 0.535807996239861 
1405	 0.535359948570127 
1406	 0.534935823586991 
1407	 0.534601958759477 
1408	 0.534333038097434 
1409	 0.534146001566203 
1410	 0.533998109518231 
1411	 0.533985046646089 
1412	 0.534051251256115 
1413	 0.53425016875746 
1414	 0.534611500270311 
1415	 0.53506910269604 
1416	 0.535640357950623 
1417	 0.536292239235686 
1418	 0.536968043915497 
1419	 0.53764804849732 
1420	 0.538337361518363 
1421	 0.538992551502394 
1422	 0.539581468525442 
1423	 0.540144315622849 
1424	 0.54062747090766 
1425	 0.541044390420718 
1426	 0.541404838774465 
1427	 0.541689780559555 
1428	 0.541957359046153 
1429	 0.542174361493009 
1430	 0.542360796049844 
1431	 0.542509627313633 
1432	 0.542641978366901 
1433	 0.542720734552943 
1434	 0.542816445993594 
1435	 0.542905285855702 
1436	 0.542990563197951 
1437	 0.543081083210866 
1438	 0.543142983836115 
1439	 0.54319104005747 
1440	 0.543231975101028 
1441	 0.543239560791672 
1442	 0.54325219896127 
1443	 0.543236904365379 
1444	 0.543200217381844 
1445	 0.54316916503932 
1446	 0.543129351449727 
1447	 0.543102055559882 
1448	 0.543073154698834 
1449	 0.543018806472443 
1450	 0.542964043624403 
1451	 0.542912593763281 
1452	 0.542853245662029 
1453	 0.542801695362843 
1454	 0.542762875778963 
1455	 0.542704993095946 
1456	 0.542644208968815 
1457	 0.542573605873596 
1458	 0.542482913601291 
1459	 0.542409144211775 
1460	 0.54233123716402 
1461	 0.542263396595446 
1462	 0.542222055195435 
1463	 0.542152249675915 
1464	 0.542059633429809 
1465	 0.541987796626627 
1466	 0.541894013500432 
1467	 0.541836785846767 
1468	 0.54180340938063 
1469	 0.541791892469043 
1470	 0.54180341369689 
1471	 0.541837243399714 
1472	 0.541871048515647 
1473	 0.54191257323127 
1474	 0.541959882553626 
1475	 0.542023012967793 
1476	 0.542116279743198 
1477	 0.542226783324571 
1478	 0.542364299784214 
1479	 0.542485832514266 
1480	 0.542612819974554 
1481	 0.542758204625083 
1482	 0.542860250466194 
1483	 0.542926304843766 
1484	 0.543031957578174 
1485	 0.543121570631992 
1486	 0.543238180455726 
1487	 0.543390871507037 
1488	 0.543533356778475 
1489	 0.543689583404944 
1490	 0.543814919557334 
1491	 0.543942408962431 
1492	 0.544051282482525 
1493	 0.544121532379439 
1494	 0.544207850459101 
1495	 0.544293887582814 
1496	 0.544379086189343 
1497	 0.544475080792056 
1498	 0.544552347728228 
1499	 0.544615344822922 
1500	 0.544685405857096 
1501	 0.544737622404235 
1502	 0.544801456774304 
1503	 0.544882647550261 
1504	 0.544951365742669 
1505	 0.545023826530453 
1506	 0.545106245716756 
1507	 0.545162003035535 
1508	 0.545219777427953 
1509	 0.545251035306059 
1510	 0.545255540660358 
1511	 0.545264383628089 
1512	 0.545292640251911 
1513	 0.545377446784733 
1514	 0.545463213162939 
1515	 0.545558577040522 
1516	 0.545660024119966 
1517	 0.54571936501653 
1518	 0.545741336933729 
1519	 0.545780621043524 
1520	 0.545801635433978 
1521	 0.545839317550565 
1522	 0.54587923410479 
1523	 0.545925416698933 
1524	 0.545973974908387 
1525	 0.546036565500765 
1526	 0.546112963326947 
1527	 0.546190425920616 
1528	 0.5462893183675 
1529	 0.546355650041486 
1530	 0.546407019021797 
1531	 0.546467380040707 
1532	 0.546511624727113 
1533	 0.546568391910169 
1534	 0.546645843157934 
1535	 0.546701458363449 
1536	 0.546736125355159 
1537	 0.546786448950334 
1538	 0.546835183878146 
1539	 0.546888940153514 
1540	 0.546966872709232 
1541	 0.547025070724168 
1542	 0.547080567554143 
1543	 0.547115669889511 
1544	 0.547124826770683 
1545	 0.547140625286428 
1546	 0.547129279274647 
1547	 0.547146312243988 
1548	 0.547214843128996 
1549	 0.547278304350036 
1550	 0.547338755621176 
1551	 0.547413123538425 
1552	 0.547462051695601 
1553	 0.547496799957989 
1554	 0.54755230655448 
1555	 0.547621291884764 
1556	 0.547691649688827 
1557	 0.547772145580976 
1558	 0.547868848044508 
1559	 0.547969637570245 
1560	 0.548058686410793 
1561	 0.548146668096077 
1562	 0.548222672344238 
1563	 0.548277858399068 
1564	 0.548362553631999 
1565	 0.54844940517833 
1566	 0.548551151383421 
1567	 0.54869003079946 
1568	 0.548787099825897 
1569	 0.548880867781944 
1570	 0.548943694115033 
1571	 0.548971304741299 
1572	 0.549014332724446 
1573	 0.549038312104516 
1574	 0.549080500972262 
1575	 0.549129059853703 
1576	 0.549181663956387 
1577	 0.549253515291161 
1578	 0.549300612663823 
1579	 0.549343227428427 
1580	 0.549379817041375 
1581	 0.549393458112399 
1582	 0.549418261493227 
1583	 0.549440135667006 
1584	 0.549479604340534 
1585	 0.549509469710742 
1586	 0.54957425348728 
1587	 0.549688402658159 
1588	 0.549769606613291 
1589	 0.549868440959663 
1590	 0.549944873914992 
1591	 0.549987256978115 
1592	 0.550035788613734 
1593	 0.550079592818888 
1594	 0.550120648026342 
1595	 0.550157106980256 
1596	 0.550196558807255 
1597	 0.550223831650618 
1598	 0.55027238434022 
1599	 0.550345193619429 
1600	 0.550396969098801 
1601	 0.550443415182748 
1602	 0.550500201641438 
1603	 0.550553326376432 
1604	 0.550599226683467 
1605	 0.55064655040561 
1606	 0.550707382861508 
1607	 0.550769045049849 
1608	 0.55081904899815 
1609	 0.550908446232381 
1610	 0.550992936708658 
1611	 0.551022972869391 
1612	 0.551081031581174 
1613	 0.551151408871837 
1614	 0.551194168472371 
1615	 0.551269782831648 
1616	 0.551337369299642 
1617	 0.551386272520382 
1618	 0.551460887072335 
1619	 0.551517878219413 
1620	 0.551581675244635 
1621	 0.551640490436061 
1622	 0.551688825703485 
1623	 0.551741010806312 
1624	 0.551801332950584 
1625	 0.551848039007921 
1626	 0.551882110431377 
1627	 0.551929278771006 
1628	 0.551979072653906 
1629	 0.552024446462719 
1630	 0.552075367704393 
1631	 0.552116724972498 
1632	 0.55214450374059 
1633	 0.552191150300798 
1634	 0.552243886697879 
1635	 0.552294683493634 
1636	 0.552362786872314 
1637	 0.552399256415498 
1638	 0.552409546238066 
1639	 0.55245147428469 
1640	 0.55249657015454 
1641	 0.552534021063274 
1642	 0.552583511487952 
1643	 0.552634323757981 
1644	 0.552658989843495 
1645	 0.552727778258181 
1646	 0.552837218994955 
1647	 0.552922731522775 
1648	 0.553012634670265 
1649	 0.553105492741097 
1650	 0.55320277519117 
1651	 0.553281647688298 
1652	 0.553374390407357 
1653	 0.553422405345708 
1654	 0.55342799030161 
1655	 0.553449303744063 
1656	 0.553454243346426 
1657	 0.553463092230151 
1658	 0.553471331668324 
1659	 0.553484961222773 
1660	 0.553486832347662 
1661	 0.553513139401391 
1662	 0.55354610477142 
1663	 0.553607682265117 
1664	 0.553713382338355 
1665	 0.553774607488791 
1666	 0.553842857473819 
1667	 0.553892382869108 
1668	 0.553896071634854 
1669	 0.553932426374481 
1670	 0.553992661558015 
1671	 0.554028237300649 
1672	 0.55405253923728 
1673	 0.554086607072554 
1674	 0.554111540818977 
1675	 0.554144277673238 
1676	 0.554172965870778 
1677	 0.55423523041758 
1678	 0.554312324454594 
1679	 0.554396732176001 
1680	 0.55451606918688 
1681	 0.554622094637063 
1682	 0.554738485303452 
1683	 0.554820675370663 
1684	 0.554890779865044 
1685	 0.554957704266443 
1686	 0.554990387173427 
1687	 0.555042541254729 
1688	 0.55512171331715 
1689	 0.55516454389074 
1690	 0.555175585938867 
1691	 0.555214505504436 
1692	 0.555247130061123 
1693	 0.555288555141863 
1694	 0.555356232768684 
1695	 0.555405273225194 
1696	 0.555437892131835 
1697	 0.555486050714431 
1698	 0.555525347542503 
1699	 0.555600116337283 
1700	 0.555704490628905 
1701	 0.55579287079236 
1702	 0.555918538908792 
1703	 0.555989054318775 
1704	 0.556031641087976 
1705	 0.55605823654673 
1706	 0.556031963646858 
1707	 0.556050537589396 
1708	 0.556079298346846 
1709	 0.556098128530691 
1710	 0.556133018329349 
1711	 0.556162793892063 
1712	 0.556154785348885 
1713	 0.556208114569866 
1714	 0.556308907113659 
1715	 0.556385501981579 
1716	 0.556477086521079 
1717	 0.556572136356481 
1718	 0.556675099352207 
1719	 0.556746428175857 
1720	 0.556836533528406 
1721	 0.556867823305839 
1722	 0.556837589985186 
1723	 0.556825195778908 
1724	 0.556776598873371 
1725	 0.556774487039094 
1726	 0.556790042506494 
1727	 0.556800331765606 
1728	 0.556834336564395 
1729	 0.556853000726172 
1730	 0.556874165187561 
1731	 0.55686730298081 
1732	 0.55686374689778 
1733	 0.556817953255634 
1734	 0.556709953079578 
1735	 0.556655632408373 
1736	 0.556607902295004 
1737	 0.556547288819334 
1738	 0.556495639823241 
1739	 0.556452348710663 
1740	 0.556383864353694 
1741	 0.556368408784514 
1742	 0.556414447933195 
1743	 0.55640774665772 
1744	 0.556394590534425 
1745	 0.556370298985769 
1746	 0.556308849795631 
1747	 0.556299050640035 
1748	 0.556319290303339 
1749	 0.556331578299124 
1750	 0.556324933135694 
1751	 0.556295766201403 
1752	 0.55625631985148 
1753	 0.556207541853945 
1754	 0.55615999334886 
1755	 0.55616447310512 
1756	 0.556152015356462 
1757	 0.556133951867989 
1758	 0.556194615802034 
1759	 0.556198438560093 
1760	 0.556159938909888 
1761	 0.556162909638417 
1762	 0.556114875136799 
1763	 0.55603069218326 
1764	 0.556006352975104 
1765	 0.556021095863246 
1766	 0.55606364451272 
1767	 0.556167869499358 
1768	 0.556260672881776 
1769	 0.556310894314502 
1770	 0.556323065849882 
1771	 0.556297644867177 
1772	 0.556246857349306 
1773	 0.556183983347301 
1774	 0.556141993338986 
1775	 0.556087654595986 
1776	 0.556068861812747 
1777	 0.55609728530987 
1778	 0.556098879664652 
1779	 0.556167323768589 
1780	 0.556273006898839 
1781	 0.556333187732008 
1782	 0.556391544733944 
1783	 0.556412673793843 
1784	 0.556434224566528 
1785	 0.556446383262142 
1786	 0.556446762317638 
1787	 0.556411239409483 
1788	 0.556415426868124 
1789	 0.556437796548653 
1790	 0.556482092057101 
1791	 0.556582151261252 
1792	 0.556619152979737 
1793	 0.556645174566207 
1794	 0.556638893402537 
1795	 0.556571925195471 
1796	 0.556553179211437 
1797	 0.55652068573662 
1798	 0.556520712015061 
1799	 0.556556419418436 
1800	 0.556592124419739 
1801	 0.552156418945404 
1802	 0.552208752810979 
1803	 0.552269825992687 
1804	 0.552342632103217 
1805	 0.552438473087197 
1806	 0.552524992771864 
1807	 0.552620183203265 
1808	 0.552688702270642 
1809	 0.552745702555269 
1810	 0.552790636334095 
1811	 0.55283077735674 
1812	 0.55282669853306 
1813	 0.552852074580778 
1814	 0.552838072523414 
1815	 0.552806837228801 
1816	 0.552836092375097 
1817	 0.552828049524087 
1818	 0.552781776247983 
1819	 0.552773488606889 
1820	 0.552785076005147 
1821	 0.552774700353475 
1822	 0.552779272133802 
1823	 0.552800751697746 
1824	 0.552777980711519 
1825	 0.552729586273778 
1826	 0.552675478743427 
1827	 0.552624845436588 
1828	 0.552558255822922 
1829	 0.552492402051422 
1830	 0.552400347896249 
1831	 0.552287642576177 
1832	 0.552160006578093 
1833	 0.552030463328103 
1834	 0.551904225370539 
1835	 0.551785177179338 
1836	 0.551701531023035 
1837	 0.551567126997892 
1838	 0.551419078134778 
1839	 0.551304917295176 
1840	 0.551208539775981 
1841	 0.551059218776329 
1842	 0.550966237309573 
1843	 0.550915511362936 
1844	 0.550809191903683 
1845	 0.550703394527519 
1846	 0.550596795263196 
1847	 0.550507118973719 
1848	 0.550463623512258 
1849	 0.550460279784426 
1850	 0.550515514677432 
1851	 0.550648506598582 
1852	 0.550790276578115 
1853	 0.550913875741996 
1854	 0.551059013489293 
1855	 0.551152104696757 
1856	 0.551217344572104 
1857	 0.551303162516609 
1858	 0.551371703245607 
1859	 0.551436243955991 
1860	 0.55150207156854 
1861	 0.551567611958487 
1862	 0.551621403155836 
1863	 0.551690239449245 
1864	 0.551780384609574 
1865	 0.551865349881242 
1866	 0.551930326782612 
1867	 0.551978504237047 
1868	 0.552007122319307 
1869	 0.552046131455588 
1870	 0.552086455798975 
1871	 0.552114270671931 
1872	 0.55214556422319 
1873	 0.552169884936362 
1874	 0.552151943703629 
1875	 0.552140764505086 
1876	 0.552115941193177 
1877	 0.552043593859232 
1878	 0.551897576987008 
1879	 0.551687378511665 
1880	 0.551459748331715 
1881	 0.551171180905241 
1882	 0.550864050379261 
1883	 0.550557450253422 
1884	 0.550182019342982 
1885	 0.549740165299952 
1886	 0.549259200326377 
1887	 0.548692758274676 
1888	 0.548167387632421 
1889	 0.547622944242255 
1890	 0.54702100615699 
1891	 0.546437782700629 
1892	 0.545838798611963 
1893	 0.545237927572935 
1894	 0.544616995331277 
1895	 0.544048606578472 
1896	 0.543461844463604 
1897	 0.542887813515894 
1898	 0.542363465550334 
1899	 0.541906970191542 
1900	 0.541504352799178 
1901	 0.541212110815454 
1902	 0.540971763235455 
1903	 0.540805011265437 
1904	 0.540676926650481 
1905	 0.540618442099975 
1906	 0.540603092800821 
1907	 0.540606500307129 
1908	 0.540639045140717 
1909	 0.540701413497427 
1910	 0.540781372799914 
1911	 0.540859826940756 
1912	 0.540947103848701 
1913	 0.541027180677977 
1914	 0.541103759554325 
1915	 0.541161604853778 
1916	 0.541211374114496 
1917	 0.541260377471588 
1918	 0.541303885993357 
1919	 0.541344248531259 
1920	 0.541402053709547 
1921	 0.541475161036607 
1922	 0.541526845288658 
1923	 0.541580233743351 
1924	 0.54161747248691 
1925	 0.541626553782614 
1926	 0.541660321824792 
1927	 0.541701323070957 
1928	 0.541730310722268 
1929	 0.541777174656319 
1930	 0.541808998806763 
1931	 0.541826911603811 
1932	 0.541815242121001 
1933	 0.541781107369352 
1934	 0.541798250929034 
1935	 0.541815995215295 
1936	 0.541832331736448 
1937	 0.541870077791653 
1938	 0.541933428276333 
1939	 0.541990908374804 
1940	 0.542026692769866 
1941	 0.542122523201269 
1942	 0.542258938485743 
1943	 0.542414785189655 
1944	 0.542578329332942 
1945	 0.542737235359582 
1946	 0.54289397373662 
1947	 0.543044126667669 
1948	 0.543173161399009 
1949	 0.543325451445266 
1950	 0.543427100631887 
1951	 0.543480562247664 
1952	 0.543513403968435 
1953	 0.543575722513125 
1954	 0.54365657458251 
1955	 0.543743419665887 
1956	 0.54382723823022 
1957	 0.543909146449628 
1958	 0.543971446955275 
1959	 0.544049198563072 
1960	 0.544141254519338 
1961	 0.544233910954431 
1962	 0.544323021213772 
1963	 0.54442248309174 
1964	 0.544521405164048 
1965	 0.544641512923981 
1966	 0.544772466169525 
1967	 0.544891871652853 
1968	 0.545014267244497 
1969	 0.545142567909186 
1970	 0.545258823240297 
1971	 0.545358293036999 
1972	 0.545485872058077 
1973	 0.545624798004907 
1974	 0.545758512522769 
1975	 0.545896358237224 
1976	 0.546049990682891 
1977	 0.546204920933055 
1978	 0.546344199493747 
1979	 0.546507076781413 
1980	 0.546677461261178 
1981	 0.546834487936397 
1982	 0.546980943191252 
1983	 0.547137383467462 
1984	 0.547302983323068 
1985	 0.547446798330799 
1986	 0.547577100525892 
1987	 0.547716762078576 
1988	 0.547833784497928 
1989	 0.547973076745641 
1990	 0.548144552203694 
1991	 0.548325587368124 
1992	 0.548519307999111 
1993	 0.548756825450015 
1994	 0.54894516490963 
1995	 0.549107903452405 
1996	 0.549295299507694 
1997	 0.549452844045594 
1998	 0.549654587111482 
1999	 0.549923932116236 
2000	 0.550151548148146 
2001	 0.550375252616344 
2002	 0.550583979050969 
2003	 0.550828745791268 
2004	 0.551036103070946 
2005	 0.551251854677003 
2006	 0.551501577231194 
2007	 0.551712691863596 
2008	 0.55187260580337 
2009	 0.552069575536548 
2010	 0.552281803683329 
2011	 0.55247906878245 
2012	 0.552668077753779 
2013	 0.552871471031958 
2014	 0.553069952665137 
2015	 0.553278022653303 
2016	 0.553473975913925 
2017	 0.553745080576359 
2018	 0.554012866132566 
2019	 0.554312727896472 
2020	 0.554581518371184 
2021	 0.554878779007653 
2022	 0.555132277893354 
2023	 0.555352781991761 
2024	 0.555568063034513 
2025	 0.555764299313762 
2026	 0.555957250253257 
2027	 0.556133870504407 
2028	 0.556299923598665 
2029	 0.556487651941831 
2030	 0.556684022174998 
2031	 0.55687727701251 
2032	 0.557067966699574 
2033	 0.557280760092495 
2034	 0.557501387174672 
2035	 0.557725774182656 
2036	 0.557993090510007 
2037	 0.558219326477847 
2038	 0.558439391907171 
2039	 0.558629319482627 
2040	 0.558795268407169 
2041	 0.558928350542913 
2042	 0.559082202159264 
2043	 0.559239923090538 
2044	 0.559382132130626 
2045	 0.55953227791449 
2046	 0.559671431971692 
2047	 0.559788084742314 
2048	 0.559909776682599 
2049	 0.560038382720957 
2050	 0.560156669347815 
2051	 0.560259793969824 
2052	 0.560366479495707 
2053	 0.560490141576315 
2054	 0.560587072583072 
2055	 0.560664164098408 
2056	 0.560734254335041 
2057	 0.560815717401664 
2058	 0.56087532921747 
2059	 0.56096498590626 
2060	 0.561076141284156 
2061	 0.561192348017845 
2062	 0.561320491152503 
2063	 0.561445786439021 
2064	 0.561588743483529 
2065	 0.561718250433489 
2066	 0.56185032363922 
2067	 0.561967411940795 
2068	 0.562085020206441 
2069	 0.562165950090806 
2070	 0.562278009697232 
2071	 0.56238532552338 
2072	 0.562500038167403 
2073	 0.562643416262628 
2074	 0.562747447530073 
2075	 0.562822513466166 
2076	 0.562918416911894 
2077	 0.56300369577839 
2078	 0.563102104070647 
2079	 0.563238004143278 
2080	 0.563331978185568 
2081	 0.563409319053409 
2082	 0.563478501852561 
2083	 0.563531211310002 
2084	 0.563561630089167 
2085	 0.563597828726282 
2086	 0.563625634702141 
2087	 0.563665578195244 
2088	 0.563698436842916 
2089	 0.563744348518923 
2090	 0.563808237174504 
2091	 0.563861318820196 
2092	 0.563904231045784 
2093	 0.563966284573343 
2094	 0.564032453913684 
2095	 0.56410389226982 
2096	 0.564204032981534 
2097	 0.564286406785765 
2098	 0.564344661607645 
2099	 0.564430720685629 
2100	 0.564515757766831 
2101	 0.564600751466433 
2102	 0.564679722998596 
2103	 0.564759139898727 
2104	 0.56485674276231 
2105	 0.564936920469272 
2106	 0.565060435499059 
2107	 0.565229818402609 
2108	 0.565386157496291 
2109	 0.56555090898682 
2110	 0.56572731786162 
2111	 0.56591212062235 
2112	 0.566098512136589 
2113	 0.566298342248813 
2114	 0.566510323219146 
2115	 0.566688253827047 
2116	 0.566842482727271 
2117	 0.567026019435718 
2118	 0.567184948002706 
2119	 0.567399796893128 
2120	 0.567666212849698 
2121	 0.567912325653113 
2122	 0.568189986908638 
2123	 0.568432880262363 
2124	 0.568672600264369 
2125	 0.568883479658866 
2126	 0.569065355495862 
2127	 0.569246076053197 
2128	 0.569421615260416 
2129	 0.569566590984504 
2130	 0.569689296462859 
2131	 0.569815576025444 
2132	 0.569895204153196 
2133	 0.569949302085418 
2134	 0.569953177287364 
2135	 0.569926348410267 
2136	 0.569855085124241 
2137	 0.569710792006589 
2138	 0.569582298948037 
2139	 0.569438278543389 
2140	 0.569267599074717 
2141	 0.56909700835379 
2142	 0.568878598823607 
2143	 0.568581195030491 
2144	 0.568325708332971 
2145	 0.568083325168356 
2146	 0.56780542930136 
2147	 0.567555948972642 
2148	 0.567249558889341 
2149	 0.566918382775054 
2150	 0.56654541508527 
2151	 0.566138311914572 
2152	 0.565698690983376 
2153	 0.565241230316707 
2154	 0.564741834147055 
2155	 0.564224864654983 
2156	 0.563711726334261 
2157	 0.563137528240601 
2158	 0.562502563134935 
2159	 0.56185974818156 
2160	 0.561158064248357 
2161	 0.560482174199624 
2162	 0.559787790080673 
2163	 0.559117217606233 
2164	 0.558498882539974 
2165	 0.557830946153433 
2166	 0.557140615646297 
2167	 0.55645318347329 
2168	 0.555720144184707 
2169	 0.55493456469491 
2170	 0.554147981107892 
2171	 0.553369832712999 
2172	 0.552514905901098 
2173	 0.55161707217312 
2174	 0.550686988553801 
2175	 0.549691721371841 
2176	 0.548688804772901 
2177	 0.54765801942547 
2178	 0.546607436611917 
2179	 0.545513354666958 
2180	 0.544430382430569 
2181	 0.543333961973782 
2182	 0.542235991183437 
2183	 0.541148013029548 
2184	 0.540040054645065 
2185	 0.538909018552677 
2186	 0.537733255947307 
2187	 0.536615774432501 
2188	 0.535460510590227 
2189	 0.534419522852307 
2190	 0.533469340651431 
2191	 0.532502906933127 
2192	 0.531558714629469 
2193	 0.530673064679322 
2194	 0.529749087671305 
2195	 0.528985647809533 
2196	 0.528357146086249 
2197	 0.527758065737682 
2198	 0.527232191367893 
2199	 0.52679248986626 
2200	 0.526382410166828 
2201	 0.526092621113296 
2202	 0.525941726726422 
2203	 0.52585388134156 
2204	 0.525819579045725 
2205	 0.525870309984406 
2206	 0.525977595814647 
2207	 0.526107079431193 
2208	 0.526398858464816 
2209	 0.52683155461516 
2210	 0.52727534489016 
2211	 0.527872321563201 
2212	 0.528390465152365 
2213	 0.528917861729463 
2214	 0.529429781909902 
2215	 0.529912010768443 
2216	 0.530433245480892 
2217	 0.530978339430788 
2218	 0.531504965797452 
2219	 0.532082370228689 
2220	 0.532595164691602 
2221	 0.533030128038732 
2222	 0.533519255321244 
2223	 0.533992158358924 
2224	 0.534357956183338 
2225	 0.534685894905851 
2226	 0.534990963923382 
2227	 0.535192102725547 
2228	 0.535283348800427 
2229	 0.53538949580564 
2230	 0.535425981957058 
2231	 0.53548742800203 
2232	 0.535549817835391 
2233	 0.535580227796118 
2234	 0.53559054031928 
2235	 0.535593653830223 
2236	 0.535583686869627 
2237	 0.535541397407889 
2238	 0.535476136558231 
2239	 0.535402412634436 
2240	 0.53529667893486 
2241	 0.535185687898779 
2242	 0.535101050438808 
2243	 0.534957101320314 
2244	 0.534763747955379 
2245	 0.534554712910509 
2246	 0.534327295090773 
2247	 0.534084129769612 
2248	 0.533846547281024 
2249	 0.533619832505444 
2250	 0.533356114064621 
2251	 0.53304708386418 
2252	 0.532804604817722 
2253	 0.532562578841904 
2254	 0.532356003361623 
2255	 0.532192360030616 
2256	 0.532038730449645 
2257	 0.531866439154727 
2258	 0.531786267163069 
2259	 0.531801408166602 
2260	 0.53177666478465 
2261	 0.531763880450471 
2262	 0.53179886596573 
2263	 0.531804776508109 
2264	 0.531897598987772 
2265	 0.532092244118397 
2266	 0.532287956882916 
2267	 0.532526455862611 
2268	 0.53277643265331 
2269	 0.533032649546895 
2270	 0.53334992639509 
2271	 0.533671016298035 
2272	 0.534004269983986 
2273	 0.534364610618172 
2274	 0.5347407863443 
2275	 0.535122956596784 
2276	 0.535525642070078 
2277	 0.535915292002172 
2278	 0.536313541418681 
2279	 0.536692850040739 
2280	 0.537046694589759 
2281	 0.537444060707182 
2282	 0.53786932079542 
2283	 0.538266095072391 
2284	 0.538699615271856 
2285	 0.539066528777882 
2286	 0.539348191306908 
2287	 0.539691301938912 
2288	 0.540033254284097 
2289	 0.540385192348676 
2290	 0.540792410185769 
2291	 0.541151850844093 
2292	 0.541488957975093 
2293	 0.541814311901778 
2294	 0.542110242339443 
2295	 0.542412646277755 
2296	 0.54270312029168 
2297	 0.543004178931259 
2298	 0.543284539315891 
2299	 0.543548661871245 
2300	 0.5438192665384 
2301	 0.544070378200955 
2302	 0.544287356303118 
2303	 0.544502649193945 
2304	 0.544734305811283 
2305	 0.544932807229625 
2306	 0.545165058405556 
2307	 0.545439164724256 
2308	 0.545695022609055 
2309	 0.545985504220402 
2310	 0.546187759430659 
2311	 0.546383385192087 
2312	 0.546488244186717 
2313	 0.546440724220477 
2314	 0.546488621589082 
2315	 0.54651324321739 
2316	 0.546601800679358 
2317	 0.546781342378394 
2318	 0.54689689101646 
2319	 0.54698751794774 
2320	 0.547104966969292 
2321	 0.547201874649721 
2322	 0.547325248897423 
2323	 0.547538459870263 
2324	 0.547657809862316 
2325	 0.547747574069349 
2326	 0.547802349065973 
2327	 0.547781104896436 
2328	 0.547756637241828 
2329	 0.547780910822687 
2330	 0.547805244197716 
2331	 0.547870291286411 
2332	 0.547904510597891 
2333	 0.547899513061021 
2334	 0.547903462861272 
2335	 0.547932278550303 
2336	 0.54803684996779 
2337	 0.548125698560755 
2338	 0.548186645874911 
2339	 0.548155278158933 
2340	 0.547976572395108 
2341	 0.547855247423802 
2342	 0.547697981538531 
2343	 0.547542769947293 
2344	 0.547517391474257 
2345	 0.547482884095349 
2346	 0.547444048985372 
2347	 0.547465010680818 
2348	 0.547589552002191 
2349	 0.547624901500287 
2350	 0.54766912097692 
2351	 0.547695661214911 
2352	 0.547663057041393 
2353	 0.547636955362699 
2354	 0.547551749271996 
2355	 0.547587755547498 
2356	 0.547720431950254 
2357	 0.547768355834702 
2358	 0.54784691260769 
2359	 0.547941250616242 
2360	 0.547942235763983 
2361	 0.548037751927886 
2362	 0.548316192376301 
2363	 0.548416668663613 
2364	 0.548397204778278 
2365	 0.548440464619905 
2366	 0.54846494062804 
2367	 0.548470587470915 
2368	 0.548483069631501 
2369	 0.548534571384635 
2370	 0.548626286127702 
2371	 0.548557417379016 
2372	 0.548553637802283 
2373	 0.548542520385609 
2374	 0.548361105727117 
2375	 0.548163604321685 
2376	 0.548053112957323 
2377	 0.547842227284042 
2378	 0.547583617415128 
2379	 0.547414278641007 
2380	 0.547102462857359 
2381	 0.546788523615989 
2382	 0.546562663288439 
2383	 0.546348651987406 
2384	 0.546161651200363 
2385	 0.546012294056176 
2386	 0.545888077508333 
2387	 0.545694914833994 
2388	 0.545572184244313 
2389	 0.545444521146746 
2390	 0.54522049875205 
2391	 0.545033066942747 
2392	 0.544828064649388 
2393	 0.544614267600089 
2394	 0.544476049642302 
2395	 0.544335767049397 
2396	 0.544072892803724 
2397	 0.543711618133651 
2398	 0.54334045208394 
2399	 0.542927154819244 
2400	 0.542631999780362 
2401	 0.542435086548451 
2402	 0.542041422821761 
2403	 0.541688995876883 
2404	 0.541392865405834 
2405	 0.541074022281567 
2406	 0.540816733239329 
2407	 0.540462204322095 
2408	 0.540132985818075 
2409	 0.539747084485105 
2410	 0.539292592583787 
2411	 0.538961064261398 
2412	 0.538565785089209 
2413	 0.538180949190469 
2414	 0.53793550960582 
2415	 0.537602731049874 
2416	 0.537166016382175 
2417	 0.536591578858071 
2418	 0.536091040503756 
2419	 0.535500390993236 
2420	 0.53502316191136 
2421	 0.534639737713508 
2422	 0.534229743778463 
2423	 0.533833956630827 
2424	 0.533472333418998 
2425	 0.533191650818427 
2426	 0.532747699582061 
2427	 0.532231016165211 
2428	 0.531755392038198 
2429	 0.531131631504099 
2430	 0.530757552947218 
2431	 0.530536763681481 
2432	 0.530306738461096 
2433	 0.530238434761268 
2434	 0.530035179131963 
2435	 0.529812702633909 
2436	 0.52950068433738 
2437	 0.529036633554623 
2438	 0.528684685744106 
2439	 0.528353914037076 
2440	 0.528027227107124 
2441	 0.527727934519496 
2442	 0.527509055229009 
2443	 0.527326554880456 
2444	 0.527164660137728 
2445	 0.527108300716051 
2446	 0.52703819678347 
2447	 0.526957660982808 
2448	 0.526725872763004 
2449	 0.52644241223939 
2450	 0.526218975664484 
2451	 0.525855457753278 
2452	 0.525662991581015 
2453	 0.52570688923456 
2454	 0.525576021123369 
2455	 0.52535835151784 
2456	 0.525191950936495 
2457	 0.524982896013371 
2458	 0.524866510836489 
2459	 0.524889967543055 
2460	 0.52476125486433 
2461	 0.524487970721118 
2462	 0.524377617284205 
2463	 0.52431643584087 
2464	 0.524205178405321 
2465	 0.524299926850578 
2466	 0.524181238270196 
2467	 0.523685671280989 
2468	 0.523497092995209 
2469	 0.523469763949003 
2470	 0.523597109489858 
2471	 0.523585623759083 
2472	 0.523405679924738 
2473	 0.523260891596395 
2474	 0.523068265902916 
2475	 0.523057510394448 
2476	 0.523152909284418 
2477	 0.523110033993545 
2478	 0.522911843840417 
2479	 0.522676150010928 
2480	 0.522520826323035 
2481	 0.522397146267793 
2482	 0.522285535661451 
2483	 0.522119580563289 
2484	 0.522057965097397 
2485	 0.521905502169907 
2486	 0.521656912955409 
2487	 0.521790299093652 
2488	 0.52177960787267 
2489	 0.521439813878975 
2490	 0.521405184223213 
2491	 0.521226745445605 
2492	 0.520848166041223 
2493	 0.520731491535458 
2494	 0.52058419636831 
2495	 0.520455043679819 
2496	 0.520405147251163 
2497	 0.520338404815346 
2498	 0.520315794693682 
2499	 0.520273725210797 
2500	 0.520217899720276 
