Wavelength	LMW300001.asd
350	 0.123081415092433 
351	 0.125190765884018 
352	 0.122448436727236 
353	 0.11458523629647 
354	 0.126793810537566 
355	 0.124987589803066 
356	 0.117446369119026 
357	 0.118933819771776 
358	 0.124828187514045 
359	 0.122644815640007 
360	 0.116017071174266 
361	 0.117710507156927 
362	 0.118433953250118 
363	 0.11688407226998 
364	 0.115741161592521 
365	 0.123047440074678 
366	 0.12056566435365 
367	 0.116138207491699 
368	 0.120226602279075 
369	 0.123915476867252 
370	 0.124359991675254 
371	 0.123526687676969 
372	 0.126156817960812 
373	 0.130215646006425 
374	 0.132242999222934 
375	 0.131475354755445 
376	 0.131934379831954 
377	 0.132292754268967 
378	 0.133422057774095 
379	 0.135966456685376 
380	 0.137506596726972 
381	 0.138549703886626 
382	 0.13953227929092 
383	 0.140823654778064 
384	 0.143929366483292 
385	 0.14549793171744 
386	 0.14468071364617 
387	 0.146528516919078 
388	 0.149349863543001 
389	 0.151737742713692 
390	 0.152852980842965 
391	 0.154099396519926 
392	 0.157102713555619 
393	 0.160912171099318 
394	 0.162686407233463 
395	 0.165201123723148 
396	 0.168115743122241 
397	 0.170718803604688 
398	 0.172712424823956 
399	 0.174421719265607 
400	 0.177225940083467 
401	 0.181744816481785 
402	 0.182300283063641 
403	 0.183885663229687 
404	 0.187415564558421 
405	 0.189184923148265 
406	 0.191868757344606 
407	 0.194619798018374 
408	 0.196369360248937 
409	 0.196984231610075 
410	 0.198792918711954 
411	 0.201231392444137 
412	 0.202672584796023 
413	 0.204835665216713 
414	 0.206293765582348 
415	 0.20679723928091 
416	 0.207895191980675 
417	 0.208508581960466 
418	 0.209255760053921 
419	 0.210577409550836 
420	 0.211023120058453 
421	 0.211050104703726 
422	 0.21127959482055 
423	 0.21219776972758 
424	 0.211801612335985 
425	 0.211450674734901 
426	 0.211797836615823 
427	 0.211469905312662 
428	 0.210845921866597 
429	 0.210289436475004 
430	 0.210012128574681 
431	 0.209394210633936 
432	 0.208645544000287 
433	 0.208046980905382 
434	 0.207884143056447 
435	 0.208089648068074 
436	 0.20849222392098 
437	 0.208931583684451 
438	 0.209253101637125 
439	 0.210239806252379 
440	 0.211686251242773 
441	 0.212949833323658 
442	 0.214320022275223 
443	 0.215842442481644 
444	 0.217458809638414 
445	 0.218976727048173 
446	 0.220587953014905 
447	 0.222279845771784 
448	 0.223980956344783 
449	 0.225647720863888 
450	 0.227320937876994 
451	 0.229041930836979 
452	 0.230823390804025 
453	 0.232242497791362 
454	 0.233536828035709 
455	 0.234986905541727 
456	 0.236745956008281 
457	 0.238059149381617 
458	 0.239154245643513 
459	 0.240592234350271 
460	 0.241710049337916 
461	 0.242626099810414 
462	 0.243556408456409 
463	 0.244754295369082 
464	 0.245718499680281 
465	 0.246600470457486 
466	 0.247595025280168 
467	 0.248292005273493 
468	 0.248870615832421 
469	 0.249491246352265 
470	 0.250268956430937 
471	 0.251042406780893 
472	 0.2518158674586 
473	 0.252578222507787 
474	 0.253182313383319 
475	 0.253922575941418 
476	 0.25473663531268 
477	 0.255427287648551 
478	 0.2560914103175 
479	 0.256772628750956 
480	 0.257458304248207 
481	 0.25805998855185 
482	 0.258783511015639 
483	 0.259614359979521 
484	 0.260441871091203 
485	 0.26107749505694 
486	 0.261558331124236 
487	 0.262023263977705 
488	 0.262673223319398 
489	 0.263372439633169 
490	 0.26412811126226 
491	 0.264886042713544 
492	 0.265356568411708 
493	 0.265906353298366 
494	 0.266593288316458 
495	 0.267311362838906 
496	 0.26792410437479 
497	 0.268630038803561 
498	 0.26942409603637 
499	 0.269955079361858 
500	 0.270403087178661 
501	 0.271027219540021 
502	 0.271935806908182 
503	 0.272476996796363 
504	 0.273137118535802 
505	 0.273912884787534 
506	 0.27434826662514 
507	 0.274806283361881 
508	 0.275348495546683 
509	 0.275941124682654 
510	 0.276456989546612 
511	 0.277045105817262 
512	 0.277655563704678 
513	 0.278153556433048 
514	 0.278654257741456 
515	 0.279178928718619 
516	 0.27972670011467 
517	 0.28028938298035 
518	 0.280723860638992 
519	 0.281101993413745 
520	 0.281560699536262 
521	 0.282150071746616 
522	 0.282755227234423 
523	 0.283280974683256 
524	 0.28366917939742 
525	 0.284159376585535 
526	 0.284645703851555 
527	 0.285030702710538 
528	 0.285511439528843 
529	 0.285947760647027 
530	 0.286350560192577 
531	 0.286823149794343 
532	 0.287290395772126 
533	 0.287802442996723 
534	 0.288348842876777 
535	 0.288742333264904 
536	 0.289212026593217 
537	 0.2897177769023 
538	 0.290132971990036 
539	 0.290525347323933 
540	 0.290945149511642 
541	 0.291393948345793 
542	 0.29181148288411 
543	 0.292220845655623 
544	 0.292679950526886 
545	 0.293210086940136 
546	 0.293661948837268 
547	 0.294045402319494 
548	 0.294428813623473 
549	 0.294916279831636 
550	 0.295372609253548 
551	 0.29585214265526 
552	 0.296399379730507 
553	 0.296944463699326 
554	 0.297506207330809 
555	 0.298048670471396 
556	 0.298526096059378 
557	 0.299066168780086 
558	 0.299645639422681 
559	 0.30023160347504 
560	 0.300813453947451 
561	 0.301327857506347 
562	 0.301739395354415 
563	 0.302079133805369 
564	 0.30264016541354 
565	 0.30320516333687 
566	 0.303738210316733 
567	 0.304437195731763 
568	 0.305130835196675 
569	 0.305869332714754 
570	 0.306690446843186 
571	 0.307416531663751 
572	 0.308143747147311 
573	 0.308877198434582 
574	 0.30955192124516 
575	 0.310103766231479 
576	 0.310677200905795 
577	 0.311358064558191 
578	 0.312035321865423 
579	 0.312736104548505 
580	 0.31350433283188 
581	 0.314385618288148 
582	 0.315368401470333 
583	 0.316325822067233 
584	 0.317178561114791 
585	 0.317927443503683 
586	 0.318686893503233 
587	 0.319476859600118 
588	 0.320265325291261 
589	 0.320948398607711 
590	 0.321631432367284 
591	 0.322354243062694 
592	 0.323091423203537 
593	 0.323859796444389 
594	 0.32459403979674 
595	 0.325307802730588 
596	 0.326270879306561 
597	 0.327324513127064 
598	 0.328348317369925 
599	 0.329257156371986 
600	 0.330082342585997 
601	 0.330883597427274 
602	 0.33166244496615 
603	 0.332309834609605 
604	 0.332926983152614 
605	 0.333556103929187 
606	 0.334214776037851 
607	 0.334906251774493 
608	 0.335566178546719 
609	 0.336214877439077 
610	 0.336971043356571 
611	 0.337727838039772 
612	 0.338479930682778 
613	 0.33922410474576 
614	 0.339890401751219 
615	 0.34053813325343 
616	 0.341151321080861 
617	 0.341670967719784 
618	 0.342224353582679 
619	 0.34278304935885 
620	 0.3433200934969 
621	 0.343867567723043 
622	 0.34436724963935 
623	 0.344816024964453 
624	 0.345248876500423 
625	 0.34578307261261 
626	 0.346240852797419 
627	 0.346611619695604 
628	 0.347133490123312 
629	 0.347700576768396 
630	 0.348186331491092 
631	 0.348528934949552 
632	 0.348942347217485 
633	 0.349319584017512 
634	 0.34970428111401 
635	 0.35024588627826 
636	 0.350647891396799 
637	 0.351051336228853 
638	 0.351540939030683 
639	 0.351864473227337 
640	 0.352185608977424 
641	 0.352587603168719 
642	 0.353088931421466 
643	 0.353513061258005 
644	 0.353916675924661 
645	 0.354329729559055 
646	 0.35470785593761 
647	 0.355075840573532 
648	 0.355467204055222 
649	 0.355898938978357 
650	 0.356312455992257 
651	 0.356705720181122 
652	 0.3571011290475 
653	 0.357536950581343 
654	 0.357965033352638 
655	 0.358371095989123 
656	 0.358750616676436 
657	 0.359086217999916 
658	 0.359548887278962 
659	 0.360065920914258 
660	 0.360469357327673 
661	 0.360879838035477 
662	 0.361324195812842 
663	 0.361809149019784 
664	 0.362330095298949 
665	 0.362690267952743 
666	 0.363071808164063 
667	 0.363642607777977 
668	 0.364011166979239 
669	 0.364461473862731 
670	 0.365001480487462 
671	 0.36541262249788 
672	 0.365959223518676 
673	 0.366488433050992 
674	 0.366902316390234 
675	 0.367399945742539 
676	 0.367925392590253 
677	 0.368415142202476 
678	 0.368831443235212 
679	 0.369370495754549 
680	 0.369899405673285 
681	 0.370385780985352 
682	 0.370966252637272 
683	 0.371501862263499 
684	 0.371980226421944 
685	 0.372445757110243 
686	 0.37301525520947 
687	 0.373588329116502 
688	 0.374147049539156 
689	 0.374726091606291 
690	 0.375204243085591 
691	 0.375718300792106 
692	 0.376332723819233 
693	 0.376896352631602 
694	 0.37746843932517 
695	 0.378036078019108 
696	 0.378569735578171 
697	 0.37906013049269 
698	 0.379650298269592 
699	 0.380331392249715 
700	 0.380930543806213 
701	 0.381482415901082 
702	 0.382030951538869 
703	 0.382592992972422 
704	 0.383090747823629 
705	 0.383595064118905 
706	 0.384177551734902 
707	 0.38486012879686 
708	 0.38528372227771 
709	 0.38572587795165 
710	 0.386323479060719 
711	 0.386913905624791 
712	 0.387520501574063 
713	 0.388064108062686 
714	 0.388501307564343 
715	 0.388998917538777 
716	 0.389538235901763 
717	 0.390089882616036 
718	 0.390615722151971 
719	 0.391077344780647 
720	 0.391434400784478 
721	 0.391739302207661 
722	 0.392217524480658 
723	 0.392736099082915 
724	 0.393219569752294 
725	 0.393630034779899 
726	 0.394022111110349 
727	 0.394435512721785 
728	 0.394826374061838 
729	 0.39508812778186 
730	 0.395451957451182 
731	 0.395754461313544 
732	 0.395913860255211 
733	 0.396216669388213 
734	 0.396532475918776 
735	 0.396796963918913 
736	 0.396984809266118 
737	 0.397159689234352 
738	 0.397335213993856 
739	 0.397488465670966 
740	 0.39756553613027 
741	 0.397673556755164 
742	 0.397860607541986 
743	 0.398073714370386 
744	 0.398030239299037 
745	 0.397907928559028 
746	 0.397865788546263 
747	 0.397996743678244 
748	 0.398016968135965 
749	 0.397956309373119 
750	 0.397852514759741 
751	 0.397717377147878 
752	 0.39763429914617 
753	 0.39757150174097 
754	 0.397469340831578 
755	 0.397267218591979 
756	 0.397111888606945 
757	 0.396983601343358 
758	 0.396784470292103 
759	 0.396551697875753 
760	 0.396278097386281 
761	 0.396002559557722 
762	 0.39582027809824 
763	 0.395593184871428 
764	 0.395297657636175 
765	 0.394967530715955 
766	 0.394717291139042 
767	 0.39442089039468 
768	 0.394106923583751 
769	 0.393853796672379 
770	 0.393487663793663 
771	 0.393151984741938 
772	 0.392864328493986 
773	 0.392464285587219 
774	 0.392130301273997 
775	 0.391834735108096 
776	 0.391512536116649 
777	 0.391128402282015 
778	 0.39073248470567 
779	 0.390313278007434 
780	 0.389859604985784 
781	 0.389541083722251 
782	 0.389275296539845 
783	 0.388963173710994 
784	 0.388523671860183 
785	 0.388127829258026 
786	 0.387779267706514 
787	 0.38744354322499 
788	 0.387085726667086 
789	 0.386679010397076 
790	 0.386292135335816 
791	 0.385986574224891 
792	 0.385574591419072 
793	 0.385209938524997 
794	 0.384892024516139 
795	 0.38448493615662 
796	 0.384087467281828 
797	 0.383746117329401 
798	 0.38343639445689 
799	 0.383014810665337 
800	 0.382732407912369 
801	 0.382474277725663 
802	 0.382075401424894 
803	 0.38162152407595 
804	 0.381343457747628 
805	 0.381150589956198 
806	 0.380777970550948 
807	 0.380391261819251 
808	 0.380001152761594 
809	 0.379625039381227 
810	 0.379304482150984 
811	 0.379086025636661 
812	 0.378845382593651 
813	 0.378510446666366 
814	 0.378264547192287 
815	 0.377932423988557 
816	 0.377571090766106 
817	 0.377305505829841 
818	 0.37706875912925 
819	 0.376797308757403 
820	 0.376500568272303 
821	 0.376245333337688 
822	 0.375984287390159 
823	 0.375742751039552 
824	 0.37551491810841 
825	 0.375227770111852 
826	 0.375016690761314 
827	 0.374838005736459 
828	 0.374606753418643 
829	 0.374268928018392 
830	 0.373961667297995 
831	 0.373727526176582 
832	 0.373555157528546 
833	 0.373452871961694 
834	 0.373354181714599 
835	 0.373184182306622 
836	 0.37288565819962 
837	 0.372615860454225 
838	 0.372458331863281 
839	 0.37238673216808 
840	 0.372220017738449 
841	 0.372078092591066 
842	 0.371910240580307 
843	 0.37167174166362 
844	 0.37146621217399 
845	 0.371358666377679 
846	 0.371305388661273 
847	 0.371207457698771 
848	 0.370999154367457 
849	 0.37083408565505 
850	 0.37075315369525 
851	 0.37068066568637 
852	 0.37052981701547 
853	 0.370438229102426 
854	 0.370428387627757 
855	 0.370314890803541 
856	 0.370339215547276 
857	 0.370302405963307 
858	 0.370073058288803 
859	 0.36994260029107 
860	 0.369906127164078 
861	 0.369902412583709 
862	 0.369872565864935 
863	 0.369920157393285 
864	 0.369879789120033 
865	 0.369801049264111 
866	 0.369841795116219 
867	 0.36988758130965 
868	 0.369831427029456 
869	 0.369735881096269 
870	 0.369804034429203 
871	 0.36974469139523 
872	 0.36968056989617 
873	 0.369726990092555 
874	 0.369872961003391 
875	 0.369918232139393 
876	 0.369930427760711 
877	 0.369977384015246 
878	 0.369908879804799 
879	 0.370070445576794 
880	 0.370241848417023 
881	 0.370146872449631 
882	 0.370159254424958 
883	 0.37025592837313 
884	 0.370359978900346 
885	 0.370405858172656 
886	 0.370588839053678 
887	 0.370789703968627 
888	 0.370870725630912 
889	 0.37076133270812 
890	 0.37092470438886 
891	 0.371176181930737 
892	 0.371370754322895 
893	 0.371528231639678 
894	 0.371575325219082 
895	 0.371681122611679 
896	 0.37191577469134 
897	 0.372091537337183 
898	 0.37227604106536 
899	 0.3724664046158 
900	 0.372649483039331 
901	 0.372822056200978 
902	 0.373036615406293 
903	 0.373261273508187 
904	 0.373453967729487 
905	 0.37365142662431 
906	 0.373896874697599 
907	 0.374156412640532 
908	 0.374371937495368 
909	 0.374567945499538 
910	 0.374812749624634 
911	 0.375109462792381 
912	 0.375409080113328 
913	 0.375661947673093 
914	 0.375893377005078 
915	 0.376180231457939 
916	 0.376594115498601 
917	 0.37679246711005 
918	 0.377064706006735 
919	 0.377526155766369 
920	 0.377984516959753 
921	 0.378237872883976 
922	 0.378451862066193 
923	 0.37877650154853 
924	 0.379220830880649 
925	 0.379534902145358 
926	 0.379877795769781 
927	 0.380331325353949 
928	 0.380669601368112 
929	 0.381218034873149 
930	 0.381710345988422 
931	 0.381967668528524 
932	 0.382357510353342 
933	 0.382812399094012 
934	 0.383215054581828 
935	 0.383530053278689 
936	 0.384011491928432 
937	 0.384456919005919 
938	 0.384943480818022 
939	 0.385571633203535 
940	 0.386223383666009 
941	 0.386636317889476 
942	 0.38700957464538 
943	 0.38761175636753 
944	 0.388174283651341 
945	 0.388765693020374 
946	 0.389326213979673 
947	 0.38978859912468 
948	 0.390320137229258 
949	 0.390782799713404 
950	 0.391187125523717 
951	 0.391655746138752 
952	 0.392404472951532 
953	 0.393154347789493 
954	 0.39376383849417 
955	 0.394255491597185 
956	 0.394922099331355 
957	 0.395535605613281 
958	 0.396081128944577 
959	 0.396679307196844 
960	 0.397290173666601 
961	 0.397939512907261 
962	 0.398616454166364 
963	 0.399290753843656 
964	 0.399999565672238 
965	 0.400607663883707 
966	 0.401211463971853 
967	 0.402000711684208 
968	 0.402691146172075 
969	 0.403420376714323 
970	 0.40415247915935 
971	 0.404776410223924 
972	 0.405591451019073 
973	 0.406419949580637 
974	 0.407240869924947 
975	 0.408114458097145 
976	 0.408782892923753 
977	 0.409394185573759 
978	 0.41014000042708 
979	 0.411080683252088 
980	 0.411575708503551 
981	 0.412100976075991 
982	 0.412836460886438 
983	 0.413698920567693 
984	 0.414608955618462 
985	 0.41537397539575 
986	 0.416051076886734 
987	 0.416816955063265 
988	 0.417630744607874 
989	 0.418500002358934 
990	 0.419318491117388 
991	 0.420008255753919 
992	 0.420893364662022 
993	 0.421470509061772 
994	 0.42199643150693 
995	 0.422916308586347 
996	 0.423875774379731 
997	 0.424889363982052 
998	 0.425790937600486 
999	 0.426481024566159 
1000	 0.427287836797531 
1001	 0.430084845898286 
1002	 0.430903303687618 
1003	 0.431692556571451 
1004	 0.432462765819419 
1005	 0.433258399641586 
1006	 0.433996278316906 
1007	 0.434686544061787 
1008	 0.435341727871879 
1009	 0.436008230417476 
1010	 0.436742391762751 
1011	 0.437431173773949 
1012	 0.438148298409552 
1013	 0.438895694318409 
1014	 0.439537972404593 
1015	 0.440174453274593 
1016	 0.440789490453039 
1017	 0.44144469844706 
1018	 0.442099899295169 
1019	 0.44279283083742 
1020	 0.443497752106621 
1021	 0.444222676026473 
1022	 0.444880207217222 
1023	 0.445501232687391 
1024	 0.446156639774634 
1025	 0.446768809158992 
1026	 0.447324560730465 
1027	 0.447883560607267 
1028	 0.448410302896809 
1029	 0.448946843850406 
1030	 0.449545828981666 
1031	 0.450144722338165 
1032	 0.450768925077947 
1033	 0.451363642493105 
1034	 0.451964396410226 
1035	 0.452584951386867 
1036	 0.453177188595597 
1037	 0.453748572973836 
1038	 0.45430750073857 
1039	 0.454895693801167 
1040	 0.455522985889426 
1041	 0.456114786229076 
1042	 0.456727778683868 
1043	 0.457358694284509 
1044	 0.457959553836061 
1045	 0.458532571454218 
1046	 0.459124243002372 
1047	 0.459700413820614 
1048	 0.460249878126557 
1049	 0.460792930678364 
1050	 0.461374929109194 
1051	 0.4620025209146 
1052	 0.462607097892148 
1053	 0.463230909880917 
1054	 0.463843989661692 
1055	 0.464380414957892 
1056	 0.464909697541678 
1057	 0.465410485621063 
1058	 0.465829766106807 
1059	 0.466295222647945 
1060	 0.466767806699311 
1061	 0.467247756633814 
1062	 0.467729144394702 
1063	 0.468225885814858 
1064	 0.468706354994866 
1065	 0.469147722691867 
1066	 0.469547330926747 
1067	 0.469935722918092 
1068	 0.470289858823689 
1069	 0.470633755110832 
1070	 0.470987167151379 
1071	 0.471334137667708 
1072	 0.471689874763478 
1073	 0.472081156884535 
1074	 0.472406000359266 
1075	 0.472691190303574 
1076	 0.472980418931489 
1077	 0.47328923929059 
1078	 0.473595901422618 
1079	 0.473920898011125 
1080	 0.474215916357464 
1081	 0.474449783925849 
1082	 0.474685508571546 
1083	 0.474944184470344 
1084	 0.475228175904534 
1085	 0.4754975748966 
1086	 0.4757430163873 
1087	 0.476023365643475 
1088	 0.476324737305504 
1089	 0.476599798367872 
1090	 0.476879731444143 
1091	 0.477209340027415 
1092	 0.477504943544828 
1093	 0.477824556651594 
1094	 0.478194541510611 
1095	 0.478519553985665 
1096	 0.478843500214277 
1097	 0.47920380022249 
1098	 0.479574927815228 
1099	 0.479961223331211 
1100	 0.480355911500681 
1101	 0.480773151483312 
1102	 0.481182729069212 
1103	 0.481593860037741 
1104	 0.481999200974752 
1105	 0.482421006566115 
1106	 0.482863967288561 
1107	 0.483287841021752 
1108	 0.483746997279245 
1109	 0.484217961909794 
1110	 0.484685510316554 
1111	 0.485191710347618 
1112	 0.485724984612572 
1113	 0.486256157399608 
1114	 0.486820160132667 
1115	 0.487374540163697 
1116	 0.487923041570038 
1117	 0.488492700163078 
1118	 0.489082413834448 
1119	 0.489650286215489 
1120	 0.490240789798318 
1121	 0.490834438097397 
1122	 0.491427242512086 
1123	 0.492028442029791 
1124	 0.492620223598688 
1125	 0.493211312630914 
1126	 0.493795173802441 
1127	 0.494358606621769 
1128	 0.494949384787518 
1129	 0.49555703289125 
1130	 0.496148199670865 
1131	 0.496751848808284 
1132	 0.497346355697191 
1133	 0.497926995254167 
1134	 0.498502610351281 
1135	 0.499089309691918 
1136	 0.499646969559383 
1137	 0.500182334415733 
1138	 0.500716466244877 
1139	 0.501275508098832 
1140	 0.5018481468651 
1141	 0.502406746637984 
1142	 0.502994544322261 
1143	 0.503534783220765 
1144	 0.50404202922148 
1145	 0.504551053601188 
1146	 0.505045767613743 
1147	 0.505528587284151 
1148	 0.505989354881152 
1149	 0.50646462639346 
1150	 0.50694133355937 
1151	 0.507413660167062 
1152	 0.507877774475445 
1153	 0.508355728767813 
1154	 0.508801749897195 
1155	 0.509218515296113 
1156	 0.509642945797424 
1157	 0.510077352248555 
1158	 0.510468510895278 
1159	 0.510835881407751 
1160	 0.511205212970328 
1161	 0.511539020737176 
1162	 0.51189102505608 
1163	 0.512254113212517 
1164	 0.512609987836512 
1165	 0.512962630145201 
1166	 0.513326786907448 
1167	 0.513658779108283 
1168	 0.513981668654935 
1169	 0.514311266380185 
1170	 0.51463061588528 
1171	 0.514945120984208 
1172	 0.515277266535272 
1173	 0.515576367935911 
1174	 0.515846234950386 
1175	 0.516125598937484 
1176	 0.516398051293206 
1177	 0.516666306848567 
1178	 0.516919707093011 
1179	 0.517192725730486 
1180	 0.517480410567805 
1181	 0.517751151414155 
1182	 0.518028399586313 
1183	 0.518307165158519 
1184	 0.51855865187303 
1185	 0.51878151959958 
1186	 0.519022069858242 
1187	 0.519247426090387 
1188	 0.519499935420839 
1189	 0.519774763312155 
1190	 0.520029620640767 
1191	 0.520303338220075 
1192	 0.520545793957777 
1193	 0.520758610153499 
1194	 0.520979527475689 
1195	 0.521200066897608 
1196	 0.521405192090366 
1197	 0.521593001186395 
1198	 0.521790512697612 
1199	 0.521986294993489 
1200	 0.522166208529178 
1201	 0.522368240633849 
1202	 0.522591058824709 
1203	 0.522797089614865 
1204	 0.523000483005323 
1205	 0.523205265531144 
1206	 0.523415436016919 
1207	 0.52360740300963 
1208	 0.523794431022948 
1209	 0.523975771792028 
1210	 0.524136847368208 
1211	 0.52430620800932 
1212	 0.524479898271308 
1213	 0.52464964228874 
1214	 0.524816511990944 
1215	 0.524983343659372 
1216	 0.525149299061664 
1217	 0.525313027837646 
1218	 0.525479213264514 
1219	 0.52564760644109 
1220	 0.525811879552606 
1221	 0.52598189029645 
1222	 0.526136854407598 
1223	 0.526279106948364 
1224	 0.526428445467092 
1225	 0.526572866995516 
1226	 0.526717092828587 
1227	 0.526870760220061 
1228	 0.527012501879636 
1229	 0.527129400848413 
1230	 0.527271385486536 
1231	 0.527436950104577 
1232	 0.527580990701557 
1233	 0.52772184352543 
1234	 0.527871246060876 
1235	 0.528011251822467 
1236	 0.528134543753743 
1237	 0.528261994836552 
1238	 0.528403252393859 
1239	 0.528521164275948 
1240	 0.528607428337129 
1241	 0.528719742586065 
1242	 0.528839774569979 
1243	 0.528955394560645 
1244	 0.529083006968948 
1245	 0.529203439487023 
1246	 0.529308124802829 
1247	 0.529424435623345 
1248	 0.529555127040674 
1249	 0.529672082075016 
1250	 0.529787287406924 
1251	 0.529924428434079 
1252	 0.530040113931982 
1253	 0.530154505553786 
1254	 0.530251029949094 
1255	 0.530323097481977 
1256	 0.530417633736141 
1257	 0.530503950517565 
1258	 0.530607437226906 
1259	 0.530751297981781 
1260	 0.530852662392477 
1261	 0.530943171737332 
1262	 0.531020204989212 
1263	 0.531051174992974 
1264	 0.531114770007558 
1265	 0.531180724386919 
1266	 0.531261429855131 
1267	 0.531371712952247 
1268	 0.531470584201702 
1269	 0.531574308612733 
1270	 0.531683303613838 
1271	 0.531793436721692 
1272	 0.531898584480036 
1273	 0.532024517356154 
1274	 0.532155276941703 
1275	 0.532302652049078 
1276	 0.532461651844268 
1277	 0.532638512002189 
1278	 0.532842692679173 
1279	 0.533036032739066 
1280	 0.533255749522391 
1281	 0.533445872517245 
1282	 0.533625393082337 
1283	 0.533791094475017 
1284	 0.533942354184981 
1285	 0.534078303471342 
1286	 0.534211472739203 
1287	 0.534325531341199 
1288	 0.534408444571787 
1289	 0.534479163501524 
1290	 0.53450853805556 
1291	 0.534502213947863 
1292	 0.53446674331421 
1293	 0.534390341759375 
1294	 0.534307726308886 
1295	 0.534193627028949 
1296	 0.534077701969705 
1297	 0.533961878204789 
1298	 0.533817530917039 
1299	 0.533643315916534 
1300	 0.533466694215354 
1301	 0.533261277721181 
1302	 0.533063557910912 
1303	 0.532856340875382 
1304	 0.53267529456048 
1305	 0.532471125941212 
1306	 0.532264236728341 
1307	 0.532043654575485 
1308	 0.531808023772967 
1309	 0.53159729913344 
1310	 0.53138419690834 
1311	 0.531202923076976 
1312	 0.531050674868367 
1313	 0.530887507996299 
1314	 0.530733254526058 
1315	 0.530587843977528 
1316	 0.53041427335344 
1317	 0.53031226102329 
1318	 0.530261010006726 
1319	 0.530207328331557 
1320	 0.530189791590276 
1321	 0.530177713085747 
1322	 0.530169253663162 
1323	 0.530162044694736 
1324	 0.530204777343876 
1325	 0.530279234735746 
1326	 0.530371501498855 
1327	 0.53048751766425 
1328	 0.53058401762523 
1329	 0.53070739903849 
1330	 0.53084060859975 
1331	 0.530957031594006 
1332	 0.531142732184721 
1333	 0.531371094806681 
1334	 0.531608302295967 
1335	 0.531890937515907 
1336	 0.532171407948853 
1337	 0.532463837239294 
1338	 0.532755128784381 
1339	 0.533068047836325 
1340	 0.533367445265891 
1341	 0.533659994010848 
1342	 0.533952418353383 
1343	 0.534249953837885 
1344	 0.534522784617225 
1345	 0.534811776207762 
1346	 0.535122399444257 
1347	 0.535442879937741 
1348	 0.535782029384608 
1349	 0.536094349797408 
1350	 0.536379406079337 
1351	 0.536666211738419 
1352	 0.536916745612541 
1353	 0.537212603940879 
1354	 0.537538345477811 
1355	 0.537838659922349 
1356	 0.538149450548851 
1357	 0.538445927844879 
1358	 0.538729117581806 
1359	 0.539004903788218 
1360	 0.539279357818739 
1361	 0.539542355083906 
1362	 0.539779028481941 
1363	 0.540025882609774 
1364	 0.540274062173091 
1365	 0.540524610330597 
1366	 0.540778310512487 
1367	 0.54103226773378 
1368	 0.54128819888436 
1369	 0.54151766344359 
1370	 0.541728363400312 
1371	 0.541928488089833 
1372	 0.542095115488918 
1373	 0.542259541675868 
1374	 0.54241466197647 
1375	 0.542563581827786 
1376	 0.54268869364677 
1377	 0.542802683736767 
1378	 0.542895191358973 
1379	 0.542969874718632 
1380	 0.543029149547501 
1381	 0.543073480910147 
1382	 0.543100474015378 
1383	 0.543119116512533 
1384	 0.543094181428365 
1385	 0.54307409894858 
1386	 0.542978449256855 
1387	 0.542840470915209 
1388	 0.54263996922731 
1389	 0.542382099403067 
1390	 0.542056469478381 
1391	 0.541709499015086 
1392	 0.541293852042235 
1393	 0.540804133084328 
1394	 0.540290318444085 
1395	 0.539698897832808 
1396	 0.539084700348919 
1397	 0.538492259912121 
1398	 0.537887959327117 
1399	 0.537295796874592 
1400	 0.53670453389292 
1401	 0.536134219589464 
1402	 0.535560230179187 
1403	 0.535016949489355 
1404	 0.534463508967174 
1405	 0.534003459023146 
1406	 0.533574031158767 
1407	 0.533222485906118 
1408	 0.532926595413962 
1409	 0.53272965962093 
1410	 0.532555725260219 
1411	 0.532542121737181 
1412	 0.532645778829519 
1413	 0.532859257000096 
1414	 0.533233470948599 
1415	 0.533715966671419 
1416	 0.534284648092288 
1417	 0.53494764641562 
1418	 0.535635307680251 
1419	 0.536312045965331 
1420	 0.536996554275657 
1421	 0.53764460288821 
1422	 0.538228382166215 
1423	 0.538772521445747 
1424	 0.539243922468892 
1425	 0.539651595359155 
1426	 0.540007557801866 
1427	 0.540285049451081 
1428	 0.540560269849531 
1429	 0.540795987448712 
1430	 0.54099626122242 
1431	 0.541174912713859 
1432	 0.541312491004739 
1433	 0.541386943984424 
1434	 0.541472987489569 
1435	 0.54152757856953 
1436	 0.541599492449387 
1437	 0.541676875292487 
1438	 0.541740170571172 
1439	 0.541807917772622 
1440	 0.541864426467344 
1441	 0.541886716915883 
1442	 0.541900070975323 
1443	 0.541879228926726 
1444	 0.541833730797553 
1445	 0.541796112760361 
1446	 0.541754007449666 
1447	 0.541738913089449 
1448	 0.541728634814058 
1449	 0.54169887492143 
1450	 0.541678473993415 
1451	 0.541630959782951 
1452	 0.541553952476436 
1453	 0.54149585705991 
1454	 0.541429928065036 
1455	 0.541367611101204 
1456	 0.541327933687552 
1457	 0.541255423880746 
1458	 0.541156773153017 
1459	 0.541076243231256 
1460	 0.540979304471182 
1461	 0.540903014930171 
1462	 0.540850350858236 
1463	 0.540787607672511 
1464	 0.54072507739321 
1465	 0.54065987738882 
1466	 0.540575336914242 
1467	 0.540527874015265 
1468	 0.540487635497938 
1469	 0.540475168199958 
1470	 0.540504330355063 
1471	 0.540530694164617 
1472	 0.540546105137276 
1473	 0.540581773853702 
1474	 0.540613973629822 
1475	 0.540683787608983 
1476	 0.540788875344224 
1477	 0.540886474728639 
1478	 0.541026117107726 
1479	 0.541154221119779 
1480	 0.541271856450827 
1481	 0.541414791515641 
1482	 0.541526497227707 
1483	 0.541606081414685 
1484	 0.541716753857325 
1485	 0.541828566918288 
1486	 0.541949709409485 
1487	 0.542088097529249 
1488	 0.542225220945438 
1489	 0.542374306710308 
1490	 0.542495522679775 
1491	 0.542615026795931 
1492	 0.542725676097671 
1493	 0.542807878356329 
1494	 0.542899019676559 
1495	 0.543007262898014 
1496	 0.543085937164932 
1497	 0.543138998832444 
1498	 0.543205328083801 
1499	 0.543258482936127 
1500	 0.543316467682057 
1501	 0.543386053274896 
1502	 0.543448059941865 
1503	 0.543504942663857 
1504	 0.543562502014733 
1505	 0.54361054899903 
1506	 0.543680263677635 
1507	 0.543744399872275 
1508	 0.543775892575848 
1509	 0.54380751616775 
1510	 0.543828549617084 
1511	 0.543851711190303 
1512	 0.543904377501318 
1513	 0.543970827240888 
1514	 0.544040215841338 
1515	 0.544135980021881 
1516	 0.544233494113627 
1517	 0.54429951216431 
1518	 0.544358712411508 
1519	 0.544409990644736 
1520	 0.544423865617637 
1521	 0.544468175892558 
1522	 0.544527275695099 
1523	 0.544585622569969 
1524	 0.544648591192281 
1525	 0.544710771868603 
1526	 0.544770050804988 
1527	 0.544843752248674 
1528	 0.544931416199209 
1529	 0.545005348729454 
1530	 0.545089233012719 
1531	 0.545156225152801 
1532	 0.545197852072429 
1533	 0.545257433047646 
1534	 0.545329841351397 
1535	 0.545389974573913 
1536	 0.545444914432534 
1537	 0.545500399821526 
1538	 0.545548546409282 
1539	 0.545594577998527 
1540	 0.545639601670056 
1541	 0.545692162481947 
1542	 0.545757815594449 
1543	 0.545797795274212 
1544	 0.545837752805115 
1545	 0.54586537658905 
1546	 0.545856626707499 
1547	 0.545850703037214 
1548	 0.545906654151063 
1549	 0.545954742370264 
1550	 0.546024660339086 
1551	 0.546110222835845 
1552	 0.546166300022839 
1553	 0.546220841427171 
1554	 0.546282797040025 
1555	 0.546368046634111 
1556	 0.54646543914739 
1557	 0.546564075696495 
1558	 0.546665779353375 
1559	 0.546748072417595 
1560	 0.546815233843052 
1561	 0.546856402122171 
1562	 0.546909247768326 
1563	 0.546945264255634 
1564	 0.547016609362417 
1565	 0.547098197840815 
1566	 0.547200267772075 
1567	 0.547333201583341 
1568	 0.5474494215476 
1569	 0.547578888643356 
1570	 0.547685348265693 
1571	 0.547796903164359 
1572	 0.547869291313542 
1573	 0.547912504312156 
1574	 0.547952614642789 
1575	 0.547948336024831 
1576	 0.547982540218631 
1577	 0.548040748539375 
1578	 0.548075301613606 
1579	 0.548121681608564 
1580	 0.548143481482447 
1581	 0.548123193212464 
1582	 0.548139784975927 
1583	 0.548152910132984 
1584	 0.548192744469065 
1585	 0.548259908703483 
1586	 0.54832612006691 
1587	 0.54840947730899 
1588	 0.54849039626534 
1589	 0.548597274851032 
1590	 0.548668483365476 
1591	 0.548712940344333 
1592	 0.54877367334658 
1593	 0.548823765174654 
1594	 0.54886794272716 
1595	 0.548917272925682 
1596	 0.548970108360866 
1597	 0.549012553721831 
1598	 0.549057415304994 
1599	 0.549112551809554 
1600	 0.549168071090394 
1601	 0.549208708766444 
1602	 0.549266979823818 
1603	 0.549353521538146 
1604	 0.549420979439651 
1605	 0.549483718062162 
1606	 0.549546301850578 
1607	 0.549602227330579 
1608	 0.549651362252135 
1609	 0.549705686959809 
1610	 0.549750848891952 
1611	 0.549774990210086 
1612	 0.549814509529471 
1613	 0.549846023003695 
1614	 0.549876225354901 
1615	 0.549933813939136 
1616	 0.549963622962802 
1617	 0.5500014437354 
1618	 0.550092806055003 
1619	 0.550150434820543 
1620	 0.550211096057455 
1621	 0.550274184388006 
1622	 0.550335580881306 
1623	 0.550390764109608 
1624	 0.550450520631276 
1625	 0.550501911660408 
1626	 0.550540477960756 
1627	 0.55058960250056 
1628	 0.550648622583617 
1629	 0.550685395341706 
1630	 0.550713865960715 
1631	 0.550745398612257 
1632	 0.550754838312073 
1633	 0.55079798012271 
1634	 0.550860527988275 
1635	 0.550918120189502 
1636	 0.550996120269069 
1637	 0.551044857174701 
1638	 0.551070621779349 
1639	 0.55112691554912 
1640	 0.551184732706593 
1641	 0.551245710997389 
1642	 0.551329905738723 
1643	 0.551398914237571 
1644	 0.551441269256653 
1645	 0.551527059766457 
1646	 0.551646556602904 
1647	 0.551733829810633 
1648	 0.551837230220246 
1649	 0.551909927992239 
1650	 0.551944474049874 
1651	 0.552000738948667 
1652	 0.55206238830645 
1653	 0.552110625507728 
1654	 0.552163617161249 
1655	 0.552191544727482 
1656	 0.55219278025597 
1657	 0.552208878474213 
1658	 0.552212600817913 
1659	 0.552229932763073 
1660	 0.552248911556285 
1661	 0.552291441836586 
1662	 0.5523509837818 
1663	 0.552405784124087 
1664	 0.552490356245008 
1665	 0.552541326855588 
1666	 0.552570637101218 
1667	 0.552604965563981 
1668	 0.552617037044807 
1669	 0.552660908740079 
1670	 0.552726710785265 
1671	 0.552773796736255 
1672	 0.55283615423917 
1673	 0.552876466714167 
1674	 0.552883965366039 
1675	 0.552917304148887 
1676	 0.552939424909724 
1677	 0.553003739024148 
1678	 0.553106789589488 
1679	 0.553189288908371 
1680	 0.553300394770662 
1681	 0.55337958574346 
1682	 0.553434450709899 
1683	 0.553487777964502 
1684	 0.553529751037188 
1685	 0.553577117226209 
1686	 0.553602724436651 
1687	 0.553662448928616 
1688	 0.553754917309658 
1689	 0.553816902663183 
1690	 0.55388525617616 
1691	 0.553942680217149 
1692	 0.553974408371152 
1693	 0.554016532567997 
1694	 0.554061072402549 
1695	 0.554107286529877 
1696	 0.554148805238454 
1697	 0.554199915982351 
1698	 0.554253841946096 
1699	 0.554325642990409 
1700	 0.554406612385686 
1701	 0.554490066365435 
1702	 0.554598538450342 
1703	 0.554684726722215 
1704	 0.55478309615333 
1705	 0.554832085010286 
1706	 0.554848297601875 
1707	 0.554864158563869 
1708	 0.554843355837611 
1709	 0.554834039315568 
1710	 0.554810276648142 
1711	 0.554828127113837 
1712	 0.554843588928601 
1713	 0.554899061463519 
1714	 0.555024688803934 
1715	 0.555096285133276 
1716	 0.555158842864256 
1717	 0.555226069757417 
1718	 0.555281592787578 
1719	 0.555331416022825 
1720	 0.555403149161539 
1721	 0.555429828790379 
1722	 0.555413585038587 
1723	 0.555417423647974 
1724	 0.55538819278358 
1725	 0.555413041669892 
1726	 0.555476291074416 
1727	 0.555519149733288 
1728	 0.555591501737467 
1729	 0.555624161250882 
1730	 0.55564198058556 
1731	 0.555629328712022 
1732	 0.555594789989252 
1733	 0.555550136172004 
1734	 0.555459979556596 
1735	 0.555398100620606 
1736	 0.555342325259852 
1737	 0.555290536434939 
1738	 0.55523415821761 
1739	 0.555213105915015 
1740	 0.555201902743555 
1741	 0.555206350076751 
1742	 0.555258868399492 
1743	 0.55526442203892 
1744	 0.555254653677101 
1745	 0.555252996166296 
1746	 0.555232776752904 
1747	 0.555233611174957 
1748	 0.555256027551266 
1749	 0.555250418958338 
1750	 0.5552230737139 
1751	 0.555179983664732 
1752	 0.555136646152095 
1753	 0.555109273361779 
1754	 0.555079168636448 
1755	 0.555080102767519 
1756	 0.555068835359137 
1757	 0.555043952707393 
1758	 0.555047115913907 
1759	 0.555038920013729 
1760	 0.555028125393845 
1761	 0.55500135068027 
1762	 0.554971366946043 
1763	 0.554941617833095 
1764	 0.554916710677174 
1765	 0.554955719291752 
1766	 0.555010319957211 
1767	 0.555090234998956 
1768	 0.555188488692367 
1769	 0.555254857660135 
1770	 0.555287870772073 
1771	 0.555288313444892 
1772	 0.555260898286189 
1773	 0.555191955083599 
1774	 0.555144657803205 
1775	 0.555101556646103 
1776	 0.555056473731392 
1777	 0.555077480254257 
1778	 0.555130740132835 
1779	 0.555215219932665 
1780	 0.555290644086269 
1781	 0.555325153239578 
1782	 0.555355498269288 
1783	 0.555356835313563 
1784	 0.555359214427414 
1785	 0.555361821425614 
1786	 0.555348205077105 
1787	 0.55529324958603 
1788	 0.55529012368295 
1789	 0.555314530488935 
1790	 0.555356587345976 
1791	 0.555447272990307 
1792	 0.555488588641454 
1793	 0.555524143133512 
1794	 0.555527951118224 
1795	 0.555496421234099 
1796	 0.555471351878026 
1797	 0.555418762529961 
1798	 0.55540232266504 
1799	 0.555368286498848 
1800	 0.555402904374011 
1801	 0.551005033110431 
1802	 0.551071529178722 
1803	 0.551132229097083 
1804	 0.551196775393778 
1805	 0.551272357201385 
1806	 0.551319325262881 
1807	 0.551407267951187 
1808	 0.551491999990496 
1809	 0.551631010537407 
1810	 0.551690217679512 
1811	 0.551730893886556 
1812	 0.551728358062558 
1813	 0.55172278536473 
1814	 0.551700533755402 
1815	 0.551651522077339 
1816	 0.551627204627527 
1817	 0.551607157985789 
1818	 0.551542524946132 
1819	 0.551531994038845 
1820	 0.551567815779225 
1821	 0.551603064498514 
1822	 0.551621630000337 
1823	 0.551650884218172 
1824	 0.551627478638703 
1825	 0.551568748841932 
1826	 0.55147626206429 
1827	 0.551380381403841 
1828	 0.551297148228801 
1829	 0.551224973923142 
1830	 0.551127768218955 
1831	 0.55102922197969 
1832	 0.550929130523178 
1833	 0.550775685638948 
1834	 0.550627816044082 
1835	 0.550523025316466 
1836	 0.550393436195279 
1837	 0.550241297005972 
1838	 0.550113424056929 
1839	 0.550002079705421 
1840	 0.549895918115414 
1841	 0.549766246405424 
1842	 0.549665713113692 
1843	 0.549597494139014 
1844	 0.54949218161416 
1845	 0.549396657845585 
1846	 0.549365028059936 
1847	 0.549338343243265 
1848	 0.549284743870992 
1849	 0.549279268566088 
1850	 0.549321066202145 
1851	 0.549399983322925 
1852	 0.549480009734638 
1853	 0.549610000663344 
1854	 0.549736044721245 
1855	 0.549824569848271 
1856	 0.549912899220487 
1857	 0.549986371975049 
1858	 0.550067501929163 
1859	 0.550127093383961 
1860	 0.55018266002215 
1861	 0.550228556201578 
1862	 0.550270488545898 
1863	 0.550299779828621 
1864	 0.550357788811941 
1865	 0.550440334356577 
1866	 0.55052980282367 
1867	 0.550602159839991 
1868	 0.550682060526626 
1869	 0.550747912889337 
1870	 0.550795482398745 
1871	 0.550831892117344 
1872	 0.550875659356806 
1873	 0.550892921492909 
1874	 0.550876564943388 
1875	 0.550858397501731 
1876	 0.550829084668378 
1877	 0.550756647402675 
1878	 0.550634859234886 
1879	 0.550470324272453 
1880	 0.550245566263414 
1881	 0.54994473765426 
1882	 0.549625301755805 
1883	 0.549275261993767 
1884	 0.548859601322962 
1885	 0.548413760612684 
1886	 0.547939936117919 
1887	 0.547380908069799 
1888	 0.546833751467425 
1889	 0.546275517377578 
1890	 0.545694078809717 
1891	 0.545116077524402 
1892	 0.544535248678859 
1893	 0.543945895161611 
1894	 0.543334721058559 
1895	 0.542738419080611 
1896	 0.542161696798897 
1897	 0.54159707005219 
1898	 0.541100459969983 
1899	 0.540700811902854 
1900	 0.540300987686644 
1901	 0.539999995379732 
1902	 0.53978025081372 
1903	 0.539621408443532 
1904	 0.539518125771333 
1905	 0.539516063693432 
1906	 0.539574302406831 
1907	 0.53961478641125 
1908	 0.539666705831635 
1909	 0.53974277063533 
1910	 0.539798360889675 
1911	 0.539860439341829 
1912	 0.539939767027107 
1913	 0.540024141216791 
1914	 0.540141081631952 
1915	 0.540213334796282 
1916	 0.540279252804431 
1917	 0.540319121670918 
1918	 0.540355625539168 
1919	 0.540395074192069 
1920	 0.540429537117152 
1921	 0.540473551139549 
1922	 0.540498497958686 
1923	 0.5405172249989 
1924	 0.540548143239939 
1925	 0.540604531809634 
1926	 0.540637900817515 
1927	 0.540674364236602 
1928	 0.540679945077034 
1929	 0.540686435450626 
1930	 0.540696232174701 
1931	 0.540703923837896 
1932	 0.540705865343457 
1933	 0.540686048403384 
1934	 0.540670883516725 
1935	 0.540668996124264 
1936	 0.540649748710647 
1937	 0.540679448465115 
1938	 0.540744730973316 
1939	 0.540805823509368 
1940	 0.540880212750533 
1941	 0.54098040077667 
1942	 0.54108043412606 
1943	 0.54120922910706 
1944	 0.541337209357953 
1945	 0.541462875263321 
1946	 0.541601062270614 
1947	 0.541745294579828 
1948	 0.541882849688239 
1949	 0.542052003300346 
1950	 0.542178390541755 
1951	 0.542292017523294 
1952	 0.542366072107502 
1953	 0.542424143164831 
1954	 0.542483902559009 
1955	 0.542526996821325 
1956	 0.542604390865551 
1957	 0.542687776605459 
1958	 0.54278341274062 
1959	 0.542881601312427 
1960	 0.542998105468779 
1961	 0.543101546457542 
1962	 0.543207313585252 
1963	 0.543309615675464 
1964	 0.543399492348732 
1965	 0.543510155236737 
1966	 0.543605233036113 
1967	 0.543708487524795 
1968	 0.543816719942552 
1969	 0.543922712247495 
1970	 0.544035845503097 
1971	 0.544153473915405 
1972	 0.544290433472055 
1973	 0.54444982890797 
1974	 0.544591345689194 
1975	 0.544732135854751 
1976	 0.544881280333629 
1977	 0.545039566285474 
1978	 0.545191783642488 
1979	 0.545352442562442 
1980	 0.545535480969647 
1981	 0.545694900845569 
1982	 0.545823611985914 
1983	 0.545981200476482 
1984	 0.546156454043408 
1985	 0.546310311977342 
1986	 0.546443940551637 
1987	 0.546612420665501 
1988	 0.546794884611665 
1989	 0.546972998698906 
1990	 0.547158015981049 
1991	 0.547368662506724 
1992	 0.547559593103399 
1993	 0.547739584995813 
1994	 0.547913474758333 
1995	 0.548082981128605 
1996	 0.548253149643459 
1997	 0.548394955071933 
1998	 0.5485681961936 
1999	 0.548758138161025 
2000	 0.548961675968949 
2001	 0.549183849583227 
2002	 0.549410773418738 
2003	 0.549650167294621 
2004	 0.549880578068232 
2005	 0.550105143192879 
2006	 0.550327904087541 
2007	 0.550546177664918 
2008	 0.550749007209163 
2009	 0.550963353515692 
2010	 0.551172763065856 
2011	 0.551391549504871 
2012	 0.551631694740083 
2013	 0.551857604843808 
2014	 0.552069591376514 
2015	 0.552299167042235 
2016	 0.552519198544065 
2017	 0.552755396223427 
2018	 0.553012963823457 
2019	 0.553316342082397 
2020	 0.55357014281266 
2021	 0.553822791365575 
2022	 0.55406393251855 
2023	 0.55427650142297 
2024	 0.554492287179145 
2025	 0.554727833992481 
2026	 0.554926794198086 
2027	 0.555105484647765 
2028	 0.555250701178286 
2029	 0.555421083786541 
2030	 0.555567395806288 
2031	 0.555756271549793 
2032	 0.555969163662121 
2033	 0.556190423505404 
2034	 0.556433164242022 
2035	 0.556673352561374 
2036	 0.556951082149527 
2037	 0.557181845100491 
2038	 0.557401200093361 
2039	 0.557600193925906 
2040	 0.557786965405821 
2041	 0.557921659999469 
2042	 0.558047660182817 
2043	 0.558187518714797 
2044	 0.558306955322661 
2045	 0.558390019196381 
2046	 0.558514692500717 
2047	 0.558659732910795 
2048	 0.55878619182696 
2049	 0.558925039437866 
2050	 0.559050249552064 
2051	 0.559157512366054 
2052	 0.559264059337201 
2053	 0.559366967314195 
2054	 0.559473701921233 
2055	 0.559574695730018 
2056	 0.559674380763557 
2057	 0.55977958214413 
2058	 0.559896735035877 
2059	 0.559997442415213 
2060	 0.560082425140909 
2061	 0.560188577898377 
2062	 0.560295837139472 
2063	 0.560409826490108 
2064	 0.560551347115742 
2065	 0.560671567264878 
2066	 0.560787833542932 
2067	 0.560892586708955 
2068	 0.561000270154566 
2069	 0.561067422272495 
2070	 0.561155826472883 
2071	 0.561241879504495 
2072	 0.561323353860873 
2073	 0.561415358048084 
2074	 0.561478317627875 
2075	 0.561496327729683 
2076	 0.56157001358843 
2077	 0.561654005533724 
2078	 0.561743916769559 
2079	 0.561888845100307 
2080	 0.561992016110759 
2081	 0.562063303279404 
2082	 0.562145117638358 
2083	 0.562229905992352 
2084	 0.562305441726033 
2085	 0.562361321171856 
2086	 0.562402464652316 
2087	 0.562460849326248 
2088	 0.562506005497684 
2089	 0.562558003247197 
2090	 0.562638162487428 
2091	 0.562688651307573 
2092	 0.562704707542832 
2093	 0.562748474146444 
2094	 0.562797389835877 
2095	 0.562847519391763 
2096	 0.562907380802853 
2097	 0.562969048436313 
2098	 0.56302372931817 
2099	 0.563090485303356 
2100	 0.563170793295377 
2101	 0.563265128635019 
2102	 0.563360946637975 
2103	 0.563468436095793 
2104	 0.563577268674855 
2105	 0.563669982889846 
2106	 0.563809352405525 
2107	 0.563983426262417 
2108	 0.564148038951263 
2109	 0.564336792110535 
2110	 0.564528323980302 
2111	 0.564713608472075 
2112	 0.564905700714442 
2113	 0.56511737849809 
2114	 0.565338288500762 
2115	 0.565521769054911 
2116	 0.565675006664887 
2117	 0.565866606686139 
2118	 0.566046840768659 
2119	 0.566253138854369 
2120	 0.566496946028477 
2121	 0.566731059534847 
2122	 0.566973857015487 
2123	 0.567202451614975 
2124	 0.567464828411756 
2125	 0.567663778702953 
2126	 0.567815368863733 
2127	 0.56796922037537 
2128	 0.568085683575723 
2129	 0.568201908994082 
2130	 0.56830949576175 
2131	 0.568439015195193 
2132	 0.568512671918204 
2133	 0.568569622124919 
2134	 0.568583962037927 
2135	 0.568563455455026 
2136	 0.568511632254218 
2137	 0.568413544053588 
2138	 0.568313186851438 
2139	 0.568209858670535 
2140	 0.568044207688284 
2141	 0.567830799275256 
2142	 0.567615534822295 
2143	 0.567338909867198 
2144	 0.567078723421912 
2145	 0.566837194917788 
2146	 0.566572669906433 
2147	 0.566322228729861 
2148	 0.566008398063699 
2149	 0.565671810099209 
2150	 0.565327019645438 
2151	 0.564911911527648 
2152	 0.564420679115848 
2153	 0.563948129042152 
2154	 0.563426203309993 
2155	 0.562930127334662 
2156	 0.562475092429255 
2157	 0.561946631051548 
2158	 0.561402130284165 
2159	 0.560809535756152 
2160	 0.560127338076612 
2161	 0.559475261714596 
2162	 0.558802945936899 
2163	 0.558140484370902 
2164	 0.557498047133422 
2165	 0.556846806877145 
2166	 0.556151786862586 
2167	 0.555443054137524 
2168	 0.554699511097499 
2169	 0.553915395412028 
2170	 0.553116799564581 
2171	 0.552315889744584 
2172	 0.551449938275145 
2173	 0.550542064664989 
2174	 0.549600019631919 
2175	 0.548594914517394 
2176	 0.547587212512039 
2177	 0.546554569590643 
2178	 0.545498547308062 
2179	 0.544396501987475 
2180	 0.543313652518368 
2181	 0.542226560560469 
2182	 0.541127245213233 
2183	 0.540027477928684 
2184	 0.538927177873783 
2185	 0.53780731388601 
2186	 0.536647790505745 
2187	 0.535521841022726 
2188	 0.534378381605047 
2189	 0.533301559851017 
2190	 0.532243249434669 
2191	 0.531234585189625 
2192	 0.530252660479661 
2193	 0.52934957061393 
2194	 0.528454591768007 
2195	 0.527697989737499 
2196	 0.527063516811896 
2197	 0.526476616180272 
2198	 0.525988377502912 
2199	 0.525559740162643 
2200	 0.525171033957314 
2201	 0.524881280532693 
2202	 0.524684675750243 
2203	 0.524562972829518 
2204	 0.524520487522389 
2205	 0.524569096297025 
2206	 0.524678258029775 
2207	 0.524850621994575 
2208	 0.525127373890025 
2209	 0.525506611028815 
2210	 0.525932031834076 
2211	 0.526479918238919 
2212	 0.527005267554048 
2213	 0.527604635509169 
2214	 0.528141264775271 
2215	 0.528663179698704 
2216	 0.529198433327914 
2217	 0.529717763842379 
2218	 0.530234052673974 
2219	 0.530787703809695 
2220	 0.531294905948784 
2221	 0.531746763361547 
2222	 0.532232152770476 
2223	 0.532682533083049 
2224	 0.533096832750157 
2225	 0.533446484004654 
2226	 0.533769452272529 
2227	 0.533988953192086 
2228	 0.534111315077575 
2229	 0.534233891345058 
2230	 0.534277182518221 
2231	 0.534341066525101 
2232	 0.534388367840761 
2233	 0.534434049689777 
2234	 0.534471166577615 
2235	 0.534495260546671 
2236	 0.534534860509919 
2237	 0.534517292209678 
2238	 0.53446420645077 
2239	 0.534387135171047 
2240	 0.534258291422449 
2241	 0.534131468399972 
2242	 0.533991470157688 
2243	 0.533831143389296 
2244	 0.53363573112935 
2245	 0.533464675546465 
2246	 0.533278402605442 
2247	 0.533083152457567 
2248	 0.53287578438475 
2249	 0.53267061378643 
2250	 0.532434052670972 
2251	 0.532164048416733 
2252	 0.531921306379535 
2253	 0.531665866989758 
2254	 0.531433742071785 
2255	 0.531207208240164 
2256	 0.531005217122183 
2257	 0.530776128809019 
2258	 0.530659217479974 
2259	 0.530607875237259 
2260	 0.530588581172094 
2261	 0.530649858907083 
2262	 0.530732302155949 
2263	 0.530856810730122 
2264	 0.530984189265 
2265	 0.531146548986576 
2266	 0.531330745338657 
2267	 0.531499867858033 
2268	 0.531731699936308 
2269	 0.532017482329162 
2270	 0.532339543823079 
2271	 0.532705975893058 
2272	 0.533062571772089 
2273	 0.53334648981198 
2274	 0.533678460046451 
2275	 0.534023532683084 
2276	 0.534352305998877 
2277	 0.534709359914471 
2278	 0.535130266335564 
2279	 0.535482395902009 
2280	 0.535782812361713 
2281	 0.536156666428954 
2282	 0.536542278752992 
2283	 0.536942709401602 
2284	 0.537402177835377 
2285	 0.537819194699022 
2286	 0.538234213210693 
2287	 0.5386235175128 
2288	 0.538992027521593 
2289	 0.539348497867989 
2290	 0.539686268307533 
2291	 0.540016763698166 
2292	 0.540319258363333 
2293	 0.540646825310572 
2294	 0.54099167306213 
2295	 0.541298224604296 
2296	 0.54156237243812 
2297	 0.541902638709829 
2298	 0.5422134854781 
2299	 0.542511938393496 
2300	 0.542885064016341 
2301	 0.543146765387434 
2302	 0.543333955537815 
2303	 0.543518573857205 
2304	 0.543696918842289 
2305	 0.543947373378072 
2306	 0.544178867420558 
2307	 0.544462772769226 
2308	 0.544686952177675 
2309	 0.544902379170998 
2310	 0.545072214696155 
2311	 0.545231213103064 
2312	 0.545332919505296 
2313	 0.545330643342113 
2314	 0.545376762819755 
2315	 0.545391604926019 
2316	 0.545453841281073 
2317	 0.54556635972392 
2318	 0.545662691202779 
2319	 0.54577683872605 
2320	 0.545870574308657 
2321	 0.545914439680934 
2322	 0.546034037305275 
2323	 0.546226405645975 
2324	 0.546357674776951 
2325	 0.546529882007182 
2326	 0.546629799249641 
2327	 0.54666548696948 
2328	 0.546645136360646 
2329	 0.546637780681708 
2330	 0.546663124996372 
2331	 0.546676583820875 
2332	 0.546717769060105 
2333	 0.546755515854341 
2334	 0.5467812546848 
2335	 0.546822994137304 
2336	 0.546849021113696 
2337	 0.54687094724171 
2338	 0.546915252379202 
2339	 0.546933209656672 
2340	 0.546886505835145 
2341	 0.546836082914176 
2342	 0.546751253585326 
2343	 0.546705493177355 
2344	 0.546727514128981 
2345	 0.546731844744293 
2346	 0.54677849061316 
2347	 0.546788563810741 
2348	 0.54677021088092 
2349	 0.546785102692494 
2350	 0.546816833877406 
2351	 0.54684295793002 
2352	 0.546888419446439 
2353	 0.546876571082058 
2354	 0.546802893276865 
2355	 0.546789213514353 
2356	 0.546754914758357 
2357	 0.546800897389146 
2358	 0.546951416899653 
2359	 0.547057761719395 
2360	 0.547164444158122 
2361	 0.547287859835703 
2362	 0.54744163047008 
2363	 0.547515069375364 
2364	 0.547567293938013 
2365	 0.547623155928035 
2366	 0.547648125529887 
2367	 0.547639256626529 
2368	 0.547613031824944 
2369	 0.547601817984679 
2370	 0.547574206906642 
2371	 0.547478445787355 
2372	 0.547450670606682 
2373	 0.547361849340788 
2374	 0.547269697224145 
2375	 0.547148978379545 
2376	 0.546938407714858 
2377	 0.546759877073891 
2378	 0.546524945301474 
2379	 0.546252406720728 
2380	 0.546033905747164 
2381	 0.545821874192199 
2382	 0.545588880299081 
2383	 0.545367736532878 
2384	 0.545230520475298 
2385	 0.545121868991439 
2386	 0.54496121026677 
2387	 0.544837315205935 
2388	 0.544758490380955 
2389	 0.544622689712684 
2390	 0.544503795251274 
2391	 0.544369754361856 
2392	 0.544085856464636 
2393	 0.543768445702943 
2394	 0.543450980413422 
2395	 0.543200938231725 
2396	 0.543067726373274 
2397	 0.542771477089979 
2398	 0.542375505719534 
2399	 0.541970219684495 
2400	 0.541494564780409 
2401	 0.541149554184594 
2402	 0.540938788743088 
2403	 0.540665548028719 
2404	 0.540239413420597 
2405	 0.539846400106567 
2406	 0.539487887545339 
2407	 0.539078928078914 
2408	 0.538785848786544 
2409	 0.538466415925845 
2410	 0.538003897741365 
2411	 0.537600418907622 
2412	 0.537283160090066 
2413	 0.536980415058066 
2414	 0.536615402823978 
2415	 0.536175857432288 
2416	 0.535781756568795 
2417	 0.535316119513129 
2418	 0.534855045315734 
2419	 0.534468550909918 
2420	 0.534038307487996 
2421	 0.533525839939407 
2422	 0.533061830836191 
2423	 0.532634374969356 
2424	 0.532272563685383 
2425	 0.531878763988846 
2426	 0.53148582013508 
2427	 0.531228409558098 
2428	 0.530832138297161 
2429	 0.530314003504538 
2430	 0.529996484793239 
2431	 0.529709293604875 
2432	 0.529404960980366 
2433	 0.529234400605859 
2434	 0.528943249757803 
2435	 0.528554176573587 
2436	 0.528246387321118 
2437	 0.527962516996304 
2438	 0.527624142250934 
2439	 0.527273954889164 
2440	 0.526953093979008 
2441	 0.526572191622931 
2442	 0.526348531129215 
2443	 0.526255217078124 
2444	 0.526153468982852 
2445	 0.52614069323457 
2446	 0.525987365158641 
2447	 0.525747875666942 
2448	 0.525504740202935 
2449	 0.525238060880367 
2450	 0.52496809711857 
2451	 0.524678139907617 
2452	 0.524527659241905 
2453	 0.524427080321659 
2454	 0.524280346731898 
2455	 0.524208112087519 
2456	 0.524017089715424 
2457	 0.52364909936134 
2458	 0.523476839856126 
2459	 0.52344664336673 
2460	 0.523310304601745 
2461	 0.52323806344378 
2462	 0.523030795619346 
2463	 0.522593700948598 
2464	 0.522366878124846 
2465	 0.522235857493381 
2466	 0.522118752444132 
2467	 0.522143425465482 
2468	 0.522115269722995 
2469	 0.521973519405704 
2470	 0.521975466570834 
2471	 0.522026567995829 
2472	 0.521935595758814 
2473	 0.521864920407599 
2474	 0.521782623988146 
2475	 0.521582099641069 
2476	 0.521507659704472 
2477	 0.52147374378049 
2478	 0.521357043960739 
2479	 0.521132656585364 
2480	 0.52098069561747 
2481	 0.52098323490495 
2482	 0.520854711124227 
2483	 0.520893551043038 
2484	 0.520970033220167 
2485	 0.520743145497153 
2486	 0.520479754948995 
2487	 0.520458876443905 
2488	 0.520510310875389 
2489	 0.520248453937626 
2490	 0.520122204761404 
2491	 0.520030528999964 
2492	 0.519558392770383 
2493	 0.519351966378703 
2494	 0.519150668861081 
2495	 0.518779513173819 
2496	 0.518818857986861 
2497	 0.518825873126398 
2498	 0.518841556948498 
2499	 0.518980542176179 
2500	 0.518699729911141 
