Wavelength	LMW300008.asd
350	 0.12590422103079 
351	 0.121977071295827 
352	 0.114811334028862 
353	 0.108675808798611 
354	 0.11367607820196 
355	 0.116205172478546 
356	 0.117387776262745 
357	 0.119963059371582 
358	 0.117621554426767 
359	 0.115417494717039 
360	 0.116494453738017 
361	 0.121469101980379 
362	 0.119978035975478 
363	 0.118872246122487 
364	 0.121176991670161 
365	 0.120558594705401 
366	 0.121967171757394 
367	 0.123231119317764 
368	 0.12235125768461 
369	 0.125954938183913 
370	 0.127961393399778 
371	 0.127914483463868 
372	 0.129256564236477 
373	 0.130969018497439 
374	 0.131094676588934 
375	 0.130328617073517 
376	 0.134444801529279 
377	 0.133872715303482 
378	 0.132674772491534 
379	 0.136026248872491 
380	 0.135059729662129 
381	 0.136301630481539 
382	 0.140141532045719 
383	 0.142116834943838 
384	 0.142635171164178 
385	 0.143559693485327 
386	 0.145728372704915 
387	 0.14751618119406 
388	 0.151286067216584 
389	 0.154227960129544 
390	 0.153736916329995 
391	 0.155798278828041 
392	 0.159268763240891 
393	 0.162638530638813 
394	 0.164574826353266 
395	 0.166652640336547 
396	 0.168972813232558 
397	 0.17136676665431 
398	 0.173768460864793 
399	 0.176106830960442 
400	 0.178203546465448 
401	 0.180144686042868 
402	 0.183764993927864 
403	 0.186394322828719 
404	 0.187663435714515 
405	 0.18971901280621 
406	 0.192987909934983 
407	 0.195987041534704 
408	 0.197614143478371 
409	 0.198579741323524 
410	 0.200238780099079 
411	 0.202332259281672 
412	 0.203904580681833 
413	 0.205154983113246 
414	 0.206576404332336 
415	 0.208451199285821 
416	 0.210826480296904 
417	 0.210944414014193 
418	 0.210626762422594 
419	 0.211731149783055 
420	 0.212205328090486 
421	 0.212613360191321 
422	 0.213232844099555 
423	 0.214040851026574 
424	 0.214177837234644 
425	 0.213621288259362 
426	 0.212877415019116 
427	 0.213278591015101 
428	 0.212709508634923 
429	 0.211729969155065 
430	 0.211429183034396 
431	 0.21089467350243 
432	 0.210154578919399 
433	 0.209552796604761 
434	 0.209641342569013 
435	 0.209739730747 
436	 0.209890172231203 
437	 0.210228002016721 
438	 0.210667727754005 
439	 0.211873011359685 
440	 0.213383360812467 
441	 0.214339257251259 
442	 0.215634115886502 
443	 0.217271308208033 
444	 0.219094690067497 
445	 0.220862731643534 
446	 0.222386013110929 
447	 0.223910086501187 
448	 0.225671642164149 
449	 0.227255481409275 
450	 0.228955816654894 
451	 0.230794057333899 
452	 0.232537358393251 
453	 0.234050476450725 
454	 0.23537819962106 
455	 0.236688163941902 
456	 0.238389075068772 
457	 0.239869726677813 
458	 0.241110279403913 
459	 0.242339917820411 
460	 0.243447182468105 
461	 0.244462252497699 
462	 0.245450813037146 
463	 0.246513882144455 
464	 0.247408287050497 
465	 0.248286638391444 
466	 0.24928956569015 
467	 0.250042926879129 
468	 0.25076568250997 
469	 0.25151914560924 
470	 0.252234530224635 
471	 0.253067394428801 
472	 0.253896252517409 
473	 0.254567276192993 
474	 0.254892279570571 
475	 0.255525837072622 
476	 0.256425274694561 
477	 0.257244923128547 
478	 0.258011539183829 
479	 0.258751869325446 
480	 0.259455516284514 
481	 0.260049007372368 
482	 0.260777068351971 
483	 0.261654040190375 
484	 0.262530682613665 
485	 0.262906689920401 
486	 0.263322742919037 
487	 0.263930689426006 
488	 0.264540625723192 
489	 0.265268265633151 
490	 0.266024601407105 
491	 0.266726449101633 
492	 0.267393316427808 
493	 0.267917705315135 
494	 0.268445975608314 
495	 0.269213461767835 
496	 0.270171284733608 
497	 0.270860678098089 
498	 0.27124507943628 
499	 0.271958509096774 
500	 0.272554424209881 
501	 0.273135022116163 
502	 0.273872619044012 
503	 0.274558616957854 
504	 0.275143308618737 
505	 0.27567682286444 
506	 0.276284010964052 
507	 0.27677426645634 
508	 0.277272945398897 
509	 0.27788197903074 
510	 0.278498468036366 
511	 0.278996953614059 
512	 0.279508301991647 
513	 0.280234740141253 
514	 0.28063483456563 
515	 0.281047430939097 
516	 0.281637794184697 
517	 0.282102344461129 
518	 0.282666271965062 
519	 0.283227414337745 
520	 0.283653774548787 
521	 0.284230105934329 
522	 0.284786021985744 
523	 0.285249417433616 
524	 0.285678288680518 
525	 0.286163472043674 
526	 0.286622718192515 
527	 0.287002939624544 
528	 0.287468526020381 
529	 0.288003889125348 
530	 0.288525536580478 
531	 0.288924191204918 
532	 0.289333214737862 
533	 0.289831900930177 
534	 0.290389164423914 
535	 0.290749399929821 
536	 0.291198715895365 
537	 0.291702972376081 
538	 0.29212120522012 
539	 0.29251293178215 
540	 0.292919358819149 
541	 0.293365465719265 
542	 0.293857983550749 
543	 0.294320985673536 
544	 0.294734803832298 
545	 0.295129722859165 
546	 0.295668866056427 
547	 0.296123588092683 
548	 0.296511519858446 
549	 0.297051264120981 
550	 0.29747572729223 
551	 0.297867609755073 
552	 0.298346280905927 
553	 0.298969208369175 
554	 0.299573701592294 
555	 0.300114603537613 
556	 0.300619065349283 
557	 0.301131804059834 
558	 0.301699421501759 
559	 0.30232387819023 
560	 0.302943696467619 
561	 0.303472170500902 
562	 0.303853624069152 
563	 0.304132320205908 
564	 0.304768864851737 
565	 0.305365147584572 
566	 0.305850348042016 
567	 0.30657041185494 
568	 0.307278402043219 
569	 0.307992960920343 
570	 0.308765478070002 
571	 0.309555740507628 
572	 0.310323421675038 
573	 0.311021392174849 
574	 0.311609991536451 
575	 0.312203804825526 
576	 0.31280836366571 
577	 0.313435550925405 
578	 0.314159180569082 
579	 0.31490914122452 
580	 0.315685260656841 
581	 0.316521467255373 
582	 0.317472374328027 
583	 0.318419882649717 
584	 0.319291458985721 
585	 0.320103269654909 
586	 0.320892184862185 
587	 0.321615330144727 
588	 0.322256919542035 
589	 0.32302998187713 
590	 0.323753400485331 
591	 0.324414875324268 
592	 0.325162499979857 
593	 0.32590177122062 
594	 0.326637139371201 
595	 0.327423192010642 
596	 0.328409296654733 
597	 0.329472764714742 
598	 0.330481871384748 
599	 0.331330495444715 
600	 0.332162103060546 
601	 0.332998618595181 
602	 0.333807874248861 
603	 0.334493331918196 
604	 0.335073802884387 
605	 0.335674324849652 
606	 0.336409878767219 
607	 0.337109059739939 
608	 0.337770366563144 
609	 0.338426224910699 
610	 0.339135658650132 
611	 0.339871603012084 
612	 0.340640247690137 
613	 0.341422386162999 
614	 0.34211127028649 
615	 0.342720903684596 
616	 0.343295597076899 
617	 0.34389314199628 
618	 0.344483173088997 
619	 0.345030571611839 
620	 0.345535121986805 
621	 0.346074128799765 
622	 0.3465676140487 
623	 0.34702685636354 
624	 0.347501602707086 
625	 0.348035227098458 
626	 0.348502468080914 
627	 0.348900875188986 
628	 0.349405031843779 
629	 0.349965155775037 
630	 0.350454314147839 
631	 0.350797413412466 
632	 0.351203730899008 
633	 0.351613219992726 
634	 0.352029242307985 
635	 0.352501356452313 
636	 0.352881865425823 
637	 0.353277428095082 
638	 0.353752443590061 
639	 0.354160234914623 
640	 0.354527825327444 
641	 0.354925945335166 
642	 0.355416001575856 
643	 0.355797481987233 
644	 0.356168601213445 
645	 0.356580729829313 
646	 0.356974792088751 
647	 0.357356303867362 
648	 0.357749248556673 
649	 0.358171363107834 
650	 0.358582505262045 
651	 0.359019932743564 
652	 0.35945964921665 
653	 0.359831904756412 
654	 0.360254416445596 
655	 0.360682880265066 
656	 0.361069913560527 
657	 0.361418246244819 
658	 0.361889758698065 
659	 0.362416646763839 
660	 0.362836316400413 
661	 0.36323094882166 
662	 0.363627340066022 
663	 0.364062770491534 
664	 0.364601926009595 
665	 0.364950647105548 
666	 0.365326944901119 
667	 0.365942363182618 
668	 0.366317937125254 
669	 0.366758134852928 
670	 0.367290928865197 
671	 0.367710421676906 
672	 0.368204439623128 
673	 0.368726763496579 
674	 0.369217546829773 
675	 0.369675671724284 
676	 0.370162231934306 
677	 0.370652575458011 
678	 0.371107384599259 
679	 0.371680347437214 
680	 0.372216617809045 
681	 0.372694340396595 
682	 0.37329894001249 
683	 0.373850107559968 
684	 0.374324008745205 
685	 0.374771126926691 
686	 0.375351154916765 
687	 0.375890983786126 
688	 0.376404988025061 
689	 0.377025638629949 
690	 0.377558940040718 
691	 0.378070826596094 
692	 0.378626689001881 
693	 0.379220297091691 
694	 0.379777758428407 
695	 0.380320109418136 
696	 0.380888487173706 
697	 0.381399369929095 
698	 0.38198744009753 
699	 0.382657594457296 
700	 0.383267319771599 
701	 0.383785273924025 
702	 0.384295897819474 
703	 0.384861824766529 
704	 0.385409895137978 
705	 0.385903789138825 
706	 0.386460404215009 
707	 0.38720419171436 
708	 0.387618817894527 
709	 0.388054071996096 
710	 0.38866850200328 
711	 0.389211491464417 
712	 0.389853409334609 
713	 0.390427998274676 
714	 0.390803699883992 
715	 0.391320298068096 
716	 0.391847389789646 
717	 0.392375526861716 
718	 0.392968533571609 
719	 0.393417770843148 
720	 0.393744597801401 
721	 0.394054520594335 
722	 0.394541704595509 
723	 0.395095764835839 
724	 0.395605597381546 
725	 0.395992912857115 
726	 0.396346478687311 
727	 0.396745768377722 
728	 0.39716208780873 
729	 0.397475234943742 
730	 0.397811702808554 
731	 0.398080865106787 
732	 0.398251189107324 
733	 0.398518363997554 
734	 0.398838190809194 
735	 0.39913234867022 
736	 0.3993270168723 
737	 0.399496766858739 
738	 0.399718275151008 
739	 0.399932212709428 
740	 0.399944293791772 
741	 0.400039865665931 
742	 0.400244903663278 
743	 0.400457370427658 
744	 0.400392145696642 
745	 0.400273576322005 
746	 0.400235886621018 
747	 0.400329200625686 
748	 0.400365403258531 
749	 0.400319674885301 
750	 0.400203221288697 
751	 0.400051998685136 
752	 0.399997722595338 
753	 0.399953913547495 
754	 0.399822889647176 
755	 0.399627148217184 
756	 0.399500985436863 
757	 0.399376505339524 
758	 0.399109862179712 
759	 0.398852050137143 
760	 0.398580188123359 
761	 0.398323592236448 
762	 0.398190930931545 
763	 0.397969251360578 
764	 0.397663317293464 
765	 0.397336818797158 
766	 0.397058063625953 
767	 0.39672725924184 
768	 0.396398275245941 
769	 0.396164878932817 
770	 0.395809636413975 
771	 0.395463062277473 
772	 0.395167260865295 
773	 0.394822978111356 
774	 0.394486476559433 
775	 0.394172477392961 
776	 0.393866572755603 
777	 0.393500188622503 
778	 0.393127827617151 
779	 0.392717325271564 
780	 0.392238064168004 
781	 0.391916126374013 
782	 0.391647926171764 
783	 0.391314481696237 
784	 0.390826926693577 
785	 0.390445830288424 
786	 0.390114995021751 
787	 0.389757127378489 
788	 0.38941141740657 
789	 0.38898594497843 
790	 0.388564088269986 
791	 0.388243121180563 
792	 0.387809375358866 
793	 0.387442511633717 
794	 0.387147600253159 
795	 0.386771176033407 
796	 0.386361283399969 
797	 0.386002665965478 
798	 0.385695392312269 
799	 0.385267970525768 
800	 0.384977377598965 
801	 0.384716463782455 
802	 0.384323609294234 
803	 0.383862855338812 
804	 0.383623974773924 
805	 0.383463058270651 
806	 0.38302073706904 
807	 0.382667468047281 
808	 0.382292237161136 
809	 0.381878206930237 
810	 0.381589081635324 
811	 0.381332509582851 
812	 0.381065338099852 
813	 0.380776802009795 
814	 0.380523544308365 
815	 0.38017847522467 
816	 0.379833103263583 
817	 0.379620892282964 
818	 0.379372776840093 
819	 0.379089076818022 
820	 0.378796594991494 
821	 0.378531892427572 
822	 0.378243874404547 
823	 0.377989661102644 
824	 0.377771837004258 
825	 0.377479268214484 
826	 0.377252209172584 
827	 0.377074553349379 
828	 0.37687061457901 
829	 0.376515575598589 
830	 0.376201755584814 
831	 0.375962115118964 
832	 0.375757664797515 
833	 0.375667252547932 
834	 0.375575390797424 
835	 0.375388543496409 
836	 0.375071664889116 
837	 0.374840031361749 
838	 0.374709203412836 
839	 0.37463162099313 
840	 0.374521368802889 
841	 0.374376647920943 
842	 0.374189029179923 
843	 0.373964249234117 
844	 0.373731054780648 
845	 0.37358853507036 
846	 0.373533978793663 
847	 0.373485449423916 
848	 0.373246630680677 
849	 0.373078735236083 
850	 0.373042086087341 
851	 0.372989549435443 
852	 0.372773907268549 
853	 0.372653278933696 
854	 0.372686859067366 
855	 0.372568514536625 
856	 0.372559119911098 
857	 0.372517918702662 
858	 0.37233230727017 
859	 0.372187268356967 
860	 0.37211247234976 
861	 0.372097298078474 
862	 0.372104009572835 
863	 0.372097761503834 
864	 0.372044431939261 
865	 0.371994165067216 
866	 0.372026911141682 
867	 0.372049188800368 
868	 0.372018964163811 
869	 0.371980227532277 
870	 0.372039555602941 
871	 0.371999309116923 
872	 0.371967547061778 
873	 0.372025231150646 
874	 0.372126415140657 
875	 0.372151024011053 
876	 0.372149031381069 
877	 0.372172604773802 
878	 0.37213386577332 
879	 0.372295480479777 
880	 0.372463838260804 
881	 0.372399783897302 
882	 0.372381280960995 
883	 0.372500788580007 
884	 0.372660556953077 
885	 0.37270290101278 
886	 0.372824109165928 
887	 0.372973480412831 
888	 0.373044994206094 
889	 0.372957233921097 
890	 0.373143639879889 
891	 0.373422443846962 
892	 0.373643739792704 
893	 0.373808523026315 
894	 0.373861523447246 
895	 0.373909780782928 
896	 0.374054509327744 
897	 0.374323872441635 
898	 0.37456993672479 
899	 0.374752740646657 
900	 0.374898109381169 
901	 0.375110115957531 
902	 0.375310990723769 
903	 0.375514129129264 
904	 0.375734305217675 
905	 0.375866358616305 
906	 0.376076472827196 
907	 0.376338478760956 
908	 0.376550592493276 
909	 0.376754303085918 
910	 0.377041619826088 
911	 0.377372852881001 
912	 0.377636100234922 
913	 0.377890719261232 
914	 0.378146142688042 
915	 0.378430092413732 
916	 0.378770691549287 
917	 0.379019596879883 
918	 0.379298537057684 
919	 0.379685842216186 
920	 0.38014473826354 
921	 0.380372658231333 
922	 0.380625501196763 
923	 0.381046246909982 
924	 0.381465175327536 
925	 0.381779249052894 
926	 0.382114649027589 
927	 0.382550989532213 
928	 0.382981654465838 
929	 0.383457639009063 
930	 0.38382319129082 
931	 0.384065280050522 
932	 0.38460528383565 
933	 0.385032294949254 
934	 0.385388737415923 
935	 0.385798791688104 
936	 0.386207623564554 
937	 0.386655334052031 
938	 0.387185294276581 
939	 0.387814492842505 
940	 0.388515546499834 
941	 0.388903586731732 
942	 0.389236853722703 
943	 0.389873626585903 
944	 0.390449772777432 
945	 0.391023774912182 
946	 0.391599045215838 
947	 0.392145359503612 
948	 0.392598101094431 
949	 0.393078516496112 
950	 0.39355214965143 
951	 0.393971904294594 
952	 0.394646664031879 
953	 0.395394875782527 
954	 0.396041848599191 
955	 0.39652223273413 
956	 0.397194992024796 
957	 0.397836297852026 
958	 0.398398222720348 
959	 0.398967414778005 
960	 0.39959064813252 
961	 0.400188908943521 
962	 0.400813292094564 
963	 0.401556958318186 
964	 0.402226290146101 
965	 0.402884313323695 
966	 0.403548295540035 
967	 0.404210098163838 
968	 0.404961592245248 
969	 0.405698851832037 
970	 0.406400736220357 
971	 0.407120475807296 
972	 0.407930674621072 
973	 0.408747518197829 
974	 0.409561330599473 
975	 0.410384644650544 
976	 0.410992523537743 
977	 0.411618995198463 
978	 0.412399366342009 
979	 0.413285327669693 
980	 0.413802592479683 
981	 0.414325097960498 
982	 0.415063295991068 
983	 0.415997080429518 
984	 0.416759305770255 
985	 0.417591873146793 
986	 0.418440039332813 
987	 0.41913805602671 
988	 0.419951953107362 
989	 0.420850576704318 
990	 0.421671453368579 
991	 0.422304334093613 
992	 0.423149568440384 
993	 0.42376599111897 
994	 0.424386426110845 
995	 0.425361524431918 
996	 0.426158267876176 
997	 0.427028030353834 
998	 0.427911943170684 
999	 0.42871016113023 
1000	 0.429655191442349 
1001	 0.432438522541615 
1002	 0.43318976782923 
1003	 0.433936452593415 
1004	 0.434654924573554 
1005	 0.435318958322786 
1006	 0.436054577096761 
1007	 0.436806793437714 
1008	 0.437548377781115 
1009	 0.438347773916918 
1010	 0.439114236136433 
1011	 0.439810980150653 
1012	 0.440508476158542 
1013	 0.441213228824594 
1014	 0.441846517201084 
1015	 0.442464737347276 
1016	 0.443081001064552 
1017	 0.443681834938992 
1018	 0.444197968592368 
1019	 0.444847635404252 
1020	 0.445601800227507 
1021	 0.446293649540632 
1022	 0.447016604704952 
1023	 0.447678192215528 
1024	 0.448270488882014 
1025	 0.448894676335523 
1026	 0.449487917282168 
1027	 0.450051955048805 
1028	 0.450615078607479 
1029	 0.451151930047791 
1030	 0.451671518865265 
1031	 0.452227110759385 
1032	 0.452805427150441 
1033	 0.45340100134386 
1034	 0.454035273576349 
1035	 0.454671301068305 
1036	 0.455302195688168 
1037	 0.455914691374942 
1038	 0.456426265094689 
1039	 0.45697863535057 
1040	 0.457592681530026 
1041	 0.458182524138354 
1042	 0.458849324967201 
1043	 0.459540731167512 
1044	 0.460174019753906 
1045	 0.460780178849371 
1046	 0.461381441490605 
1047	 0.461953998695751 
1048	 0.462525649676936 
1049	 0.463110670603027 
1050	 0.463714606287998 
1051	 0.464343911719421 
1052	 0.46492815875079 
1053	 0.465542678574416 
1054	 0.466163361756707 
1055	 0.466680528215119 
1056	 0.467181927068373 
1057	 0.467672212270992 
1058	 0.468071139938899 
1059	 0.468538335557026 
1060	 0.469039826438659 
1061	 0.469543296747171 
1062	 0.470018069130906 
1063	 0.470531450830224 
1064	 0.470997292478009 
1065	 0.471397899886113 
1066	 0.471793853054301 
1067	 0.47214817365476 
1068	 0.472525876874181 
1069	 0.472924692317668 
1070	 0.473294422522291 
1071	 0.473692015616781 
1072	 0.474054615487203 
1073	 0.474354320547202 
1074	 0.47466867726689 
1075	 0.474999059622909 
1076	 0.475271130159564 
1077	 0.475561809528405 
1078	 0.475908856930894 
1079	 0.476188021890224 
1080	 0.476457847420725 
1081	 0.476737818076168 
1082	 0.476969649769545 
1083	 0.47721473819944 
1084	 0.477471056990397 
1085	 0.477737326130769 
1086	 0.477973739037246 
1087	 0.478259255974204 
1088	 0.478592577919659 
1089	 0.478900222933935 
1090	 0.479206973725891 
1091	 0.47948093552757 
1092	 0.479751301082183 
1093	 0.480111533191374 
1094	 0.480447362559799 
1095	 0.480779199293501 
1096	 0.481141324717003 
1097	 0.481446321613594 
1098	 0.481803002509911 
1099	 0.482210956957861 
1100	 0.482597398632378 
1101	 0.482946417292425 
1102	 0.483373102097627 
1103	 0.483859433767689 
1104	 0.484291830971526 
1105	 0.484725512627529 
1106	 0.485208693088763 
1107	 0.485637885830569 
1108	 0.486085195651507 
1109	 0.486596124338402 
1110	 0.487115568868335 
1111	 0.487635850130356 
1112	 0.48815369571426 
1113	 0.488686713837694 
1114	 0.489251060772459 
1115	 0.489788998031408 
1116	 0.490298899846165 
1117	 0.490856508898649 
1118	 0.491427201669252 
1119	 0.491989000273161 
1120	 0.492630442401734 
1121	 0.493259934221633 
1122	 0.493814172894203 
1123	 0.494395828699919 
1124	 0.49497997473254 
1125	 0.495544134106623 
1126	 0.496118750740753 
1127	 0.496702548013906 
1128	 0.497299986287694 
1129	 0.497903310319719 
1130	 0.498486107348698 
1131	 0.499090869499222 
1132	 0.499681389488598 
1133	 0.500228806605237 
1134	 0.500798222042919 
1135	 0.501393049879023 
1136	 0.501975070366961 
1137	 0.502517758150582 
1138	 0.503071327144835 
1139	 0.503632924338016 
1140	 0.50419305330448 
1141	 0.504742905594783 
1142	 0.505306675301459 
1143	 0.505847109592414 
1144	 0.506360076559764 
1145	 0.506881379493001 
1146	 0.50741398997927 
1147	 0.507922674125764 
1148	 0.508410146800722 
1149	 0.5089043520074 
1150	 0.50938536013894 
1151	 0.509876339943526 
1152	 0.510367908370947 
1153	 0.510861621647759 
1154	 0.511315380853704 
1155	 0.511749996842846 
1156	 0.512161899406907 
1157	 0.512537522997691 
1158	 0.512922366328555 
1159	 0.513290243487829 
1160	 0.513671129485205 
1161	 0.514064558774201 
1162	 0.514438392837554 
1163	 0.514805000402458 
1164	 0.515169057719335 
1165	 0.515535032921737 
1166	 0.515868940712336 
1167	 0.516224786158918 
1168	 0.516582592605782 
1169	 0.51691454521502 
1170	 0.517243412117382 
1171	 0.517547140064623 
1172	 0.517821857286209 
1173	 0.518103610959876 
1174	 0.518373781745651 
1175	 0.518641730308219 
1176	 0.518897910360801 
1177	 0.519166900360755 
1178	 0.519426274595706 
1179	 0.519706082541345 
1180	 0.52002371084004 
1181	 0.520311724780402 
1182	 0.520594796656789 
1183	 0.520880088535925 
1184	 0.521138845926459 
1185	 0.521364330696713 
1186	 0.521616578883874 
1187	 0.521866767090909 
1188	 0.522120829751824 
1189	 0.52239178779007 
1190	 0.522640472097302 
1191	 0.522889053106591 
1192	 0.523117857511951 
1193	 0.52332139327249 
1194	 0.523536318871844 
1195	 0.523741587324055 
1196	 0.523948843092679 
1197	 0.524164936046281 
1198	 0.524374711039699 
1199	 0.524580984913923 
1200	 0.524778952306118 
1201	 0.524987199897227 
1202	 0.52520359389807 
1203	 0.5254035382561 
1204	 0.525591946019706 
1205	 0.525799038718678 
1206	 0.526014921603105 
1207	 0.526210267662594 
1208	 0.526416466317166 
1209	 0.526605973738591 
1210	 0.526759803440179 
1211	 0.526931407982399 
1212	 0.527117133931962 
1213	 0.527290726286129 
1214	 0.527456566550103 
1215	 0.527625045711895 
1216	 0.527791908428797 
1217	 0.527960582255963 
1218	 0.528109479711351 
1219	 0.528249508034575 
1220	 0.52839359499229 
1221	 0.528515773096228 
1222	 0.528662090348962 
1223	 0.528828490677742 
1224	 0.52898411356747 
1225	 0.529144829535841 
1226	 0.529298180865686 
1227	 0.529449610059954 
1228	 0.529594949878909 
1229	 0.529723107847485 
1230	 0.529868994157444 
1231	 0.530031287527028 
1232	 0.530177189544979 
1233	 0.530320197729022 
1234	 0.530474515328966 
1235	 0.530605112345839 
1236	 0.530706960250382 
1237	 0.530833055471962 
1238	 0.530970457429272 
1239	 0.531089180780966 
1240	 0.531192023532766 
1241	 0.531322965552031 
1242	 0.531474258260584 
1243	 0.531592869373397 
1244	 0.531717683744067 
1245	 0.531833382373395 
1246	 0.531904944562448 
1247	 0.531998868977245 
1248	 0.532111836819291 
1249	 0.532225288573258 
1250	 0.532325190225121 
1251	 0.532421456650302 
1252	 0.532533724392643 
1253	 0.532654072099433 
1254	 0.532767667622301 
1255	 0.532901272091763 
1256	 0.533001793824888 
1257	 0.533070463903592 
1258	 0.53316366002124 
1259	 0.533256884846316 
1260	 0.533346906408951 
1261	 0.533463702706629 
1262	 0.533546241762989 
1263	 0.533578908078224 
1264	 0.533652663738431 
1265	 0.533738286315115 
1266	 0.533817661578425 
1267	 0.533912800985065 
1268	 0.534018162427409 
1269	 0.534109472020927 
1270	 0.534168807291927 
1271	 0.534283887118715 
1272	 0.534426750491372 
1273	 0.534562207218901 
1274	 0.534718347301748 
1275	 0.534873010043238 
1276	 0.535022783643606 
1277	 0.535183929108941 
1278	 0.535360376213656 
1279	 0.535536779755864 
1280	 0.535718696404891 
1281	 0.535897225786597 
1282	 0.536098997251398 
1283	 0.536269310649618 
1284	 0.536427685046741 
1285	 0.536570798554972 
1286	 0.536683925937691 
1287	 0.536775143096104 
1288	 0.536849094841644 
1289	 0.536901961792294 
1290	 0.536935259960907 
1291	 0.536960279876345 
1292	 0.536934550476489 
1293	 0.536879298703182 
1294	 0.536789709792015 
1295	 0.536639351605024 
1296	 0.536506381309377 
1297	 0.536345840688053 
1298	 0.536198032308187 
1299	 0.536065665549882 
1300	 0.535908311166818 
1301	 0.535743954573309 
1302	 0.535563089547206 
1303	 0.535361198188445 
1304	 0.535150922870912 
1305	 0.534932310620339 
1306	 0.534735752764455 
1307	 0.534536944934542 
1308	 0.534324677601576 
1309	 0.534129934242678 
1310	 0.533936179389975 
1311	 0.533757879610092 
1312	 0.533588811437931 
1313	 0.533436608474943 
1314	 0.533298400479443 
1315	 0.533161263089147 
1316	 0.533026199448383 
1317	 0.532922474738605 
1318	 0.532817774947506 
1319	 0.532755571962307 
1320	 0.53274220969849 
1321	 0.532727112883952 
1322	 0.532723815372961 
1323	 0.532743119476666 
1324	 0.532784119178325 
1325	 0.532836942485505 
1326	 0.532920392801744 
1327	 0.533029698374872 
1328	 0.533116333371681 
1329	 0.533222975622976 
1330	 0.533357811148918 
1331	 0.53348433766551 
1332	 0.533681647373567 
1333	 0.533945453867633 
1334	 0.534186392277378 
1335	 0.534449127067763 
1336	 0.534729586453662 
1337	 0.535019429149008 
1338	 0.535309102209313 
1339	 0.535642816210411 
1340	 0.535934289745191 
1341	 0.536182177574308 
1342	 0.536462620517491 
1343	 0.536748824351303 
1344	 0.537026484029608 
1345	 0.537341248766323 
1346	 0.537663080155692 
1347	 0.537970773730897 
1348	 0.538305973994736 
1349	 0.53862628140774 
1350	 0.538918591653063 
1351	 0.539214262736122 
1352	 0.539491500880208 
1353	 0.539788384286129 
1354	 0.540097966891322 
1355	 0.540390877494814 
1356	 0.540689579883579 
1357	 0.540979055625249 
1358	 0.54125326718932 
1359	 0.541528194822635 
1360	 0.541806026303502 
1361	 0.542069798875941 
1362	 0.542319458683367 
1363	 0.542571762759502 
1364	 0.542817969928714 
1365	 0.54306915742545 
1366	 0.543324133256033 
1367	 0.543574213126134 
1368	 0.543827431431264 
1369	 0.544043490411179 
1370	 0.544246905477491 
1371	 0.544438096523081 
1372	 0.544602977153343 
1373	 0.544774286867599 
1374	 0.544924245096754 
1375	 0.545060619526166 
1376	 0.545181899348696 
1377	 0.545289041648256 
1378	 0.545384717883815 
1379	 0.545472374417466 
1380	 0.54553493407386 
1381	 0.545581156715408 
1382	 0.545610079180844 
1383	 0.545629224402047 
1384	 0.545612102758854 
1385	 0.54560813230536 
1386	 0.545518079862923 
1387	 0.545376776334542 
1388	 0.545179656336585 
1389	 0.54492654926695 
1390	 0.544602960416323 
1391	 0.544252414376393 
1392	 0.543841012786404 
1393	 0.5433728220367 
1394	 0.542878631306538 
1395	 0.542314534159905 
1396	 0.541733245140645 
1397	 0.541138223207671 
1398	 0.540494833492132 
1399	 0.539884125693985 
1400	 0.539261755598558 
1401	 0.538676637448029 
1402	 0.538095491839904 
1403	 0.537557827471062 
1404	 0.537028464214727 
1405	 0.536570038707693 
1406	 0.536139185596962 
1407	 0.535792662369995 
1408	 0.535493720272576 
1409	 0.535293640177178 
1410	 0.53513337865209 
1411	 0.535117416215098 
1412	 0.53520530200987 
1413	 0.535395126442391 
1414	 0.535754641039622 
1415	 0.536215141782972 
1416	 0.536771339531513 
1417	 0.537444918513769 
1418	 0.5381486640585 
1419	 0.538851503649746 
1420	 0.539558779824687 
1421	 0.540225494342789 
1422	 0.540813703581789 
1423	 0.541353369435886 
1424	 0.541827064926302 
1425	 0.542227914740048 
1426	 0.542587261888994 
1427	 0.542886642346442 
1428	 0.543162128744177 
1429	 0.543394770228281 
1430	 0.543587765655169 
1431	 0.543729979854812 
1432	 0.543862119006128 
1433	 0.543947055298486 
1434	 0.544040282323125 
1435	 0.544117205016143 
1436	 0.544202073232294 
1437	 0.544291278069834 
1438	 0.54436252543708 
1439	 0.544426945954876 
1440	 0.544499350418742 
1441	 0.544533758834175 
1442	 0.544538788600047 
1443	 0.544535928353916 
1444	 0.544510901439424 
1445	 0.544487327350792 
1446	 0.544462749225555 
1447	 0.544416214150472 
1448	 0.544366947137154 
1449	 0.544314097052879 
1450	 0.544243943278209 
1451	 0.544182982728088 
1452	 0.544124235160394 
1453	 0.544072911335489 
1454	 0.544029160250915 
1455	 0.543974340843985 
1456	 0.543929798687884 
1457	 0.543862043864398 
1458	 0.54376437984027 
1459	 0.5436799506212 
1460	 0.543592216169605 
1461	 0.543514076922239 
1462	 0.543451432176418 
1463	 0.543375695265616 
1464	 0.54328145720127 
1465	 0.543208305669796 
1466	 0.543121971096144 
1467	 0.543070341273015 
1468	 0.543044783473029 
1469	 0.543039547176293 
1470	 0.543054553543725 
1471	 0.543094163347342 
1472	 0.543139647973825 
1473	 0.543208997532043 
1474	 0.543278775073936 
1475	 0.543337208452261 
1476	 0.543413939231907 
1477	 0.543508234279867 
1478	 0.543626517498269 
1479	 0.543757272406238 
1480	 0.543909806958966 
1481	 0.544064875973205 
1482	 0.544185941887173 
1483	 0.544283530924268 
1484	 0.544402876570713 
1485	 0.544503212606828 
1486	 0.544620794650222 
1487	 0.544766881339884 
1488	 0.544892686800432 
1489	 0.545012277553781 
1490	 0.545119059894163 
1491	 0.545223542545157 
1492	 0.545314961985714 
1493	 0.545386067961623 
1494	 0.545462055697174 
1495	 0.545536802088604 
1496	 0.545606877745481 
1497	 0.545668177178719 
1498	 0.545735701745188 
1499	 0.54580026800804 
1500	 0.545864312372568 
1501	 0.545929083376084 
1502	 0.545998654329134 
1503	 0.546072715987275 
1504	 0.546145487269015 
1505	 0.546213319597422 
1506	 0.546279723694524 
1507	 0.546340920438065 
1508	 0.54637648569559 
1509	 0.546404546100491 
1510	 0.54644093804922 
1511	 0.546458449442996 
1512	 0.546485974828633 
1513	 0.546555144944858 
1514	 0.546624938683185 
1515	 0.546719268792673 
1516	 0.546841506470658 
1517	 0.546914393865552 
1518	 0.546962791341884 
1519	 0.547016386321611 
1520	 0.547044378626469 
1521	 0.547086465664926 
1522	 0.547136584041944 
1523	 0.547188737129155 
1524	 0.547232872280577 
1525	 0.547296840951989 
1526	 0.547376529493133 
1527	 0.547451107809544 
1528	 0.547542466389694 
1529	 0.547606069181748 
1530	 0.547659590109502 
1531	 0.547712442978922 
1532	 0.547743203618341 
1533	 0.547790095715136 
1534	 0.547851185900446 
1535	 0.547895145490834 
1536	 0.547923650340186 
1537	 0.547973082271269 
1538	 0.548023309384898 
1539	 0.548076128815505 
1540	 0.548149634006014 
1541	 0.548216007113671 
1542	 0.548288007550537 
1543	 0.548339539177761 
1544	 0.548388386916419 
1545	 0.548418684459811 
1546	 0.548409476972563 
1547	 0.548416591515463 
1548	 0.548452101064261 
1549	 0.548501329974293 
1550	 0.548573102761279 
1551	 0.548644261562372 
1552	 0.548686514326591 
1553	 0.548724903946809 
1554	 0.548779483056918 
1555	 0.54884292705253 
1556	 0.548920222085346 
1557	 0.549005200207083 
1558	 0.549095480940631 
1559	 0.549166628856873 
1560	 0.549235472677994 
1561	 0.54930144847748 
1562	 0.549360957739536 
1563	 0.549401268347158 
1564	 0.549470491787337 
1565	 0.549541480940726 
1566	 0.549634996367112 
1567	 0.549758363176899 
1568	 0.549863096569684 
1569	 0.549986714376654 
1570	 0.550064466042378 
1571	 0.550112990352624 
1572	 0.550175423422003 
1573	 0.550217669162124 
1574	 0.550270544175759 
1575	 0.550329546032925 
1576	 0.550393367837368 
1577	 0.550465837277337 
1578	 0.5505147589295 
1579	 0.550570504995559 
1580	 0.550605744229788 
1581	 0.550598173971384 
1582	 0.55061998380691 
1583	 0.550646901550846 
1584	 0.550682648697163 
1585	 0.550717589627424 
1586	 0.550775473408507 
1587	 0.550856126095228 
1588	 0.550932632057345 
1589	 0.551039412422738 
1590	 0.551118913761142 
1591	 0.55118003103781 
1592	 0.551241798683459 
1593	 0.551296859350215 
1594	 0.551345785229469 
1595	 0.551379497902772 
1596	 0.551430899238488 
1597	 0.551481382273524 
1598	 0.551536072355493 
1599	 0.551624678657091 
1600	 0.551684249878883 
1601	 0.551709993732553 
1602	 0.551759896889271 
1603	 0.551813178925949 
1604	 0.551859291010338 
1605	 0.551922876729687 
1606	 0.55197857725701 
1607	 0.552022456404336 
1608	 0.552059859006816 
1609	 0.552107383928925 
1610	 0.552143546953935 
1611	 0.552179264354181 
1612	 0.552220697115156 
1613	 0.552254538013055 
1614	 0.552303183577773 
1615	 0.552362146796639 
1616	 0.552412350966692 
1617	 0.552482117974901 
1618	 0.552557867049885 
1619	 0.552592839112176 
1620	 0.552634466680988 
1621	 0.552689157608579 
1622	 0.552737476820402 
1623	 0.552793149967225 
1624	 0.552869889673057 
1625	 0.552931062326056 
1626	 0.552979757414501 
1627	 0.553037080952077 
1628	 0.55310720279102 
1629	 0.553158234451979 
1630	 0.553197602166062 
1631	 0.553238405457182 
1632	 0.55326651518585 
1633	 0.553313680862371 
1634	 0.553366706392904 
1635	 0.553425798548237 
1636	 0.553504216455844 
1637	 0.553554253963761 
1638	 0.553589982477139 
1639	 0.553643597984606 
1640	 0.553697634633739 
1641	 0.553739121180753 
1642	 0.553786236590561 
1643	 0.553830549088826 
1644	 0.553833778083047 
1645	 0.553907285951293 
1646	 0.554034859203281 
1647	 0.554122984136908 
1648	 0.554236190405319 
1649	 0.55431854165396 
1650	 0.554359165612685 
1651	 0.554430100411272 
1652	 0.554528528047836 
1653	 0.554575716769966 
1654	 0.554617154710192 
1655	 0.5546224304089 
1656	 0.554557318312239 
1657	 0.554554582695645 
1658	 0.554554090107949 
1659	 0.554573624143622 
1660	 0.554629322413016 
1661	 0.554676179555352 
1662	 0.554720899994618 
1663	 0.554780964510965 
1664	 0.554869470394704 
1665	 0.554925902048385 
1666	 0.554972336242217 
1667	 0.555023747109257 
1668	 0.555062891120723 
1669	 0.555101447207187 
1670	 0.555153094908067 
1671	 0.555183579276175 
1672	 0.555171230312679 
1673	 0.555215118059312 
1674	 0.555280246482828 
1675	 0.55534587262385 
1676	 0.555449964302114 
1677	 0.555529072600375 
1678	 0.555593725928715 
1679	 0.555663380196509 
1680	 0.555736278451152 
1681	 0.555802497893993 
1682	 0.555858218886189 
1683	 0.555924116550937 
1684	 0.55600142261324 
1685	 0.556058603002246 
1686	 0.556099615812761 
1687	 0.556164001395441 
1688	 0.556233519376214 
1689	 0.556290559183002 
1690	 0.556367119986009 
1691	 0.556420638827823 
1692	 0.556440732651429 
1693	 0.556476676082712 
1694	 0.556514460738883 
1695	 0.556557371912203 
1696	 0.55659984613602 
1697	 0.556648071159992 
1698	 0.556698371012892 
1699	 0.556764291102264 
1700	 0.556840151078655 
1701	 0.556917229627006 
1702	 0.55702481620676 
1703	 0.557088205262003 
1704	 0.557141141550376 
1705	 0.557171311781164 
1706	 0.557165649014619 
1707	 0.557166774911779 
1708	 0.557138218002549 
1709	 0.55714365863694 
1710	 0.557148965172385 
1711	 0.557187386434985 
1712	 0.557266274813426 
1713	 0.557333464334047 
1714	 0.557416119532859 
1715	 0.557490439922777 
1716	 0.557559252869896 
1717	 0.557633872965288 
1718	 0.55772443498571 
1719	 0.55778559285849 
1720	 0.557844340769815 
1721	 0.557875945373414 
1722	 0.557868971616035 
1723	 0.557882765709052 
1724	 0.557891315324186 
1725	 0.557904145530118 
1726	 0.557913288576078 
1727	 0.557943351674446 
1728	 0.557987606159701 
1729	 0.558012228574201 
1730	 0.558071195233916 
1731	 0.558063910172816 
1732	 0.558008712623337 
1733	 0.557958938239139 
1734	 0.55786276199074 
1735	 0.557808874138179 
1736	 0.557777363729612 
1737	 0.557727657078563 
1738	 0.557673727414302 
1739	 0.557643644542859 
1740	 0.55760130304628 
1741	 0.557595848764302 
1742	 0.557642731679053 
1743	 0.557650959062432 
1744	 0.557656628134745 
1745	 0.557654615637305 
1746	 0.557628542476528 
1747	 0.557650437334601 
1748	 0.557686962196629 
1749	 0.557705847066099 
1750	 0.557700423643971 
1751	 0.557661638645372 
1752	 0.557595098454403 
1753	 0.557543581724233 
1754	 0.557506724170557 
1755	 0.557507965003647 
1756	 0.557504750404037 
1757	 0.557500765443469 
1758	 0.55753354139474 
1759	 0.557518947180667 
1760	 0.557480028826943 
1761	 0.557470916173071 
1762	 0.557437374208915 
1763	 0.557375348385565 
1764	 0.557370272984231 
1765	 0.557416761879925 
1766	 0.557466640372378 
1767	 0.557555432029519 
1768	 0.557630576880827 
1769	 0.55761714820153 
1770	 0.557577720174451 
1771	 0.557556810166586 
1772	 0.557537217337076 
1773	 0.557498774513989 
1774	 0.557475444010934 
1775	 0.557449807018633 
1776	 0.557393637900068 
1777	 0.557406325944116 
1778	 0.557452424669837 
1779	 0.557484337573585 
1780	 0.557547507410645 
1781	 0.557616038701013 
1782	 0.557656404380924 
1783	 0.557702114123708 
1784	 0.557741600779842 
1785	 0.557765492395665 
1786	 0.557778203488751 
1787	 0.557783297653109 
1788	 0.557783485346674 
1789	 0.557741227137913 
1790	 0.557771080174958 
1791	 0.557854928961587 
1792	 0.557893229671993 
1793	 0.557983621679565 
1794	 0.558001670230924 
1795	 0.557929183819257 
1796	 0.557905197831813 
1797	 0.557862044259253 
1798	 0.557849272032213 
1799	 0.557862024198957 
1800	 0.557897074176019 
1801	 0.553258865440427 
1802	 0.553301846236067 
1803	 0.553342169543954 
1804	 0.553421564979467 
1805	 0.553488447414157 
1806	 0.553558925078642 
1807	 0.553659225888657 
1808	 0.553740480699726 
1809	 0.553803204607921 
1810	 0.553862586605078 
1811	 0.553945791136187 
1812	 0.553995374602834 
1813	 0.553955916183223 
1814	 0.553911662538516 
1815	 0.553859991346016 
1816	 0.553791027777578 
1817	 0.553779470454898 
1818	 0.553829038406801 
1819	 0.553847306239248 
1820	 0.553878757233563 
1821	 0.553901654418616 
1822	 0.553910024799796 
1823	 0.553903987008293 
1824	 0.55386382664479 
1825	 0.553832065595169 
1826	 0.553764808832486 
1827	 0.553675252953213 
1828	 0.553584490421357 
1829	 0.553467289506931 
1830	 0.553356210776206 
1831	 0.553249247788672 
1832	 0.553136944494771 
1833	 0.552992984204213 
1834	 0.552871203996195 
1835	 0.552758214510606 
1836	 0.552631657675707 
1837	 0.552484281723058 
1838	 0.552352084791291 
1839	 0.552236967308937 
1840	 0.552132781157055 
1841	 0.551994313773322 
1842	 0.551878123704354 
1843	 0.551799188150207 
1844	 0.551687678220178 
1845	 0.551598968981696 
1846	 0.551556955740184 
1847	 0.551504095416965 
1848	 0.551464382785712 
1849	 0.551488012195403 
1850	 0.551547745761547 
1851	 0.551662122147221 
1852	 0.551780046185348 
1853	 0.551922386403124 
1854	 0.552042746858827 
1855	 0.552110004885913 
1856	 0.552184523128854 
1857	 0.55225321403425 
1858	 0.552313669176025 
1859	 0.552365843672164 
1860	 0.552433435949386 
1861	 0.552514501810372 
1862	 0.552578762530772 
1863	 0.552634381887497 
1864	 0.55273559477953 
1865	 0.552836863615574 
1866	 0.552956267043809 
1867	 0.553041179766866 
1868	 0.553076183753687 
1869	 0.553112682415489 
1870	 0.553119925883158 
1871	 0.553141108372244 
1872	 0.553188786366852 
1873	 0.553238050894608 
1874	 0.55320739821062 
1875	 0.553178525874945 
1876	 0.553105689686007 
1877	 0.552976462406316 
1878	 0.552844512344531 
1879	 0.552672432918082 
1880	 0.552451936728483 
1881	 0.552185231529466 
1882	 0.551890288512877 
1883	 0.551572170282251 
1884	 0.551166731180112 
1885	 0.550744508146573 
1886	 0.550287057981757 
1887	 0.549769803560809 
1888	 0.549273423735258 
1889	 0.548741585549396 
1890	 0.548150493999633 
1891	 0.547576380573652 
1892	 0.546974904256706 
1893	 0.54638533010836 
1894	 0.545783523749051 
1895	 0.545233892780281 
1896	 0.544655275261642 
1897	 0.544069675717111 
1898	 0.543503742299664 
1899	 0.542986485850084 
1900	 0.542543982952102 
1901	 0.542208898937219 
1902	 0.541956076484116 
1903	 0.541811785850281 
1904	 0.541714853395615 
1905	 0.541710872607854 
1906	 0.541750738704463 
1907	 0.541792189110791 
1908	 0.54185958267505 
1909	 0.541932559895032 
1910	 0.541984318017128 
1911	 0.542062796650184 
1912	 0.542144713187823 
1913	 0.542226296360546 
1914	 0.542321823863279 
1915	 0.542383675354379 
1916	 0.542434397458809 
1917	 0.54248226257799 
1918	 0.542496561479129 
1919	 0.542523908366683 
1920	 0.542589333205134 
1921	 0.54266421288685 
1922	 0.542755711933903 
1923	 0.542847287681674 
1924	 0.542916476632556 
1925	 0.542974622205384 
1926	 0.543025874781324 
1927	 0.54305732614036 
1928	 0.543095826879055 
1929	 0.543127679263077 
1930	 0.543149195455539 
1931	 0.543171787795938 
1932	 0.543152524190351 
1933	 0.543116492087063 
1934	 0.543106122604795 
1935	 0.543109183082157 
1936	 0.543114552530085 
1937	 0.543139458646585 
1938	 0.543186125430196 
1939	 0.543234757921891 
1940	 0.543276813766939 
1941	 0.543350665155453 
1942	 0.543450348049383 
1943	 0.54359359478656 
1944	 0.543759978041315 
1945	 0.543926486414739 
1946	 0.544079636009013 
1947	 0.544237081697581 
1948	 0.544370794270356 
1949	 0.544500483016582 
1950	 0.544602378883912 
1951	 0.544667650234977 
1952	 0.544748082420488 
1953	 0.544819435748129 
1954	 0.544893235177704 
1955	 0.544979093201937 
1956	 0.545041951181437 
1957	 0.54511971424812 
1958	 0.54518737708993 
1959	 0.545270471577623 
1960	 0.545374145612308 
1961	 0.545474039651261 
1962	 0.545575953574357 
1963	 0.545679282179492 
1964	 0.54578252602926 
1965	 0.545889668166785 
1966	 0.546009249964794 
1967	 0.546110163257884 
1968	 0.546220478212191 
1969	 0.546326948274067 
1970	 0.546452666282211 
1971	 0.54659178683087 
1972	 0.546731401165237 
1973	 0.546885458027012 
1974	 0.547031422824896 
1975	 0.547176553123584 
1976	 0.547315144616773 
1977	 0.547445835522804 
1978	 0.547592880374513 
1979	 0.547747798138289 
1980	 0.547898105720136 
1981	 0.548040806566806 
1982	 0.548185742292756 
1983	 0.548333367427557 
1984	 0.548468142850851 
1985	 0.548608914327551 
1986	 0.548758508198273 
1987	 0.54890964749327 
1988	 0.54904522082338 
1989	 0.549202294371086 
1990	 0.549397236260989 
1991	 0.549605559885801 
1992	 0.549790415524512 
1993	 0.549995118719199 
1994	 0.550165571461926 
1995	 0.55028625292924 
1996	 0.550445371239028 
1997	 0.550595430454298 
1998	 0.550782790722774 
1999	 0.550998169170622 
2000	 0.551222996699929 
2001	 0.551488737786108 
2002	 0.551737378617093 
2003	 0.551976930600406 
2004	 0.552199262888521 
2005	 0.552417555269894 
2006	 0.552612707189911 
2007	 0.552827236690776 
2008	 0.553046767467525 
2009	 0.553262521303799 
2010	 0.553482356739062 
2011	 0.553692404243997 
2012	 0.553891353732569 
2013	 0.554099960120939 
2014	 0.554288170307092 
2015	 0.554510204010069 
2016	 0.554765005508769 
2017	 0.55502992505704 
2018	 0.555298398990188 
2019	 0.555610348572787 
2020	 0.555876237347364 
2021	 0.556131372898983 
2022	 0.556367339176235 
2023	 0.556570782551355 
2024	 0.556789869636105 
2025	 0.557007785480094 
2026	 0.557212088761674 
2027	 0.557424043414978 
2028	 0.5576167719072 
2029	 0.557799325434475 
2030	 0.557946720244606 
2031	 0.558141326719579 
2032	 0.558337550661382 
2033	 0.558561199136123 
2034	 0.558829254839786 
2035	 0.559067831438441 
2036	 0.559334375102473 
2037	 0.559552914522363 
2038	 0.559747917994426 
2039	 0.559923248325486 
2040	 0.560082043826078 
2041	 0.560187734973116 
2042	 0.560307706804117 
2043	 0.560432707481549 
2044	 0.560556639752319 
2045	 0.560681388582685 
2046	 0.56081027533105 
2047	 0.560948643205075 
2048	 0.561067147677027 
2049	 0.561183097474129 
2050	 0.561286810500941 
2051	 0.561346492297702 
2052	 0.561450312169209 
2053	 0.561588044591137 
2054	 0.561703184837289 
2055	 0.561828758777341 
2056	 0.56195728106412 
2057	 0.562064011578203 
2058	 0.562131656272812 
2059	 0.562237823106787 
2060	 0.562357875489116 
2061	 0.562473072173896 
2062	 0.562596644820161 
2063	 0.562719033100188 
2064	 0.562838545784014 
2065	 0.562962003952734 
2066	 0.563113234391595 
2067	 0.563226330121294 
2068	 0.563335629630551 
2069	 0.56340368231601 
2070	 0.563485628430436 
2071	 0.563538110914437 
2072	 0.563628061159546 
2073	 0.563746537885597 
2074	 0.563828976582934 
2075	 0.563894850244682 
2076	 0.56398224243697 
2077	 0.56406360914951 
2078	 0.564149713796924 
2079	 0.564261576599556 
2080	 0.5643587535641 
2081	 0.56445431867023 
2082	 0.564526194462617 
2083	 0.564591483341797 
2084	 0.564641960702718 
2085	 0.564693334992256 
2086	 0.564722104986598 
2087	 0.564760913516778 
2088	 0.564802823240311 
2089	 0.564850223890031 
2090	 0.564887468935795 
2091	 0.564939454184021 
2092	 0.565006320075412 
2093	 0.565075974597159 
2094	 0.565147908546163 
2095	 0.565223520807281 
2096	 0.565311169808359 
2097	 0.565397599079528 
2098	 0.565473621905957 
2099	 0.56557385128331 
2100	 0.565667053128581 
2101	 0.565770547047185 
2102	 0.565853985047441 
2103	 0.5659267354774 
2104	 0.566012352146383 
2105	 0.566062283220543 
2106	 0.566180939671201 
2107	 0.566343193740312 
2108	 0.566504379178262 
2109	 0.566711099735594 
2110	 0.566904397374754 
2111	 0.567094236742169 
2112	 0.567286570014695 
2113	 0.567489811980024 
2114	 0.567690624478672 
2115	 0.567876263806784 
2116	 0.568054742706675 
2117	 0.568230390148867 
2118	 0.568374247825713 
2119	 0.568573998044009 
2120	 0.568794325420394 
2121	 0.569023004696093 
2122	 0.569304947384011 
2123	 0.569540943427601 
2124	 0.569777179539504 
2125	 0.569982683546058 
2126	 0.570165383105132 
2127	 0.570331672464654 
2128	 0.570478504013811 
2129	 0.570601115481489 
2130	 0.570693827574996 
2131	 0.570782836306661 
2132	 0.570852664650651 
2133	 0.570912493856 
2134	 0.570925671464117 
2135	 0.570924739660633 
2136	 0.570876458769748 
2137	 0.570770522145782 
2138	 0.570658471811248 
2139	 0.570531614744396 
2140	 0.570359831882786 
2141	 0.570139402184996 
2142	 0.569921890396347 
2143	 0.569656024778665 
2144	 0.569410708849534 
2145	 0.569201805939443 
2146	 0.568943441965137 
2147	 0.568678226399079 
2148	 0.568371272473972 
2149	 0.568040852236954 
2150	 0.567672358750314 
2151	 0.567280969127893 
2152	 0.566868358690754 
2153	 0.566423400126924 
2154	 0.565947129849939 
2155	 0.565438506154684 
2156	 0.564905873815645 
2157	 0.564335784276363 
2158	 0.563712531186964 
2159	 0.563083308918459 
2160	 0.562420025294421 
2161	 0.561751514494068 
2162	 0.561052847487632 
2163	 0.560373957175042 
2164	 0.559696719716033 
2165	 0.559020863695918 
2166	 0.558327802940226 
2167	 0.557640055834465 
2168	 0.556936304098934 
2169	 0.556236114867186 
2170	 0.555467503956959 
2171	 0.55469794536303 
2172	 0.553843484948488 
2173	 0.552891044816719 
2174	 0.551949316582877 
2175	 0.550978566941344 
2176	 0.54997488086155 
2177	 0.548925656220382 
2178	 0.547881810886971 
2179	 0.546799773350452 
2180	 0.545724007160039 
2181	 0.544652894659038 
2182	 0.543578132268211 
2183	 0.542490474973726 
2184	 0.54141114062853 
2185	 0.540306093825402 
2186	 0.539185611824529 
2187	 0.538072859518564 
2188	 0.536928109195688 
2189	 0.535828936259276 
2190	 0.534728876347381 
2191	 0.533693876292087 
2192	 0.532657025162414 
2193	 0.53172861437624 
2194	 0.530843015382815 
2195	 0.530079315881784 
2196	 0.52942627267229 
2197	 0.528836642825825 
2198	 0.528338317548844 
2199	 0.527928590212074 
2200	 0.527612094268525 
2201	 0.527353755654628 
2202	 0.527202562832003 
2203	 0.527089117316358 
2204	 0.527046676178783 
2205	 0.527053415667732 
2206	 0.527148000611189 
2207	 0.527315346182616 
2208	 0.527568814016118 
2209	 0.527905329694472 
2210	 0.528309736869604 
2211	 0.528836898519183 
2212	 0.529348421812332 
2213	 0.529951285504201 
2214	 0.530487070022389 
2215	 0.53100356928976 
2216	 0.531537927423483 
2217	 0.532063530858335 
2218	 0.532587116810244 
2219	 0.533165603530995 
2220	 0.533669699436221 
2221	 0.534103200023145 
2222	 0.534567554719583 
2223	 0.535019457019011 
2224	 0.535383603399728 
2225	 0.535700998915835 
2226	 0.535997089722989 
2227	 0.536204883782011 
2228	 0.536302546535844 
2229	 0.536431401017577 
2230	 0.53653393574453 
2231	 0.536599089467794 
2232	 0.536625165134666 
2233	 0.536658418737889 
2234	 0.536651556764913 
2235	 0.536664050659386 
2236	 0.536704817555126 
2237	 0.536700763258572 
2238	 0.536683026741587 
2239	 0.53663610259963 
2240	 0.53656373679731 
2241	 0.536467243413843 
2242	 0.53633235628119 
2243	 0.536194813715279 
2244	 0.536032742563687 
2245	 0.535873691735176 
2246	 0.535702826163103 
2247	 0.535479433984279 
2248	 0.535242100829662 
2249	 0.534960074453284 
2250	 0.534694516945869 
2251	 0.534403886397762 
2252	 0.534155580796091 
2253	 0.533915465685915 
2254	 0.533700403704047 
2255	 0.533497274784373 
2256	 0.53332734817584 
2257	 0.533161708454795 
2258	 0.533068589086785 
2259	 0.533048053818202 
2260	 0.533018244943906 
2261	 0.533005551095172 
2262	 0.533046411486339 
2263	 0.53309279998846 
2264	 0.533204619388221 
2265	 0.533412028947969 
2266	 0.533616923851609 
2267	 0.533856037971178 
2268	 0.534108946426418 
2269	 0.534384478961618 
2270	 0.534667249909741 
2271	 0.53498936817867 
2272	 0.535349292405346 
2273	 0.535710856051851 
2274	 0.536107283007065 
2275	 0.536467014903481 
2276	 0.53679919232947 
2277	 0.537161023115452 
2278	 0.537530013911949 
2279	 0.537890543910873 
2280	 0.538255811348304 
2281	 0.538648891033365 
2282	 0.539032575474853 
2283	 0.539442617261839 
2284	 0.539926196691471 
2285	 0.540344540759196 
2286	 0.540751857048966 
2287	 0.541128648147437 
2288	 0.5414483224976 
2289	 0.541779001464415 
2290	 0.542103983042525 
2291	 0.542422830631247 
2292	 0.542721882722348 
2293	 0.543049223964435 
2294	 0.543394662689748 
2295	 0.543711397363196 
2296	 0.544009889484022 
2297	 0.544359753876204 
2298	 0.544686277090858 
2299	 0.544945149074564 
2300	 0.54521496890658 
2301	 0.54544221142634 
2302	 0.545593496886998 
2303	 0.545767665940594 
2304	 0.545960352048865 
2305	 0.546156075837794 
2306	 0.546385298328313 
2307	 0.546665057317568 
2308	 0.546911229065673 
2309	 0.547191512596043 
2310	 0.547392873559114 
2311	 0.547571572857747 
2312	 0.547688927337032 
2313	 0.547719905083993 
2314	 0.547771802825538 
2315	 0.547772400586748 
2316	 0.54781360377319 
2317	 0.547866769326249 
2318	 0.547922759603582 
2319	 0.547977353143034 
2320	 0.548072739682965 
2321	 0.548177247910561 
2322	 0.548307648211495 
2323	 0.548527552368319 
2324	 0.548669993541961 
2325	 0.548811284892772 
2326	 0.548904204165588 
2327	 0.548952236212776 
2328	 0.548942877726252 
2329	 0.548908238767084 
2330	 0.548907860284823 
2331	 0.548970490257926 
2332	 0.549026805912687 
2333	 0.549120266737258 
2334	 0.5491890465837 
2335	 0.549189518934324 
2336	 0.549206110663951 
2337	 0.5492464192473 
2338	 0.549332439571353 
2339	 0.549392764509692 
2340	 0.549398949840066 
2341	 0.549420182081982 
2342	 0.549350069639178 
2343	 0.549219477525741 
2344	 0.54919783935966 
2345	 0.549162858119591 
2346	 0.549077873026915 
2347	 0.549074744608086 
2348	 0.549170923851449 
2349	 0.549219309630098 
2350	 0.549291749245756 
2351	 0.549335947896005 
2352	 0.549359864580873 
2353	 0.549348300603409 
2354	 0.549271225868026 
2355	 0.549271245629609 
2356	 0.549303614065964 
2357	 0.549346129613217 
2358	 0.549427414016296 
2359	 0.549506443530083 
2360	 0.549579751167373 
2361	 0.549658054368678 
2362	 0.54979613310401 
2363	 0.549855271891365 
2364	 0.549834305009299 
2365	 0.549876606026698 
2366	 0.549939252493063 
2367	 0.549955100501819 
2368	 0.550005958621826 
2369	 0.550018007803573 
2370	 0.549967908037638 
2371	 0.549895002706777 
2372	 0.54980344395772 
2373	 0.549671790837038 
2374	 0.54958233017619 
2375	 0.549418733539345 
2376	 0.549200366655536 
2377	 0.549021869856879 
2378	 0.548784249548776 
2379	 0.548498059914863 
2380	 0.548274269131627 
2381	 0.548085356728384 
2382	 0.547888161617754 
2383	 0.547729278449909 
2384	 0.547593200994439 
2385	 0.547443184604608 
2386	 0.547246358933457 
2387	 0.54697916189217 
2388	 0.546782762775191 
2389	 0.546555370475037 
2390	 0.546316139989815 
2391	 0.546232309626948 
2392	 0.546027832771388 
2393	 0.54579346959651 
2394	 0.545634349869347 
2395	 0.545340583288473 
2396	 0.545064255184885 
2397	 0.54483472388704 
2398	 0.544527240778838 
2399	 0.544120664288534 
2400	 0.543699281153779 
2401	 0.543342564992317 
2402	 0.542986456629801 
2403	 0.542703411167783 
2404	 0.542461182299756 
2405	 0.542200240646591 
2406	 0.541869074807519 
2407	 0.54145075487055 
2408	 0.541096813079653 
2409	 0.540684075380295 
2410	 0.540187507094409 
2411	 0.539818285554336 
2412	 0.539508115361404 
2413	 0.539135217499362 
2414	 0.538875788323984 
2415	 0.53860118134183 
2416	 0.538206877534011 
2417	 0.537713864709382 
2418	 0.537208571448824 
2419	 0.536523062700387 
2420	 0.53605240297614 
2421	 0.535656689945955 
2422	 0.535218652003831 
2423	 0.534883292647517 
2424	 0.534555004863161 
2425	 0.534197989191638 
2426	 0.533819189846311 
2427	 0.533526467766137 
2428	 0.533158514171993 
2429	 0.532609963002628 
2430	 0.532295293985539 
2431	 0.532145251934195 
2432	 0.531880067426244 
2433	 0.531711104543853 
2434	 0.53140625188726 
2435	 0.53091658238223 
2436	 0.530514430927667 
2437	 0.530129626122122 
2438	 0.529726328698308 
2439	 0.529310444210648 
2440	 0.528990679296538 
2441	 0.528652050708337 
2442	 0.528443161434613 
2443	 0.528383108137728 
2444	 0.528311441141816 
2445	 0.528335056242522 
2446	 0.528367573172608 
2447	 0.52846726583275 
2448	 0.528286109385983 
2449	 0.527993725684809 
2450	 0.527682388411271 
2451	 0.527099269175644 
2452	 0.526889404898453 
2453	 0.526897652560587 
2454	 0.526827401842703 
2455	 0.526901185550586 
2456	 0.52677520733197 
2457	 0.52654498880016 
2458	 0.526372325662504 
2459	 0.526122030169902 
2460	 0.525978695189441 
2461	 0.525866656171963 
2462	 0.525775385059539 
2463	 0.525746573829489 
2464	 0.525687833617417 
2465	 0.525745933565671 
2466	 0.525623283716447 
2467	 0.525277228057953 
2468	 0.525142410799834 
2469	 0.525101630062658 
2470	 0.525104541415654 
2471	 0.525020144612797 
2472	 0.524782966302153 
2473	 0.524324510674136 
2474	 0.524115409822481 
2475	 0.524188560426403 
2476	 0.524192870568845 
2477	 0.524168191628936 
2478	 0.524007513720096 
2479	 0.523657405309374 
2480	 0.523432427696782 
2481	 0.523429024037163 
2482	 0.523401446684926 
2483	 0.523484016601509 
2484	 0.523706815951357 
2485	 0.523677416347503 
2486	 0.523520678655404 
2487	 0.523345317896539 
2488	 0.523107189104773 
2489	 0.522882827019059 
2490	 0.522750223330252 
2491	 0.522727309560448 
2492	 0.522597966085291 
2493	 0.522380126976708 
2494	 0.522132027641674 
2495	 0.52190962221241 
2496	 0.521736616274723 
2497	 0.521517933597276 
2498	 0.52139744215576 
2499	 0.521245047296019 
2500	 0.521053051516598 
