Wavelength	LMW400000.asd
350	 0.123280369743162 
351	 0.126297181870019 
352	 0.121681186733785 
353	 0.115311669215823 
354	 0.12237247722862 
355	 0.126881595344014 
356	 0.125754174307834 
357	 0.121076910888344 
358	 0.119607931990149 
359	 0.123631766800968 
360	 0.128964530945633 
361	 0.128351224890687 
362	 0.128815055917909 
363	 0.129982875932522 
364	 0.130445264128298 
365	 0.128293060083454 
366	 0.130784177079234 
367	 0.133631832683668 
368	 0.132161990304414 
369	 0.133702459453386 
370	 0.133444071760953 
371	 0.133437646398614 
372	 0.139312713125442 
373	 0.139449924108839 
374	 0.138378722215043 
375	 0.139347957341081 
376	 0.139620326004645 
377	 0.140019310328329 
378	 0.141777182439016 
379	 0.145214275775095 
380	 0.147072559379528 
381	 0.144834567039604 
382	 0.142866001730705 
383	 0.149144468843195 
384	 0.149386981598209 
385	 0.148502819980964 
386	 0.150438605155113 
387	 0.152067270448268 
388	 0.152234709489132 
389	 0.152177739551124 
390	 0.153297339510979 
391	 0.153228341973016 
392	 0.154268909511328 
393	 0.156475707889135 
394	 0.157879413301254 
395	 0.15810798982989 
396	 0.158348186254746 
397	 0.159396703395262 
398	 0.16072898586625 
399	 0.16182221450588 
400	 0.162912828010179 
401	 0.164313162420572 
402	 0.164973688581963 
403	 0.165451873028683 
404	 0.165915978826005 
405	 0.166061874060499 
406	 0.16676081950268 
407	 0.168013510344369 
408	 0.169204587046585 
409	 0.168512718476596 
410	 0.168426642140047 
411	 0.169119910775192 
412	 0.169743912928172 
413	 0.170929392256431 
414	 0.171554586445541 
415	 0.171379244234542 
416	 0.171416354625256 
417	 0.171558856734949 
418	 0.172132693662103 
419	 0.173148951941803 
420	 0.173365039534644 
421	 0.173473222546869 
422	 0.173719710018638 
423	 0.174028456809469 
424	 0.174434497536995 
425	 0.174614862830987 
426	 0.174574896007772 
427	 0.174982147014839 
428	 0.175416542969551 
429	 0.175594954221725 
430	 0.175455180050696 
431	 0.175785452439273 
432	 0.176039582749346 
433	 0.176042161263696 
434	 0.17604720614872 
435	 0.176713471001086 
436	 0.177227758848892 
437	 0.177047757228357 
438	 0.177037361611279 
439	 0.177343444841385 
440	 0.177826425543961 
441	 0.178194632054842 
442	 0.178355694839815 
443	 0.178676026607591 
444	 0.179162250979172 
445	 0.179204437363581 
446	 0.179522905185454 
447	 0.180061840558786 
448	 0.180493952865213 
449	 0.180306676607718 
450	 0.180640186670247 
451	 0.181426240727505 
452	 0.181582853919242 
453	 0.181603614905217 
454	 0.181640502854716 
455	 0.181792281667442 
456	 0.182192924195643 
457	 0.182468142245227 
458	 0.182636071697314 
459	 0.182867166747341 
460	 0.182981158057155 
461	 0.182979220661047 
462	 0.182992888364317 
463	 0.183305279338045 
464	 0.183838527481358 
465	 0.184162960486828 
466	 0.184016811626839 
467	 0.184180852917404 
468	 0.184312063075133 
469	 0.184385757680859 
470	 0.184633161033865 
471	 0.184795969572342 
472	 0.184912497186576 
473	 0.185033645873097 
474	 0.185089113162959 
475	 0.18535752247546 
476	 0.185681953724454 
477	 0.185772658559286 
478	 0.185936791734651 
479	 0.186080067371293 
480	 0.18619020680478 
481	 0.186414455853312 
482	 0.186648303673269 
483	 0.186903610495916 
484	 0.187161437624362 
485	 0.18714046483196 
486	 0.187191500063386 
487	 0.187352701676335 
488	 0.187406653198771 
489	 0.187629808609293 
490	 0.187832585275719 
491	 0.187889671333666 
492	 0.188036638042394 
493	 0.188084515906848 
494	 0.188111877550354 
495	 0.188294004429647 
496	 0.188541878987746 
497	 0.18863619730592 
498	 0.188621286659311 
499	 0.188953670157342 
500	 0.189064110844936 
501	 0.189058039581573 
502	 0.189188895891564 
503	 0.189431448683556 
504	 0.189602059883753 
505	 0.189674924942951 
506	 0.189771113789501 
507	 0.189888532796964 
508	 0.189923588773806 
509	 0.189865003580589 
510	 0.190008602269488 
511	 0.190100575733819 
512	 0.190201175608248 
513	 0.190482668412431 
514	 0.190511835371954 
515	 0.190564276238928 
516	 0.190783589195367 
517	 0.190966458042168 
518	 0.19103920564214 
519	 0.191052618079528 
520	 0.191096156580137 
521	 0.191176550690977 
522	 0.191230294049593 
523	 0.191275988209068 
524	 0.19141864895306 
525	 0.191532318261474 
526	 0.191616662516992 
527	 0.191691643998108 
528	 0.191745570599954 
529	 0.19176445348249 
530	 0.191816042535462 
531	 0.191998565131204 
532	 0.192098111302374 
533	 0.192199573451525 
534	 0.192333612841663 
535	 0.192301609782467 
536	 0.192414082026612 
537	 0.192582226874372 
538	 0.192603482762115 
539	 0.192676968137256 
540	 0.192763507962589 
541	 0.192835294731373 
542	 0.192903739976372 
543	 0.193000000894302 
544	 0.193090622243778 
545	 0.193159652536563 
546	 0.193355906496671 
547	 0.193437992935799 
548	 0.193406000823232 
549	 0.193467335735208 
550	 0.193580405427205 
551	 0.193691078101427 
552	 0.193775560201433 
553	 0.193905200122845 
554	 0.194017913735654 
555	 0.19409618418771 
556	 0.194157567420637 
557	 0.194302992737014 
558	 0.194470320666416 
559	 0.194606108164845 
560	 0.194708653444261 
561	 0.19473817253709 
562	 0.19477956232755 
563	 0.194924096689067 
564	 0.195044646617454 
565	 0.195142751612793 
566	 0.195220578470232 
567	 0.19527384607124 
568	 0.195418422032921 
569	 0.195626740970567 
570	 0.195833961668435 
571	 0.195984483558335 
572	 0.196142729194539 
573	 0.196296759982203 
574	 0.196385878295468 
575	 0.196469581551025 
576	 0.196591705360767 
577	 0.196736195652382 
578	 0.196752110700002 
579	 0.196809623013721 
580	 0.196929038978361 
581	 0.197073825011687 
582	 0.197298457922256 
583	 0.197518378206965 
584	 0.19768591182509 
585	 0.19782259755217 
586	 0.197939151301116 
587	 0.19799856686293 
588	 0.198000590757254 
589	 0.198171255988972 
590	 0.198271676761499 
591	 0.198281169006756 
592	 0.1983850987186 
593	 0.198503441926168 
594	 0.198588990951002 
595	 0.198647986344692 
596	 0.198815904405207 
597	 0.199010298864138 
598	 0.199194731371192 
599	 0.199356442231869 
600	 0.19946197854424 
601	 0.199576065458447 
602	 0.199705599806908 
603	 0.199733831080421 
604	 0.199713443010535 
605	 0.199731089424557 
606	 0.199858435496456 
607	 0.200014562651991 
608	 0.200099095893369 
609	 0.200137227186195 
610	 0.200293650628629 
611	 0.200450459836379 
612	 0.200596097094146 
613	 0.200728752603852 
614	 0.200786875908963 
615	 0.200892532067854 
616	 0.2010393230718 
617	 0.201135760867843 
618	 0.201259859537082 
619	 0.201335691455695 
620	 0.201337574447073 
621	 0.201389179505491 
622	 0.201472615237293 
623	 0.201558642994101 
624	 0.201615450558356 
625	 0.201663232455548 
626	 0.20171974449261 
627	 0.201789903610057 
628	 0.20186198812091 
629	 0.201955945267488 
630	 0.202043364701127 
631	 0.202098103303367 
632	 0.20215518579854 
633	 0.202203188230555 
634	 0.202256229436364 
635	 0.202344655823087 
636	 0.202403779252942 
637	 0.20244495613041 
638	 0.202487064492716 
639	 0.20253016075377 
640	 0.202588281142984 
641	 0.202661116003049 
642	 0.202736623829662 
643	 0.202776473799886 
644	 0.202829136316248 
645	 0.202919451330813 
646	 0.203029477411733 
647	 0.203036622758759 
648	 0.203033068447866 
649	 0.203127749527043 
650	 0.203208534852898 
651	 0.203269968223965 
652	 0.203310215516131 
653	 0.203332320418363 
654	 0.203399184493137 
655	 0.203449753630592 
656	 0.203458357497677 
657	 0.203549153318586 
658	 0.203635481428682 
659	 0.203698532332487 
660	 0.203749862333778 
661	 0.203771600972258 
662	 0.203839773754371 
663	 0.203955488191106 
664	 0.204001759019515 
665	 0.204004914029163 
666	 0.204033761216664 
667	 0.204127391475339 
668	 0.204141145290859 
669	 0.204172441413924 
670	 0.204239873085696 
671	 0.204293795312419 
672	 0.204379678874629 
673	 0.204451751669768 
674	 0.20448877237399 
675	 0.204563917945093 
676	 0.204640854969131 
677	 0.204675283601159 
678	 0.204645673892104 
679	 0.204715323713822 
680	 0.204769484569336 
681	 0.2047851005008 
682	 0.204889732286721 
683	 0.20492770925291 
684	 0.204958592375209 
685	 0.205058351046243 
686	 0.205156463239755 
687	 0.205215408985241 
688	 0.205246314419054 
689	 0.205292163994948 
690	 0.205321922158414 
691	 0.205337576021586 
692	 0.20536419978145 
693	 0.205472517140042 
694	 0.205528081089365 
695	 0.205547884806412 
696	 0.205596394876481 
697	 0.205658644865516 
698	 0.205711705043528 
699	 0.205758591719816 
700	 0.205828734226508 
701	 0.205889454253842 
702	 0.205938952931231 
703	 0.205977253148156 
704	 0.205987248159758 
705	 0.205992885506561 
706	 0.206033671455645 
707	 0.206131930413522 
708	 0.206105723646845 
709	 0.206131476777835 
710	 0.20625034219398 
711	 0.20625444398072 
712	 0.206305644393076 
713	 0.206351896995951 
714	 0.206335983615799 
715	 0.206409555002777 
716	 0.206481468235589 
717	 0.206517008468997 
718	 0.206528772356295 
719	 0.206526226153004 
720	 0.206533694072395 
721	 0.206568556055334 
722	 0.206635727348901 
723	 0.206697040014476 
724	 0.206738474650831 
725	 0.206760611582101 
726	 0.206783992939291 
727	 0.206788951432566 
728	 0.2067943571917 
729	 0.206851575921825 
730	 0.206914944286858 
731	 0.206926195504527 
732	 0.206881775340158 
733	 0.206906446208655 
734	 0.206964201985228 
735	 0.207007152305473 
736	 0.206998019284033 
737	 0.20701186919823 
738	 0.207059629792499 
739	 0.207107293004931 
740	 0.207082383268621 
741	 0.20708455516181 
742	 0.207131963640573 
743	 0.207196356067182 
744	 0.207175253708823 
745	 0.20715016092293 
746	 0.207163039942996 
747	 0.207217883447257 
748	 0.207203137612233 
749	 0.207192114358103 
750	 0.207211027856674 
751	 0.207209339431487 
752	 0.207202535401991 
753	 0.207197457988187 
754	 0.207204637247126 
755	 0.207252502266549 
756	 0.207295253302753 
757	 0.20729966148827 
758	 0.207253133900531 
759	 0.207223705970532 
760	 0.207217801025148 
761	 0.207220943425195 
762	 0.207202295806566 
763	 0.207236291632036 
764	 0.207258769738716 
765	 0.207220005675376 
766	 0.207207074888508 
767	 0.207223404989164 
768	 0.207230933899797 
769	 0.207188760803426 
770	 0.20720793244253 
771	 0.207225117581709 
772	 0.207212998612309 
773	 0.207206394086563 
774	 0.207211542770251 
775	 0.207211627322256 
776	 0.207196195141305 
777	 0.207188032245062 
778	 0.207182605192672 
779	 0.207171180505633 
780	 0.207149193579 
781	 0.207149867134094 
782	 0.207173912996798 
783	 0.20718743757692 
784	 0.20713077029388 
785	 0.207126029587977 
786	 0.207165330665077 
787	 0.207198199531447 
788	 0.207130581899531 
789	 0.207113166887399 
790	 0.207133295341115 
791	 0.207128366700918 
792	 0.207137302942543 
793	 0.207135363781633 
794	 0.207114585429114 
795	 0.207088234684007 
796	 0.20712032115612 
797	 0.207120342387767 
798	 0.207051973579577 
799	 0.207019385217399 
800	 0.207020699535034 
801	 0.207062419212939 
802	 0.207122421640237 
803	 0.207072860691773 
804	 0.207078535347038 
805	 0.207133441779394 
806	 0.207128268280994 
807	 0.207113626010445 
808	 0.207082897784408 
809	 0.207057286860189 
810	 0.207096743201153 
811	 0.2071248404412 
812	 0.207119139429827 
813	 0.207096028710785 
814	 0.207144700547667 
815	 0.207136814309958 
816	 0.207080093896469 
817	 0.207040611072357 
818	 0.207045346869034 
819	 0.207106982779499 
820	 0.207165387563762 
821	 0.207118942999003 
822	 0.207113284154636 
823	 0.20712494201886 
824	 0.20712183971034 
825	 0.207100954742872 
826	 0.207099872469352 
827	 0.207114785723025 
828	 0.207129275536527 
829	 0.207133481691244 
830	 0.207092300295794 
831	 0.207060844808286 
832	 0.207113165254058 
833	 0.207145556892797 
834	 0.207198869624297 
835	 0.207251728784167 
836	 0.207224798810891 
837	 0.207177519032316 
838	 0.207183992207009 
839	 0.207242692282144 
840	 0.207222851261464 
841	 0.20723926725119 
842	 0.20722551757682 
843	 0.207135025214647 
844	 0.207130707598689 
845	 0.207202282435799 
846	 0.20725596080711 
847	 0.20720327791901 
848	 0.207229783915338 
849	 0.207258917329594 
850	 0.207274684081782 
851	 0.207314042788852 
852	 0.207249170080766 
853	 0.207207285351186 
854	 0.207248661754096 
855	 0.207284062039429 
856	 0.207335630146941 
857	 0.20737792949416 
858	 0.207376394238738 
859	 0.207282128463639 
860	 0.207289235606091 
861	 0.207373343978599 
862	 0.207435418138648 
863	 0.207458732469831 
864	 0.207452206734968 
865	 0.207451810903674 
866	 0.207490450866983 
867	 0.207464872371419 
868	 0.207461614526002 
869	 0.207481953439556 
870	 0.207435165789096 
871	 0.207437331076589 
872	 0.207458133900156 
873	 0.207479640847404 
874	 0.207542825009185 
875	 0.207558903600298 
876	 0.207554229941629 
877	 0.207569273118482 
878	 0.207599380318265 
879	 0.207646549212117 
880	 0.207635324358064 
881	 0.207538706120966 
882	 0.207628406914913 
883	 0.207692538362762 
884	 0.207690985836388 
885	 0.20769176596433 
886	 0.20772767946343 
887	 0.207772280457779 
888	 0.207788783185864 
889	 0.207753294743574 
890	 0.207794686446587 
891	 0.207836076751453 
892	 0.207844346502199 
893	 0.207871642266355 
894	 0.20783361279519 
895	 0.20781901397327 
896	 0.207880230831605 
897	 0.207945804923312 
898	 0.207961449317014 
899	 0.207952665219722 
900	 0.207950179228196 
901	 0.207918079651506 
902	 0.208021833951527 
903	 0.208118571784799 
904	 0.20806067408746 
905	 0.208112226514424 
906	 0.208133705399724 
907	 0.208141821075653 
908	 0.208206262409495 
909	 0.208256792802199 
910	 0.208243215281976 
911	 0.208231348091882 
912	 0.208329227305153 
913	 0.208397936120533 
914	 0.208367436495115 
915	 0.208330699246868 
916	 0.20846605619623 
917	 0.208407033210741 
918	 0.208378838579384 
919	 0.208474666162926 
920	 0.20854831260982 
921	 0.208571801806556 
922	 0.208573380761855 
923	 0.208590107296028 
924	 0.208647334451138 
925	 0.208677760489069 
926	 0.208735054242132 
927	 0.208824121931389 
928	 0.208816952048776 
929	 0.208907345021278 
930	 0.209028715198027 
931	 0.209076713479568 
932	 0.209023179626754 
933	 0.209005003844428 
934	 0.209018076508939 
935	 0.20903004485392 
936	 0.209072738562627 
937	 0.2090325114318 
938	 0.209024467106288 
939	 0.209161200898701 
940	 0.209275255814307 
941	 0.209360910464608 
942	 0.209450820724253 
943	 0.209547440600848 
944	 0.209450448534942 
945	 0.209470551339727 
946	 0.209570007334524 
947	 0.209586771798986 
948	 0.209620370404582 
949	 0.20966862719971 
950	 0.209671151295242 
951	 0.209601519140917 
952	 0.209727182248943 
953	 0.209846837369767 
954	 0.209887257871013 
955	 0.209896925626923 
956	 0.210054290652185 
957	 0.210125296638958 
958	 0.210108826770448 
959	 0.210135017224987 
960	 0.210090836417585 
961	 0.210114412593664 
962	 0.210215813175088 
963	 0.210302702866358 
964	 0.210290660863708 
965	 0.210289119553386 
966	 0.210344588127955 
967	 0.210429300412602 
968	 0.21043046957316 
969	 0.210482273336791 
970	 0.210553324809231 
971	 0.210544131460439 
972	 0.210743524363488 
973	 0.210848772158399 
974	 0.21083859097966 
975	 0.210894797388082 
976	 0.21100740507688 
977	 0.210962919758444 
978	 0.210896127238597 
979	 0.211071830542025 
980	 0.211095299156153 
981	 0.211010815436861 
982	 0.211044508216562 
983	 0.211369355580058 
984	 0.211412165564999 
985	 0.211450947073827 
986	 0.211488922546077 
987	 0.211416709002706 
988	 0.211517451913898 
989	 0.211632954379836 
990	 0.211681970885613 
991	 0.211669882700656 
992	 0.211726011993072 
993	 0.211664456330768 
994	 0.21173008881729 
995	 0.212116503281707 
996	 0.21202075646611 
997	 0.212013509563162 
998	 0.212061151453247 
999	 0.21199914113427 
1000	 0.21215204722704 
1001	 0.213473197163109 
1002	 0.213434815749042 
1003	 0.213492890951828 
1004	 0.213516123054384 
1005	 0.213551830266326 
1006	 0.213584750843064 
1007	 0.213624002914686 
1008	 0.213609850907046 
1009	 0.213634177968584 
1010	 0.213639385796292 
1011	 0.213613365756723 
1012	 0.2136744461624 
1013	 0.213769147003523 
1014	 0.21378584743003 
1015	 0.213797092260512 
1016	 0.213806449087061 
1017	 0.213837294870634 
1018	 0.213838313127393 
1019	 0.213915838838724 
1020	 0.213970585761698 
1021	 0.214007179984722 
1022	 0.214042850614386 
1023	 0.21405945707745 
1024	 0.214148941214828 
1025	 0.214221392524568 
1026	 0.214200225922555 
1027	 0.214172836868959 
1028	 0.214155478458681 
1029	 0.214117380890794 
1030	 0.214138675488143 
1031	 0.214165978276123 
1032	 0.214228836990934 
1033	 0.214217940802063 
1034	 0.214237145502253 
1035	 0.214260088650359 
1036	 0.214250756820349 
1037	 0.214301086475841 
1038	 0.2143346825102 
1039	 0.214347052302334 
1040	 0.214378711741991 
1041	 0.214383330655888 
1042	 0.214412156815504 
1043	 0.214478541911784 
1044	 0.214526483889602 
1045	 0.214571446829204 
1046	 0.214611229291669 
1047	 0.214652171370275 
1048	 0.214694574312662 
1049	 0.214739962860804 
1050	 0.2147955102128 
1051	 0.214866016364843 
1052	 0.214926694675386 
1053	 0.214950771507373 
1054	 0.214979924621826 
1055	 0.215027374068838 
1056	 0.215032383185633 
1057	 0.215049738891703 
1058	 0.21507977119836 
1059	 0.215119836500614 
1060	 0.215169955694013 
1061	 0.215174775256361 
1062	 0.215201800537219 
1063	 0.215258861791477 
1064	 0.215257653406546 
1065	 0.215295518554849 
1066	 0.215364886856396 
1067	 0.215364171484483 
1068	 0.215344670331858 
1069	 0.215328115951066 
1070	 0.215335281830116 
1071	 0.215359352227007 
1072	 0.215363557924338 
1073	 0.215374787876934 
1074	 0.215388694222814 
1075	 0.215398415530463 
1076	 0.215378162634712 
1077	 0.215371204898715 
1078	 0.215367432574881 
1079	 0.215356232191131 
1080	 0.21532450292483 
1081	 0.215273575804505 
1082	 0.215225910867996 
1083	 0.215203134218134 
1084	 0.215195018282991 
1085	 0.215174585068313 
1086	 0.215158805740298 
1087	 0.215156215316567 
1088	 0.215174346038445 
1089	 0.21510981411399 
1090	 0.215083295202977 
1091	 0.215140311853475 
1092	 0.215149603061028 
1093	 0.215145288115203 
1094	 0.215148543650786 
1095	 0.215123954846772 
1096	 0.215096101310423 
1097	 0.215077153699742 
1098	 0.215071704407985 
1099	 0.215087335301087 
1100	 0.215095872143247 
1101	 0.215106920324954 
1102	 0.215123205310616 
1103	 0.2151453983767 
1104	 0.215161994036144 
1105	 0.215196384902634 
1106	 0.215209485771395 
1107	 0.215216900842602 
1108	 0.215221933708487 
1109	 0.215195813490202 
1110	 0.215187524218054 
1111	 0.21521437652007 
1112	 0.215271899746479 
1113	 0.21531295361065 
1114	 0.215381539801573 
1115	 0.215429454471674 
1116	 0.215457753404046 
1117	 0.215495253051872 
1118	 0.21553886999054 
1119	 0.215577463648273 
1120	 0.215600913105455 
1121	 0.215629955089519 
1122	 0.215696247807856 
1123	 0.215760961751891 
1124	 0.215810171756147 
1125	 0.215875553261316 
1126	 0.215928337142083 
1127	 0.215945467998198 
1128	 0.215988288411943 
1129	 0.216057037777974 
1130	 0.216107337758246 
1131	 0.216145545298675 
1132	 0.216198193805048 
1133	 0.216266494108009 
1134	 0.216307973169088 
1135	 0.216336908457122 
1136	 0.216374212109909 
1137	 0.216379691107679 
1138	 0.216400899243933 
1139	 0.216452325566184 
1140	 0.216538759155961 
1141	 0.216583875100055 
1142	 0.216640263031236 
1143	 0.216683015694419 
1144	 0.216696803600718 
1145	 0.216718806087317 
1146	 0.216748437214436 
1147	 0.216766054687894 
1148	 0.216754230088344 
1149	 0.216773578372323 
1150	 0.216809031939352 
1151	 0.216843535563881 
1152	 0.216900003965826 
1153	 0.216954340721983 
1154	 0.21698407213619 
1155	 0.217002281062271 
1156	 0.217016874209913 
1157	 0.217016487882121 
1158	 0.217014213862579 
1159	 0.216992808397748 
1160	 0.216999640288979 
1161	 0.217014115316011 
1162	 0.217027477905752 
1163	 0.217069921881912 
1164	 0.217091543406588 
1165	 0.217102905647241 
1166	 0.21710021348761 
1167	 0.217105911606372 
1168	 0.217113989729268 
1169	 0.217118779986641 
1170	 0.217126754343428 
1171	 0.217126994764905 
1172	 0.217120470382479 
1173	 0.217115381249903 
1174	 0.217102478054904 
1175	 0.217102531854752 
1176	 0.217107935804044 
1177	 0.217114807334845 
1178	 0.217124427036589 
1179	 0.217141068484077 
1180	 0.217174241576168 
1181	 0.21718727951428 
1182	 0.217188229763475 
1183	 0.217207639288837 
1184	 0.217207703840509 
1185	 0.21718070135319 
1186	 0.217187251927973 
1187	 0.217206042050755 
1188	 0.217220586755716 
1189	 0.217252520030804 
1190	 0.217267446121738 
1191	 0.217273161175879 
1192	 0.21728043578667 
1193	 0.217279394820285 
1194	 0.217284129547118 
1195	 0.217284139040675 
1196	 0.217296127339048 
1197	 0.217326997811195 
1198	 0.217343749830753 
1199	 0.217357625628031 
1200	 0.217374078233614 
1201	 0.21738479268307 
1202	 0.217380231337052 
1203	 0.217390781959726 
1204	 0.217413331091154 
1205	 0.217424136276457 
1206	 0.217434994607763 
1207	 0.217440840921094 
1208	 0.21743346107812 
1209	 0.217438141770692 
1210	 0.217447968822369 
1211	 0.217455525965307 
1212	 0.217466658847228 
1213	 0.2174783373488 
1214	 0.217497507117292 
1215	 0.217503164651848 
1216	 0.217503320940221 
1217	 0.217497065882318 
1218	 0.217500788242941 
1219	 0.217496811402417 
1220	 0.217500750920953 
1221	 0.217521280116759 
1222	 0.217528235133373 
1223	 0.217524855860518 
1224	 0.217527769983001 
1225	 0.217532730265276 
1226	 0.217535520066093 
1227	 0.217537614028565 
1228	 0.217541180946451 
1229	 0.21754753918709 
1230	 0.217548769729933 
1231	 0.217544995305803 
1232	 0.217545563178747 
1233	 0.217546418313724 
1234	 0.21754467547468 
1235	 0.217543408598774 
1236	 0.217537229043108 
1237	 0.217553755948667 
1238	 0.217588262701901 
1239	 0.217599935362579 
1240	 0.217623977027627 
1241	 0.217630173981899 
1242	 0.217608268477809 
1243	 0.217595273449259 
1244	 0.217576126339987 
1245	 0.217571137374886 
1246	 0.217574008183261 
1247	 0.217568620336879 
1248	 0.217572337133743 
1249	 0.217568922173853 
1250	 0.217557515228236 
1251	 0.217569089109522 
1252	 0.217574029705077 
1253	 0.217598605940963 
1254	 0.217596915831452 
1255	 0.217575893787719 
1256	 0.217568619691965 
1257	 0.217557911166777 
1258	 0.217550799541247 
1259	 0.217554713894168 
1260	 0.217550528956325 
1261	 0.217543980337067 
1262	 0.217529687911532 
1263	 0.217510651710523 
1264	 0.217489796903452 
1265	 0.217457599079197 
1266	 0.217431712142848 
1267	 0.217405665582394 
1268	 0.217382026264684 
1269	 0.217367202391355 
1270	 0.217356375081984 
1271	 0.217348222078864 
1272	 0.217343444252633 
1273	 0.217351762398219 
1274	 0.217361528343438 
1275	 0.217387435444685 
1276	 0.217434622387163 
1277	 0.217476336772211 
1278	 0.217522611781934 
1279	 0.217575659541006 
1280	 0.217641573716394 
1281	 0.217697377706219 
1282	 0.217758400224057 
1283	 0.217807701601172 
1284	 0.217848558504023 
1285	 0.217886149506542 
1286	 0.217895299759982 
1287	 0.217917856628715 
1288	 0.217927656114167 
1289	 0.217917148077022 
1290	 0.217921137961866 
1291	 0.21793187954357 
1292	 0.217936233942611 
1293	 0.217950490344271 
1294	 0.217938888865013 
1295	 0.217916283921113 
1296	 0.217883889387859 
1297	 0.217827764386595 
1298	 0.217780249500449 
1299	 0.217715991352535 
1300	 0.217676440021841 
1301	 0.217664031149041 
1302	 0.217625102366525 
1303	 0.217586045198218 
1304	 0.217550903563451 
1305	 0.217480635353659 
1306	 0.217402954415335 
1307	 0.217332111498398 
1308	 0.217262877122468 
1309	 0.217207109703092 
1310	 0.217159837217591 
1311	 0.217105304305147 
1312	 0.217068222959516 
1313	 0.217004904963487 
1314	 0.216915113441512 
1315	 0.216853896353584 
1316	 0.21678677156173 
1317	 0.216738826540185 
1318	 0.216713645009418 
1319	 0.216686158777406 
1320	 0.21667203434853 
1321	 0.216648665008358 
1322	 0.216628795233111 
1323	 0.216599084933075 
1324	 0.216569852961049 
1325	 0.216559452959538 
1326	 0.216551259889632 
1327	 0.216561382563851 
1328	 0.21655814368245 
1329	 0.216531111694066 
1330	 0.216519660735473 
1331	 0.216496737371961 
1332	 0.216496630868637 
1333	 0.216512635623036 
1334	 0.216528626442745 
1335	 0.216553387208799 
1336	 0.216582036511706 
1337	 0.216612016804145 
1338	 0.216649328491406 
1339	 0.216704648291666 
1340	 0.216739755244278 
1341	 0.216769993508959 
1342	 0.216801582121666 
1343	 0.216825604234246 
1344	 0.216848502089065 
1345	 0.216868845116312 
1346	 0.216880604572161 
1347	 0.216887178713199 
1348	 0.21691191828104 
1349	 0.216960131805406 
1350	 0.21700113744674 
1351	 0.217027622921748 
1352	 0.217047902787528 
1353	 0.217072297132627 
1354	 0.217083965584888 
1355	 0.217101674802021 
1356	 0.217133193533485 
1357	 0.217149786788543 
1358	 0.217153929631701 
1359	 0.217164601664696 
1360	 0.217161882742308 
1361	 0.217182816722067 
1362	 0.217221916202536 
1363	 0.217248911569546 
1364	 0.217293686081723 
1365	 0.217324554920491 
1366	 0.217333636323501 
1367	 0.217350695010429 
1368	 0.21739744146685 
1369	 0.217414967449856 
1370	 0.217423070151752 
1371	 0.217435205010178 
1372	 0.217419065416937 
1373	 0.217405883775969 
1374	 0.217379465407007 
1375	 0.217342955543043 
1376	 0.217311472284117 
1377	 0.217278320638954 
1378	 0.217226988925608 
1379	 0.217175812972079 
1380	 0.217115511812851 
1381	 0.217028198038452 
1382	 0.216952455032488 
1383	 0.21688750541074 
1384	 0.216808008806559 
1385	 0.216726051752621 
1386	 0.216630985642856 
1387	 0.216537570871598 
1388	 0.216419794798121 
1389	 0.216283289530269 
1390	 0.216133846627075 
1391	 0.215978573527507 
1392	 0.215791511923463 
1393	 0.215599078696965 
1394	 0.215406768072347 
1395	 0.215178145185071 
1396	 0.214944052390208 
1397	 0.214718118080706 
1398	 0.214479774172504 
1399	 0.214256162216092 
1400	 0.214042377052292 
1401	 0.213833710776457 
1402	 0.213637569357579 
1403	 0.213428086153484 
1404	 0.213207530931448 
1405	 0.213011383264391 
1406	 0.212808537079896 
1407	 0.212630426697873 
1408	 0.212478436309053 
1409	 0.212334330680911 
1410	 0.212199927432274 
1411	 0.21208058540776 
1412	 0.211976000186865 
1413	 0.211881603647885 
1414	 0.211822927091596 
1415	 0.211758204179411 
1416	 0.211685373717278 
1417	 0.211635043491961 
1418	 0.211564465153403 
1419	 0.211483202274745 
1420	 0.211437107038567 
1421	 0.211394862033207 
1422	 0.21134622872404 
1423	 0.211302477686865 
1424	 0.211251621385068 
1425	 0.211184357140434 
1426	 0.211140828498723 
1427	 0.211101209422382 
1428	 0.211077981690811 
1429	 0.211066595744615 
1430	 0.211067164524355 
1431	 0.211096556914934 
1432	 0.211099607757819 
1433	 0.211099127789254 
1434	 0.211101946993219 
1435	 0.211086110093606 
1436	 0.211086296697074 
1437	 0.211102310591905 
1438	 0.211117325503762 
1439	 0.211140336023106 
1440	 0.211152869477209 
1441	 0.211163451554511 
1442	 0.211181830794063 
1443	 0.211174013135272 
1444	 0.211165377460228 
1445	 0.211172147821537 
1446	 0.211158789047539 
1447	 0.211142536606076 
1448	 0.211140762681482 
1449	 0.211136942534188 
1450	 0.211132950177488 
1451	 0.211137181559601 
1452	 0.211158866308432 
1453	 0.211167839213623 
1454	 0.211169932550739 
1455	 0.211177375684614 
1456	 0.211189545462811 
1457	 0.211195897895932 
1458	 0.211196432565644 
1459	 0.211208595485133 
1460	 0.211223168918805 
1461	 0.211234512886728 
1462	 0.2112595694061 
1463	 0.21126943813643 
1464	 0.21126434343989 
1465	 0.21126930891246 
1466	 0.211268060660321 
1467	 0.211274578957835 
1468	 0.211297230372432 
1469	 0.211303852431865 
1470	 0.211303316088893 
1471	 0.211309224483354 
1472	 0.211297340241988 
1473	 0.211292130086687 
1474	 0.211291556426391 
1475	 0.211300348380386 
1476	 0.211327552083214 
1477	 0.211350955132836 
1478	 0.211407226010641 
1479	 0.211483984479222 
1480	 0.211548736982559 
1481	 0.211633698639291 
1482	 0.211717938769084 
1483	 0.211799398869034 
1484	 0.211889075198148 
1485	 0.211995434488796 
1486	 0.212087348326036 
1487	 0.212176710777116 
1488	 0.212259938451042 
1489	 0.212338332787301 
1490	 0.212418944242542 
1491	 0.212498668492404 
1492	 0.212571261492884 
1493	 0.212643053560747 
1494	 0.212702027376211 
1495	 0.212747058537914 
1496	 0.212799811181844 
1497	 0.212844322055039 
1498	 0.212900240644965 
1499	 0.212969757729317 
1500	 0.21302531205323 
1501	 0.213076467547949 
1502	 0.213131688571653 
1503	 0.213183536280485 
1504	 0.21323027472304 
1505	 0.213292791622368 
1506	 0.21335746425531 
1507	 0.213394875494856 
1508	 0.213437692007743 
1509	 0.213479343979488 
1510	 0.213496559797986 
1511	 0.213526665237328 
1512	 0.213576446915536 
1513	 0.213635818398786 
1514	 0.213688838880758 
1515	 0.213754873689408 
1516	 0.213824439496337 
1517	 0.213872854796244 
1518	 0.213909782835319 
1519	 0.213946719617227 
1520	 0.213967533437144 
1521	 0.213996066461 
1522	 0.214025587895169 
1523	 0.214057186372045 
1524	 0.214089697714431 
1525	 0.214121980037245 
1526	 0.21415542754014 
1527	 0.214187920786579 
1528	 0.214226797163489 
1529	 0.214249129457924 
1530	 0.21425581705342 
1531	 0.214279744601314 
1532	 0.214292538856314 
1533	 0.214326777603637 
1534	 0.214396618977919 
1535	 0.21443925450325 
1536	 0.214478324151753 
1537	 0.214510094808898 
1538	 0.214528595540823 
1539	 0.214545116651974 
1540	 0.214554553211167 
1541	 0.214567829724218 
1542	 0.214578408804675 
1543	 0.214588361823041 
1544	 0.214607862160547 
1545	 0.214614167696018 
1546	 0.214611023606858 
1547	 0.214598472975348 
1548	 0.214601810397464 
1549	 0.214607884513986 
1550	 0.214618551731502 
1551	 0.214649265192575 
1552	 0.214680028756428 
1553	 0.214696826994079 
1554	 0.214732557368434 
1555	 0.214764079264822 
1556	 0.214783025227121 
1557	 0.214810137752514 
1558	 0.214814336278257 
1559	 0.214814998732611 
1560	 0.214811127446561 
1561	 0.21479029634804 
1562	 0.214786240850162 
1563	 0.214782507495036 
1564	 0.21479291074193 
1565	 0.214811919038333 
1566	 0.214839594959138 
1567	 0.214881165004467 
1568	 0.214922156326673 
1569	 0.214982781267462 
1570	 0.21500698183191 
1571	 0.215022759522439 
1572	 0.215024863861659 
1573	 0.214989765573572 
1574	 0.214983207536032 
1575	 0.214980207893997 
1576	 0.214983334793112 
1577	 0.215001335667792 
1578	 0.215007849437998 
1579	 0.215012788416113 
1580	 0.215020178484516 
1581	 0.215037007548218 
1582	 0.215028828472723 
1583	 0.214999498143726 
1584	 0.21498969426167 
1585	 0.214955675368921 
1586	 0.214953238605418 
1587	 0.214993878030692 
1588	 0.215013459405231 
1589	 0.215041600658275 
1590	 0.215055918280572 
1591	 0.215057252521344 
1592	 0.21505775945277 
1593	 0.215047287531667 
1594	 0.215041045656503 
1595	 0.215029223230308 
1596	 0.215029056720255 
1597	 0.21503968702671 
1598	 0.215045291005092 
1599	 0.215058405237804 
1600	 0.215064165398681 
1601	 0.215061885688181 
1602	 0.215059637644471 
1603	 0.215056073005124 
1604	 0.215052725031269 
1605	 0.21503796090516 
1606	 0.215039036357425 
1607	 0.215053742523565 
1608	 0.21506464045524 
1609	 0.215074236285766 
1610	 0.215075736990081 
1611	 0.215068380541547 
1612	 0.215060395332311 
1613	 0.215045270556645 
1614	 0.215040007320803 
1615	 0.215037578097242 
1616	 0.215024951582909 
1617	 0.215041585232546 
1618	 0.215055368170943 
1619	 0.215037069533642 
1620	 0.215035051364521 
1621	 0.215035000539216 
1622	 0.215023464436464 
1623	 0.215032619386448 
1624	 0.215070737738732 
1625	 0.215068935084661 
1626	 0.215053215167784 
1627	 0.215043142180475 
1628	 0.21501517415 
1629	 0.215006430493238 
1630	 0.215014006843257 
1631	 0.215005619139867 
1632	 0.214988896215636 
1633	 0.214985878914319 
1634	 0.214982944391918 
1635	 0.214983366746672 
1636	 0.214996499487538 
1637	 0.215000920460503 
1638	 0.21500086219335 
1639	 0.215000072192761 
1640	 0.215001783361302 
1641	 0.214995618371108 
1642	 0.214986419397904 
1643	 0.214968747071384 
1644	 0.214937387227541 
1645	 0.214921663266097 
1646	 0.214900415144404 
1647	 0.214894942502825 
1648	 0.214909074204971 
1649	 0.214913363885923 
1650	 0.214924830912552 
1651	 0.214921918080103 
1652	 0.21490862948415 
1653	 0.214902706844459 
1654	 0.214894148381166 
1655	 0.214882841099497 
1656	 0.214875142030109 
1657	 0.214863328446188 
1658	 0.214837621744346 
1659	 0.214828856099622 
1660	 0.214836249630416 
1661	 0.214826402934016 
1662	 0.214813439700817 
1663	 0.214802698932794 
1664	 0.214779355092027 
1665	 0.21476878903522 
1666	 0.214766204294194 
1667	 0.214768590583368 
1668	 0.214782731530019 
1669	 0.214781357924745 
1670	 0.214786129819889 
1671	 0.214773519598646 
1672	 0.2147289813851 
1673	 0.214717255558568 
1674	 0.214714158937432 
1675	 0.214712614900251 
1676	 0.214731219556283 
1677	 0.214737127448379 
1678	 0.214738718489008 
1679	 0.214735282254669 
1680	 0.214732175855547 
1681	 0.21472017422795 
1682	 0.214697174936932 
1683	 0.214675800243841 
1684	 0.214643661545408 
1685	 0.214627733963425 
1686	 0.214609760358834 
1687	 0.214610771446013 
1688	 0.214639304329831 
1689	 0.214646058971774 
1690	 0.214658833747464 
1691	 0.214659069301007 
1692	 0.214644628095847 
1693	 0.214630033124312 
1694	 0.214605108333243 
1695	 0.214591503039922 
1696	 0.214573970832916 
1697	 0.214566643955534 
1698	 0.214577739715321 
1699	 0.214574400356848 
1700	 0.214566077116399 
1701	 0.21456116948893 
1702	 0.214556437322752 
1703	 0.214545784647912 
1704	 0.21453874148487 
1705	 0.214517722093321 
1706	 0.214477168963677 
1707	 0.2144553188354 
1708	 0.21443433548115 
1709	 0.214416653288826 
1710	 0.214408439050445 
1711	 0.214400552398431 
1712	 0.214396362401995 
1713	 0.214385809150597 
1714	 0.214377599549927 
1715	 0.214364802061277 
1716	 0.214334292010188 
1717	 0.214330116815587 
1718	 0.214348589346377 
1719	 0.21434312389122 
1720	 0.214342662400093 
1721	 0.214326566911215 
1722	 0.214289416599988 
1723	 0.214257871547245 
1724	 0.214225470780096 
1725	 0.214190507444865 
1726	 0.214148870584131 
1727	 0.214111857268117 
1728	 0.214077810100856 
1729	 0.214035563365981 
1730	 0.213991493318393 
1731	 0.213942572832558 
1732	 0.213893768020577 
1733	 0.21382854391209 
1734	 0.213745419835559 
1735	 0.213677433703294 
1736	 0.213598250031062 
1737	 0.213543143887907 
1738	 0.213512001869035 
1739	 0.213468166430582 
1740	 0.21342327117812 
1741	 0.213384624849504 
1742	 0.213359197748315 
1743	 0.213303756363364 
1744	 0.213237928200404 
1745	 0.213176475362225 
1746	 0.213087501530779 
1747	 0.213044637301913 
1748	 0.213010206556971 
1749	 0.212951128478455 
1750	 0.212893172087369 
1751	 0.21284618824649 
1752	 0.212794995023115 
1753	 0.212756014810905 
1754	 0.21273185486359 
1755	 0.212686896111708 
1756	 0.212634015021736 
1757	 0.212607824345277 
1758	 0.212570915477129 
1759	 0.21251493417978 
1760	 0.212476958754386 
1761	 0.212445220069749 
1762	 0.2124063529047 
1763	 0.212360231906826 
1764	 0.21232492519145 
1765	 0.212296379786218 
1766	 0.212265211195801 
1767	 0.212257350703978 
1768	 0.212270898425153 
1769	 0.212268018145171 
1770	 0.212242756377849 
1771	 0.21224674616611 
1772	 0.212220633200549 
1773	 0.212149193566607 
1774	 0.212110778548418 
1775	 0.212057962433585 
1776	 0.212006100050351 
1777	 0.212014804164716 
1778	 0.212046390911896 
1779	 0.212060602627122 
1780	 0.212068839004956 
1781	 0.21206901706037 
1782	 0.212024246390285 
1783	 0.212019902582753 
1784	 0.212017320432998 
1785	 0.212025960998489 
1786	 0.212012355039404 
1787	 0.21196890020342 
1788	 0.211949715992318 
1789	 0.211925009567751 
1790	 0.211931938582505 
1791	 0.211978879667353 
1792	 0.211996569088282 
1793	 0.212019593480673 
1794	 0.212030355319803 
1795	 0.212025175587557 
1796	 0.21203045744512 
1797	 0.212035640682616 
1798	 0.212030049998581 
1799	 0.212016518703742 
1800	 0.212011259733419 
1801	 0.210225389045118 
1802	 0.210287163756841 
1803	 0.210347086835617 
1804	 0.210324594418343 
1805	 0.210330544275132 
1806	 0.210321355666716 
1807	 0.210316541287662 
1808	 0.210338596741217 
1809	 0.210420272340255 
1810	 0.210452196933358 
1811	 0.210491794803251 
1812	 0.210482804253415 
1813	 0.210451938570626 
1814	 0.21043665705273 
1815	 0.210397762448253 
1816	 0.210363141907366 
1817	 0.210354232707545 
1818	 0.210360479697197 
1819	 0.210353906997208 
1820	 0.210353226949685 
1821	 0.210376458512448 
1822	 0.210360356489458 
1823	 0.210353413159518 
1824	 0.210363432032756 
1825	 0.21034867841325 
1826	 0.210348080022998 
1827	 0.210354603282115 
1828	 0.210342148179012 
1829	 0.210321868721326 
1830	 0.210295200775391 
1831	 0.210252563684004 
1832	 0.210213010076527 
1833	 0.210179321549444 
1834	 0.210143428317545 
1835	 0.210133492550924 
1836	 0.210123935168333 
1837	 0.210096456194503 
1838	 0.210084604421408 
1839	 0.210080552106366 
1840	 0.210085219080241 
1841	 0.210075026247189 
1842	 0.21007485792597 
1843	 0.210076957399726 
1844	 0.210066598672545 
1845	 0.210014221474967 
1846	 0.209944130095186 
1847	 0.20991301963819 
1848	 0.209845260950679 
1849	 0.209775356066543 
1850	 0.209730889337626 
1851	 0.209714371320133 
1852	 0.209658108273328 
1853	 0.209632168112927 
1854	 0.209631365722705 
1855	 0.20959760391286 
1856	 0.209545716305383 
1857	 0.209479302238842 
1858	 0.209396090136955 
1859	 0.20930142504098 
1860	 0.209198621750307 
1861	 0.209095308229986 
1862	 0.208961378533192 
1863	 0.2088078240048 
1864	 0.208662916412503 
1865	 0.208505116622494 
1866	 0.208342934518075 
1867	 0.208176708747314 
1868	 0.207992741077756 
1869	 0.207802475298417 
1870	 0.207598058594394 
1871	 0.207379779254179 
1872	 0.207151585209042 
1873	 0.206915200056225 
1874	 0.206659834004422 
1875	 0.206406886755568 
1876	 0.206132199576565 
1877	 0.205832670200419 
1878	 0.205496126015685 
1879	 0.205107698323224 
1880	 0.204694370438464 
1881	 0.204238937360209 
1882	 0.203767321876198 
1883	 0.203277798231147 
1884	 0.202739146807604 
1885	 0.202174340920552 
1886	 0.20159006384219 
1887	 0.200942755653158 
1888	 0.200298352118364 
1889	 0.199640834346186 
1890	 0.198930281941031 
1891	 0.198232758320893 
1892	 0.197513487662553 
1893	 0.196809978571188 
1894	 0.196097792996559 
1895	 0.195417529682757 
1896	 0.194725206411809 
1897	 0.194054064119064 
1898	 0.193423530348522 
1899	 0.192836557744255 
1900	 0.192285810872588 
1901	 0.19176617272718 
1902	 0.191281719503458 
1903	 0.190815811580756 
1904	 0.190393800916007 
1905	 0.190010361898109 
1906	 0.18969062385302 
1907	 0.189364427616589 
1908	 0.189058127475154 
1909	 0.188799199963286 
1910	 0.188543759625079 
1911	 0.188312630395527 
1912	 0.188126352127019 
1913	 0.187942654654898 
1914	 0.187770398484225 
1915	 0.187602128285623 
1916	 0.187454265294646 
1917	 0.187305106616851 
1918	 0.187143799435661 
1919	 0.187010307741592 
1920	 0.186898126762019 
1921	 0.186790877539397 
1922	 0.186703139986733 
1923	 0.186632055850607 
1924	 0.186576540084341 
1925	 0.186534346391634 
1926	 0.186508161931571 
1927	 0.186503552789454 
1928	 0.186506488238685 
1929	 0.186512211911343 
1930	 0.186539280757903 
1931	 0.186578196614351 
1932	 0.186610215990369 
1933	 0.186648127043291 
1934	 0.186696650083918 
1935	 0.186752431771568 
1936	 0.186807677432965 
1937	 0.186885267498455 
1938	 0.186977661592152 
1939	 0.187078319153266 
1940	 0.187199121470587 
1941	 0.187318033940835 
1942	 0.187439246849018 
1943	 0.187560064606856 
1944	 0.187671517316858 
1945	 0.187801413450002 
1946	 0.187936020236188 
1947	 0.188079072085701 
1948	 0.18822419467583 
1949	 0.188379477650151 
1950	 0.188532230299812 
1951	 0.188687944321324 
1952	 0.188848404722688 
1953	 0.18898892919066 
1954	 0.18912973851588 
1955	 0.189268628189902 
1956	 0.18940355940657 
1957	 0.189559530680374 
1958	 0.189734310636874 
1959	 0.189905340665456 
1960	 0.190091632488344 
1961	 0.190270027206409 
1962	 0.190448946803879 
1963	 0.190626509041634 
1964	 0.190801932774256 
1965	 0.190971831736365 
1966	 0.191151475239451 
1967	 0.191328978032496 
1968	 0.191507497959982 
1969	 0.191684541679758 
1970	 0.191872048893301 
1971	 0.19207342041418 
1972	 0.192254713193929 
1973	 0.192437120570742 
1974	 0.192613258876411 
1975	 0.192764270601465 
1976	 0.192928798585582 
1977	 0.193123407825377 
1978	 0.193305654991577 
1979	 0.193483232518549 
1980	 0.193678387425789 
1981	 0.193864476518679 
1982	 0.194040688775909 
1983	 0.19422169102007 
1984	 0.19440270657496 
1985	 0.194592134728509 
1986	 0.194793216857235 
1987	 0.194981146251371 
1988	 0.195170944051377 
1989	 0.195354477320201 
1990	 0.195533379914202 
1991	 0.1957232191473 
1992	 0.195918110953587 
1993	 0.196137435410325 
1994	 0.196331237530811 
1995	 0.196511648426998 
1996	 0.196697428750101 
1997	 0.196880353627287 
1998	 0.197060685996253 
1999	 0.197241447441791 
2000	 0.197420957627448 
2001	 0.197591297242486 
2002	 0.197764394075344 
2003	 0.197964495230514 
2004	 0.198157200446802 
2005	 0.198331888259619 
2006	 0.198513351441643 
2007	 0.198671836902292 
2008	 0.198783034129605 
2009	 0.19893474631529 
2010	 0.19910005796365 
2011	 0.199257274884529 
2012	 0.199434251639205 
2013	 0.199595806592368 
2014	 0.199744153018048 
2015	 0.199890729766072 
2016	 0.200026928636046 
2017	 0.200173294249029 
2018	 0.200338796127059 
2019	 0.200526110579636 
2020	 0.200691693860669 
2021	 0.200869361114902 
2022	 0.201034003504976 
2023	 0.201181081716008 
2024	 0.201325458766697 
2025	 0.201463200496908 
2026	 0.201610133547473 
2027	 0.201753497689742 
2028	 0.201896079024984 
2029	 0.202035196238151 
2030	 0.202185522794153 
2031	 0.202318559223228 
2032	 0.20242049331194 
2033	 0.202564092312968 
2034	 0.202725979128367 
2035	 0.202884001102866 
2036	 0.203076534835489 
2037	 0.203233573083028 
2038	 0.203378424888412 
2039	 0.203509800643237 
2040	 0.20362339495013 
2041	 0.20372315881127 
2042	 0.203832806488437 
2043	 0.203932664758665 
2044	 0.204026153289696 
2045	 0.204113185972013 
2046	 0.204208387203775 
2047	 0.204291341417947 
2048	 0.204388290294879 
2049	 0.204508463819361 
2050	 0.20460760860505 
2051	 0.20469718890157 
2052	 0.204790631480986 
2053	 0.204873749358674 
2054	 0.204965349625673 
2055	 0.205079781485738 
2056	 0.205165638898897 
2057	 0.205249527074238 
2058	 0.2053342474873 
2059	 0.205399358051213 
2060	 0.205432312509036 
2061	 0.205497070375158 
2062	 0.205561079359164 
2063	 0.205634927022289 
2064	 0.205725209581086 
2065	 0.205819278784852 
2066	 0.205920495694104 
2067	 0.206018941991566 
2068	 0.206133616492557 
2069	 0.206235029854685 
2070	 0.20632825985408 
2071	 0.206409373394079 
2072	 0.206499044675681 
2073	 0.206589764180787 
2074	 0.206670096408464 
2075	 0.206741277718919 
2076	 0.206825002429181 
2077	 0.206907878325011 
2078	 0.20698842266761 
2079	 0.20709258088001 
2080	 0.207168280694981 
2081	 0.207200730268993 
2082	 0.207267282571475 
2083	 0.20733371087903 
2084	 0.207415347193486 
2085	 0.207502565508725 
2086	 0.207629455951432 
2087	 0.207703099407203 
2088	 0.207756566973295 
2089	 0.207808238337948 
2090	 0.207818851538315 
2091	 0.207875343471431 
2092	 0.207963757002504 
2093	 0.208026184952399 
2094	 0.208097964251026 
2095	 0.208160864546664 
2096	 0.208193272472418 
2097	 0.208243401110343 
2098	 0.208300202169188 
2099	 0.20836544047817 
2100	 0.208441141197291 
2101	 0.208534081961988 
2102	 0.208603033942291 
2103	 0.208673420426112 
2104	 0.208741404368082 
2105	 0.208785002749768 
2106	 0.208850545673692 
2107	 0.208932706509664 
2108	 0.209010852101481 
2109	 0.209094460368803 
2110	 0.209175316527298 
2111	 0.209264923798719 
2112	 0.20933971654427 
2113	 0.20940594426269 
2114	 0.209474443504211 
2115	 0.209517786984692 
2116	 0.209537132677312 
2117	 0.209574605300369 
2118	 0.209591727533686 
2119	 0.209643221825415 
2120	 0.209719926511744 
2121	 0.209790091939352 
2122	 0.209891585367311 
2123	 0.209951195156679 
2124	 0.209991569500208 
2125	 0.210030082991182 
2126	 0.210038479471231 
2127	 0.210059556721086 
2128	 0.210096719317327 
2129	 0.210115964757416 
2130	 0.210118893832236 
2131	 0.210136108472102 
2132	 0.210130592802343 
2133	 0.210111666081113 
2134	 0.210081570131435 
2135	 0.210039769275446 
2136	 0.209992237893443 
2137	 0.209944776242041 
2138	 0.209865512400011 
2139	 0.209763167283893 
2140	 0.209660971642317 
2141	 0.209522395211042 
2142	 0.209403204647093 
2143	 0.20929864486839 
2144	 0.209185257707036 
2145	 0.209080934008871 
2146	 0.208957041102792 
2147	 0.208826316476672 
2148	 0.208679439849973 
2149	 0.208523505343064 
2150	 0.208350656310729 
2151	 0.208172389235529 
2152	 0.207984995811097 
2153	 0.20779116237583 
2154	 0.207569297911663 
2155	 0.20738150313789 
2156	 0.207201557228992 
2157	 0.207027086031316 
2158	 0.206887890949 
2159	 0.206718071429189 
2160	 0.206520964254715 
2161	 0.206345829602018 
2162	 0.206173199323729 
2163	 0.205998625802921 
2164	 0.205831944712238 
2165	 0.205675810930711 
2166	 0.205509893666119 
2167	 0.205336989376417 
2168	 0.205161592279215 
2169	 0.204995133039018 
2170	 0.204805109743806 
2171	 0.204588174856763 
2172	 0.204392850057147 
2173	 0.204191213026389 
2174	 0.204001010921569 
2175	 0.203829359479231 
2176	 0.203648371074914 
2177	 0.203455415763118 
2178	 0.203280788255515 
2179	 0.203120482246395 
2180	 0.202953151119772 
2181	 0.202774114358715 
2182	 0.202627482488152 
2183	 0.202485465218823 
2184	 0.202364468633829 
2185	 0.202253841262937 
2186	 0.202183957097123 
2187	 0.202082617591845 
2188	 0.201975253251192 
2189	 0.201866456323739 
2190	 0.201753441942135 
2191	 0.201639632404163 
2192	 0.201504864960363 
2193	 0.201405322998006 
2194	 0.201323399840002 
2195	 0.201242268706889 
2196	 0.201187856245621 
2197	 0.201124014156027 
2198	 0.201051127504315 
2199	 0.200985877311664 
2200	 0.200931339745282 
2201	 0.200871239442334 
2202	 0.200810862879683 
2203	 0.20074755499573 
2204	 0.200690773051965 
2205	 0.200633277732059 
2206	 0.200580241144783 
2207	 0.200520872671427 
2208	 0.200497289090346 
2209	 0.200491597540254 
2210	 0.20048687789558 
2211	 0.200502028592061 
2212	 0.200525727531434 
2213	 0.200546277878467 
2214	 0.200586826125274 
2215	 0.200648057898878 
2216	 0.200723263413165 
2217	 0.200814793627692 
2218	 0.200907865758285 
2219	 0.201039240552124 
2220	 0.201140873804796 
2221	 0.201220584725926 
2222	 0.20130459889168 
2223	 0.201404815812182 
2224	 0.201501934712947 
2225	 0.201589711247185 
2226	 0.201699550197152 
2227	 0.201763028681006 
2228	 0.20178349128089 
2229	 0.201832813363518 
2230	 0.201898741670843 
2231	 0.201915247210922 
2232	 0.201904088555103 
2233	 0.201907692573738 
2234	 0.201864903880308 
2235	 0.20186884537563 
2236	 0.201924188686239 
2237	 0.201950467014061 
2238	 0.201972961483173 
2239	 0.201992397251101 
2240	 0.201997647597121 
2241	 0.202016303071462 
2242	 0.202044947138406 
2243	 0.202068493638106 
2244	 0.20210172442003 
2245	 0.202125579724467 
2246	 0.202139630743703 
2247	 0.202117626366687 
2248	 0.20210019341296 
2249	 0.202054131467843 
2250	 0.202050250055533 
2251	 0.202058958988757 
2252	 0.202069145516829 
2253	 0.202109664439624 
2254	 0.202111096528966 
2255	 0.202083250391582 
2256	 0.202086654397039 
2257	 0.202093774681843 
2258	 0.202098259474799 
2259	 0.202126699503778 
2260	 0.202135498871627 
2261	 0.202110030756912 
2262	 0.202112990431609 
2263	 0.202124358798141 
2264	 0.202140142375131 
2265	 0.202191789499152 
2266	 0.202213884667229 
2267	 0.202211317254831 
2268	 0.202225423771516 
2269	 0.202223139817796 
2270	 0.202237432381921 
2271	 0.202280808228082 
2272	 0.202321014802838 
2273	 0.202359542241519 
2274	 0.202389466492105 
2275	 0.202424003208047 
2276	 0.20247256317088 
2277	 0.202478045845462 
2278	 0.202467743694888 
2279	 0.202438026096251 
2280	 0.202353902487588 
2281	 0.202318085531787 
2282	 0.202313368198415 
2283	 0.202275766633503 
2284	 0.202216232686339 
2285	 0.202193674543674 
2286	 0.20216872804224 
2287	 0.202146421978038 
2288	 0.202169569110142 
2289	 0.202163992460072 
2290	 0.202118429605801 
2291	 0.202103168625682 
2292	 0.202094766545763 
2293	 0.202099724305651 
2294	 0.202144128415095 
2295	 0.20215498208092 
2296	 0.20213770277137 
2297	 0.202175208742227 
2298	 0.202160987310011 
2299	 0.202079519588272 
2300	 0.202069667255419 
2301	 0.202035590417002 
2302	 0.20200298818698 
2303	 0.202031583608416 
2304	 0.202018612752251 
2305	 0.201959678550261 
2306	 0.201882313055594 
2307	 0.201745519558203 
2308	 0.201675778457409 
2309	 0.201610215086139 
2310	 0.201570052208953 
2311	 0.201599401688901 
2312	 0.201550960168371 
2313	 0.201480435634115 
2314	 0.201381768394997 
2315	 0.201217223536645 
2316	 0.201107147885853 
2317	 0.200985906348513 
2318	 0.200908350803927 
2319	 0.200866562484049 
2320	 0.200846693265472 
2321	 0.200847010879547 
2322	 0.200873319452128 
2323	 0.200968339843006 
2324	 0.201011970232423 
2325	 0.201055978575585 
2326	 0.201092143846958 
2327	 0.201094062644316 
2328	 0.201098492298592 
2329	 0.201120135373868 
2330	 0.201157960123187 
2331	 0.201185682318385 
2332	 0.201199363212583 
2333	 0.201236598481713 
2334	 0.201289117790965 
2335	 0.201364234733772 
2336	 0.201440649335 
2337	 0.201488375116792 
2338	 0.201487325905394 
2339	 0.201422310257252 
2340	 0.201359517159537 
2341	 0.201349641190764 
2342	 0.201361247831874 
2343	 0.201386669266582 
2344	 0.201402272062732 
2345	 0.201398653428673 
2346	 0.201348855279009 
2347	 0.201324483897731 
2348	 0.201332347748382 
2349	 0.201293143680687 
2350	 0.201237494776128 
2351	 0.201156833133647 
2352	 0.201007475452024 
2353	 0.200909175600693 
2354	 0.200798968244796 
2355	 0.200748211852509 
2356	 0.200779908940247 
2357	 0.200749396706737 
2358	 0.200706442176154 
2359	 0.200671656451563 
2360	 0.200622798776551 
2361	 0.200573441681157 
2362	 0.200550415345722 
2363	 0.200511058393724 
2364	 0.200435545757413 
2365	 0.200371534904418 
2366	 0.20031274817469 
2367	 0.200258750496353 
2368	 0.200223841032851 
2369	 0.200145104767341 
2370	 0.200052495097517 
2371	 0.199952756155967 
2372	 0.199810595785194 
2373	 0.199673458796031 
2374	 0.199596415911883 
2375	 0.199489764149234 
2376	 0.199344074180778 
2377	 0.199163609599487 
2378	 0.199034698631453 
2379	 0.198978292981593 
2380	 0.198847700558252 
2381	 0.198763716885645 
2382	 0.198651657981872 
2383	 0.198468826433884 
2384	 0.198379429023684 
2385	 0.198269391922703 
2386	 0.198079185958267 
2387	 0.197851586407151 
2388	 0.197671069430794 
2389	 0.197536367856445 
2390	 0.197376487836772 
2391	 0.197243038254715 
2392	 0.197007555970538 
2393	 0.196734484134076 
2394	 0.196632086216757 
2395	 0.196551393223505 
2396	 0.196521252944678 
2397	 0.196501051192915 
2398	 0.196358183319591 
2399	 0.196175854481952 
2400	 0.19599307711415 
2401	 0.195767112482689 
2402	 0.195529720543829 
2403	 0.195447614779939 
2404	 0.195393878880036 
2405	 0.195369150570124 
2406	 0.195405367810338 
2407	 0.195306105613875 
2408	 0.195131318328449 
2409	 0.194935371678816 
2410	 0.194721010024203 
2411	 0.19452667348708 
2412	 0.194455755927578 
2413	 0.194431097595017 
2414	 0.194394363810246 
2415	 0.194424839019437 
2416	 0.194316656416847 
2417	 0.19404658616542 
2418	 0.19386041163854 
2419	 0.193635283428473 
2420	 0.193382622060195 
2421	 0.193140240846389 
2422	 0.192941575363172 
2423	 0.192718827371348 
2424	 0.192579818061734 
2425	 0.192527405889403 
2426	 0.19239503164386 
2427	 0.192254022075287 
2428	 0.192118221668124 
2429	 0.191936927218217 
2430	 0.191823440898314 
2431	 0.191795043661805 
2432	 0.191706320865602 
2433	 0.191621016524173 
2434	 0.191446071082106 
2435	 0.191188061995875 
2436	 0.190992370527894 
2437	 0.190822656950485 
2438	 0.190602751714218 
2439	 0.19031785251505 
2440	 0.190122560694884 
2441	 0.189891689140637 
2442	 0.189730805024162 
2443	 0.189720849893919 
2444	 0.189662255722993 
2445	 0.189595622944542 
2446	 0.189512907433554 
2447	 0.189504378895778 
2448	 0.189313886760989 
2449	 0.188948977805785 
2450	 0.188711272807936 
2451	 0.188398518966563 
2452	 0.188258526920953 
2453	 0.188288135302503 
2454	 0.188205779085155 
2455	 0.188215605684394 
2456	 0.188052842835059 
2457	 0.187739283132666 
2458	 0.187526611122659 
2459	 0.187214259313337 
2460	 0.186981693083172 
2461	 0.186863495643622 
2462	 0.186711849052733 
2463	 0.186548054544208 
2464	 0.186422813605749 
2465	 0.186377833865133 
2466	 0.186218802342307 
2467	 0.186008855227389 
2468	 0.185822004616432 
2469	 0.185546763454551 
2470	 0.185378870701399 
2471	 0.185225133400103 
2472	 0.185312004051628 
2473	 0.185360240237447 
2474	 0.185214318957229 
2475	 0.185146473769995 
2476	 0.184957404067952 
2477	 0.184722538826821 
2478	 0.18456699338358 
2479	 0.184391003447601 
2480	 0.184223762020468 
2481	 0.184030229689902 
2482	 0.183844801377746 
2483	 0.183802917492671 
2484	 0.183605568741068 
2485	 0.18327678944592 
2486	 0.183259404266496 
2487	 0.183170799457523 
2488	 0.182931575159053 
2489	 0.182879390407355 
2490	 0.182748069697198 
2491	 0.182508706012683 
2492	 0.182467342418372 
2493	 0.182462195119094 
2494	 0.182258989448505 
2495	 0.182049321358267 
2496	 0.181869303772705 
2497	 0.181670752042084 
2498	 0.181532259935012 
2499	 0.18137860431765 
2500	 0.181159518722639 
