Wavelength	LMW400004.asd
350	 0.120937132954888 
351	 0.11844597338127 
352	 0.116314093294943 
353	 0.116750534128121 
354	 0.122187923150394 
355	 0.124222486588561 
356	 0.123344094392926 
357	 0.122290419399977 
358	 0.12274687476137 
359	 0.121463208615238 
360	 0.120120544887365 
361	 0.122963693597841 
362	 0.124987059035582 
363	 0.126279866758645 
364	 0.127405464513804 
365	 0.128501746078815 
366	 0.129656634447205 
367	 0.130911238369364 
368	 0.13215124416375 
369	 0.13285627722714 
370	 0.133621895053886 
371	 0.135124010883733 
372	 0.137671379861145 
373	 0.137263472124005 
374	 0.13701539751003 
375	 0.13894286268475 
376	 0.14183875715285 
377	 0.141433841502841 
378	 0.141529760099224 
379	 0.145593137462067 
380	 0.144569857156663 
381	 0.144326037887307 
382	 0.146142773847658 
383	 0.147491645333233 
384	 0.148729895862225 
385	 0.148685781557964 
386	 0.147888799993258 
387	 0.15061287062272 
388	 0.151371537310725 
389	 0.15127830335552 
390	 0.152760375099041 
391	 0.153759386065063 
392	 0.153570055073909 
393	 0.153814651901589 
394	 0.157529253941692 
395	 0.159221065171996 
396	 0.159764464998765 
397	 0.160437809200604 
398	 0.160950030679357 
399	 0.161783050414093 
400	 0.16324349615182 
401	 0.165172921158656 
402	 0.165475949614473 
403	 0.165653771940838 
404	 0.166295991393951 
405	 0.166833775444016 
406	 0.166742106769394 
407	 0.167424692285134 
408	 0.169350805644149 
409	 0.169725205772074 
410	 0.17003334838091 
411	 0.170076334601984 
412	 0.169316495330553 
413	 0.170696533394247 
414	 0.171725969925476 
415	 0.17147355970589 
416	 0.171560208133861 
417	 0.172037344367965 
418	 0.172713331328338 
419	 0.173284120385856 
420	 0.173441333412498 
421	 0.173349898115864 
422	 0.173475873185009 
423	 0.174324535249203 
424	 0.174804156145563 
425	 0.174972691510886 
426	 0.175046726390795 
427	 0.175200343021194 
428	 0.175567958493983 
429	 0.175848091308511 
430	 0.175810329766002 
431	 0.176347523758233 
432	 0.176810302018981 
433	 0.176922014706731 
434	 0.176850789763442 
435	 0.177127621086037 
436	 0.177396786126176 
437	 0.177368766662559 
438	 0.17734379811291 
439	 0.177803188673357 
440	 0.1784338323413 
441	 0.178636762240532 
442	 0.179156781459038 
443	 0.179456335787783 
444	 0.179408460855234 
445	 0.17966603480176 
446	 0.18002751478778 
447	 0.180344637000292 
448	 0.180543445333003 
449	 0.180826740061601 
450	 0.181282149425659 
451	 0.181688555530302 
452	 0.181623184533348 
453	 0.181793846428727 
454	 0.182108498855831 
455	 0.18240121208684 
456	 0.182702297355216 
457	 0.182982184421874 
458	 0.18319060009862 
459	 0.183299826550963 
460	 0.183525453243106 
461	 0.183594588405341 
462	 0.183574137797272 
463	 0.184070283016558 
464	 0.184219848173367 
465	 0.184244133031799 
466	 0.184500008349326 
467	 0.184574053295262 
468	 0.184777917583987 
469	 0.185112371500248 
470	 0.185320167238385 
471	 0.185401371354905 
472	 0.185468503406494 
473	 0.18561736718503 
474	 0.185860082055047 
475	 0.186111335213378 
476	 0.186335895385453 
477	 0.186518234987841 
478	 0.186577581543583 
479	 0.186769623885311 
480	 0.187097319688499 
481	 0.187182436070642 
482	 0.187265249336845 
483	 0.187361821472717 
484	 0.187453541503099 
485	 0.187626372123913 
486	 0.187817201917072 
487	 0.187991042605899 
488	 0.188142541964095 
489	 0.188304646863307 
490	 0.188402991893979 
491	 0.18844496777653 
492	 0.188706848830082 
493	 0.188796377245539 
494	 0.188770123118239 
495	 0.188878893966343 
496	 0.189087751107385 
497	 0.18921379229631 
498	 0.189264206319541 
499	 0.189552463201876 
500	 0.189738405017636 
501	 0.189820340999844 
502	 0.189882883092441 
503	 0.189889584867753 
504	 0.190040105117845 
505	 0.190282066280901 
506	 0.190345206272501 
507	 0.190462226726621 
508	 0.190576649314544 
509	 0.190618263924517 
510	 0.190622143654841 
511	 0.190614610676982 
512	 0.190695888015171 
513	 0.19096404857644 
514	 0.191163913634565 
515	 0.191282174132394 
516	 0.191348645662746 
517	 0.191407917814658 
518	 0.191461092431779 
519	 0.191493817270878 
520	 0.191517587596318 
521	 0.19172068675247 
522	 0.191857391897798 
523	 0.191900935087689 
524	 0.19207182262473 
525	 0.192136240803438 
526	 0.192154919039019 
527	 0.19221625852461 
528	 0.192281157200208 
529	 0.192334107069694 
530	 0.192392626168097 
531	 0.192494461962751 
532	 0.192636713708622 
533	 0.192820429764996 
534	 0.192994401184002 
535	 0.192981107376033 
536	 0.193003139778488 
537	 0.193108193746443 
538	 0.193254729115626 
539	 0.193322387701608 
540	 0.193365260799062 
541	 0.193431306781617 
542	 0.193541165713262 
543	 0.193606083015171 
544	 0.19367109359958 
545	 0.193790661156142 
546	 0.193908685338212 
547	 0.193954857519456 
548	 0.1939791374225 
549	 0.194120142738002 
550	 0.194177357356825 
551	 0.194231990570035 
552	 0.194364441586822 
553	 0.194526693786765 
554	 0.194638522496601 
555	 0.194716506466025 
556	 0.194826328888431 
557	 0.194942347924377 
558	 0.195069196296465 
559	 0.195207320081206 
560	 0.195350597716029 
561	 0.195429944906844 
562	 0.195454121522298 
563	 0.19547749575275 
564	 0.195618309203768 
565	 0.195751560113766 
566	 0.195835587536539 
567	 0.195938316153932 
568	 0.196071329920786 
569	 0.196261992795866 
570	 0.19649855656094 
571	 0.196640284951622 
572	 0.196770555035957 
573	 0.196912557380166 
574	 0.197041088516031 
575	 0.197093535279035 
576	 0.197197797724737 
577	 0.197387172555698 
578	 0.197411707045289 
579	 0.197495269154033 
580	 0.197639610015463 
581	 0.197771674258843 
582	 0.198005082697767 
583	 0.198218688404763 
584	 0.198355696964495 
585	 0.198479514453425 
586	 0.198561228837477 
587	 0.198631138350228 
588	 0.198720452824767 
589	 0.198791604956173 
590	 0.198844239778222 
591	 0.198919962900742 
592	 0.199088224324049 
593	 0.19920748609011 
594	 0.199258540918851 
595	 0.199285183752293 
596	 0.199419263779257 
597	 0.19962434085161 
598	 0.199844893912319 
599	 0.200016462216329 
600	 0.200118241202595 
601	 0.200237728751748 
602	 0.200388549150934 
603	 0.200429180456376 
604	 0.200437136779413 
605	 0.200460346846598 
606	 0.200535938701486 
607	 0.200691804337202 
608	 0.2008070586342 
609	 0.200877356353343 
610	 0.201037764742169 
611	 0.201175745304986 
612	 0.201296237715781 
613	 0.201416934277184 
614	 0.201498786887123 
615	 0.20159084565002 
616	 0.201710758928132 
617	 0.201847389834154 
618	 0.201949569137623 
619	 0.201990185253703 
620	 0.201996993912123 
621	 0.202111213534356 
622	 0.202189014059599 
623	 0.202236630088421 
624	 0.202314955626627 
625	 0.202422545175301 
626	 0.202494854461647 
627	 0.202515759979284 
628	 0.202536865947679 
629	 0.202674919563733 
630	 0.202812667431468 
631	 0.202833630761264 
632	 0.202903880737524 
633	 0.202938684006919 
634	 0.202960187179251 
635	 0.203070966032535 
636	 0.20315369864165 
637	 0.203199276883692 
638	 0.203225356688188 
639	 0.203258127950443 
640	 0.203342923347005 
641	 0.203460596304108 
642	 0.203553048247888 
643	 0.203544186452518 
644	 0.203555380428636 
645	 0.203650558139104 
646	 0.20378694459691 
647	 0.203828794272872 
648	 0.203826209009421 
649	 0.203869721092892 
650	 0.203955772831894 
651	 0.203992463885291 
652	 0.203992272008834 
653	 0.204057195550238 
654	 0.204176285379569 
655	 0.204225784140409 
656	 0.204176964176317 
657	 0.204292683078984 
658	 0.20439861372698 
659	 0.20445866822693 
660	 0.204496413354672 
661	 0.20446515335089 
662	 0.204507064097159 
663	 0.204649858942234 
664	 0.204735439501105 
665	 0.204763711104187 
666	 0.204788423598483 
667	 0.204851960798297 
668	 0.204852923241185 
669	 0.204915628978152 
670	 0.205029473451825 
671	 0.205072954864867 
672	 0.205101560364545 
673	 0.205160616808019 
674	 0.205255529657668 
675	 0.205301190432772 
676	 0.205343576878496 
677	 0.205375467501769 
678	 0.205383815292688 
679	 0.205472812325138 
680	 0.205539537054172 
681	 0.205575222177801 
682	 0.205716678318345 
683	 0.205750923096713 
684	 0.205748101186972 
685	 0.205816448259836 
686	 0.205922655189239 
687	 0.205975944055153 
688	 0.205996022282679 
689	 0.206072489076953 
690	 0.206105543611818 
691	 0.206115408108497 
692	 0.20613999958393 
693	 0.206222500982702 
694	 0.206277136440188 
695	 0.20630944364392 
696	 0.206352260624331 
697	 0.20637850650078 
698	 0.206430834818371 
699	 0.206519543396651 
700	 0.206616153405935 
701	 0.206679053725773 
702	 0.206730711305708 
703	 0.206784294991138 
704	 0.206779648624233 
705	 0.206771158076517 
706	 0.206788146770924 
707	 0.2068397648748 
708	 0.206895410428538 
709	 0.206935650828224 
710	 0.206966327404032 
711	 0.207027203561555 
712	 0.207078735438532 
713	 0.207107419958111 
714	 0.207120881688097 
715	 0.207171192460569 
716	 0.20724825717016 
717	 0.207326942557095 
718	 0.20737162204001 
719	 0.207346963730326 
720	 0.207328204932974 
721	 0.207361722380467 
722	 0.207408274397567 
723	 0.207475399879041 
724	 0.207543219981232 
725	 0.207583324587408 
726	 0.207563571744432 
727	 0.207580985326765 
728	 0.207648945369897 
729	 0.207697775141135 
730	 0.207720031654289 
731	 0.207718163356419 
732	 0.207710060042236 
733	 0.207742945280676 
734	 0.207772834393259 
735	 0.207782749106776 
736	 0.207779270317015 
737	 0.207837700238965 
738	 0.207889726422059 
739	 0.207895371611878 
740	 0.207860368874655 
741	 0.2078539237704 
742	 0.207889615463575 
743	 0.207946823354124 
744	 0.207953720136929 
745	 0.207958298118098 
746	 0.207968219194391 
747	 0.207972632872916 
748	 0.207971153533436 
749	 0.207980184125519 
750	 0.207997969555727 
751	 0.207999724231363 
752	 0.2079889862886 
753	 0.207988978103371 
754	 0.208019400137421 
755	 0.208083605753941 
756	 0.208107411130984 
757	 0.208081771002435 
758	 0.208040372163397 
759	 0.208035802738518 
760	 0.208030007027658 
761	 0.208014184326649 
762	 0.208026949450296 
763	 0.208057913774071 
764	 0.208072517988595 
765	 0.208050283735264 
766	 0.208021911983994 
767	 0.208041963327531 
768	 0.208060593162192 
769	 0.208001949568487 
770	 0.208022438741799 
771	 0.208053523159867 
772	 0.208048107171829 
773	 0.208011659041972 
774	 0.208004425717452 
775	 0.208008887059229 
776	 0.207995453337659 
777	 0.207948263667344 
778	 0.207949959709636 
779	 0.207974935093852 
780	 0.207959539094774 
781	 0.207953594106679 
782	 0.207975909942195 
783	 0.207985337818802 
784	 0.207892219903369 
785	 0.207918423560229 
786	 0.20798451147257 
787	 0.207989754462423 
788	 0.207922247008356 
789	 0.207900929928773 
790	 0.207920752497345 
791	 0.207933674116029 
792	 0.207961092299189 
793	 0.207954200707817 
794	 0.207927103146763 
795	 0.207944211194549 
796	 0.207949820015202 
797	 0.207932642878572 
798	 0.207895352437975 
799	 0.207850426395837 
800	 0.207828994374911 
801	 0.20785108435307 
802	 0.207900384954897 
803	 0.207839406352662 
804	 0.207866588280864 
805	 0.207937496756899 
806	 0.207881638832573 
807	 0.207909443239811 
808	 0.207903781412886 
809	 0.207844626056884 
810	 0.207878508110471 
811	 0.207920732978833 
812	 0.207929174795183 
813	 0.207905451374852 
814	 0.207945621590146 
815	 0.207958469165519 
816	 0.207919561102398 
817	 0.207852851815753 
818	 0.207861003192947 
819	 0.207921728290733 
820	 0.207977317944869 
821	 0.207957840357085 
822	 0.207933885702827 
823	 0.207910564105305 
824	 0.20789744701953 
825	 0.207927188802137 
826	 0.207942306284737 
827	 0.20795836188355 
828	 0.207986916977739 
829	 0.207960534610471 
830	 0.207908228211366 
831	 0.207871263115861 
832	 0.207886365226053 
833	 0.207922812677823 
834	 0.207995086976249 
835	 0.208058111862009 
836	 0.2080220086416 
837	 0.207979169135674 
838	 0.207990601768589 
839	 0.20804721508367 
840	 0.2080330090643 
841	 0.208068088780222 
842	 0.208050367865416 
843	 0.207925188608001 
844	 0.207975006870912 
845	 0.208047348391379 
846	 0.208060003575947 
847	 0.20800072914709 
848	 0.208041341500242 
849	 0.208047617534262 
850	 0.208028746618722 
851	 0.208109439277733 
852	 0.208111196432834 
853	 0.208064628225084 
854	 0.2080395120977 
855	 0.208111457041774 
856	 0.208168036803638 
857	 0.20818449865262 
858	 0.208170795687792 
859	 0.208162710289032 
860	 0.208162071192117 
861	 0.208180268342785 
862	 0.208220293324293 
863	 0.20824777055665 
864	 0.20825289554676 
865	 0.208265866843184 
866	 0.208319878791669 
867	 0.208284974493659 
868	 0.208290213174816 
869	 0.208344229858982 
870	 0.208320218079816 
871	 0.208301693152226 
872	 0.208294742945449 
873	 0.208301906752852 
874	 0.208338570448774 
875	 0.208383412243379 
876	 0.208397900307005 
877	 0.208380384647677 
878	 0.208432162862251 
879	 0.208498631112312 
880	 0.208512246533163 
881	 0.208453522597415 
882	 0.208511343647414 
883	 0.208549652167071 
884	 0.208526882152511 
885	 0.208482442741192 
886	 0.208552873776331 
887	 0.208625445543001 
888	 0.208625230602143 
889	 0.20855053329758 
890	 0.208574919734825 
891	 0.208636074979012 
892	 0.20869255776187 
893	 0.20876571408282 
894	 0.208724231017495 
895	 0.208685864488825 
896	 0.208740955396247 
897	 0.20883987372912 
898	 0.20888067074775 
899	 0.208841247373002 
900	 0.208762680807076 
901	 0.208768398587388 
902	 0.208850879258328 
903	 0.208924805428336 
904	 0.20892369534211 
905	 0.208970008332937 
906	 0.208979729040755 
907	 0.208995023652073 
908	 0.209081678385457 
909	 0.209102526176852 
910	 0.209086551268991 
911	 0.209089343496346 
912	 0.2091562760325 
913	 0.209190314415439 
914	 0.209173747247394 
915	 0.209163681033575 
916	 0.209249175623552 
917	 0.209245592156174 
918	 0.20924906899283 
919	 0.209327352235165 
920	 0.209457291998583 
921	 0.209432440326406 
922	 0.209403962048439 
923	 0.209459224130617 
924	 0.209498923312118 
925	 0.209544158295967 
926	 0.209595598435685 
927	 0.20964893285557 
928	 0.209694821433859 
929	 0.209856100012453 
930	 0.209961730382437 
931	 0.209911209553333 
932	 0.20993905880207 
933	 0.209929789456122 
934	 0.209919193261514 
935	 0.209941196065358 
936	 0.209897761853736 
937	 0.209918910822429 
938	 0.209981011003962 
939	 0.210036642788489 
940	 0.210164868245725 
941	 0.210178990813003 
942	 0.210176826156709 
943	 0.21029289112572 
944	 0.210321045397216 
945	 0.21034789033599 
946	 0.210423181427798 
947	 0.210538749114876 
948	 0.210538068638123 
949	 0.210533761260979 
950	 0.210516484132083 
951	 0.210461321644982 
952	 0.210606752384839 
953	 0.210762025277256 
954	 0.21081427189297 
955	 0.210771275346019 
956	 0.210913613920276 
957	 0.210969421792394 
958	 0.210912346058314 
959	 0.210881041236721 
960	 0.210880427950159 
961	 0.210902126624361 
962	 0.210959767869284 
963	 0.211069103668457 
964	 0.211177207805224 
965	 0.211264022304422 
966	 0.211308000797349 
967	 0.211300468825295 
968	 0.211297094609842 
969	 0.211317450255135 
970	 0.211378020868331 
971	 0.211484419673896 
972	 0.211608311331854 
973	 0.21166666216379 
974	 0.211678509877248 
975	 0.211733871495618 
976	 0.211883797158236 
977	 0.211973215391236 
978	 0.2119841210792 
979	 0.21199397379319 
980	 0.211993922337036 
981	 0.21194214003787 
982	 0.211925098131855 
983	 0.212062923826958 
984	 0.212230169475337 
985	 0.212355712216793 
986	 0.212355015067378 
987	 0.212223523023411 
988	 0.212315296996742 
989	 0.212414980942621 
990	 0.212499275794029 
991	 0.212600711365552 
992	 0.212446562246699 
993	 0.212466454498593 
994	 0.212662462840651 
995	 0.212812630482862 
996	 0.212764478083201 
997	 0.21273781078726 
998	 0.212820777048 
999	 0.212997845542699 
1000	 0.213167538590869 
1001	 0.214529873300302 
1002	 0.214514642878456 
1003	 0.214492264319143 
1004	 0.214488048886586 
1005	 0.214468169832364 
1006	 0.214511146254072 
1007	 0.214606394765248 
1008	 0.21466128854961 
1009	 0.214732000412159 
1010	 0.214744841635588 
1011	 0.214698631144747 
1012	 0.214751803342413 
1013	 0.214864357421565 
1014	 0.214905190470941 
1015	 0.214898998567595 
1016	 0.214916749870077 
1017	 0.214938557216406 
1018	 0.214923516349842 
1019	 0.214926410513912 
1020	 0.215007152308522 
1021	 0.215049823896401 
1022	 0.215004720231989 
1023	 0.2150023961521 
1024	 0.215057305073832 
1025	 0.215072674535573 
1026	 0.215082337314866 
1027	 0.215118899163051 
1028	 0.21514438196189 
1029	 0.215157605767907 
1030	 0.215168786628825 
1031	 0.215204697733079 
1032	 0.215265990086479 
1033	 0.215294348029787 
1034	 0.215321899228185 
1035	 0.215397941437749 
1036	 0.215419109416714 
1037	 0.215407287445875 
1038	 0.215386263423486 
1039	 0.215338307276442 
1040	 0.21533656686582 
1041	 0.21540335395619 
1042	 0.215534530136629 
1043	 0.215668996791555 
1044	 0.215751991357864 
1045	 0.215826253858365 
1046	 0.215874976450037 
1047	 0.215868083721637 
1048	 0.215828062771308 
1049	 0.215834072989107 
1050	 0.215849306321311 
1051	 0.215886762497066 
1052	 0.216004055392991 
1053	 0.216110433080328 
1054	 0.216183833243537 
1055	 0.216232272677125 
1056	 0.216242120491919 
1057	 0.216259191876707 
1058	 0.216245849050851 
1059	 0.216279457698066 
1060	 0.2163349789255 
1061	 0.216402865376976 
1062	 0.216413462847338 
1063	 0.216407878502172 
1064	 0.21640669440425 
1065	 0.21639230716404 
1066	 0.216445590060528 
1067	 0.21650428732173 
1068	 0.2165162221393 
1069	 0.216530797520423 
1070	 0.216531322350566 
1071	 0.216519202834937 
1072	 0.216515458644266 
1073	 0.216494298958344 
1074	 0.216475202543709 
1075	 0.216460885615163 
1076	 0.216451278209248 
1077	 0.216411581229997 
1078	 0.216363635305232 
1079	 0.216310564401294 
1080	 0.216253422241707 
1081	 0.216232645841616 
1082	 0.216269174137549 
1083	 0.216275878046456 
1084	 0.216306671988478 
1085	 0.216292119134056 
1086	 0.216230860797655 
1087	 0.216201655411265 
1088	 0.216168481089409 
1089	 0.216144051955014 
1090	 0.216139295298316 
1091	 0.216150730999188 
1092	 0.216118369204272 
1093	 0.216115943598193 
1094	 0.216146933578921 
1095	 0.216116954710397 
1096	 0.216109805639972 
1097	 0.216122410846885 
1098	 0.216118819030465 
1099	 0.216100913663394 
1100	 0.216096162480926 
1101	 0.216074820468345 
1102	 0.216087177696769 
1103	 0.21611534012894 
1104	 0.216156464995091 
1105	 0.216184814302052 
1106	 0.216202566378137 
1107	 0.216213459904842 
1108	 0.216193465127028 
1109	 0.216201799823596 
1110	 0.216265969609188 
1111	 0.21630477700607 
1112	 0.216337427645095 
1113	 0.21638516143103 
1114	 0.216454892884261 
1115	 0.216484462022703 
1116	 0.216488265743903 
1117	 0.216529145121546 
1118	 0.216563476120992 
1119	 0.216603300347227 
1120	 0.216699258027835 
1121	 0.216758776887468 
1122	 0.216789629111856 
1123	 0.216842540025573 
1124	 0.216900347173866 
1125	 0.216970747722151 
1126	 0.217021119240376 
1127	 0.217052034702851 
1128	 0.217115299315587 
1129	 0.217191778014479 
1130	 0.217250415873973 
1131	 0.217344598245942 
1132	 0.217401979829055 
1133	 0.217418025630466 
1134	 0.217437843010998 
1135	 0.217442994860257 
1136	 0.217444713280032 
1137	 0.217503653635011 
1138	 0.217543768772828 
1139	 0.217585543089013 
1140	 0.217660891565946 
1141	 0.217709002729259 
1142	 0.217727179405447 
1143	 0.217759255357255 
1144	 0.217796394718775 
1145	 0.217830513841283 
1146	 0.217869469169493 
1147	 0.217894180009685 
1148	 0.217908046768353 
1149	 0.217931206926427 
1150	 0.217957377015066 
1151	 0.217953378270804 
1152	 0.217988863840262 
1153	 0.218043244985696 
1154	 0.218075568493482 
1155	 0.218108368968528 
1156	 0.21813760747204 
1157	 0.218162767017646 
1158	 0.218172108270826 
1159	 0.218166688965513 
1160	 0.21817907050149 
1161	 0.218180738339276 
1162	 0.218193186029597 
1163	 0.218226575573755 
1164	 0.218251315661335 
1165	 0.218268328120548 
1166	 0.218295120319149 
1167	 0.218316685764572 
1168	 0.218344802425737 
1169	 0.218353937800067 
1170	 0.218354051748717 
1171	 0.218347405931438 
1172	 0.218322157710281 
1173	 0.218313706786049 
1174	 0.218300170780887 
1175	 0.218301229085035 
1176	 0.218318491226035 
1177	 0.218329256922283 
1178	 0.21834973158479 
1179	 0.218359887941745 
1180	 0.218361308051247 
1181	 0.218365945419545 
1182	 0.218368423950047 
1183	 0.218372823587304 
1184	 0.218369108896948 
1185	 0.218352591997423 
1186	 0.218369622234529 
1187	 0.218402378844913 
1188	 0.218415865521529 
1189	 0.21844652455007 
1190	 0.218464452655656 
1191	 0.218451189055812 
1192	 0.218460421742705 
1193	 0.218498159093079 
1194	 0.218510248559157 
1195	 0.218507810159021 
1196	 0.218511428920676 
1197	 0.218506743486287 
1198	 0.218503579323143 
1199	 0.218501853313743 
1200	 0.218503768782622 
1201	 0.218509060467675 
1202	 0.218514825472418 
1203	 0.218520167724645 
1204	 0.218523219280119 
1205	 0.218542870115566 
1206	 0.218576155262316 
1207	 0.218592828163227 
1208	 0.218618951289579 
1209	 0.218634866209556 
1210	 0.218626769175321 
1211	 0.218631651664696 
1212	 0.218654949239125 
1213	 0.21865974171404 
1214	 0.218648253734545 
1215	 0.21864579616303 
1216	 0.218642709056334 
1217	 0.218625305879444 
1218	 0.218635484007586 
1219	 0.218672240013746 
1220	 0.218679423066258 
1221	 0.21868410527588 
1222	 0.218688900370897 
1223	 0.218678528677896 
1224	 0.218674466674678 
1225	 0.218680797180309 
1226	 0.218679422511942 
1227	 0.218661515421335 
1228	 0.218659240444361 
1229	 0.218662757606639 
1230	 0.218671331973591 
1231	 0.218698101544475 
1232	 0.218712404880418 
1233	 0.218723251590613 
1234	 0.218735974827155 
1235	 0.218736684297983 
1236	 0.218721326511224 
1237	 0.218720535130585 
1238	 0.218721887621028 
1239	 0.218720048075059 
1240	 0.21871561490793 
1241	 0.218723341692619 
1242	 0.21874155518554 
1243	 0.218745294113834 
1244	 0.218758791125549 
1245	 0.218758471798274 
1246	 0.218730937696871 
1247	 0.218716874836904 
1248	 0.21870147145082 
1249	 0.218694579966324 
1250	 0.218692556711377 
1251	 0.218700079886478 
1252	 0.218704803005456 
1253	 0.21872104774638 
1254	 0.218718248635514 
1255	 0.218700794166685 
1256	 0.218699873461349 
1257	 0.218701016300044 
1258	 0.218698259172431 
1259	 0.218707851859046 
1260	 0.218704788700712 
1261	 0.218684649832874 
1262	 0.218672972461657 
1263	 0.218665910931935 
1264	 0.218654389120354 
1265	 0.21864270693101 
1266	 0.218629786364464 
1267	 0.218613972265386 
1268	 0.21859206149424 
1269	 0.218582325241348 
1270	 0.218573774067988 
1271	 0.218570760179854 
1272	 0.218575204636439 
1273	 0.218582450105828 
1274	 0.218584202085332 
1275	 0.218610971138313 
1276	 0.218661169778133 
1277	 0.218697164206312 
1278	 0.218739381512689 
1279	 0.218786983933015 
1280	 0.218821189455538 
1281	 0.218874982571578 
1282	 0.218959164058688 
1283	 0.219026992391923 
1284	 0.219105174788917 
1285	 0.219165630063763 
1286	 0.219201917438986 
1287	 0.219226895877866 
1288	 0.219230087122496 
1289	 0.219196979111738 
1290	 0.219188863323995 
1291	 0.219178867010328 
1292	 0.219161383264539 
1293	 0.219145691903094 
1294	 0.219126167265521 
1295	 0.219094769353451 
1296	 0.219068720927889 
1297	 0.219055242640189 
1298	 0.219023343576453 
1299	 0.218981747507253 
1300	 0.218935512089478 
1301	 0.218878209069098 
1302	 0.218818834436096 
1303	 0.218754448085525 
1304	 0.218691192961642 
1305	 0.218617960400714 
1306	 0.218534740225926 
1307	 0.218466961763841 
1308	 0.218390933728845 
1309	 0.218308783418131 
1310	 0.218222883650514 
1311	 0.218149328168321 
1312	 0.218063682344637 
1313	 0.218001406051899 
1314	 0.217970955088506 
1315	 0.217909380690818 
1316	 0.217836894546566 
1317	 0.217774907057717 
1318	 0.217692079620641 
1319	 0.217641565642906 
1320	 0.217615601471364 
1321	 0.217591414880011 
1322	 0.217588331882772 
1323	 0.217573735848527 
1324	 0.217560027058936 
1325	 0.217539272861313 
1326	 0.217503022656837 
1327	 0.217475417198123 
1328	 0.217442355921984 
1329	 0.217411720264071 
1330	 0.21739454257023 
1331	 0.217376267061829 
1332	 0.217381969404981 
1333	 0.217408721915797 
1334	 0.217436910428443 
1335	 0.217486092000532 
1336	 0.217521098646149 
1337	 0.217551689594394 
1338	 0.217585478778413 
1339	 0.217618422511184 
1340	 0.217652777126878 
1341	 0.217688114853468 
1342	 0.217727449359814 
1343	 0.217778296936121 
1344	 0.217809446944882 
1345	 0.217832260377473 
1346	 0.217860861394613 
1347	 0.217866549163438 
1348	 0.217884442560382 
1349	 0.217918873465446 
1350	 0.217944277750659 
1351	 0.217976425590411 
1352	 0.218019700851378 
1353	 0.218044970421731 
1354	 0.218061894298835 
1355	 0.218085180611413 
1356	 0.218105008359063 
1357	 0.218121442333846 
1358	 0.218137555325677 
1359	 0.218156395264257 
1360	 0.218166173957903 
1361	 0.218185131353362 
1362	 0.218212204203896 
1363	 0.218243255980601 
1364	 0.218286551152206 
1365	 0.218317503640959 
1366	 0.218342145720767 
1367	 0.218375310304796 
1368	 0.218409091718348 
1369	 0.218415260512475 
1370	 0.218430258079686 
1371	 0.218443602190568 
1372	 0.218433955041691 
1373	 0.218432960557457 
1374	 0.21841745577906 
1375	 0.218401215467577 
1376	 0.218354407680648 
1377	 0.218289177943966 
1378	 0.218217745444803 
1379	 0.218115020783468 
1380	 0.218030523623864 
1381	 0.217957937496776 
1382	 0.2178641720345 
1383	 0.217767774724985 
1384	 0.217661103067539 
1385	 0.217546194762182 
1386	 0.217412818475029 
1387	 0.217275355150344 
1388	 0.217114495392288 
1389	 0.216929611132664 
1390	 0.216731224934731 
1391	 0.216528451086525 
1392	 0.216317108075353 
1393	 0.216091022046607 
1394	 0.215849987057201 
1395	 0.215588690580015 
1396	 0.215304413174617 
1397	 0.215029753642986 
1398	 0.214748929196097 
1399	 0.214471698757292 
1400	 0.214195274702498 
1401	 0.213919688801115 
1402	 0.213635707686168 
1403	 0.213365887262301 
1404	 0.213093525010919 
1405	 0.212846801313553 
1406	 0.212619986339985 
1407	 0.212397418957407 
1408	 0.212180360170405 
1409	 0.211987888317619 
1410	 0.211798592479187 
1411	 0.211639616788214 
1412	 0.211515405964585 
1413	 0.211399498949632 
1414	 0.211290598710883 
1415	 0.211190908766891 
1416	 0.211098021590638 
1417	 0.211016686183235 
1418	 0.210929955521879 
1419	 0.210849943944638 
1420	 0.210774117803058 
1421	 0.210693272128679 
1422	 0.210613889506606 
1423	 0.210546489577389 
1424	 0.210483550491272 
1425	 0.210415578311213 
1426	 0.210364652598191 
1427	 0.210330008290406 
1428	 0.210294288105599 
1429	 0.210264351745935 
1430	 0.210241777064444 
1431	 0.210224572035363 
1432	 0.210212884090073 
1433	 0.21021245350963 
1434	 0.210206201269268 
1435	 0.210197485964232 
1436	 0.210200102474455 
1437	 0.210199121359644 
1438	 0.210211907976095 
1439	 0.210244058880103 
1440	 0.210272513699908 
1441	 0.210290669875404 
1442	 0.21030950952084 
1443	 0.210310749603161 
1444	 0.210302552592461 
1445	 0.210314515333639 
1446	 0.210329164526084 
1447	 0.210329850656882 
1448	 0.210326891752122 
1449	 0.21030760364118 
1450	 0.210293622127227 
1451	 0.210291038790867 
1452	 0.210297477976023 
1453	 0.210303274903836 
1454	 0.210317314353836 
1455	 0.210326103320099 
1456	 0.210334020269791 
1457	 0.210350405917162 
1458	 0.210365069519996 
1459	 0.210388605376865 
1460	 0.210423233062985 
1461	 0.210450905041866 
1462	 0.210486064636795 
1463	 0.210514228421325 
1464	 0.210535261449259 
1465	 0.210556983882749 
1466	 0.210575252599916 
1467	 0.210596241214159 
1468	 0.210610648818788 
1469	 0.210639344979254 
1470	 0.210689815618053 
1471	 0.21071556470362 
1472	 0.210736308333839 
1473	 0.210758360331577 
1474	 0.210754525160266 
1475	 0.210771466937915 
1476	 0.210815557520467 
1477	 0.21086369359096 
1478	 0.210940850143814 
1479	 0.211039373281852 
1480	 0.211138172022506 
1481	 0.211255097675498 
1482	 0.211367851802691 
1483	 0.211484678776687 
1484	 0.211593777806872 
1485	 0.211708167432939 
1486	 0.211811767134075 
1487	 0.211901017167929 
1488	 0.212012418045198 
1489	 0.212139322469175 
1490	 0.212237906925514 
1491	 0.212332738156913 
1492	 0.2124242029057 
1493	 0.212488030256267 
1494	 0.21257032347916 
1495	 0.21267852805846 
1496	 0.212765856610422 
1497	 0.212840278189832 
1498	 0.212915775800185 
1499	 0.212975006683791 
1500	 0.21304781340197 
1501	 0.213136767202491 
1502	 0.213210964254773 
1503	 0.213282718713987 
1504	 0.213358564220563 
1505	 0.213410115346108 
1506	 0.213468468570292 
1507	 0.213531550920149 
1508	 0.213585200155659 
1509	 0.213645347405211 
1510	 0.213701692703416 
1511	 0.213762436464592 
1512	 0.213825249870124 
1513	 0.213898369491671 
1514	 0.213972775117453 
1515	 0.214038777955766 
1516	 0.214106535399814 
1517	 0.214153573251095 
1518	 0.21417514291798 
1519	 0.214218705648314 
1520	 0.214252959148218 
1521	 0.2143084670449 
1522	 0.214395713723793 
1523	 0.214445791147452 
1524	 0.214483549729946 
1525	 0.214528440258641 
1526	 0.214550130731368 
1527	 0.214596398503856 
1528	 0.214679226288486 
1529	 0.214724534661617 
1530	 0.214750594320016 
1531	 0.214786736561335 
1532	 0.214804812211796 
1533	 0.214838063872669 
1534	 0.214892560748084 
1535	 0.214932908817905 
1536	 0.214965323100226 
1537	 0.215001381386336 
1538	 0.215036136762001 
1539	 0.21507223251222 
1540	 0.215121131991642 
1541	 0.215149926003247 
1542	 0.215168955905196 
1543	 0.215182447050392 
1544	 0.215165077322011 
1545	 0.215173151063238 
1546	 0.215190581291468 
1547	 0.215211513572344 
1548	 0.215244694562689 
1549	 0.215295461484124 
1550	 0.21533519156888 
1551	 0.215366245131964 
1552	 0.215387739826485 
1553	 0.215399832940592 
1554	 0.215422687319645 
1555	 0.215441213823785 
1556	 0.21545873651383 
1557	 0.215483476610208 
1558	 0.215507117901905 
1559	 0.215522385117321 
1560	 0.21553237779459 
1561	 0.215547019248346 
1562	 0.215550852634574 
1563	 0.21552711150894 
1564	 0.215542635987858 
1565	 0.215571869329171 
1566	 0.215602904971219 
1567	 0.215655696966508 
1568	 0.215699671349364 
1569	 0.215745589059851 
1570	 0.215778200076701 
1571	 0.215810837486452 
1572	 0.21583633964178 
1573	 0.215850877433599 
1574	 0.215862630493157 
1575	 0.215865546019491 
1576	 0.215876428247459 
1577	 0.215882105684175 
1578	 0.215892713969492 
1579	 0.215920563039279 
1580	 0.215930777542398 
1581	 0.215936345676147 
1582	 0.215929357582837 
1583	 0.215902156363298 
1584	 0.21588902922175 
1585	 0.215862324500466 
1586	 0.215856410506203 
1587	 0.215873582663557 
1588	 0.215882686998498 
1589	 0.215904452578558 
1590	 0.21591389875152 
1591	 0.215914706058429 
1592	 0.215913331848712 
1593	 0.215902392188596 
1594	 0.215897074551994 
1595	 0.215887985384116 
1596	 0.215888952157774 
1597	 0.215898350793213 
1598	 0.215905426602881 
1599	 0.215921552022402 
1600	 0.215932394237438 
1601	 0.215934272510537 
1602	 0.215942195324506 
1603	 0.215955527883273 
1604	 0.215962854360462 
1605	 0.215976219843126 
1606	 0.215982298596997 
1607	 0.215983022289672 
1608	 0.215972187124112 
1609	 0.215969426294143 
1610	 0.215971121132916 
1611	 0.215955755944834 
1612	 0.215946579561282 
1613	 0.215951955343288 
1614	 0.21593205350975 
1615	 0.215943199123628 
1616	 0.215976169527464 
1617	 0.215984961246565 
1618	 0.216004752910017 
1619	 0.216012661934516 
1620	 0.216002586539473 
1621	 0.216004490945742 
1622	 0.216006699761724 
1623	 0.216004827785651 
1624	 0.216002558663298 
1625	 0.216003005744097 
1626	 0.216000615510118 
1627	 0.21599659364654 
1628	 0.215993774759298 
1629	 0.215999567808961 
1630	 0.216008381607752 
1631	 0.216007142842817 
1632	 0.216011678882337 
1633	 0.216007309157066 
1634	 0.21598513820563 
1635	 0.215978015339305 
1636	 0.215984868423088 
1637	 0.215973253900066 
1638	 0.215946020075389 
1639	 0.215942161131977 
1640	 0.215938230866151 
1641	 0.215944170443884 
1642	 0.215978659909733 
1643	 0.215983628437873 
1644	 0.215975064468572 
1645	 0.215971526556376 
1646	 0.215956233231312 
1647	 0.215954343891577 
1648	 0.215958781136705 
1649	 0.215965078199592 
1650	 0.215977049141433 
1651	 0.215987436034795 
1652	 0.216006837412661 
1653	 0.216008674940113 
1654	 0.216009585026303 
1655	 0.215992106244806 
1656	 0.215947769115734 
1657	 0.215924672469949 
1658	 0.215890002645329 
1659	 0.215881724269004 
1660	 0.21590192313638 
1661	 0.215904015070222 
1662	 0.215912495976114 
1663	 0.215913274249323 
1664	 0.215903757266133 
1665	 0.21589714957344 
1666	 0.215889332570286 
1667	 0.215885355740852 
1668	 0.215887283129797 
1669	 0.215874371817413 
1670	 0.215850530929742 
1671	 0.215842419615316 
1672	 0.215836252727271 
1673	 0.215820426070074 
1674	 0.215804623666539 
1675	 0.215803724681703 
1676	 0.215793718716205 
1677	 0.215797040304072 
1678	 0.215839677523718 
1679	 0.215844428942487 
1680	 0.215825599417386 
1681	 0.21581701677196 
1682	 0.215799415153247 
1683	 0.215786006641256 
1684	 0.215775737335519 
1685	 0.215766992531559 
1686	 0.215756202505652 
1687	 0.215749989100644 
1688	 0.215744209529547 
1689	 0.21575106262019 
1690	 0.215771783140221 
1691	 0.21577730656942 
1692	 0.215790331310091 
1693	 0.215791172280583 
1694	 0.215775524352323 
1695	 0.215761203890019 
1696	 0.215753029241124 
1697	 0.215724181377988 
1698	 0.215667660022556 
1699	 0.21564077214112 
1700	 0.215614416754934 
1701	 0.215594101738187 
1702	 0.21559420335432 
1703	 0.215587549699814 
1704	 0.215579105976696 
1705	 0.215567784275625 
1706	 0.215559668654359 
1707	 0.215550463751934 
1708	 0.215532249130652 
1709	 0.215521315025738 
1710	 0.215517526460761 
1711	 0.215513006973723 
1712	 0.215506190264655 
1713	 0.21550649464038 
1714	 0.215523750276287 
1715	 0.215512794329372 
1716	 0.215486373848618 
1717	 0.215471598879594 
1718	 0.215443143168075 
1719	 0.215423655949615 
1720	 0.215423993995827 
1721	 0.215403118971284 
1722	 0.215372527942165 
1723	 0.215340232750684 
1724	 0.215286284369374 
1725	 0.215267946710221 
1726	 0.215272213858822 
1727	 0.215253502399646 
1728	 0.215255021702919 
1729	 0.215221945695148 
1730	 0.215147895558294 
1731	 0.215094322527718 
1732	 0.215053643565427 
1733	 0.214983954440419 
1734	 0.214888864253219 
1735	 0.21482507203382 
1736	 0.214755140925918 
1737	 0.214689415314713 
1738	 0.214650006867006 
1739	 0.214594798757226 
1740	 0.214516581780621 
1741	 0.214474456265601 
1742	 0.214463005668998 
1743	 0.214425761067289 
1744	 0.214390995644344 
1745	 0.214330267673522 
1746	 0.214242745025643 
1747	 0.214173655233043 
1748	 0.214120260430999 
1749	 0.214069944187119 
1750	 0.214022194544487 
1751	 0.213987713470109 
1752	 0.213952484055938 
1753	 0.213920863737194 
1754	 0.213870602171235 
1755	 0.213790401153826 
1756	 0.213718414407285 
1757	 0.213671003290434 
1758	 0.213620936879347 
1759	 0.213556865156574 
1760	 0.213501699561329 
1761	 0.213441488734375 
1762	 0.213378141925453 
1763	 0.21334393980022 
1764	 0.213308626632683 
1765	 0.213268676006143 
1766	 0.213261202850601 
1767	 0.213256527204346 
1768	 0.213246762648751 
1769	 0.213248898372276 
1770	 0.213230972869597 
1771	 0.213207447865629 
1772	 0.213187378048513 
1773	 0.21314575646297 
1774	 0.213102254333414 
1775	 0.213049764949701 
1776	 0.213009179525565 
1777	 0.213012558615813 
1778	 0.213010576616641 
1779	 0.213011915016425 
1780	 0.213022391707065 
1781	 0.213007341978169 
1782	 0.212983324285988 
1783	 0.212979805723049 
1784	 0.212957958793467 
1785	 0.2129094806344 
1786	 0.212883883169837 
1787	 0.212851082221125 
1788	 0.212840285502928 
1789	 0.212857081503189 
1790	 0.212872761956251 
1791	 0.212903062109026 
1792	 0.212918756406644 
1793	 0.212937026004118 
1794	 0.212948263946297 
1795	 0.212948000859162 
1796	 0.212949177817415 
1797	 0.212946947886704 
1798	 0.212953012563506 
1799	 0.212959997066348 
1800	 0.21295758916563 
1801	 0.211219073710327 
1802	 0.2112863944646 
1803	 0.211337618334886 
1804	 0.211373305069139 
1805	 0.211412890361901 
1806	 0.211434975938793 
1807	 0.211471665229945 
1808	 0.211502411961996 
1809	 0.21155091395471 
1810	 0.211559556806939 
1811	 0.211547671148926 
1812	 0.211533416652273 
1813	 0.211512886724085 
1814	 0.21147716561787 
1815	 0.211471548786075 
1816	 0.211480588647818 
1817	 0.211478440494516 
1818	 0.2114709070017 
1819	 0.211477898881527 
1820	 0.21149616288711 
1821	 0.211497863218088 
1822	 0.211509606560237 
1823	 0.211511680542859 
1824	 0.211465953391589 
1825	 0.211410051692946 
1826	 0.211383432505416 
1827	 0.211380017166737 
1828	 0.211369776897331 
1829	 0.211399597983805 
1830	 0.211384645083459 
1831	 0.211344826085442 
1832	 0.211293705711876 
1833	 0.211249729564644 
1834	 0.211242422341677 
1835	 0.211239191539862 
1836	 0.211223723432729 
1837	 0.211188280170328 
1838	 0.211139138943453 
1839	 0.211109831342538 
1840	 0.211091857467534 
1841	 0.211054082495649 
1842	 0.211026944454934 
1843	 0.211025039902012 
1844	 0.210993077020377 
1845	 0.21096417728504 
1846	 0.210919608193628 
1847	 0.210849033428844 
1848	 0.210769449217985 
1849	 0.21069417110684 
1850	 0.210640196312142 
1851	 0.21060797647176 
1852	 0.210575388371624 
1853	 0.210542415866697 
1854	 0.210501663123384 
1855	 0.210433685468322 
1856	 0.210353564802011 
1857	 0.210272455604359 
1858	 0.210186762361828 
1859	 0.210082020986608 
1860	 0.209950936408909 
1861	 0.209806896123965 
1862	 0.209621523642725 
1863	 0.20941169677798 
1864	 0.209215935150938 
1865	 0.209016879192901 
1866	 0.208818371882494 
1867	 0.20861444821912 
1868	 0.208373198775411 
1869	 0.208106826573645 
1870	 0.207834674507588 
1871	 0.207547496064263 
1872	 0.207246963572204 
1873	 0.206941419683112 
1874	 0.206611712279741 
1875	 0.2062474207451 
1876	 0.205865777901925 
1877	 0.205435719423983 
1878	 0.204980696969102 
1879	 0.204505387710104 
1880	 0.203960246835773 
1881	 0.203353267171343 
1882	 0.202726365121247 
1883	 0.202060780983284 
1884	 0.201319418330598 
1885	 0.200579031279402 
1886	 0.199803418364329 
1887	 0.198958280011319 
1888	 0.19808848609321 
1889	 0.197187350450629 
1890	 0.196267569729869 
1891	 0.195368450257874 
1892	 0.194460443578633 
1893	 0.193576491782911 
1894	 0.192706044582653 
1895	 0.191845834027143 
1896	 0.190994104723512 
1897	 0.190153569194128 
1898	 0.189345037179129 
1899	 0.188580190135968 
1900	 0.187834475345032 
1901	 0.187145369017346 
1902	 0.186504338711858 
1903	 0.185902756914043 
1904	 0.18534984327037 
1905	 0.184850735119688 
1906	 0.184404180717912 
1907	 0.183990083437439 
1908	 0.18361165376091 
1909	 0.183268696622599 
1910	 0.182942811922704 
1911	 0.182632171361967 
1912	 0.182352528632646 
1913	 0.182096016221091 
1914	 0.181863556190065 
1915	 0.181647238712874 
1916	 0.181462190682573 
1917	 0.181282483331542 
1918	 0.18110362368515 
1919	 0.180962665733024 
1920	 0.180839456502529 
1921	 0.180729400212397 
1922	 0.180645722384272 
1923	 0.180578595710699 
1924	 0.180518040522428 
1925	 0.180464261563828 
1926	 0.180432203090939 
1927	 0.180413770449927 
1928	 0.180406447353695 
1929	 0.180437116885337 
1930	 0.180474392589803 
1931	 0.180514189720204 
1932	 0.180567998848789 
1933	 0.180618799394095 
1934	 0.18069021399194 
1935	 0.180779257827618 
1936	 0.180902902453795 
1937	 0.181010098784841 
1938	 0.18111602225241 
1939	 0.181235029952062 
1940	 0.181348699532519 
1941	 0.181480696576063 
1942	 0.1816469069143 
1943	 0.181834599679997 
1944	 0.182004014263023 
1945	 0.182190671593456 
1946	 0.182380480911476 
1947	 0.182568005022109 
1948	 0.182757143048319 
1949	 0.182965951521824 
1950	 0.183157513570238 
1951	 0.183337905557085 
1952	 0.183515455584518 
1953	 0.183692457527424 
1954	 0.183890648790351 
1955	 0.184087408566264 
1956	 0.184298913871021 
1957	 0.184508408435723 
1958	 0.184718379280654 
1959	 0.184939554920671 
1960	 0.185167577297977 
1961	 0.185397293168189 
1962	 0.185637335097413 
1963	 0.185881547345985 
1964	 0.186125614030926 
1965	 0.186381162308429 
1966	 0.186644061967808 
1967	 0.186896998996092 
1968	 0.1871361096289 
1969	 0.187355245969421 
1970	 0.187590147693206 
1971	 0.187824110339463 
1972	 0.188060018406877 
1973	 0.18830399308552 
1974	 0.188543202311263 
1975	 0.188783181839613 
1976	 0.189010268212702 
1977	 0.189232503747644 
1978	 0.189472762581103 
1979	 0.189694884911652 
1980	 0.189908844464364 
1981	 0.190138975030868 
1982	 0.190375028029907 
1983	 0.190612333989503 
1984	 0.190861555369968 
1985	 0.191102874828664 
1986	 0.191346612877169 
1987	 0.191583346818298 
1988	 0.191803116244868 
1989	 0.192047039920847 
1990	 0.19228914422281 
1991	 0.192530630987776 
1992	 0.192779131784506 
1993	 0.193047752527197 
1994	 0.193287782645696 
1995	 0.193526085116518 
1996	 0.193746263808401 
1997	 0.193932014625722 
1998	 0.194146458622664 
1999	 0.194373148288652 
2000	 0.194581910889769 
2001	 0.194788747590185 
2002	 0.194997487130925 
2003	 0.195215451196352 
2004	 0.195424772195597 
2005	 0.195638637214407 
2006	 0.195875827862383 
2007	 0.19609845622129 
2008	 0.1963057177782 
2009	 0.196514412070407 
2010	 0.196729828117078 
2011	 0.19693746272736 
2012	 0.197130938866062 
2013	 0.197331461667047 
2014	 0.197537028167931 
2015	 0.197739533099901 
2016	 0.197940726367019 
2017	 0.198131229026082 
2018	 0.198329475323483 
2019	 0.198529178815491 
2020	 0.198725133937876 
2021	 0.198930203833979 
2022	 0.199119117284515 
2023	 0.199285473365399 
2024	 0.199472090796908 
2025	 0.199674846486295 
2026	 0.199853715261437 
2027	 0.200023308539857 
2028	 0.200202872138357 
2029	 0.200377475458667 
2030	 0.200528877611758 
2031	 0.200697487059612 
2032	 0.200892548675115 
2033	 0.201057215969819 
2034	 0.201197499181971 
2035	 0.201357210285294 
2036	 0.201518869726335 
2037	 0.201675605692775 
2038	 0.201853556264527 
2039	 0.202001829693121 
2040	 0.202131007710379 
2041	 0.202247709532166 
2042	 0.202361836982066 
2043	 0.202484578000472 
2044	 0.20262109995688 
2045	 0.20278093551841 
2046	 0.202922514233564 
2047	 0.203069912259153 
2048	 0.203204455308455 
2049	 0.203327135110937 
2050	 0.203447939691931 
2051	 0.20355596972381 
2052	 0.203674876980612 
2053	 0.203804778977379 
2054	 0.203920541778155 
2055	 0.20403874748388 
2056	 0.204148584764012 
2057	 0.204247586886618 
2058	 0.204326511623917 
2059	 0.204412324591951 
2060	 0.204486491757765 
2061	 0.204581614302229 
2062	 0.204674683701846 
2063	 0.204786012537206 
2064	 0.204915044198341 
2065	 0.205049845973935 
2066	 0.205219316616791 
2067	 0.2053558120683 
2068	 0.20548076186468 
2069	 0.205609477161795 
2070	 0.205727148459593 
2071	 0.205815997307653 
2072	 0.205926345342273 
2073	 0.206057291822934 
2074	 0.206159248063708 
2075	 0.206243781563914 
2076	 0.206339336148688 
2077	 0.206426709364415 
2078	 0.206515687012796 
2079	 0.206605989760806 
2080	 0.206702663519683 
2081	 0.206797252146985 
2082	 0.206894445391326 
2083	 0.207002386741347 
2084	 0.207114225497561 
2085	 0.207209093326161 
2086	 0.207300978869965 
2087	 0.207376610498346 
2088	 0.207422438913352 
2089	 0.207505308169623 
2090	 0.207601232056783 
2091	 0.207681244452435 
2092	 0.20777342242797 
2093	 0.207860391654785 
2094	 0.207925840904803 
2095	 0.208001622900701 
2096	 0.208096452069373 
2097	 0.208180448615917 
2098	 0.208250798804968 
2099	 0.208330240055328 
2100	 0.208403878917696 
2101	 0.208472963080521 
2102	 0.208549746035276 
2103	 0.208628320481785 
2104	 0.208704324613337 
2105	 0.208780401226625 
2106	 0.208864606197068 
2107	 0.208955132636893 
2108	 0.209037548690816 
2109	 0.209128736014158 
2110	 0.209209381875998 
2111	 0.209271764292726 
2112	 0.209342010592713 
2113	 0.209416556660667 
2114	 0.209493293189624 
2115	 0.209546870493775 
2116	 0.209587260029329 
2117	 0.209635370917043 
2118	 0.209659927774086 
2119	 0.209717446987942 
2120	 0.209797497395098 
2121	 0.209873252529599 
2122	 0.209970221076343 
2123	 0.210042327033785 
2124	 0.210119502447116 
2125	 0.21016916306016 
2126	 0.210182328052127 
2127	 0.210210231305565 
2128	 0.210233325009067 
2129	 0.210247971031814 
2130	 0.210267189744799 
2131	 0.21028162952098 
2132	 0.210279059174751 
2133	 0.210258246975991 
2134	 0.210237282192282 
2135	 0.210214097757551 
2136	 0.210174168536159 
2137	 0.210123501069428 
2138	 0.210061822438907 
2139	 0.209985834983326 
2140	 0.209900524247559 
2141	 0.209807579998012 
2142	 0.209702220775363 
2143	 0.209554941083589 
2144	 0.209447523313925 
2145	 0.209377181731001 
2146	 0.209267993133324 
2147	 0.209148089814514 
2148	 0.209051054113969 
2149	 0.208920863670639 
2150	 0.208752516498319 
2151	 0.208588547455532 
2152	 0.208419941921898 
2153	 0.208253991073501 
2154	 0.208065403227544 
2155	 0.207895712321567 
2156	 0.207758556243749 
2157	 0.207588774829773 
2158	 0.207393791713871 
2159	 0.207213957929013 
2160	 0.207017225364129 
2161	 0.20684071277192 
2162	 0.20670220257305 
2163	 0.20653661886103 
2164	 0.206364439124004 
2165	 0.206185879744129 
2166	 0.206009754894205 
2167	 0.205816780637309 
2168	 0.205636248621348 
2169	 0.205464443134174 
2170	 0.205293358531871 
2171	 0.205124858859608 
2172	 0.204948059804796 
2173	 0.204774933621034 
2174	 0.204597309878889 
2175	 0.204406124252114 
2176	 0.20422171553223 
2177	 0.204043052665554 
2178	 0.203861909483006 
2179	 0.20366612027568 
2180	 0.203491021027798 
2181	 0.203318343721973 
2182	 0.203163913237872 
2183	 0.203012560496103 
2184	 0.202906020566829 
2185	 0.202791945823544 
2186	 0.202697979206387 
2187	 0.202587916247307 
2188	 0.202478129595889 
2189	 0.202369255298941 
2190	 0.202254096516127 
2191	 0.202147503905217 
2192	 0.202036372848198 
2193	 0.201951660762404 
2194	 0.2018832710862 
2195	 0.201812503308107 
2196	 0.201773639057366 
2197	 0.201711892129042 
2198	 0.201625005155752 
2199	 0.201556921028329 
2200	 0.201503204074687 
2201	 0.201431384450799 
2202	 0.201354496709235 
2203	 0.201283987857561 
2204	 0.201208884634609 
2205	 0.201111984472146 
2206	 0.201047539622245 
2207	 0.200987777809621 
2208	 0.200963102089173 
2209	 0.200953412309522 
2210	 0.2009732546654 
2211	 0.201041825977102 
2212	 0.201095040896928 
2213	 0.201170632700016 
2214	 0.201228371521746 
2215	 0.201271416848396 
2216	 0.201331961622711 
2217	 0.20139900003031 
2218	 0.201462019904064 
2219	 0.201534269610659 
2220	 0.201603795890244 
2221	 0.201645281610063 
2222	 0.201730178361565 
2223	 0.20182236698249 
2224	 0.20191509336587 
2225	 0.201997226517786 
2226	 0.202086660768936 
2227	 0.202155388846788 
2228	 0.202210682116975 
2229	 0.202261254460732 
2230	 0.20230418194316 
2231	 0.202338535788403 
2232	 0.202355711873373 
2233	 0.202377983121219 
2234	 0.202395272838583 
2235	 0.202416901858833 
2236	 0.20244623457859 
2237	 0.202464802237254 
2238	 0.202463738030902 
2239	 0.202487849153248 
2240	 0.202532067295832 
2241	 0.202556440897608 
2242	 0.20260108499683 
2243	 0.202616695506239 
2244	 0.202602282233962 
2245	 0.202567859533605 
2246	 0.202568701559858 
2247	 0.202572731157012 
2248	 0.202576433389712 
2249	 0.202610072887326 
2250	 0.202601806100316 
2251	 0.202558715410099 
2252	 0.202547981435727 
2253	 0.202523019131623 
2254	 0.202531236690004 
2255	 0.202590824092998 
2256	 0.202597438978629 
2257	 0.202587869344198 
2258	 0.202590513307647 
2259	 0.202565719879985 
2260	 0.202561528783571 
2261	 0.202590137516594 
2262	 0.202597977497344 
2263	 0.202585507845901 
2264	 0.20259063734713 
2265	 0.20260616924501 
2266	 0.202617358994796 
2267	 0.20262456286303 
2268	 0.202643596150987 
2269	 0.202678528523013 
2270	 0.202697345905286 
2271	 0.202694928428413 
2272	 0.202717266619949 
2273	 0.202723816453828 
2274	 0.202731036122011 
2275	 0.20272239750129 
2276	 0.202721429231958 
2277	 0.202700724225539 
2278	 0.202648565211175 
2279	 0.202605755799315 
2280	 0.202562685428101 
2281	 0.20252480732657 
2282	 0.202475448320699 
2283	 0.202445746203318 
2284	 0.202431988194525 
2285	 0.202415170780835 
2286	 0.202420974481031 
2287	 0.202394882285339 
2288	 0.202338004154042 
2289	 0.202313141610409 
2290	 0.202306438946232 
2291	 0.202265502966823 
2292	 0.202189399002412 
2293	 0.202175581714266 
2294	 0.202176980818615 
2295	 0.202161306922495 
2296	 0.202162367126173 
2297	 0.202229965578461 
2298	 0.202219801939336 
2299	 0.20222529575186 
2300	 0.202260542542568 
2301	 0.202246950045623 
2302	 0.202218127324014 
2303	 0.202130130036468 
2304	 0.202071722665433 
2305	 0.202043956216325 
2306	 0.201992352663131 
2307	 0.201954949673259 
2308	 0.201895778291802 
2309	 0.201811105677958 
2310	 0.201735168437404 
2311	 0.201664917551291 
2312	 0.201565578180948 
2313	 0.201451496091387 
2314	 0.201324508407785 
2315	 0.201134178312414 
2316	 0.201033142848537 
2317	 0.200960874872572 
2318	 0.200918256227532 
2319	 0.200953929041939 
2320	 0.200954976018878 
2321	 0.200951123670291 
2322	 0.200952034129495 
2323	 0.20095674025275 
2324	 0.200964343077824 
2325	 0.200984102773149 
2326	 0.200994383244832 
2327	 0.201001000773256 
2328	 0.201002390873378 
2329	 0.200995785703268 
2330	 0.201001067900785 
2331	 0.201069096436567 
2332	 0.201115027840348 
2333	 0.201129864013048 
2334	 0.20118551564845 
2335	 0.201187926545744 
2336	 0.201175467261907 
2337	 0.201220381402102 
2338	 0.201241872181176 
2339	 0.201245663276106 
2340	 0.201230279713046 
2341	 0.201224207663404 
2342	 0.2012714346592 
2343	 0.201283730768959 
2344	 0.201285658137169 
2345	 0.201264724067593 
2346	 0.201193418119811 
2347	 0.201133218179536 
2348	 0.201077612476616 
2349	 0.200995225700498 
2350	 0.200883107492907 
2351	 0.200801878437765 
2352	 0.200713722085004 
2353	 0.200652535626877 
2354	 0.200616376530171 
2355	 0.200574670964368 
2356	 0.200553853592336 
2357	 0.200479035553553 
2358	 0.200381457880533 
2359	 0.200315675351469 
2360	 0.200233883471344 
2361	 0.200161629083083 
2362	 0.200132143206673 
2363	 0.20005187256427 
2364	 0.199888377241465 
2365	 0.199811579547847 
2366	 0.199791945387162 
2367	 0.199733713079569 
2368	 0.199729720252523 
2369	 0.199660129132588 
2370	 0.199543209546233 
2371	 0.199386499616095 
2372	 0.199209273078378 
2373	 0.199039151226428 
2374	 0.198910977987089 
2375	 0.198800238661757 
2376	 0.198672271991768 
2377	 0.198528090353648 
2378	 0.198355861927849 
2379	 0.198197508498725 
2380	 0.198030191846136 
2381	 0.197872699288258 
2382	 0.197712545221253 
2383	 0.197526810858069 
2384	 0.197395813723378 
2385	 0.197283051899834 
2386	 0.197105422715967 
2387	 0.196893805810458 
2388	 0.196693014373042 
2389	 0.196521281741953 
2390	 0.196384020828046 
2391	 0.196282796814262 
2392	 0.19620198845472 
2393	 0.196074980791525 
2394	 0.195927940553286 
2395	 0.195811401228542 
2396	 0.195660799384062 
2397	 0.195493711030208 
2398	 0.19535959445229 
2399	 0.195173158777893 
2400	 0.194955738713415 
2401	 0.194758010804113 
2402	 0.194590757374651 
2403	 0.194474882359882 
2404	 0.194312224127486 
2405	 0.194131193627587 
2406	 0.194014536417705 
2407	 0.193944024268653 
2408	 0.193879871460443 
2409	 0.193775880867061 
2410	 0.193591101649197 
2411	 0.193346555891472 
2412	 0.193213988217311 
2413	 0.193139974420042 
2414	 0.193033501223647 
2415	 0.192939004722018 
2416	 0.19282174610754 
2417	 0.192674639527993 
2418	 0.192486675308307 
2419	 0.192242053257656 
2420	 0.192067826226841 
2421	 0.191864226253662 
2422	 0.191633043092687 
2423	 0.191508787722556 
2424	 0.191272712200502 
2425	 0.190886361738416 
2426	 0.190597635485108 
2427	 0.190326232728756 
2428	 0.190126231850377 
2429	 0.189992239702442 
2430	 0.189795582869923 
2431	 0.189605422570928 
2432	 0.189372760429989 
2433	 0.189084648832744 
2434	 0.188865357119427 
2435	 0.188694794644911 
2436	 0.188503512416151 
2437	 0.188277972125396 
2438	 0.188132729171556 
2439	 0.188059262890892 
2440	 0.18792132466987 
2441	 0.187790219948362 
2442	 0.187660512232942 
2443	 0.187507158089774 
2444	 0.187306668358883 
2445	 0.18709637463883 
2446	 0.186949078449604 
2447	 0.186775228002826 
2448	 0.186603327552624 
2449	 0.186506813595534 
2450	 0.186328288035766 
2451	 0.186049641582874 
2452	 0.185812112682538 
2453	 0.185620129451421 
2454	 0.185438127087 
2455	 0.185194201978564 
2456	 0.185124863561591 
2457	 0.185182862761275 
2458	 0.185107311897252 
2459	 0.18511261369934 
2460	 0.184946727307126 
2461	 0.184609150667831 
2462	 0.184351890126706 
2463	 0.184079186361765 
2464	 0.183848263637851 
2465	 0.183618763722902 
2466	 0.183391864430716 
2467	 0.183175542832161 
2468	 0.182986148699744 
2469	 0.182805346934955 
2470	 0.182727577426967 
2471	 0.182527512358589 
2472	 0.182298404222096 
2473	 0.182164633411057 
2474	 0.182032008954757 
2475	 0.181913067812337 
2476	 0.181721814653526 
2477	 0.181548393753585 
2478	 0.18130577173514 
2479	 0.181069631866994 
2480	 0.181056230497628 
2481	 0.18102669276316 
2482	 0.180916893633438 
2483	 0.180779877839067 
2484	 0.180655506146779 
2485	 0.180450632452882 
2486	 0.180134576557458 
2487	 0.180112849105781 
2488	 0.180151103937008 
2489	 0.179977220891229 
2490	 0.179858979949413 
2491	 0.179434671843591 
2492	 0.178844052963844 
2493	 0.17851743342173 
2494	 0.178300873076799 
2495	 0.17830477228603 
2496	 0.178317909541649 
2497	 0.178130389907024 
2498	 0.177964378685264 
2499	 0.177917217000489 
2500	 0.177805580528966 
