Wavelength	LMW400007.asd
350	 0.11660854461127 
351	 0.121071375433516 
352	 0.122988392144692 
353	 0.11801991068605 
354	 0.120128403319166 
355	 0.125062131266911 
356	 0.12588595016189 
357	 0.120122314117353 
358	 0.125835974845965 
359	 0.123355435598322 
360	 0.11757111586178 
361	 0.126814613381567 
362	 0.127386722068576 
363	 0.129236040054858 
364	 0.135126411756736 
365	 0.129639165119502 
366	 0.128653444202773 
367	 0.130622607248392 
368	 0.131257955896928 
369	 0.136426485562695 
370	 0.135072017946732 
371	 0.130621623177565 
372	 0.13522974065436 
373	 0.138139160702358 
374	 0.139708001343421 
375	 0.140859019934574 
376	 0.140919947683323 
377	 0.139609905358503 
378	 0.140314873513716 
379	 0.14475347985552 
380	 0.143325844934314 
381	 0.142195461055336 
382	 0.143894282035156 
383	 0.147403423198895 
384	 0.149135248775583 
385	 0.14904569937024 
386	 0.148679669401676 
387	 0.151639116053008 
388	 0.152637772519986 
389	 0.152465084478235 
390	 0.153337317268093 
391	 0.153967158350622 
392	 0.155165539526983 
393	 0.157100874651343 
394	 0.159221322350904 
395	 0.15938465962062 
396	 0.159096568181919 
397	 0.159851227097357 
398	 0.162048590700286 
399	 0.162814987691682 
400	 0.16283674524649 
401	 0.163839642868653 
402	 0.16509744673959 
403	 0.166045729826211 
404	 0.166527407307192 
405	 0.166801814275732 
406	 0.167969910625497 
407	 0.169147489419813 
408	 0.169540206429034 
409	 0.169620457187795 
410	 0.169255726842734 
411	 0.169287119077093 
412	 0.170577597276543 
413	 0.170911905658615 
414	 0.171038594436767 
415	 0.171523930300023 
416	 0.172348258073972 
417	 0.172903485343652 
418	 0.173097086594706 
419	 0.173164303993122 
420	 0.174002373482051 
421	 0.174075321088735 
422	 0.17382648855749 
423	 0.174762359495405 
424	 0.174994820417532 
425	 0.174994922979886 
426	 0.175284957386938 
427	 0.175975383689924 
428	 0.176286158167937 
429	 0.176376653377711 
430	 0.17663601804461 
431	 0.176859609210444 
432	 0.177229242735135 
433	 0.177440692275196 
434	 0.176791348525995 
435	 0.177058276204106 
436	 0.177640739138178 
437	 0.177810415101951 
438	 0.177728171463169 
439	 0.178034211405072 
440	 0.178711601733533 
441	 0.179360761499116 
442	 0.17955404664016 
443	 0.179714766093779 
444	 0.180075678315875 
445	 0.180460441742728 
446	 0.180704116121502 
447	 0.180844051153871 
448	 0.180980308267142 
449	 0.181134843808167 
450	 0.181492960185499 
451	 0.181947994431986 
452	 0.182160949591503 
453	 0.182238124252823 
454	 0.182352845835791 
455	 0.182625068157794 
456	 0.18304246408128 
457	 0.183382041380963 
458	 0.183558667841434 
459	 0.183601314329415 
460	 0.183797838178756 
461	 0.183957853925426 
462	 0.184057669653019 
463	 0.184370344593962 
464	 0.184602208795771 
465	 0.184811960480472 
466	 0.185079270431099 
467	 0.185142793717621 
468	 0.185284854299002 
469	 0.18555465428889 
470	 0.18579494857015 
471	 0.185868343737668 
472	 0.18589978696663 
473	 0.186011726304419 
474	 0.186192384728501 
475	 0.18658640554417 
476	 0.186882453584581 
477	 0.18670810198911 
478	 0.186790243166102 
479	 0.187050636644366 
480	 0.187319402120475 
481	 0.187404917641882 
482	 0.187630225172118 
483	 0.187868511862108 
484	 0.187966144932522 
485	 0.188194016413867 
486	 0.188444658467468 
487	 0.188575997868739 
488	 0.18846071064416 
489	 0.188569719896946 
490	 0.188790702148092 
491	 0.18895984180284 
492	 0.189066440353589 
493	 0.189089815213657 
494	 0.189129500219111 
495	 0.189301893015887 
496	 0.189351021490657 
497	 0.189563128165161 
498	 0.189924892799593 
499	 0.189902247579112 
500	 0.190018280175319 
501	 0.190210207467236 
502	 0.19029102867278 
503	 0.190310704488577 
504	 0.190433007107441 
505	 0.19064196244477 
506	 0.190761037790992 
507	 0.190812003485435 
508	 0.190977074421408 
509	 0.191263956565766 
510	 0.191093994018419 
511	 0.191164977232756 
512	 0.191389289649869 
513	 0.191327731144813 
514	 0.191480487037827 
515	 0.191649308900891 
516	 0.19170438186182 
517	 0.191756348469363 
518	 0.191870719488623 
519	 0.191977695479354 
520	 0.192010633056875 
521	 0.19218679428627 
522	 0.192384277414177 
523	 0.192516024844404 
524	 0.192554986336727 
525	 0.192628107794171 
526	 0.192654480080552 
527	 0.19260515909019 
528	 0.192778309986304 
529	 0.19290150004466 
530	 0.192972236211579 
531	 0.193146310122083 
532	 0.193171380290416 
533	 0.193245018954818 
534	 0.193442296062525 
535	 0.193445229656244 
536	 0.193468739323302 
537	 0.193543553577662 
538	 0.19363252828507 
539	 0.193740485068629 
540	 0.193834673630138 
541	 0.193911998575762 
542	 0.194011483629521 
543	 0.19408523791293 
544	 0.194147492372566 
545	 0.194230344910633 
546	 0.194377766482427 
547	 0.19443794833293 
548	 0.19444319141192 
549	 0.194574253718741 
550	 0.19467284381041 
551	 0.194776023195677 
552	 0.194919994843789 
553	 0.19505089249143 
554	 0.195156179047473 
555	 0.195224069536023 
556	 0.195261104579914 
557	 0.195412366189193 
558	 0.195550237568892 
559	 0.195633630825201 
560	 0.195838068071161 
561	 0.195939909431348 
562	 0.195953931393076 
563	 0.19598137173027 
564	 0.196091578729107 
565	 0.196192440801651 
566	 0.196270509678527 
567	 0.196410147765129 
568	 0.19656250536374 
569	 0.196736031420458 
570	 0.196939981879699 
571	 0.197156758108416 
572	 0.197291521046401 
573	 0.197379331977649 
574	 0.197533066261893 
575	 0.197567177117208 
576	 0.197637119958393 
577	 0.197818513833444 
578	 0.197899210566455 
579	 0.197957619907033 
580	 0.198049014373446 
581	 0.198213795067916 
582	 0.198415349035718 
583	 0.19864156518357 
584	 0.19885024659666 
585	 0.198953303994718 
586	 0.19904152279572 
587	 0.199116000210649 
588	 0.19917094456008 
589	 0.199296329415328 
590	 0.199353941505817 
591	 0.19936962109955 
592	 0.199513500504945 
593	 0.19961207471396 
594	 0.199683597382313 
595	 0.199776739785027 
596	 0.199915114378357 
597	 0.200104226173576 
598	 0.200308379779955 
599	 0.200472480799904 
600	 0.200590091019191 
601	 0.200711764103027 
602	 0.20084245259373 
603	 0.200892746446535 
604	 0.200913403007022 
605	 0.200957151071621 
606	 0.201064945396879 
607	 0.201210182140588 
608	 0.201295761395296 
609	 0.201337593331242 
610	 0.201481058966096 
611	 0.201635927724989 
612	 0.201789274147615 
613	 0.201936499202578 
614	 0.202046997028562 
615	 0.202114002877465 
616	 0.202177601175476 
617	 0.202303484349934 
618	 0.202465992641701 
619	 0.20250821593297 
620	 0.202420804853179 
621	 0.202555030598641 
622	 0.202686093976853 
623	 0.202761340208891 
624	 0.20280595151613 
625	 0.202915724396429 
626	 0.202993712633304 
627	 0.203021721698985 
628	 0.203104900995715 
629	 0.203194427489547 
630	 0.203260179030287 
631	 0.203301463321641 
632	 0.203424978422438 
633	 0.203469775750065 
634	 0.203460840768637 
635	 0.203565467102523 
636	 0.203600955823646 
637	 0.203631181947088 
638	 0.203711111045111 
639	 0.203768841141705 
640	 0.203832568822449 
641	 0.203912710925755 
642	 0.204002555336151 
643	 0.204024743293222 
644	 0.204054035126163 
645	 0.204132897986975 
646	 0.20423822471431 
647	 0.204284774319041 
648	 0.204300148934228 
649	 0.204345551612851 
650	 0.20446915552147 
651	 0.204514895134779 
652	 0.204497018442313 
653	 0.204574722612493 
654	 0.204669588252493 
655	 0.204707441837761 
656	 0.204681841540202 
657	 0.204753623076294 
658	 0.204826221409444 
659	 0.204901342886225 
660	 0.205007998127943 
661	 0.205026583378309 
662	 0.205045847824576 
663	 0.205114378704562 
664	 0.205194425466837 
665	 0.205255339638916 
666	 0.205299041645918 
667	 0.205339676940572 
668	 0.205388788960413 
669	 0.205436882880923 
670	 0.205484167558718 
671	 0.205538306511978 
672	 0.20558451148107 
673	 0.205650136213761 
674	 0.205737943248498 
675	 0.205772533195395 
676	 0.205830718127389 
677	 0.205887267493473 
678	 0.205893214985637 
679	 0.205961080811589 
680	 0.206042084322088 
681	 0.206114581674873 
682	 0.206211569426015 
683	 0.206243882494799 
684	 0.206263285951892 
685	 0.206333894557967 
686	 0.206430138117769 
687	 0.206458908206014 
688	 0.206459520778283 
689	 0.206549713185736 
690	 0.206564132175978 
691	 0.206554933368267 
692	 0.206587838297298 
693	 0.206699322569387 
694	 0.206777564583275 
695	 0.206805112125883 
696	 0.206814703035152 
697	 0.206889096181433 
698	 0.206953959017185 
699	 0.207002598724596 
700	 0.207104906721286 
701	 0.207141591423728 
702	 0.207168977128409 
703	 0.207235626995424 
704	 0.207259779565406 
705	 0.207263758012517 
706	 0.207294570473505 
707	 0.20739133774116 
708	 0.207414457281121 
709	 0.207428828040282 
710	 0.207471729549359 
711	 0.20750838442499 
712	 0.207553196426462 
713	 0.207599576575612 
714	 0.207634981402571 
715	 0.207637916910898 
716	 0.20769332334978 
717	 0.2077798265268 
718	 0.207803748507597 
719	 0.2078159442297 
720	 0.207827590776769 
721	 0.207846896872574 
722	 0.207886795156589 
723	 0.207938182084511 
724	 0.207996560373494 
725	 0.208050176677167 
726	 0.208040771489859 
727	 0.208069463360465 
728	 0.208135123929 
729	 0.208140805868795 
730	 0.208163477583253 
731	 0.208196317530645 
732	 0.208218570853811 
733	 0.208209986366098 
734	 0.208210301292887 
735	 0.208220205543568 
736	 0.208229735813935 
737	 0.208274673994576 
738	 0.208319176030432 
739	 0.208342710857236 
740	 0.208347752927403 
741	 0.208319164179839 
742	 0.208340427942633 
743	 0.208437365985496 
744	 0.208425889524028 
745	 0.208410316334709 
746	 0.208419209245613 
747	 0.208439795454127 
748	 0.208431334898641 
749	 0.208445549987453 
750	 0.208485072336546 
751	 0.208484868526006 
752	 0.208470607393109 
753	 0.208459023800363 
754	 0.208465541896296 
755	 0.208508281685361 
756	 0.208556706725608 
757	 0.208554376243116 
758	 0.208464940014086 
759	 0.208481141287494 
760	 0.208514836603762 
761	 0.208516535935894 
762	 0.208520263545143 
763	 0.208541229731454 
764	 0.208553177121946 
765	 0.208534622212227 
766	 0.208506454116168 
767	 0.208491437201993 
768	 0.20848353825611 
769	 0.208468022143542 
770	 0.208489354158322 
771	 0.208517272888131 
772	 0.208521756622404 
773	 0.208484059563065 
774	 0.208476851561223 
775	 0.208485573256814 
776	 0.208477674964549 
777	 0.20842279166934 
778	 0.208418908396793 
779	 0.208460738156507 
780	 0.208489716934994 
781	 0.208457305141691 
782	 0.208457290296356 
783	 0.208478846045162 
784	 0.208398837498372 
785	 0.208387657652023 
786	 0.20842205907313 
787	 0.208444924786657 
788	 0.208412036131744 
789	 0.208379438445631 
790	 0.208372845475087 
791	 0.208396133809635 
792	 0.208411854075346 
793	 0.208412325090983 
794	 0.208400962249491 
795	 0.208389939462718 
796	 0.20839019449245 
797	 0.208382978886622 
798	 0.208354629957607 
799	 0.208306214643769 
800	 0.208314602641001 
801	 0.208358952827667 
802	 0.208382457105131 
803	 0.208316780992332 
804	 0.208334997735956 
805	 0.208400294824763 
806	 0.208364581073625 
807	 0.208398692390805 
808	 0.208374589308493 
809	 0.208291244558677 
810	 0.20834542154067 
811	 0.208406845509614 
812	 0.208408613831884 
813	 0.208353975121525 
814	 0.208395355558203 
815	 0.208413851865001 
816	 0.208372366074093 
817	 0.208292562791199 
818	 0.208297491664349 
819	 0.208355736659838 
820	 0.208413773721577 
821	 0.208415547058972 
822	 0.208403637653548 
823	 0.20840660875462 
824	 0.208422253629775 
825	 0.208402105789929 
826	 0.208389030533663 
827	 0.208404576470498 
828	 0.208437884066017 
829	 0.208398551745991 
830	 0.208345846772053 
831	 0.208309223934056 
832	 0.208303664095491 
833	 0.208352194934332 
834	 0.208432494114729 
835	 0.208494623078038 
836	 0.208476800094705 
837	 0.208442560461007 
838	 0.208434435420738 
839	 0.208456466928446 
840	 0.208454764797886 
841	 0.208482216673154 
842	 0.208466886852695 
843	 0.208378216154815 
844	 0.20841873775578 
845	 0.208474378846248 
846	 0.208485749073679 
847	 0.208442977803394 
848	 0.208448176527675 
849	 0.20845720105635 
850	 0.208469730847072 
851	 0.208520700778909 
852	 0.208529081261592 
853	 0.208495518600746 
854	 0.20845670348065 
855	 0.208478913281521 
856	 0.208552153120688 
857	 0.208611600399045 
858	 0.208610715477135 
859	 0.208580941672386 
860	 0.208550350489932 
861	 0.20856425570223 
862	 0.208638578786174 
863	 0.208662579587431 
864	 0.208638389914567 
865	 0.208631987116035 
866	 0.20871028602862 
867	 0.208663111913984 
868	 0.208681282191025 
869	 0.208774687117453 
870	 0.208748492071482 
871	 0.208716347210132 
872	 0.208700977848975 
873	 0.208712535609822 
874	 0.208762089281717 
875	 0.208793601050497 
876	 0.208803518026891 
877	 0.208806071032152 
878	 0.208817153232657 
879	 0.208873015314761 
880	 0.208905117892948 
881	 0.208859948248545 
882	 0.208907457618273 
883	 0.208923917148299 
884	 0.2088935204102 
885	 0.208879204081019 
886	 0.208991742005843 
887	 0.209081630157816 
888	 0.209073089810118 
889	 0.208994860450107 
890	 0.209026315668324 
891	 0.209093522866448 
892	 0.20914971173477 
893	 0.209221437596516 
894	 0.209151227352778 
895	 0.209097566969961 
896	 0.20915844128876 
897	 0.209209482705037 
898	 0.209300770050829 
899	 0.209316148889417 
900	 0.209204201939628 
901	 0.20917210294124 
902	 0.209278709351083 
903	 0.20939145471794 
904	 0.209378088549365 
905	 0.20939335115922 
906	 0.209452466305831 
907	 0.209492713651667 
908	 0.209454460733146 
909	 0.209497792981416 
910	 0.209528224409988 
911	 0.209531449140451 
912	 0.209553548541533 
913	 0.209607135210855 
914	 0.20961647407866 
915	 0.20962416415384 
916	 0.209749142738242 
917	 0.209746347595805 
918	 0.209712832335454 
919	 0.209749569730661 
920	 0.209888142974357 
921	 0.209912975552745 
922	 0.209919272005596 
923	 0.209955881583323 
924	 0.209927506956781 
925	 0.209923925084126 
926	 0.209979322242344 
927	 0.210077808867401 
928	 0.210139422552754 
929	 0.210294143194975 
930	 0.210373947911376 
931	 0.210296992518021 
932	 0.210347505736045 
933	 0.210355633872432 
934	 0.210351737784526 
935	 0.210391783686937 
936	 0.21044514457073 
937	 0.210430845914539 
938	 0.210392497688961 
939	 0.210422934578846 
940	 0.210627724684808 
941	 0.210687362921034 
942	 0.210685825029169 
943	 0.210795089005579 
944	 0.210822528547007 
945	 0.210843719914077 
946	 0.210892410014974 
947	 0.210960769644704 
948	 0.210965603226128 
949	 0.210966680191842 
950	 0.210946806621112 
951	 0.210890870873686 
952	 0.210993976147425 
953	 0.211152047751454 
954	 0.21122806528 
955	 0.211161578400053 
956	 0.211310243549501 
957	 0.211387133056806 
958	 0.211371653107687 
959	 0.211402237763676 
960	 0.211366754170113 
961	 0.211385529043371 
962	 0.211501198103405 
963	 0.211653321868294 
964	 0.21158262542461 
965	 0.211620454243317 
966	 0.211755434754041 
967	 0.211762738001764 
968	 0.211816287417558 
969	 0.211828766108968 
970	 0.211800505617248 
971	 0.211813153472433 
972	 0.21197918350222 
973	 0.212111381596231 
974	 0.21214471431793 
975	 0.212131229025406 
976	 0.212133589595529 
977	 0.212269573464884 
978	 0.212410701729388 
979	 0.212355629098061 
980	 0.21245836430514 
981	 0.21239723884503 
982	 0.212324223452417 
983	 0.212571546485676 
984	 0.212669272522593 
985	 0.21273360578186 
986	 0.212811615805732 
987	 0.212870117991996 
988	 0.212770701587645 
989	 0.212761149214372 
990	 0.212839158000195 
991	 0.212893651993375 
992	 0.213043397072295 
993	 0.213046042919902 
994	 0.213045354251038 
995	 0.213240087107957 
996	 0.213283665543672 
997	 0.213262488027713 
998	 0.213281147256153 
999	 0.213414471262225 
1000	 0.213634005491498 
1001	 0.215053074764077 
1002	 0.215081783131354 
1003	 0.215076738784341 
1004	 0.215088458216033 
1005	 0.21512197594288 
1006	 0.215147628955413 
1007	 0.215165248152092 
1008	 0.21518570876811 
1009	 0.215212694281782 
1010	 0.215247973351349 
1011	 0.215256511150924 
1012	 0.215263501396385 
1013	 0.215308543081499 
1014	 0.215377855994454 
1015	 0.215440333577319 
1016	 0.215432874561034 
1017	 0.215433606004315 
1018	 0.215379013234951 
1019	 0.215393062820856 
1020	 0.215455093036481 
1021	 0.215561698165174 
1022	 0.215716228416555 
1023	 0.215698028353493 
1024	 0.215611752459959 
1025	 0.215625829295874 
1026	 0.215587391098744 
1027	 0.215583610442491 
1028	 0.21567881816192 
1029	 0.215743397209183 
1030	 0.215786055021258 
1031	 0.215790398765406 
1032	 0.215783511189467 
1033	 0.215754217097744 
1034	 0.215732025038678 
1035	 0.215707107912994 
1036	 0.21580929266396 
1037	 0.21594897303845 
1038	 0.216019565728049 
1039	 0.216094905640539 
1040	 0.216101228319708 
1041	 0.216055911198285 
1042	 0.216032473620528 
1043	 0.216065575714836 
1044	 0.216105513507809 
1045	 0.216182043429062 
1046	 0.216243076223489 
1047	 0.216314173159928 
1048	 0.216337740400899 
1049	 0.216325468559981 
1050	 0.216386452696938 
1051	 0.216486263957945 
1052	 0.216560590610948 
1053	 0.216662129842411 
1054	 0.216726518657561 
1055	 0.216710270288744 
1056	 0.21671386055712 
1057	 0.216725693273816 
1058	 0.216726777997395 
1059	 0.216753602679286 
1060	 0.216812304205664 
1061	 0.216839780777156 
1062	 0.216872843119544 
1063	 0.216886799734612 
1064	 0.216895142408697 
1065	 0.216892867668944 
1066	 0.216876634547034 
1067	 0.216860417293935 
1068	 0.2168631641472 
1069	 0.216928418191158 
1070	 0.216965577216748 
1071	 0.217046608235183 
1072	 0.217069825335939 
1073	 0.217031682250206 
1074	 0.217005760250127 
1075	 0.216956836554055 
1076	 0.216946364802826 
1077	 0.216939484677569 
1078	 0.216939152967496 
1079	 0.216916916864168 
1080	 0.216868056696393 
1081	 0.21681262263367 
1082	 0.216774282557641 
1083	 0.216745823695167 
1084	 0.216746853308122 
1085	 0.216724110309187 
1086	 0.216686059810215 
1087	 0.216661226718642 
1088	 0.216641740561756 
1089	 0.216615108375448 
1090	 0.21658328127972 
1091	 0.216579060194719 
1092	 0.216591745062436 
1093	 0.216596317698648 
1094	 0.216608411609854 
1095	 0.216606031550034 
1096	 0.216545036253768 
1097	 0.216505820933639 
1098	 0.216495750487106 
1099	 0.216496755355194 
1100	 0.216505005730161 
1101	 0.216550468191373 
1102	 0.2165690412501 
1103	 0.216579831547382 
1104	 0.216584618789555 
1105	 0.216578172133597 
1106	 0.216611055311512 
1107	 0.216617144993513 
1108	 0.216631257102605 
1109	 0.216668325365503 
1110	 0.216708981157582 
1111	 0.216746413259544 
1112	 0.216793407306837 
1113	 0.216826231105252 
1114	 0.216844722082497 
1115	 0.216874897671091 
1116	 0.216894608375379 
1117	 0.216946284382292 
1118	 0.217017898142998 
1119	 0.217092282800593 
1120	 0.217175914144391 
1121	 0.217258977064871 
1122	 0.217322777300006 
1123	 0.217357962030415 
1124	 0.217411222884415 
1125	 0.217465607866213 
1126	 0.21750575590759 
1127	 0.217547481746272 
1128	 0.217587648666472 
1129	 0.217596335095955 
1130	 0.217644635260158 
1131	 0.217731391755595 
1132	 0.217786490457307 
1133	 0.217843709918537 
1134	 0.217891849656761 
1135	 0.217924031831743 
1136	 0.217943688374866 
1137	 0.217973070031028 
1138	 0.21803044488194 
1139	 0.218067253163006 
1140	 0.218092763824503 
1141	 0.218134516963924 
1142	 0.218180912740173 
1143	 0.218225201157368 
1144	 0.218285644798062 
1145	 0.218328032232747 
1146	 0.218357934937253 
1147	 0.218386805097326 
1148	 0.218403253648686 
1149	 0.218428650128448 
1150	 0.21845071263208 
1151	 0.218486511975169 
1152	 0.218513951978856 
1153	 0.218563841847425 
1154	 0.218589192128087 
1155	 0.218598698790293 
1156	 0.21862302788049 
1157	 0.218655247247081 
1158	 0.218661965725958 
1159	 0.218658946070338 
1160	 0.2186726553599 
1161	 0.218665610551489 
1162	 0.218681156186765 
1163	 0.218735928601911 
1164	 0.218762874616336 
1165	 0.218782326858869 
1166	 0.218796711585438 
1167	 0.218791879132142 
1168	 0.218793936752112 
1169	 0.218798952133884 
1170	 0.218808946155089 
1171	 0.218802507745791 
1172	 0.218787598014791 
1173	 0.218784957421712 
1174	 0.218766210590026 
1175	 0.218770869179028 
1176	 0.218806932879807 
1177	 0.218822301587928 
1178	 0.218842329771071 
1179	 0.21884816291294 
1180	 0.218830122213223 
1181	 0.218828772768052 
1182	 0.218830917503365 
1183	 0.218832394758832 
1184	 0.218831583256366 
1185	 0.218835105210801 
1186	 0.218842251571083 
1187	 0.218837165157829 
1188	 0.218856302129902 
1189	 0.218909233438537 
1190	 0.218926089258334 
1191	 0.218938662296869 
1192	 0.218944277453707 
1193	 0.218917870863302 
1194	 0.218914545365684 
1195	 0.218928599632402 
1196	 0.218931613433404 
1197	 0.218928145296675 
1198	 0.218935743194719 
1199	 0.218946037661404 
1200	 0.218954581260897 
1201	 0.21896311493202 
1202	 0.218982364524875 
1203	 0.21899257515676 
1204	 0.21898796723483 
1205	 0.219000965706912 
1206	 0.219026720740682 
1207	 0.219043162677658 
1208	 0.219065985434532 
1209	 0.219079432204126 
1210	 0.219084403979054 
1211	 0.219089176055326 
1212	 0.219081613045708 
1213	 0.21908801429432 
1214	 0.219103778501569 
1215	 0.219114270198375 
1216	 0.219126328806138 
1217	 0.219150793303875 
1218	 0.219156300462932 
1219	 0.21914915120501 
1220	 0.219147380404378 
1221	 0.219138282229971 
1222	 0.219137472109738 
1223	 0.219137268966501 
1224	 0.219143601158429 
1225	 0.219160626941326 
1226	 0.219169499429641 
1227	 0.219181647943022 
1228	 0.21918764062898 
1229	 0.219180482759654 
1230	 0.219183272843487 
1231	 0.21919552248704 
1232	 0.21919870994292 
1233	 0.219199776120834 
1234	 0.219203733852646 
1235	 0.21920129930417 
1236	 0.219177121059986 
1237	 0.21919055377712 
1238	 0.21923086951377 
1239	 0.219244520427034 
1240	 0.219265411290446 
1241	 0.219281048988319 
1242	 0.21927873411293 
1243	 0.219278985740548 
1244	 0.219295163833052 
1245	 0.219292826042849 
1246	 0.2192645320418 
1247	 0.219249470495123 
1248	 0.21922980374043 
1249	 0.219215538107709 
1250	 0.219228940884302 
1251	 0.219239621450814 
1252	 0.219246562277714 
1253	 0.21927178681961 
1254	 0.219263666352028 
1255	 0.21922169116825 
1256	 0.219214306441231 
1257	 0.219211348188771 
1258	 0.21920556228775 
1259	 0.219220408035248 
1260	 0.219220583352813 
1261	 0.219213173279766 
1262	 0.219194004525389 
1263	 0.219156471425607 
1264	 0.219137442509823 
1265	 0.219117219222323 
1266	 0.21909509544102 
1267	 0.219082791036922 
1268	 0.219078993625743 
1269	 0.219065861922865 
1270	 0.219035211846399 
1271	 0.219027110391773 
1272	 0.219028363089412 
1273	 0.219036726510701 
1274	 0.219049278179583 
1275	 0.2190760125063 
1276	 0.219115067103372 
1277	 0.219160256192274 
1278	 0.219225094216259 
1279	 0.219277719000933 
1280	 0.219336191047162 
1281	 0.219385211828376 
1282	 0.219424842156916 
1283	 0.219467292065886 
1284	 0.219510781714646 
1285	 0.219546555218278 
1286	 0.219588096106885 
1287	 0.219615524344353 
1288	 0.219633536937452 
1289	 0.219641679935454 
1290	 0.219647076136994 
1291	 0.219646803249146 
1292	 0.219632781828813 
1293	 0.219611612521363 
1294	 0.219581212589315 
1295	 0.219526748784373 
1296	 0.219488035990301 
1297	 0.219452008171553 
1298	 0.219414472081423 
1299	 0.219388202277409 
1300	 0.219344564289632 
1301	 0.219287308837088 
1302	 0.21923462335007 
1303	 0.219177643768889 
1304	 0.219118701483758 
1305	 0.219059980231754 
1306	 0.218984651137271 
1307	 0.218910836040989 
1308	 0.21883178995648 
1309	 0.218749147988423 
1310	 0.218667056645379 
1311	 0.218586401057214 
1312	 0.21849071998226 
1313	 0.218414679650385 
1314	 0.218350293978388 
1315	 0.218283469755457 
1316	 0.218223009545785 
1317	 0.218167812949508 
1318	 0.21811861381367 
1319	 0.218067372840991 
1320	 0.218004672825029 
1321	 0.217968349411263 
1322	 0.217949055664419 
1323	 0.2179241617964 
1324	 0.217912452804392 
1325	 0.217917000612112 
1326	 0.217895412772603 
1327	 0.217876289983282 
1328	 0.217862902623955 
1329	 0.217837754020078 
1330	 0.217821784506326 
1331	 0.2177959561793 
1332	 0.217798764779972 
1333	 0.217822643302285 
1334	 0.217836922535862 
1335	 0.217860234241063 
1336	 0.217888762585536 
1337	 0.217916865875481 
1338	 0.217944138442487 
1339	 0.217984343422506 
1340	 0.21801454841467 
1341	 0.218030054993462 
1342	 0.218055652333524 
1343	 0.218086268416999 
1344	 0.218116891427021 
1345	 0.218152829304993 
1346	 0.218186134314926 
1347	 0.218202202895086 
1348	 0.21823836151145 
1349	 0.218283562172142 
1350	 0.218316335773098 
1351	 0.218353572246829 
1352	 0.218408481688248 
1353	 0.218433912253125 
1354	 0.218438580803456 
1355	 0.218455103725677 
1356	 0.218452681413636 
1357	 0.218476810496507 
1358	 0.21853407089658 
1359	 0.218559605496273 
1360	 0.21858008600681 
1361	 0.218598212503209 
1362	 0.218584012094923 
1363	 0.218594768856509 
1364	 0.218627217336373 
1365	 0.218655428531011 
1366	 0.218690579433593 
1367	 0.218727597919276 
1368	 0.218750087248784 
1369	 0.218759131062397 
1370	 0.218763906772247 
1371	 0.218744486401317 
1372	 0.218732771135365 
1373	 0.21873095873428 
1374	 0.218699326144867 
1375	 0.218654994548346 
1376	 0.218603309045765 
1377	 0.218534319135563 
1378	 0.218453909908989 
1379	 0.218371632187934 
1380	 0.218275294650335 
1381	 0.218148863448011 
1382	 0.2180307883205 
1383	 0.217917173716822 
1384	 0.217788714343734 
1385	 0.217663558769251 
1386	 0.217517382616424 
1387	 0.217363871126305 
1388	 0.217182308133899 
1389	 0.216975184772306 
1390	 0.216758934695298 
1391	 0.216525547122078 
1392	 0.216268190557517 
1393	 0.216008693274672 
1394	 0.215744018639216 
1395	 0.215450927411279 
1396	 0.215157378490207 
1397	 0.214862232102984 
1398	 0.214554238858039 
1399	 0.214245203750047 
1400	 0.213940123206799 
1401	 0.213631043853288 
1402	 0.213302043225233 
1403	 0.212999353444863 
1404	 0.212698773874228 
1405	 0.212420860969544 
1406	 0.212157725929358 
1407	 0.211912297681514 
1408	 0.211687067193665 
1409	 0.211472573192849 
1410	 0.211262548757572 
1411	 0.211084324262297 
1412	 0.210928077364084 
1413	 0.210788117111906 
1414	 0.210686851212456 
1415	 0.210584915120007 
1416	 0.210475807441234 
1417	 0.210377055733058 
1418	 0.21026537765772 
1419	 0.210169588045811 
1420	 0.210080508763808 
1421	 0.209981699094437 
1422	 0.209904977001985 
1423	 0.209825328223635 
1424	 0.209749298197049 
1425	 0.209683343684396 
1426	 0.209622403065259 
1427	 0.209553787015813 
1428	 0.209508162485686 
1429	 0.209481119542963 
1430	 0.209452809332083 
1431	 0.209438904392996 
1432	 0.209414570501336 
1433	 0.209381321966042 
1434	 0.209371771360966 
1435	 0.209366260456931 
1436	 0.209367960926146 
1437	 0.209392172887825 
1438	 0.209408610394837 
1439	 0.20942181652906 
1440	 0.20944237962413 
1441	 0.209466373682346 
1442	 0.209480788353912 
1443	 0.209467849372417 
1444	 0.20945238212319 
1445	 0.209453919898435 
1446	 0.209453606840309 
1447	 0.209462240188674 
1448	 0.209487475780377 
1449	 0.209497964125919 
1450	 0.209490847794055 
1451	 0.209497322486006 
1452	 0.209507620191043 
1453	 0.209522951409417 
1454	 0.209546695274441 
1455	 0.209560280973833 
1456	 0.209569769097134 
1457	 0.209591104260313 
1458	 0.209610019890839 
1459	 0.209633647052253 
1460	 0.209667982556155 
1461	 0.209700838866071 
1462	 0.209733945036304 
1463	 0.209767701380909 
1464	 0.209813135485325 
1465	 0.209846772016574 
1466	 0.209868030966609 
1467	 0.20989410828382 
1468	 0.209915082181381 
1469	 0.209941854640337 
1470	 0.209970008787637 
1471	 0.210005369537078 
1472	 0.210044467774497 
1473	 0.210086613337565 
1474	 0.210112121051354 
1475	 0.210143865285011 
1476	 0.21018839928242 
1477	 0.210227335139314 
1478	 0.210310198734123 
1479	 0.210411708414246 
1480	 0.210512203437782 
1481	 0.210646451762488 
1482	 0.210769982362882 
1483	 0.210901217916296 
1484	 0.211023543371797 
1485	 0.211143451657367 
1486	 0.21126250203889 
1487	 0.211376176745599 
1488	 0.211495112367213 
1489	 0.211627614413288 
1490	 0.21173820779786 
1491	 0.211839304689396 
1492	 0.211940481013412 
1493	 0.212023063381852 
1494	 0.212117083820193 
1495	 0.212219986166392 
1496	 0.212318033493709 
1497	 0.21241809110736 
1498	 0.212510358327068 
1499	 0.212597876100172 
1500	 0.212683500784785 
1501	 0.212761641222052 
1502	 0.212846346557532 
1503	 0.212941310481912 
1504	 0.213015096141583 
1505	 0.213099129688734 
1506	 0.213183064381003 
1507	 0.213246625714566 
1508	 0.213319643469939 
1509	 0.213385820520207 
1510	 0.213438299815404 
1511	 0.213503513271056 
1512	 0.213580992581446 
1513	 0.213665905181181 
1514	 0.213746013086446 
1515	 0.213830962369323 
1516	 0.213909660081557 
1517	 0.21396874586633 
1518	 0.214014122695885 
1519	 0.214061446227454 
1520	 0.214086536187817 
1521	 0.214132076879391 
1522	 0.21419163915179 
1523	 0.21423945493477 
1524	 0.214286876999717 
1525	 0.214333184378488 
1526	 0.214370262994272 
1527	 0.214416703476702 
1528	 0.21446905249896 
1529	 0.214519919973991 
1530	 0.214574847173385 
1531	 0.214628839963105 
1532	 0.214685645195089 
1533	 0.214736066922795 
1534	 0.214783802079374 
1535	 0.214829472933212 
1536	 0.214862875596876 
1537	 0.214907501847911 
1538	 0.214961354071976 
1539	 0.215008750269502 
1540	 0.215067004078746 
1541	 0.215109825342382 
1542	 0.21514290331643 
1543	 0.215169835298945 
1544	 0.215184549342623 
1545	 0.215198382602542 
1546	 0.215202275261426 
1547	 0.21520837668289 
1548	 0.215227942000604 
1549	 0.215250771674065 
1550	 0.215299110954468 
1551	 0.215349780432204 
1552	 0.215378930977336 
1553	 0.215408772011976 
1554	 0.215442271177779 
1555	 0.215481296854703 
1556	 0.215532026726485 
1557	 0.215576554371001 
1558	 0.215596520665468 
1559	 0.215606214340288 
1560	 0.21563164735864 
1561	 0.215659108625264 
1562	 0.215682335041277 
1563	 0.215714504515947 
1564	 0.215738621175772 
1565	 0.215746231724353 
1566	 0.215778667613654 
1567	 0.215825069419149 
1568	 0.215862937421525 
1569	 0.215908532230121 
1570	 0.215944427155452 
1571	 0.215983297075308 
1572	 0.216004136132594 
1573	 0.216013448440646 
1574	 0.216021869160036 
1575	 0.216005791588837 
1576	 0.216011390465673 
1577	 0.21603626125239 
1578	 0.216042850564272 
1579	 0.216048311817322 
1580	 0.216050290929523 
1581	 0.216039759542258 
1582	 0.21603157419321 
1583	 0.216023685164541 
1584	 0.216019325391013 
1585	 0.216001175562648 
1586	 0.216008004896262 
1587	 0.216041489924089 
1588	 0.216057481085908 
1589	 0.216083287256169 
1590	 0.216096157516372 
1591	 0.216082443742313 
1592	 0.216089025222012 
1593	 0.216111673741634 
1594	 0.216120886096714 
1595	 0.216128052052317 
1596	 0.21614097658201 
1597	 0.216148475826502 
1598	 0.216153367268035 
1599	 0.216170215887535 
1600	 0.216176319901288 
1601	 0.216157002533705 
1602	 0.21615973338991 
1603	 0.216182200846197 
1604	 0.21618717761227 
1605	 0.216191782533275 
1606	 0.216200417460618 
1607	 0.216197467793288 
1608	 0.216197881508044 
1609	 0.216212708547496 
1610	 0.216221621900465 
1611	 0.216218833485369 
1612	 0.216218002208276 
1613	 0.216206149644267 
1614	 0.216197348698598 
1615	 0.21621826367403 
1616	 0.216228758111921 
1617	 0.216249418067178 
1618	 0.216288720467783 
1619	 0.216313957028631 
1620	 0.216326518211657 
1621	 0.216327962030971 
1622	 0.216325552243446 
1623	 0.216313330494664 
1624	 0.21627533800295 
1625	 0.216266112281038 
1626	 0.216265777251756 
1627	 0.21625877556741 
1628	 0.216263950741857 
1629	 0.216252650195322 
1630	 0.216222197456654 
1631	 0.216218131243635 
1632	 0.216220766447673 
1633	 0.216223175976765 
1634	 0.216249632631321 
1635	 0.216240810718202 
1636	 0.216209441870285 
1637	 0.216192889966006 
1638	 0.216158522156554 
1639	 0.216154070271088 
1640	 0.216170377697437 
1641	 0.216181815376145 
1642	 0.216212227880223 
1643	 0.216216680275122 
1644	 0.216207345929743 
1645	 0.216208215608075 
1646	 0.21619783113935 
1647	 0.21620061832887 
1648	 0.216223423110736 
1649	 0.216224558694756 
1650	 0.216209335527194 
1651	 0.216215420943068 
1652	 0.216236779950372 
1653	 0.216224902294222 
1654	 0.216211329237139 
1655	 0.216190594294048 
1656	 0.216133788298435 
1657	 0.216100813372514 
1658	 0.216075519269981 
1659	 0.216065743499977 
1660	 0.216066753489873 
1661	 0.216061215632496 
1662	 0.216073952496807 
1663	 0.216073552713879 
1664	 0.216054865789832 
1665	 0.2160495154841 
1666	 0.216059535024776 
1667	 0.216050567304673 
1668	 0.216023206891412 
1669	 0.216020418952578 
1670	 0.216022381025324 
1671	 0.216022789289935 
1672	 0.216043826622086 
1673	 0.216047795903136 
1674	 0.216033066136496 
1675	 0.216031903253514 
1676	 0.216030029892674 
1677	 0.216039803071868 
1678	 0.216067102466376 
1679	 0.216075151688393 
1680	 0.216092145671285 
1681	 0.21608447266033 
1682	 0.21604167705099 
1683	 0.21602489621156 
1684	 0.216009945280287 
1685	 0.215994413645307 
1686	 0.215981818259563 
1687	 0.215984792181129 
1688	 0.215985827584694 
1689	 0.216003619882741 
1690	 0.216058997784101 
1691	 0.216079450788488 
1692	 0.216089164885557 
1693	 0.216098937270954 
1694	 0.216097015364924 
1695	 0.21609240409289 
1696	 0.216089696994501 
1697	 0.21607797222843 
1698	 0.216046877499077 
1699	 0.216034600124092 
1700	 0.216038303077901 
1701	 0.216016794667597 
1702	 0.215978302790167 
1703	 0.215965316239796 
1704	 0.215953017956296 
1705	 0.21593748161839 
1706	 0.215947596304275 
1707	 0.21593429333638 
1708	 0.215889786153374 
1709	 0.215868713622187 
1710	 0.215855638669134 
1711	 0.215846015383774 
1712	 0.215848731480552 
1713	 0.215836842132728 
1714	 0.215819468867666 
1715	 0.215805764893356 
1716	 0.215786895023154 
1717	 0.215770307612002 
1718	 0.215763749942871 
1719	 0.215747274148779 
1720	 0.215733172880293 
1721	 0.215690663457275 
1722	 0.215619764731224 
1723	 0.215576570742732 
1724	 0.215517350110946 
1725	 0.215483277641765 
1726	 0.215490257822169 
1727	 0.215469150553168 
1728	 0.215436036091509 
1729	 0.215414039381134 
1730	 0.215401614130905 
1731	 0.215358659444315 
1732	 0.215315172511556 
1733	 0.215248890379278 
1734	 0.21513476258931 
1735	 0.21506665772785 
1736	 0.215018348297677 
1737	 0.214950478623701 
1738	 0.214885831850859 
1739	 0.214830828614761 
1740	 0.214755863950396 
1741	 0.214710121869755 
1742	 0.214713247998166 
1743	 0.214659898542611 
1744	 0.214587960946009 
1745	 0.214511949944169 
1746	 0.214400226221063 
1747	 0.214323358264272 
1748	 0.214271386017414 
1749	 0.214219042799949 
1750	 0.214163021186625 
1751	 0.21411582366335 
1752	 0.214055315059167 
1753	 0.214007572750356 
1754	 0.213963799747304 
1755	 0.213886755273882 
1756	 0.21382675724192 
1757	 0.213799838017862 
1758	 0.213777352461243 
1759	 0.213758036331192 
1760	 0.213733707885262 
1761	 0.213677515116282 
1762	 0.213587732761757 
1763	 0.213511142593942 
1764	 0.2134649148569 
1765	 0.213442865590665 
1766	 0.213460155166942 
1767	 0.213488075731109 
1768	 0.21348177657527 
1769	 0.213452956967266 
1770	 0.213406878287812 
1771	 0.213358639866597 
1772	 0.213328033874729 
1773	 0.213277835535819 
1774	 0.213221039699026 
1775	 0.213161930469621 
1776	 0.213121001627269 
1777	 0.213126773958593 
1778	 0.213109979375364 
1779	 0.213098701229396 
1780	 0.213096930876115 
1781	 0.21307643685814 
1782	 0.213074686433213 
1783	 0.213034130411832 
1784	 0.213013076870215 
1785	 0.212986344911685 
1786	 0.212967160137865 
1787	 0.212963109841704 
1788	 0.2129739019686 
1789	 0.212998509305139 
1790	 0.213008818835191 
1791	 0.213027771483186 
1792	 0.213042489298115 
1793	 0.213034434878346 
1794	 0.213047903155147 
1795	 0.213101373111821 
1796	 0.213119383985876 
1797	 0.213129098702028 
1798	 0.213110671556437 
1799	 0.213030745413197 
1800	 0.213007645789262 
1801	 0.211337266893468 
1802	 0.211351117914658 
1803	 0.211375619745954 
1804	 0.21145533797978 
1805	 0.21152695666346 
1806	 0.211567256167792 
1807	 0.211625296719698 
1808	 0.211656432176797 
1809	 0.211660247432408 
1810	 0.211670736837336 
1811	 0.211680951845998 
1812	 0.211672602730485 
1813	 0.211655450606562 
1814	 0.211650607538454 
1815	 0.211634680270396 
1816	 0.211602283290631 
1817	 0.211591132386043 
1818	 0.211592530487247 
1819	 0.2115874271239 
1820	 0.211578678204655 
1821	 0.211599039048279 
1822	 0.211603507176755 
1823	 0.211573971257123 
1824	 0.211562109057488 
1825	 0.211539499388784 
1826	 0.211522307645661 
1827	 0.211530439854489 
1828	 0.211520844715379 
1829	 0.211514983631457 
1830	 0.211496006517345 
1831	 0.211466660943077 
1832	 0.211426104631834 
1833	 0.211387362291691 
1834	 0.211350769403529 
1835	 0.21131436723833 
1836	 0.211282026947333 
1837	 0.211264577157596 
1838	 0.211230317401438 
1839	 0.211206109841818 
1840	 0.211190940119089 
1841	 0.211175547069075 
1842	 0.211143556991959 
1843	 0.211124493450089 
1844	 0.211096034378339 
1845	 0.21102607806271 
1846	 0.21093892221184 
1847	 0.210863651911762 
1848	 0.2107765164598 
1849	 0.210719856018957 
1850	 0.210666614859759 
1851	 0.210638720715643 
1852	 0.210591301398424 
1853	 0.210540112240853 
1854	 0.2104570162581 
1855	 0.210375388885935 
1856	 0.210268810121699 
1857	 0.210134459134796 
1858	 0.210025468746417 
1859	 0.209894627655207 
1860	 0.209729834544272 
1861	 0.209544157953793 
1862	 0.209344174086878 
1863	 0.209121903439477 
1864	 0.208892373927077 
1865	 0.208685025870345 
1866	 0.208481393047748 
1867	 0.208237235905188 
1868	 0.207988932159432 
1869	 0.207720226253904 
1870	 0.207402385804327 
1871	 0.20706904262147 
1872	 0.206730302233843 
1873	 0.206339709947157 
1874	 0.205900110519418 
1875	 0.205475861941475 
1876	 0.205012640574373 
1877	 0.204505609586526 
1878	 0.203967875139645 
1879	 0.203376680421231 
1880	 0.202752361551643 
1881	 0.202083646235745 
1882	 0.201380524557925 
1883	 0.20065067985683 
1884	 0.19986000543268 
1885	 0.199031010033154 
1886	 0.198157585780383 
1887	 0.197206017189189 
1888	 0.196234453795495 
1889	 0.195225189338849 
1890	 0.19418369080429 
1891	 0.193172225420628 
1892	 0.192161009609761 
1893	 0.191158064250626 
1894	 0.190158239700756 
1895	 0.189183028699868 
1896	 0.188196416957489 
1897	 0.187244355324736 
1898	 0.18633704398494 
1899	 0.185472937068276 
1900	 0.184652635133251 
1901	 0.183887510908025 
1902	 0.183176808962678 
1903	 0.182517495837091 
1904	 0.181908100312757 
1905	 0.181358663303715 
1906	 0.180853151267424 
1907	 0.180394943989579 
1908	 0.17996808523331 
1909	 0.179580498829467 
1910	 0.179222938296846 
1911	 0.178883827906367 
1912	 0.17857427146206 
1913	 0.178281253751261 
1914	 0.17800126056208 
1915	 0.177759454646967 
1916	 0.177554575505499 
1917	 0.177350853681593 
1918	 0.177176192351891 
1919	 0.17701759505607 
1920	 0.176875546595094 
1921	 0.176751631681696 
1922	 0.176617719805119 
1923	 0.176512579102472 
1924	 0.176431178375283 
1925	 0.176352224992448 
1926	 0.176308330518838 
1927	 0.176306706606193 
1928	 0.17631329665919 
1929	 0.176333554651781 
1930	 0.176368156843888 
1931	 0.17640971110184 
1932	 0.176479781942776 
1933	 0.176545112631844 
1934	 0.176618724561756 
1935	 0.176716262778561 
1936	 0.176831259958274 
1937	 0.176955631796746 
1938	 0.177104059496193 
1939	 0.177254623556165 
1940	 0.177412801013078 
1941	 0.177574932662734 
1942	 0.1777556788764 
1943	 0.177956132048544 
1944	 0.178164316494484 
1945	 0.178386048356976 
1946	 0.178602598390477 
1947	 0.178821350292466 
1948	 0.179039553965134 
1949	 0.17925899086782 
1950	 0.179479812805063 
1951	 0.179691913887371 
1952	 0.179925297766108 
1953	 0.180172305537984 
1954	 0.180407594301367 
1955	 0.180657741800622 
1956	 0.180900588906409 
1957	 0.181142584090919 
1958	 0.181370709023313 
1959	 0.18161763532267 
1960	 0.181885326731555 
1961	 0.182135418480324 
1962	 0.182371723747979 
1963	 0.182629900165461 
1964	 0.18289102226123 
1965	 0.183144874172206 
1966	 0.18343601138434 
1967	 0.183736063728284 
1968	 0.184023278509982 
1969	 0.184316177038389 
1970	 0.184594638500549 
1971	 0.18486011270664 
1972	 0.185128351396491 
1973	 0.185388154486068 
1974	 0.185653825490503 
1975	 0.185915759966716 
1976	 0.186192249384159 
1977	 0.186471544734902 
1978	 0.186725430022029 
1979	 0.186981872817329 
1980	 0.187247394735648 
1981	 0.187513399731533 
1982	 0.187788504520375 
1983	 0.188051972851006 
1984	 0.188307050484006 
1985	 0.188571655071283 
1986	 0.188830369533187 
1987	 0.189095957176288 
1988	 0.189371501817578 
1989	 0.189647711792707 
1990	 0.189937976578173 
1991	 0.190223426448841 
1992	 0.190492235518674 
1993	 0.190762251508429 
1994	 0.191023957073147 
1995	 0.191258230732717 
1996	 0.191508234494379 
1997	 0.191775268706183 
1998	 0.192021378774849 
1999	 0.192259441182385 
2000	 0.192493222826894 
2001	 0.192713527518591 
2002	 0.192935577303809 
2003	 0.193153255150585 
2004	 0.193371396362355 
2005	 0.193589769010677 
2006	 0.193803719168609 
2007	 0.194025042399201 
2008	 0.19424731458501 
2009	 0.194473557292491 
2010	 0.194713221394943 
2011	 0.194941257511728 
2012	 0.195164970060957 
2013	 0.195391076198091 
2014	 0.195613679934367 
2015	 0.195836052751427 
2016	 0.196050725217967 
2017	 0.196262149167311 
2018	 0.196487182382 
2019	 0.196716799093421 
2020	 0.196936441063316 
2021	 0.197168692093156 
2022	 0.197389284168873 
2023	 0.197602594514948 
2024	 0.197803260060837 
2025	 0.197997403172793 
2026	 0.198185189881358 
2027	 0.19835448525158 
2028	 0.198517809157885 
2029	 0.19869918954672 
2030	 0.198887073080527 
2031	 0.199076400235902 
2032	 0.19928170891775 
2033	 0.199467751345496 
2034	 0.199641239334422 
2035	 0.199829072674615 
2036	 0.200024566880427 
2037	 0.200204437727369 
2038	 0.20039071917789 
2039	 0.200563321001835 
2040	 0.200725908017546 
2041	 0.20085781386994 
2042	 0.201018811116188 
2043	 0.201191639170115 
2044	 0.20134367024654 
2045	 0.201496501076482 
2046	 0.201643246448915 
2047	 0.201767141489877 
2048	 0.201906942855068 
2049	 0.202058925703241 
2050	 0.202198092960617 
2051	 0.20233965530806 
2052	 0.202470702307032 
2053	 0.202586939554864 
2054	 0.202709121536366 
2055	 0.202831617363475 
2056	 0.202949714272562 
2057	 0.203057598861118 
2058	 0.203159060874503 
2059	 0.203263522036949 
2060	 0.203342843011295 
2061	 0.203461900213575 
2062	 0.203615773878686 
2063	 0.20374446636249 
2064	 0.203882001385359 
2065	 0.204012874554316 
2066	 0.20412586885997 
2067	 0.204244556279789 
2068	 0.204378651140842 
2069	 0.204489832673063 
2070	 0.20461421733121 
2071	 0.204732556194555 
2072	 0.204862869390047 
2073	 0.205011291916566 
2074	 0.205138998870757 
2075	 0.205272290744075 
2076	 0.205379829605632 
2077	 0.205454416213791 
2078	 0.20555076607866 
2079	 0.205637126603856 
2080	 0.205736083169546 
2081	 0.20586112611871 
2082	 0.205967670776865 
2083	 0.206073824647743 
2084	 0.206167170343666 
2085	 0.20625650833212 
2086	 0.206332198965541 
2087	 0.206419708060778 
2088	 0.206502411980957 
2089	 0.206595062412696 
2090	 0.206707218851472 
2091	 0.206792136102067 
2092	 0.206859264830404 
2093	 0.206943969242012 
2094	 0.207011079077681 
2095	 0.207102280929153 
2096	 0.207246495268577 
2097	 0.207345570496852 
2098	 0.207433177280933 
2099	 0.207497068584752 
2100	 0.207584361919544 
2101	 0.207656731884727 
2102	 0.207734998583504 
2103	 0.20783698828549 
2104	 0.207919195662058 
2105	 0.207971905292443 
2106	 0.208050184368677 
2107	 0.208135762674236 
2108	 0.20823321823305 
2109	 0.20834664865875 
2110	 0.208453991700781 
2111	 0.208588401726207 
2112	 0.208690355019332 
2113	 0.208777268399521 
2114	 0.208851713117348 
2115	 0.208915045244131 
2116	 0.208949719437181 
2117	 0.209008334328897 
2118	 0.209056269709857 
2119	 0.209135678155184 
2120	 0.209249313807798 
2121	 0.209331157283012 
2122	 0.209418218614819 
2123	 0.209496101409979 
2124	 0.209555521529537 
2125	 0.209612369496328 
2126	 0.209676848283688 
2127	 0.209726148516316 
2128	 0.209757290163202 
2129	 0.209784818508318 
2130	 0.209792895259967 
2131	 0.209826581095726 
2132	 0.209830942269865 
2133	 0.209825785234528 
2134	 0.209807137620508 
2135	 0.209767241346278 
2136	 0.2097368443677 
2137	 0.209706790966879 
2138	 0.209659721695013 
2139	 0.209629243999479 
2140	 0.209550489414511 
2141	 0.209416130923823 
2142	 0.209309238601767 
2143	 0.209182209663956 
2144	 0.209066141769347 
2145	 0.2089836071462 
2146	 0.208873812257929 
2147	 0.208757083640622 
2148	 0.208615433889561 
2149	 0.208475713193121 
2150	 0.208319604326233 
2151	 0.208169733477509 
2152	 0.208012274368033 
2153	 0.207866572839809 
2154	 0.207732213781024 
2155	 0.207581188218626 
2156	 0.207426289646401 
2157	 0.207275059448954 
2158	 0.207120051106799 
2159	 0.206954224487145 
2160	 0.206794968657823 
2161	 0.206621807411868 
2162	 0.206416440131487 
2163	 0.206230945219746 
2164	 0.206046730263762 
2165	 0.20587104661619 
2166	 0.205702843351327 
2167	 0.205558088664867 
2168	 0.205373851913708 
2169	 0.205166337756354 
2170	 0.204990651899716 
2171	 0.204810500667103 
2172	 0.204633400755089 
2173	 0.204489577544369 
2174	 0.204319232937434 
2175	 0.204131541361851 
2176	 0.20393527332922 
2177	 0.203711615455559 
2178	 0.203522491146195 
2179	 0.2033278406264 
2180	 0.203151680697135 
2181	 0.203009750475755 
2182	 0.202873483175911 
2183	 0.202741477340602 
2184	 0.20262020853594 
2185	 0.202505189203788 
2186	 0.202409650556533 
2187	 0.202303385744447 
2188	 0.202190265226969 
2189	 0.202093905493381 
2190	 0.202014224418803 
2191	 0.201917456991943 
2192	 0.201820908413887 
2193	 0.201725276265671 
2194	 0.201599697078828 
2195	 0.20151584747728 
2196	 0.201479996476825 
2197	 0.201407628427012 
2198	 0.201333022884047 
2199	 0.201263198106371 
2200	 0.201172383698049 
2201	 0.201086368664678 
2202	 0.201014866494992 
2203	 0.200941520924546 
2204	 0.200867952695013 
2205	 0.200781248496808 
2206	 0.20071484960376 
2207	 0.200642962812113 
2208	 0.200620508392534 
2209	 0.200618744504222 
2210	 0.200642621311488 
2211	 0.200724533280746 
2212	 0.200780133886476 
2213	 0.200841258763697 
2214	 0.200897826947734 
2215	 0.200943445547218 
2216	 0.20100878471429 
2217	 0.201091528209826 
2218	 0.201162879624279 
2219	 0.201233312340623 
2220	 0.201316002687197 
2221	 0.201393365622108 
2222	 0.201483094948205 
2223	 0.201574141214875 
2224	 0.201672982181298 
2225	 0.201776930781308 
2226	 0.201890330789458 
2227	 0.201965796606485 
2228	 0.202054050908631 
2229	 0.202088711405717 
2230	 0.202063590671515 
2231	 0.202060624527322 
2232	 0.202021532660525 
2233	 0.202029891044508 
2234	 0.20206612222427 
2235	 0.202087831481073 
2236	 0.202136054178437 
2237	 0.202163834135569 
2238	 0.202162430356025 
2239	 0.202172007036281 
2240	 0.202198490444194 
2241	 0.20220540456233 
2242	 0.202202886059898 
2243	 0.202197774015542 
2244	 0.202175047493285 
2245	 0.202154690400351 
2246	 0.202146791882367 
2247	 0.202131295741864 
2248	 0.202134197385327 
2249	 0.202156908901042 
2250	 0.20214691092288 
2251	 0.202125504894297 
2252	 0.202127488258044 
2253	 0.202125802673489 
2254	 0.202124702509209 
2255	 0.202152414693756 
2256	 0.20214788007839 
2257	 0.202100840252704 
2258	 0.202093643259039 
2259	 0.202104718618415 
2260	 0.202104822741522 
2261	 0.202107684703088 
2262	 0.20212142200955 
2263	 0.202139838648227 
2264	 0.202154271609573 
2265	 0.202207153275089 
2266	 0.202211137175227 
2267	 0.202154457589476 
2268	 0.202133512044722 
2269	 0.202101119401278 
2270	 0.202079095629253 
2271	 0.202115227547622 
2272	 0.202125800386938 
2273	 0.202120756983728 
2274	 0.202153432257997 
2275	 0.202158263896815 
2276	 0.20214987421047 
2277	 0.202155863825175 
2278	 0.202161953029813 
2279	 0.202158438486614 
2280	 0.202160670153543 
2281	 0.202149403794232 
2282	 0.202128338370022 
2283	 0.202102533673503 
2284	 0.20207409208428 
2285	 0.202037780777584 
2286	 0.201989236462073 
2287	 0.201935046722755 
2288	 0.201857607127924 
2289	 0.201807490801919 
2290	 0.201760747203939 
2291	 0.201726821819522 
2292	 0.201724149011695 
2293	 0.201703840515589 
2294	 0.201670227843184 
2295	 0.201654624567372 
2296	 0.201623137379845 
2297	 0.20164273094687 
2298	 0.201680866859397 
2299	 0.201713548343607 
2300	 0.201720518951818 
2301	 0.201679352586349 
2302	 0.20162999342923 
2303	 0.201547034982903 
2304	 0.201512467053032 
2305	 0.2014924781505 
2306	 0.20144234768526 
2307	 0.201402094136549 
2308	 0.201329668100652 
2309	 0.201220839529474 
2310	 0.201124685362083 
2311	 0.201016652861363 
2312	 0.20090238978569 
2313	 0.200781029042139 
2314	 0.200646821104793 
2315	 0.200481220806076 
2316	 0.200364115234715 
2317	 0.200264033068278 
2318	 0.200175567288911 
2319	 0.200123296128574 
2320	 0.200063192320889 
2321	 0.199970984775855 
2322	 0.1999375797302 
2323	 0.199950329423868 
2324	 0.199959429313895 
2325	 0.200023339864827 
2326	 0.200053222083389 
2327	 0.20006346963215 
2328	 0.200071477863186 
2329	 0.20010855810081 
2330	 0.200133106849693 
2331	 0.200159943476235 
2332	 0.200203106597642 
2333	 0.200207939008383 
2334	 0.20021158732368 
2335	 0.200252745490647 
2336	 0.200264668150014 
2337	 0.20026243088644 
2338	 0.200292874621273 
2339	 0.200306425800384 
2340	 0.200279108772996 
2341	 0.200258913392722 
2342	 0.200203210013714 
2343	 0.200075858474504 
2344	 0.199968765110618 
2345	 0.199906289499388 
2346	 0.199838273077707 
2347	 0.199824588443735 
2348	 0.199918617515932 
2349	 0.199916272657704 
2350	 0.199908394957063 
2351	 0.199864786172192 
2352	 0.199763650614336 
2353	 0.199656994942817 
2354	 0.199517042623214 
2355	 0.199420972746935 
2356	 0.199312079834739 
2357	 0.199218515129977 
2358	 0.199174788111616 
2359	 0.199080366444374 
2360	 0.198941921048295 
2361	 0.198861099076909 
2362	 0.198810813981571 
2363	 0.198724242726097 
2364	 0.198659542346618 
2365	 0.198579019605286 
2366	 0.198438150066005 
2367	 0.198334421150858 
2368	 0.198275437749673 
2369	 0.19816849407923 
2370	 0.198000639138009 
2371	 0.197943382030753 
2372	 0.197872104052453 
2373	 0.197756135007931 
2374	 0.197695704723835 
2375	 0.197583365604525 
2376	 0.197415491373977 
2377	 0.197281927320539 
2378	 0.197166090926879 
2379	 0.196988407483832 
2380	 0.196826878476072 
2381	 0.196648323697762 
2382	 0.196379259365562 
2383	 0.196189945688544 
2384	 0.196030656314556 
2385	 0.195847402244328 
2386	 0.195713847321093 
2387	 0.195549942897514 
2388	 0.195410492948379 
2389	 0.195277177868321 
2390	 0.195118745294338 
2391	 0.195018570752359 
2392	 0.194842373345366 
2393	 0.194628734848972 
2394	 0.19448283393811 
2395	 0.194303237471725 
2396	 0.194132669550312 
2397	 0.194018122071315 
2398	 0.193849629595259 
2399	 0.193603352714307 
2400	 0.193329688666938 
2401	 0.193083180379729 
2402	 0.192870253524733 
2403	 0.192711065111623 
2404	 0.192651441591291 
2405	 0.192613867225433 
2406	 0.192469531350006 
2407	 0.192276336061314 
2408	 0.192166095096154 
2409	 0.19198280568036 
2410	 0.191784996803851 
2411	 0.191731208942642 
2412	 0.191631078213092 
2413	 0.19146439010126 
2414	 0.191289966954227 
2415	 0.191104354129118 
2416	 0.190903793637462 
2417	 0.190605209418476 
2418	 0.190384288046041 
2419	 0.190245185893674 
2420	 0.190012348141238 
2421	 0.189768789425397 
2422	 0.189522882813497 
2423	 0.189170471080386 
2424	 0.188981165574204 
2425	 0.188880017023717 
2426	 0.188664621251198 
2427	 0.188517865972268 
2428	 0.188342957153697 
2429	 0.188056676431239 
2430	 0.187850455175693 
2431	 0.187718498908474 
2432	 0.187511883823758 
2433	 0.187239689987256 
2434	 0.187088072635739 
2435	 0.187003186266665 
2436	 0.1868455599119 
2437	 0.186760251230685 
2438	 0.186561713134182 
2439	 0.186241181209143 
2440	 0.185983015462569 
2441	 0.18565029118636 
2442	 0.185400002759772 
2443	 0.185193285636235 
2444	 0.185079912476638 
2445	 0.18514363926328 
2446	 0.18503442076242 
2447	 0.184857104092513 
2448	 0.18471534458495 
2449	 0.184521920673566 
2450	 0.184294639095633 
2451	 0.184087915836369 
2452	 0.183908233218289 
2453	 0.183639247147621 
2454	 0.183405472440286 
2455	 0.183300503443403 
2456	 0.183137225574538 
2457	 0.18287980620498 
2458	 0.182654593022948 
2459	 0.182475153714624 
2460	 0.182241206583385 
2461	 0.181947621113757 
2462	 0.181760908019355 
2463	 0.181623643214397 
2464	 0.181430713926684 
2465	 0.181274013686659 
2466	 0.181092169240125 
2467	 0.180866534697721 
2468	 0.180698254048829 
2469	 0.18055794825191 
2470	 0.180368646653848 
2471	 0.180119292714861 
2472	 0.179873113118823 
2473	 0.179588436165897 
2474	 0.179351595539183 
2475	 0.179189253054185 
2476	 0.179048485510006 
2477	 0.179031919950962 
2478	 0.17893172468055 
2479	 0.17875758220207 
2480	 0.178565206550354 
2481	 0.178320706050099 
2482	 0.178081045085105 
2483	 0.177806904778175 
2484	 0.17745466271526 
2485	 0.177102553144959 
2486	 0.176793205347429 
2487	 0.17664601008514 
2488	 0.176582297407403 
2489	 0.176399685600322 
2490	 0.176324880624428 
2491	 0.176205705536179 
2492	 0.175977188605404 
2493	 0.175815940398522 
2494	 0.175561133340849 
2495	 0.175318588965733 
2496	 0.175249530786406 
2497	 0.175176588266251 
2498	 0.175170317495242 
2499	 0.175180238171778 
2500	 0.174877047344287 
