Wavelength	LMW400006.asd
350	 0.132856841243314 
351	 0.136070181954922 
352	 0.129471815540582 
353	 0.120477854885406 
354	 0.119750393228873 
355	 0.119914994167716 
356	 0.122286581015182 
357	 0.12756467759594 
358	 0.126187082194882 
359	 0.124815927541363 
360	 0.125176158350996 
361	 0.125593169094724 
362	 0.126876285643227 
363	 0.129130397795778 
364	 0.130815590911548 
365	 0.127452775943723 
366	 0.128702932219624 
367	 0.132286276254181 
368	 0.134164924559781 
369	 0.138246310616076 
370	 0.138554871216909 
371	 0.136115238621588 
372	 0.136553130755626 
373	 0.137999075367196 
374	 0.140307426425734 
375	 0.142784389942169 
376	 0.14364306638475 
377	 0.14246569457258 
378	 0.141648642588601 
379	 0.143520070881177 
380	 0.146799703213193 
381	 0.14597887025086 
382	 0.143576738631324 
383	 0.147261984733072 
384	 0.147939375544884 
385	 0.148694009304935 
386	 0.151227421036421 
387	 0.151123071523679 
388	 0.152682483887652 
389	 0.153978967324591 
390	 0.152717268978541 
391	 0.154569392046892 
392	 0.156041038832322 
393	 0.156256170558227 
394	 0.156869088294878 
395	 0.157090982306113 
396	 0.158269451612683 
397	 0.160627511787439 
398	 0.161380217439529 
399	 0.161967840305785 
400	 0.163363989286832 
401	 0.165794452973937 
402	 0.166454160576784 
403	 0.166327225351141 
404	 0.166393498494524 
405	 0.167287951728739 
406	 0.16787588093662 
407	 0.168206172477472 
408	 0.168560815439772 
409	 0.169185242147946 
410	 0.169692149704345 
411	 0.170223944469467 
412	 0.171050379976699 
413	 0.171423867528988 
414	 0.171866415737622 
415	 0.172393228494416 
416	 0.172225313379978 
417	 0.172352680374307 
418	 0.172952473838465 
419	 0.173701071989896 
420	 0.173324567294639 
421	 0.173145698518092 
422	 0.173711128046445 
423	 0.174869094310392 
424	 0.175121289335472 
425	 0.174984817317668 
426	 0.175038377853932 
427	 0.175491821900501 
428	 0.175762959964454 
429	 0.17573256259396 
430	 0.17560603777686 
431	 0.176387609866494 
432	 0.176556836477867 
433	 0.17621456827806 
434	 0.177019317140692 
435	 0.177344735897978 
436	 0.17746859983591 
437	 0.17771807965091 
438	 0.177449007575871 
439	 0.177792123164977 
440	 0.178619954049065 
441	 0.179154786271999 
442	 0.179000561279424 
443	 0.17896399934481 
444	 0.179392663594661 
445	 0.17978428451654 
446	 0.180153533489692 
447	 0.180402404842852 
448	 0.180488998165213 
449	 0.180607419681662 
450	 0.181120312469593 
451	 0.181781527286364 
452	 0.181892094285894 
453	 0.182272433913021 
454	 0.182527769782435 
455	 0.182452645589793 
456	 0.182852713614561 
457	 0.183015703974852 
458	 0.182989752890294 
459	 0.183161409352344 
460	 0.183704209183832 
461	 0.183896038527363 
462	 0.183624402965931 
463	 0.183714125430821 
464	 0.184085668673525 
465	 0.184477734678564 
466	 0.184667673994 
467	 0.184909199508989 
468	 0.184948596497892 
469	 0.184901985865025 
470	 0.185159078491371 
471	 0.185414701033133 
472	 0.185504123298039 
473	 0.18547407015973 
474	 0.185835203385125 
475	 0.185977611048515 
476	 0.185969035078453 
477	 0.186146955026199 
478	 0.186430562053262 
479	 0.186782422602992 
480	 0.187066287042785 
481	 0.187002042863693 
482	 0.187118114271573 
483	 0.187411776891631 
484	 0.187697006010734 
485	 0.187727759350922 
486	 0.187762073439071 
487	 0.187843925733006 
488	 0.187845327728408 
489	 0.188057732321102 
490	 0.188328194586342 
491	 0.188515452955055 
492	 0.188717027744357 
493	 0.188784980911637 
494	 0.188792685759304 
495	 0.188900657544757 
496	 0.189047121080029 
497	 0.189202325524486 
498	 0.189362307746148 
499	 0.18956622732522 
500	 0.18958032091571 
501	 0.189612163643602 
502	 0.18986389769977 
503	 0.189903108959493 
504	 0.189942275793518 
505	 0.190066371004933 
506	 0.190222139142081 
507	 0.190393910441934 
508	 0.190523318569637 
509	 0.190581125234095 
510	 0.190630026196765 
511	 0.190605209175634 
512	 0.190641766032329 
513	 0.190926705557628 
514	 0.191104520792225 
515	 0.191247418524366 
516	 0.191399748386953 
517	 0.191470294270321 
518	 0.191485531585579 
519	 0.191504777636502 
520	 0.191591799681343 
521	 0.191772933037419 
522	 0.191919011655077 
523	 0.191974540550032 
524	 0.191972167898594 
525	 0.192092389900253 
526	 0.192214175992954 
527	 0.192226358790748 
528	 0.192278541309275 
529	 0.19232245036715 
530	 0.192377158241819 
531	 0.192497120632925 
532	 0.192600148780498 
533	 0.192745856334103 
534	 0.192932283008257 
535	 0.192984337754549 
536	 0.193005489278854 
537	 0.193058483438107 
538	 0.193173209546608 
539	 0.193259296281043 
540	 0.193313987083533 
541	 0.193362556049224 
542	 0.193456240284757 
543	 0.193553313997623 
544	 0.193626706501795 
545	 0.193673615667785 
546	 0.193769804278728 
547	 0.193855367108325 
548	 0.193944814108826 
549	 0.194109743036064 
550	 0.194193987828061 
551	 0.194284931451418 
552	 0.194449324393521 
553	 0.194587447160281 
554	 0.194685979034128 
555	 0.194759401334855 
556	 0.194838353271011 
557	 0.19491665843763 
558	 0.195027888379625 
559	 0.195183668608137 
560	 0.195363055934498 
561	 0.195422098498869 
562	 0.195414427075334 
563	 0.195458793484602 
564	 0.195580765414134 
565	 0.195717260162876 
566	 0.195823116969692 
567	 0.195883049107768 
568	 0.196079239567637 
569	 0.196295927492865 
570	 0.196423426731795 
571	 0.196641936546773 
572	 0.196793673708764 
573	 0.196878743446348 
574	 0.197002806584133 
575	 0.197059575047916 
576	 0.197157141796098 
577	 0.197331304227963 
578	 0.197385440882782 
579	 0.197446657279422 
580	 0.197559971657812 
581	 0.197734775379739 
582	 0.197974971934838 
583	 0.198200551417549 
584	 0.198363518914192 
585	 0.198471890896672 
586	 0.198497143196648 
587	 0.198565199420623 
588	 0.198758848396214 
589	 0.19877134363146 
590	 0.198826627467372 
591	 0.198966484952165 
592	 0.199054306099042 
593	 0.199120462418372 
594	 0.199175958082032 
595	 0.199253294796116 
596	 0.199455991508164 
597	 0.199641820031716 
598	 0.199805535360791 
599	 0.20000277880049 
600	 0.200096574299503 
601	 0.200207808018793 
602	 0.200366346113123 
603	 0.200385025037818 
604	 0.200365026296479 
605	 0.200384864056961 
606	 0.200497746939281 
607	 0.200655110767465 
608	 0.2007631085291 
609	 0.200824206303249 
610	 0.200951084605072 
611	 0.201108188299237 
612	 0.201253891100847 
613	 0.201365771531625 
614	 0.201500999918415 
615	 0.201614701729781 
616	 0.201710909947615 
617	 0.201823767101251 
618	 0.20191748920322 
619	 0.201960319434561 
620	 0.201967906920456 
621	 0.202055968328901 
622	 0.202156991608587 
623	 0.202245402491684 
624	 0.202314719105052 
625	 0.202384781892254 
626	 0.202451443446311 
627	 0.202517258754642 
628	 0.202596107723997 
629	 0.202677746289815 
630	 0.202769972075118 
631	 0.202871356847251 
632	 0.202929891905876 
633	 0.202954010639345 
634	 0.202988554659092 
635	 0.203095295719342 
636	 0.203123922647106 
637	 0.203144914719213 
638	 0.203215292639791 
639	 0.203258482782224 
640	 0.203330878559145 
641	 0.203439927554421 
642	 0.203558720574165 
643	 0.203593148319219 
644	 0.203614599100961 
645	 0.203674824124249 
646	 0.203775512178598 
647	 0.203803376587955 
648	 0.20380663218262 
649	 0.203862150755818 
650	 0.203948476436553 
651	 0.203981190058971 
652	 0.203999810551937 
653	 0.204138322462353 
654	 0.204203939387307 
655	 0.204193838054115 
656	 0.204165192182091 
657	 0.204230445904852 
658	 0.204316460133026 
659	 0.204407596918863 
660	 0.204501894483764 
661	 0.204495977640012 
662	 0.204522793388931 
663	 0.204632211063168 
664	 0.204724553639473 
665	 0.204746909089554 
666	 0.204768851809547 
667	 0.204848995812427 
668	 0.204818716542905 
669	 0.204870448732742 
670	 0.205007655753292 
671	 0.205075023849928 
672	 0.20514212296114 
673	 0.205172761175546 
674	 0.20517037898052 
675	 0.205275028472656 
676	 0.205369742556071 
677	 0.205409327065377 
678	 0.205397601644257 
679	 0.205437538126821 
680	 0.205502453478686 
681	 0.205587810898831 
682	 0.205735337520071 
683	 0.205753355167738 
684	 0.205744735458906 
685	 0.205833256545319 
686	 0.205920632308956 
687	 0.205967860452443 
688	 0.205990286405794 
689	 0.206038350645198 
690	 0.206076208841557 
691	 0.206098168054335 
692	 0.206123729362808 
693	 0.206220187374631 
694	 0.206284515300447 
695	 0.206321011739821 
696	 0.206368224267511 
697	 0.206413591560178 
698	 0.206451847885353 
699	 0.206497629612312 
700	 0.206583576196265 
701	 0.206663019708574 
702	 0.206714962586848 
703	 0.20673713469366 
704	 0.206757619556111 
705	 0.206780067890966 
706	 0.20681783332184 
707	 0.206878775101104 
708	 0.206893313857339 
709	 0.206915061984103 
710	 0.206969750419703 
711	 0.207024204351372 
712	 0.207087634798542 
713	 0.207130686938985 
714	 0.207135595242711 
715	 0.207158364014408 
716	 0.207220750240507 
717	 0.207294643694686 
718	 0.207320782402524 
719	 0.2073280507831 
720	 0.207337458220547 
721	 0.20736239813664 
722	 0.207404564854831 
723	 0.207449278470025 
724	 0.207504590246746 
725	 0.207572672267384 
726	 0.207584607294017 
727	 0.207607937668132 
728	 0.207648408526676 
729	 0.207652879297093 
730	 0.207697158412115 
731	 0.207729065628949 
732	 0.207716257503989 
733	 0.207727483593866 
734	 0.207745661014303 
735	 0.207765082938081 
736	 0.207783859868131 
737	 0.207802671322671 
738	 0.207844553117241 
739	 0.20788640351765 
740	 0.207858194806614 
741	 0.207864392783533 
742	 0.207915648655597 
743	 0.207978191616708 
744	 0.207956273300257 
745	 0.207940627887279 
746	 0.207942582114352 
747	 0.207937879146517 
748	 0.207941245463884 
749	 0.207955796226376 
750	 0.207973801277269 
751	 0.207976442061866 
752	 0.207988482572989 
753	 0.207997326176035 
754	 0.208000187713097 
755	 0.208054074477482 
756	 0.208079722550182 
757	 0.208061961562823 
758	 0.208027157735617 
759	 0.208024249554797 
760	 0.208038361309059 
761	 0.208044509694417 
762	 0.208015736832959 
763	 0.208043548646137 
764	 0.208075243641991 
765	 0.208052759083188 
766	 0.207999499267699 
767	 0.208004419034573 
768	 0.208033958244555 
769	 0.208006244161826 
770	 0.207995589169735 
771	 0.208015572707701 
772	 0.208042197034006 
773	 0.208016189072408 
774	 0.207994123157322 
775	 0.207986999824875 
776	 0.207982435917921 
777	 0.207925779313354 
778	 0.207928993134817 
779	 0.207967606055078 
780	 0.20796671828298 
781	 0.207977006800519 
782	 0.208013373635891 
783	 0.208025921076025 
784	 0.207912882484306 
785	 0.20791142450406 
786	 0.207968376857973 
787	 0.20798980922392 
788	 0.207921744666522 
789	 0.207901874055762 
790	 0.207925014152174 
791	 0.207934470865189 
792	 0.207929283899002 
793	 0.207925677926115 
794	 0.207929489139289 
795	 0.207936108680965 
796	 0.207948357595205 
797	 0.207949368384875 
798	 0.207920879092303 
799	 0.207842453710257 
800	 0.207830923376568 
801	 0.207872309928462 
802	 0.207904403771946 
803	 0.207854552132416 
804	 0.207877375135343 
805	 0.207943447217714 
806	 0.207921539393499 
807	 0.207924111314662 
808	 0.207895210162644 
809	 0.207837995963256 
810	 0.207851018162505 
811	 0.207910081736464 
812	 0.207930252172165 
813	 0.207883359770146 
814	 0.207937576742033 
815	 0.207932872549923 
816	 0.207873209914506 
817	 0.207830216080966 
818	 0.207824419287634 
819	 0.20789084776558 
820	 0.207983514182247 
821	 0.207995718804645 
822	 0.20795143914288 
823	 0.207910349635648 
824	 0.207900558201434 
825	 0.207886919674804 
826	 0.20791333591636 
827	 0.207964385834203 
828	 0.207999907907586 
829	 0.207958485580548 
830	 0.207893675701659 
831	 0.207860193315814 
832	 0.207893522443685 
833	 0.207921486803832 
834	 0.207971812745471 
835	 0.208019240730742 
836	 0.207992278508156 
837	 0.207956620987802 
838	 0.207979815429058 
839	 0.208042202439342 
840	 0.207978205247021 
841	 0.208017470990213 
842	 0.208039518317577 
843	 0.207940646298105 
844	 0.207984254350299 
845	 0.208031519873476 
846	 0.208034569603958 
847	 0.208004563287868 
848	 0.208025063681184 
849	 0.208002246129724 
850	 0.207966417950672 
851	 0.208041527065026 
852	 0.208081924401414 
853	 0.208058788079708 
854	 0.208018277292631 
855	 0.208082637448758 
856	 0.208119842989374 
857	 0.208133210540983 
858	 0.208143256686005 
859	 0.208124815639752 
860	 0.208134756411957 
861	 0.208154044624341 
862	 0.208156838637759 
863	 0.208224775867304 
864	 0.208236614112554 
865	 0.208209977445955 
866	 0.20823728495235 
867	 0.208248066587633 
868	 0.208276972521215 
869	 0.208307809866639 
870	 0.208272411420844 
871	 0.208223952382576 
872	 0.208210464027562 
873	 0.208258346684891 
874	 0.208361168270186 
875	 0.208364843049435 
876	 0.208313533948126 
877	 0.208292321687945 
878	 0.208345037411621 
879	 0.2084251376069 
880	 0.208456471962364 
881	 0.208405575110546 
882	 0.208446873329549 
883	 0.208452926325715 
884	 0.208423229400065 
885	 0.208436169727238 
886	 0.208557332232067 
887	 0.208637016766124 
888	 0.208615110678581 
889	 0.208540874306241 
890	 0.20855323978826 
891	 0.208611085876131 
892	 0.208667646303036 
893	 0.208702687336489 
894	 0.2086451222381 
895	 0.208613656565121 
896	 0.208671449869257 
897	 0.20871486035661 
898	 0.208770950574155 
899	 0.208802366752795 
900	 0.2087789232096 
901	 0.208709605543147 
902	 0.208800705253462 
903	 0.208923995824791 
904	 0.208910819871578 
905	 0.208920487602936 
906	 0.208976368361372 
907	 0.209021231334816 
908	 0.208997407934663 
909	 0.209068504672053 
910	 0.209049477138864 
911	 0.209003469719931 
912	 0.209118722468947 
913	 0.209175902927319 
914	 0.209194614146414 
915	 0.209222718476599 
916	 0.209297146476291 
917	 0.209281314759293 
918	 0.209273479447964 
919	 0.209343823005314 
920	 0.209476596422632 
921	 0.209451875636351 
922	 0.209396645845007 
923	 0.209426378519772 
924	 0.209536457018417 
925	 0.209571588639068 
926	 0.209574364410574 
927	 0.209612891704344 
928	 0.209711578440282 
929	 0.209843009477072 
930	 0.209896025686455 
931	 0.209845292676415 
932	 0.209902357807918 
933	 0.209892516514392 
934	 0.209862763839931 
935	 0.209892729778823 
936	 0.209969443737647 
937	 0.209987386624042 
938	 0.209973728655613 
939	 0.210009828844181 
940	 0.210190828594428 
941	 0.210261379735407 
942	 0.210254841886689 
943	 0.210295593908302 
944	 0.210341124397484 
945	 0.210401901246394 
946	 0.210476064037497 
947	 0.210545749729715 
948	 0.210556906018751 
949	 0.21054472576666 
950	 0.210541475399584 
951	 0.210575353787309 
952	 0.210678338292452 
953	 0.210770853975078 
954	 0.210802613999105 
955	 0.210781527477951 
956	 0.210875916298749 
957	 0.210942855235698 
958	 0.210961245330999 
959	 0.210991302943594 
960	 0.211023168174616 
961	 0.211009354286412 
962	 0.211029873550009 
963	 0.21118409395376 
964	 0.211186291153262 
965	 0.21121556577282 
966	 0.211315771256154 
967	 0.211401180719283 
968	 0.211338498739518 
969	 0.211405714950338 
970	 0.211528467686302 
971	 0.211457165143041 
972	 0.211540064609006 
973	 0.211668407796107 
974	 0.21177585146027 
975	 0.211847301295117 
976	 0.211846102388595 
977	 0.211888236592371 
978	 0.211956420887314 
979	 0.211959689529126 
980	 0.211971632295574 
981	 0.211923287604531 
982	 0.21190134607498 
983	 0.212041786299385 
984	 0.212196612200905 
985	 0.21237096774941 
986	 0.212451967057726 
987	 0.212349901127462 
988	 0.212390066998001 
989	 0.212516478293931 
990	 0.212576941475713 
991	 0.212475806459115 
992	 0.212530499110212 
993	 0.212603302228424 
994	 0.21268348270037 
995	 0.212791228821339 
996	 0.212797010513431 
997	 0.2128943234341 
998	 0.212991290763388 
999	 0.212996514679982 
1000	 0.213274245709153 
1001	 0.214583981818308 
1002	 0.214507661448196 
1003	 0.214450327622993 
1004	 0.214438011711741 
1005	 0.21442919940984 
1006	 0.214460792597325 
1007	 0.214554414116841 
1008	 0.214650381917152 
1009	 0.214702808676801 
1010	 0.214696691542026 
1011	 0.214742327109433 
1012	 0.214829679759218 
1013	 0.214840494811435 
1014	 0.214837509394821 
1015	 0.214873111042693 
1016	 0.214865388008576 
1017	 0.214874323545878 
1018	 0.214888483909696 
1019	 0.21499634986101 
1020	 0.21506424096134 
1021	 0.215095389484608 
1022	 0.215137773033402 
1023	 0.215124764148506 
1024	 0.215123608157377 
1025	 0.215137899075424 
1026	 0.215112209152473 
1027	 0.21513676389254 
1028	 0.215172588991187 
1029	 0.215150801678512 
1030	 0.215189902038735 
1031	 0.215245181710197 
1032	 0.215338184620813 
1033	 0.215379301925013 
1034	 0.215419651720734 
1035	 0.21542855434596 
1036	 0.215410710659852 
1037	 0.215418811916484 
1038	 0.215450904171664 
1039	 0.215527555629806 
1040	 0.215623751849538 
1041	 0.215666720552654 
1042	 0.21571587204735 
1043	 0.215794730006146 
1044	 0.215815802318068 
1045	 0.21577594847301 
1046	 0.215795556323184 
1047	 0.215865509233342 
1048	 0.215825870393505 
1049	 0.215876783869203 
1050	 0.215963432816151 
1051	 0.215946273953667 
1052	 0.216025158543086 
1053	 0.216144348975511 
1054	 0.216176845753271 
1055	 0.216214660301653 
1056	 0.216247426973999 
1057	 0.216266075584364 
1058	 0.216230283180943 
1059	 0.216261542763748 
1060	 0.216329212101473 
1061	 0.216379981679903 
1062	 0.216431417247466 
1063	 0.216441970777976 
1064	 0.21644299640208 
1065	 0.216460385367892 
1066	 0.216460948353645 
1067	 0.216470418954253 
1068	 0.216484163964821 
1069	 0.216488544163966 
1070	 0.216496687545491 
1071	 0.216512287652348 
1072	 0.216521946926092 
1073	 0.216543539772787 
1074	 0.216537053322974 
1075	 0.216501773598711 
1076	 0.216504905346644 
1077	 0.216492203876759 
1078	 0.216455111146566 
1079	 0.216450863907051 
1080	 0.216403157866697 
1081	 0.216340529527687 
1082	 0.216292058632281 
1083	 0.216274072676382 
1084	 0.216303362502725 
1085	 0.216298283243702 
1086	 0.216287700481765 
1087	 0.21627711432121 
1088	 0.216272544828381 
1089	 0.216192710625487 
1090	 0.216154367243954 
1091	 0.216195087224016 
1092	 0.216203903551073 
1093	 0.216198905253374 
1094	 0.216189270155882 
1095	 0.216179340078705 
1096	 0.216168220086923 
1097	 0.216177420978435 
1098	 0.216171638961055 
1099	 0.216163652647433 
1100	 0.216160980079389 
1101	 0.216139672969839 
1102	 0.216142608027301 
1103	 0.216163090464633 
1104	 0.216205169464111 
1105	 0.216220886880732 
1106	 0.216235862276375 
1107	 0.2162576917871 
1108	 0.216289107864379 
1109	 0.216306880686466 
1110	 0.21630698291018 
1111	 0.216329369510538 
1112	 0.216345156712505 
1113	 0.216372486607085 
1114	 0.216422967073271 
1115	 0.216469921541784 
1116	 0.216509748556246 
1117	 0.216552526731726 
1118	 0.216598057282826 
1119	 0.216657342927043 
1120	 0.216708813985558 
1121	 0.216776115438257 
1122	 0.216843128553326 
1123	 0.216889898077824 
1124	 0.21694587970784 
1125	 0.216995106857537 
1126	 0.217049026830448 
1127	 0.217109084315099 
1128	 0.217174335192497 
1129	 0.217253259076248 
1130	 0.217305749603723 
1131	 0.217348915127443 
1132	 0.217391887508003 
1133	 0.217410538013875 
1134	 0.217446199897507 
1135	 0.217504735514374 
1136	 0.217539029870423 
1137	 0.217575289716767 
1138	 0.217609378143705 
1139	 0.217647225178354 
1140	 0.217692849751615 
1141	 0.217720989559489 
1142	 0.21773140678066 
1143	 0.21776754998486 
1144	 0.217806405662376 
1145	 0.217839222732332 
1146	 0.217889068350312 
1147	 0.217930210771503 
1148	 0.217959143164489 
1149	 0.217988687493778 
1150	 0.218015377584672 
1151	 0.218060545033594 
1152	 0.218087194504006 
1153	 0.218097147632906 
1154	 0.218113875760938 
1155	 0.218128797667859 
1156	 0.218142856259588 
1157	 0.218158518701455 
1158	 0.21816398843851 
1159	 0.218155678913634 
1160	 0.21816558524929 
1161	 0.218173340530053 
1162	 0.218191990568224 
1163	 0.218241315534139 
1164	 0.218265397458942 
1165	 0.218279878991027 
1166	 0.218290861536294 
1167	 0.21830686823433 
1168	 0.218299955537677 
1169	 0.218296623043237 
1170	 0.218287424675166 
1171	 0.21829389417285 
1172	 0.218303764925145 
1173	 0.218305204640901 
1174	 0.218315020560105 
1175	 0.218320310884056 
1176	 0.218302435481604 
1177	 0.218308303792823 
1178	 0.218344003384987 
1179	 0.2183563813172 
1180	 0.218362075637583 
1181	 0.21836968277872 
1182	 0.218368927806982 
1183	 0.218367190706112 
1184	 0.218363535008579 
1185	 0.218356704888863 
1186	 0.21836785776635 
1187	 0.218385285327233 
1188	 0.218392469834463 
1189	 0.218413679367826 
1190	 0.218422740478931 
1191	 0.218407785866537 
1192	 0.218412893925606 
1193	 0.218431062282034 
1194	 0.218443459343638 
1195	 0.218463640361707 
1196	 0.218473413021283 
1197	 0.218467479392844 
1198	 0.218477225258162 
1199	 0.218490982755349 
1200	 0.21850608922059 
1201	 0.218517338761321 
1202	 0.218540622999547 
1203	 0.21854860682588 
1204	 0.218539483359862 
1205	 0.218543843246502 
1206	 0.218547415797415 
1207	 0.21855921039143 
1208	 0.218576062614268 
1209	 0.21859676583868 
1210	 0.218630204356694 
1211	 0.218654569441625 
1212	 0.21868381380651 
1213	 0.218702355566024 
1214	 0.218716586574749 
1215	 0.218721065604827 
1216	 0.218717518223107 
1217	 0.218698134310011 
1218	 0.218697394375057 
1219	 0.218695070514142 
1220	 0.218696121964826 
1221	 0.218706730982584 
1222	 0.218717007423894 
1223	 0.218726820600307 
1224	 0.218735194093339 
1225	 0.218756796008248 
1226	 0.218761142733245 
1227	 0.218745885089002 
1228	 0.218743010282381 
1229	 0.218732344632039 
1230	 0.218733686340478 
1231	 0.21875684494193 
1232	 0.218766336599349 
1233	 0.218772814705203 
1234	 0.218776753068406 
1235	 0.218786783936822 
1236	 0.218793283399517 
1237	 0.218799497545561 
1238	 0.218813622611112 
1239	 0.218822166592768 
1240	 0.218819265381287 
1241	 0.218826172923026 
1242	 0.218847400175478 
1243	 0.218851459934949 
1244	 0.218842767802515 
1245	 0.21884509324199 
1246	 0.218853723581984 
1247	 0.218847857133042 
1248	 0.218842877526279 
1249	 0.218829429854245 
1250	 0.218804825818424 
1251	 0.218795723467306 
1252	 0.218797294020915 
1253	 0.218825359006589 
1254	 0.218825772377639 
1255	 0.218816738912677 
1256	 0.218818121841648 
1257	 0.218809849659731 
1258	 0.218815929848148 
1259	 0.218849772367277 
1260	 0.218855860856328 
1261	 0.21886193723083 
1262	 0.218847808026777 
1263	 0.218796624080982 
1264	 0.218767198147658 
1265	 0.21873934486128 
1266	 0.21870713839675 
1267	 0.218673111820061 
1268	 0.21865601653691 
1269	 0.218638464655887 
1270	 0.218608298593968 
1271	 0.218610775479508 
1272	 0.218643477696145 
1273	 0.218657965467109 
1274	 0.218674533931085 
1275	 0.218696839580301 
1276	 0.218711004616225 
1277	 0.218743519481009 
1278	 0.218794421182579 
1279	 0.218843731963863 
1280	 0.218901720964477 
1281	 0.218956834453975 
1282	 0.219020382265696 
1283	 0.219075514323479 
1284	 0.219136500401412 
1285	 0.219176552743883 
1286	 0.219210095278363 
1287	 0.219236159529274 
1288	 0.219252870503028 
1289	 0.219255751792508 
1290	 0.219264626440954 
1291	 0.219278089283915 
1292	 0.219259687908997 
1293	 0.219221685661688 
1294	 0.219191949303746 
1295	 0.219141253195455 
1296	 0.219104641105565 
1297	 0.219085817028569 
1298	 0.219052498771864 
1299	 0.21901166362438 
1300	 0.218966767496298 
1301	 0.218914848188882 
1302	 0.218864411572487 
1303	 0.218813038258439 
1304	 0.218757122996569 
1305	 0.21869535989096 
1306	 0.218633256379561 
1307	 0.218569307805353 
1308	 0.218489796512208 
1309	 0.218407684244191 
1310	 0.218320741665595 
1311	 0.218239846024261 
1312	 0.218141592410779 
1313	 0.218068714677382 
1314	 0.21802233542367 
1315	 0.217949771213284 
1316	 0.217869045118664 
1317	 0.217805848282718 
1318	 0.217724501248678 
1319	 0.217673149592065 
1320	 0.217660651973158 
1321	 0.21763016749859 
1322	 0.21759673551913 
1323	 0.2175769163847 
1324	 0.217555770481194 
1325	 0.217524188286073 
1326	 0.217483578936822 
1327	 0.217459746916981 
1328	 0.217430656077905 
1329	 0.217395305575877 
1330	 0.217390675603428 
1331	 0.217412232654351 
1332	 0.217422939178736 
1333	 0.217447159931299 
1334	 0.217470636006283 
1335	 0.217495299441152 
1336	 0.217516728706874 
1337	 0.21753457708591 
1338	 0.217558516728439 
1339	 0.217573426670953 
1340	 0.217610520679749 
1341	 0.217683007487721 
1342	 0.217724866040942 
1343	 0.217768472143419 
1344	 0.21779185609732 
1345	 0.217807832398253 
1346	 0.217830816702583 
1347	 0.217860512682606 
1348	 0.217897802850425 
1349	 0.217925805744316 
1350	 0.217946209185073 
1351	 0.217967011808238 
1352	 0.217988900251685 
1353	 0.218005510300599 
1354	 0.218017196038292 
1355	 0.218026116933873 
1356	 0.218026932028041 
1357	 0.218041432891545 
1358	 0.218057118334268 
1359	 0.218075487259224 
1360	 0.218103745423626 
1361	 0.21812887457534 
1362	 0.21814675421704 
1363	 0.218176173759767 
1364	 0.218211866218293 
1365	 0.218253555909655 
1366	 0.218308145398657 
1367	 0.218363530261055 
1368	 0.218397455466775 
1369	 0.218414842560605 
1370	 0.218409629745736 
1371	 0.218391295510642 
1372	 0.218381137670431 
1373	 0.218355182302922 
1374	 0.218322347412505 
1375	 0.218284141120029 
1376	 0.218233627351715 
1377	 0.218174699276265 
1378	 0.21810278932973 
1379	 0.218013832537589 
1380	 0.217922608557375 
1381	 0.217822466347278 
1382	 0.217714181731783 
1383	 0.217604959114623 
1384	 0.217480784444635 
1385	 0.217349521788177 
1386	 0.217202770365768 
1387	 0.217044418697274 
1388	 0.216871919600188 
1389	 0.216686725758984 
1390	 0.216482438306188 
1391	 0.216274170374889 
1392	 0.216049727172837 
1393	 0.215796349233217 
1394	 0.215525553097798 
1395	 0.215226395788818 
1396	 0.214927127482535 
1397	 0.214635520914197 
1398	 0.214343781993 
1399	 0.214048869162645 
1400	 0.213750959135029 
1401	 0.213466409018102 
1402	 0.213187283822152 
1403	 0.212903317174123 
1404	 0.212615181610317 
1405	 0.212352707333818 
1406	 0.212084507986094 
1407	 0.211845893632149 
1408	 0.211644376608664 
1409	 0.211440671746855 
1410	 0.211232969423235 
1411	 0.211059973943224 
1412	 0.210906787111036 
1413	 0.210770626072819 
1414	 0.210668712447278 
1415	 0.210572143687297 
1416	 0.210478294632611 
1417	 0.210388287605256 
1418	 0.210297355694706 
1419	 0.210199709919921 
1420	 0.210099774683529 
1421	 0.210017498716511 
1422	 0.209940811131011 
1423	 0.209869621934636 
1424	 0.209802658897091 
1425	 0.209744820258018 
1426	 0.209688323293642 
1427	 0.209630919845062 
1428	 0.209584674540221 
1429	 0.209545363943112 
1430	 0.209513014271734 
1431	 0.209489006810821 
1432	 0.209467526217613 
1433	 0.209450931100355 
1434	 0.209442721047052 
1435	 0.209437608936064 
1436	 0.209444253294941 
1437	 0.209466968135465 
1438	 0.20948580817844 
1439	 0.209518347542796 
1440	 0.209533123654582 
1441	 0.20953370903046 
1442	 0.209548155996222 
1443	 0.209563577440514 
1444	 0.209569434212457 
1445	 0.209573998967618 
1446	 0.209573567416319 
1447	 0.209558367301084 
1448	 0.209544910666513 
1449	 0.209547423770802 
1450	 0.209547561848126 
1451	 0.209550317764251 
1452	 0.209548762102707 
1453	 0.209568976885616 
1454	 0.209603894284549 
1455	 0.209628460752095 
1456	 0.209669473179171 
1457	 0.209693904703021 
1458	 0.209696218228354 
1459	 0.209716840857594 
1460	 0.20974599862108 
1461	 0.209770245186775 
1462	 0.209795474676868 
1463	 0.209826664504208 
1464	 0.209863134791972 
1465	 0.209886865890503 
1466	 0.209903974289495 
1467	 0.209931496004494 
1468	 0.209959153978614 
1469	 0.20998334617412 
1470	 0.210014197200772 
1471	 0.210044970232838 
1472	 0.210065819213658 
1473	 0.210090821882263 
1474	 0.210114841282208 
1475	 0.210164174215613 
1476	 0.210221762509486 
1477	 0.210271875284955 
1478	 0.210353212827685 
1479	 0.210443696978331 
1480	 0.210541430489529 
1481	 0.210655853543731 
1482	 0.210767175422863 
1483	 0.210886356861379 
1484	 0.211002009348312 
1485	 0.211119842348266 
1486	 0.211234331709502 
1487	 0.211348622939075 
1488	 0.211463730902693 
1489	 0.211578362761896 
1490	 0.211690102445372 
1491	 0.211810474970285 
1492	 0.211909781760698 
1493	 0.211990978316043 
1494	 0.212078673755774 
1495	 0.212153933884981 
1496	 0.212240621596471 
1497	 0.212339975855479 
1498	 0.21243143956314 
1499	 0.212534593980029 
1500	 0.212610282979579 
1501	 0.212653308814695 
1502	 0.212719743838331 
1503	 0.212780479274142 
1504	 0.212848235023895 
1505	 0.212936814309578 
1506	 0.213022440681168 
1507	 0.213079194943224 
1508	 0.213126419511719 
1509	 0.213176941630143 
1510	 0.213245207200101 
1511	 0.213321141220128 
1512	 0.213390433421612 
1513	 0.213470070856717 
1514	 0.213538173745972 
1515	 0.213615296422328 
1516	 0.213696174589594 
1517	 0.213747792700095 
1518	 0.213773463057548 
1519	 0.213822330706293 
1520	 0.213861737720672 
1521	 0.213908415272919 
1522	 0.213972800505389 
1523	 0.21402268614947 
1524	 0.214059864781616 
1525	 0.214107916632972 
1526	 0.214163470667604 
1527	 0.214214707542229 
1528	 0.214265291134159 
1529	 0.214310714522251 
1530	 0.214348635466183 
1531	 0.214394231462278 
1532	 0.214443274618509 
1533	 0.214493021162297 
1534	 0.214550184235552 
1535	 0.214599649667166 
1536	 0.214641943212509 
1537	 0.214685138811577 
1538	 0.214728214303147 
1539	 0.214769293488278 
1540	 0.21480971293419 
1541	 0.214849772394982 
1542	 0.21489128915044 
1543	 0.214926521609781 
1544	 0.214966484109802 
1545	 0.214990698604624 
1546	 0.21500333341041 
1547	 0.214999960826119 
1548	 0.215017069682054 
1549	 0.215031055213688 
1550	 0.21505250758951 
1551	 0.215101014759109 
1552	 0.215135127694928 
1553	 0.215163075639131 
1554	 0.21520705856589 
1555	 0.215236722835435 
1556	 0.21526537957709 
1557	 0.21530369837032 
1558	 0.215323042472351 
1559	 0.215339659527014 
1560	 0.215355023169403 
1561	 0.215362885797057 
1562	 0.215369745548453 
1563	 0.215369198626629 
1564	 0.21539121192008 
1565	 0.215414527785279 
1566	 0.21544717228531 
1567	 0.215505626556912 
1568	 0.215547184305088 
1569	 0.215582235128542 
1570	 0.215620834784222 
1571	 0.21566845492863 
1572	 0.215695180538869 
1573	 0.215713719885158 
1574	 0.215727824356222 
1575	 0.215719564471159 
1576	 0.215727720356119 
1577	 0.215751406041048 
1578	 0.215748362617455 
1579	 0.21573025858313 
1580	 0.215727559319989 
1581	 0.215715106235205 
1582	 0.2157102472957 
1583	 0.215723404934732 
1584	 0.215728391313878 
1585	 0.21571399315536 
1586	 0.215721820185032 
1587	 0.215756762052583 
1588	 0.215771746485988 
1589	 0.215787753071477 
1590	 0.215796171109379 
1591	 0.215786692538789 
1592	 0.215782543661799 
1593	 0.215766974132029 
1594	 0.215777913737381 
1595	 0.215813687298366 
1596	 0.215831697555694 
1597	 0.215860811266065 
1598	 0.215881060609216 
1599	 0.215880201800639 
1600	 0.215884278262552 
1601	 0.215894386144919 
1602	 0.215902678047227 
1603	 0.21590642782995 
1604	 0.215909132684366 
1605	 0.215914868308375 
1606	 0.215914326847122 
1607	 0.215895018233075 
1608	 0.215902713905913 
1609	 0.215902572192146 
1610	 0.215904603498841 
1611	 0.215920703857714 
1612	 0.215916415181468 
1613	 0.215916711305915 
1614	 0.215929163934612 
1615	 0.21593711576012 
1616	 0.215949507114084 
1617	 0.215958558965912 
1618	 0.215967488040437 
1619	 0.215978143855693 
1620	 0.215984678353069 
1621	 0.215980163626233 
1622	 0.215965848113563 
1623	 0.215960390362899 
1624	 0.215947018476833 
1625	 0.215942897827651 
1626	 0.215948153301424 
1627	 0.215952691732352 
1628	 0.215962123665058 
1629	 0.215956979980791 
1630	 0.215946037383926 
1631	 0.215944616073243 
1632	 0.215935464443501 
1633	 0.215934668493349 
1634	 0.215947917642241 
1635	 0.215955339984121 
1636	 0.215960365684178 
1637	 0.215958349413749 
1638	 0.215958082673736 
1639	 0.21595450242924 
1640	 0.215936365682558 
1641	 0.215933338494465 
1642	 0.215941986098525 
1643	 0.21594141473528 
1644	 0.215937898726552 
1645	 0.215939904597187 
1646	 0.215943233553714 
1647	 0.215943836096845 
1648	 0.215948499453188 
1649	 0.215948958737039 
1650	 0.21593717439624 
1651	 0.215944432504546 
1652	 0.215975266672889 
1653	 0.21596878844127 
1654	 0.21595476684306 
1655	 0.215935320035442 
1656	 0.215876972900435 
1657	 0.215857243787096 
1658	 0.215857216816862 
1659	 0.215856289062853 
1660	 0.215869233648735 
1661	 0.215874826338542 
1662	 0.21589237371901 
1663	 0.215882833859817 
1664	 0.215847729000915 
1665	 0.215839327333985 
1666	 0.215824001327204 
1667	 0.215820810497317 
1668	 0.215847447305026 
1669	 0.215853149151536 
1670	 0.215849572671013 
1671	 0.215844509138125 
1672	 0.21583229071707 
1673	 0.215828466924495 
1674	 0.21582657191907 
1675	 0.215819509534841 
1676	 0.215819088356698 
1677	 0.215808498383371 
1678	 0.215776298663127 
1679	 0.215770912253979 
1680	 0.215778018648553 
1681	 0.215781152715075 
1682	 0.215808823870378 
1683	 0.215803096165105 
1684	 0.215767630142461 
1685	 0.21575574534547 
1686	 0.215729993633314 
1687	 0.215731900248742 
1688	 0.215767120007762 
1689	 0.215784639863028 
1690	 0.215811839071183 
1691	 0.215820777077237 
1692	 0.215818982601951 
1693	 0.215810739581545 
1694	 0.215789122129605 
1695	 0.215772579889823 
1696	 0.215743798037762 
1697	 0.215734694101236 
1698	 0.215743565432058 
1699	 0.215732828567287 
1700	 0.215717091849984 
1701	 0.215712763312156 
1702	 0.215704004340428 
1703	 0.215695072976186 
1704	 0.215712774316242 
1705	 0.215692159454492 
1706	 0.21563193340924 
1707	 0.215603424194833 
1708	 0.215571318979809 
1709	 0.215549620005451 
1710	 0.215551272765052 
1711	 0.215539224443352 
1712	 0.215512404509466 
1713	 0.215510774177489 
1714	 0.21553503017863 
1715	 0.21552483334029 
1716	 0.215509332918957 
1717	 0.215493844279129 
1718	 0.215450604294277 
1719	 0.215429644704215 
1720	 0.215437461136304 
1721	 0.215414055196587 
1722	 0.21537748702979 
1723	 0.215341480819541 
1724	 0.215280510028332 
1725	 0.215253711985641 
1726	 0.215251732052073 
1727	 0.215222547827166 
1728	 0.215201057938875 
1729	 0.215166186093444 
1730	 0.215109285837653 
1731	 0.215053115140932 
1732	 0.215001061655335 
1733	 0.214938003269843 
1734	 0.214851490638759 
1735	 0.214791003544852 
1736	 0.214743077420019 
1737	 0.214680324963881 
1738	 0.214619949800212 
1739	 0.214559469362567 
1740	 0.214484967715259 
1741	 0.21442838690234 
1742	 0.214393921232167 
1743	 0.214338791052129 
1744	 0.214275833089863 
1745	 0.214212158678354 
1746	 0.214135142892448 
1747	 0.214073690601151 
1748	 0.214036975599281 
1749	 0.21400014633796 
1750	 0.213955785600262 
1751	 0.213896563563832 
1752	 0.213823945628235 
1753	 0.213763626413722 
1754	 0.213695614495161 
1755	 0.213632572420654 
1756	 0.213583647325333 
1757	 0.213534852859139 
1758	 0.213490088599456 
1759	 0.21345673833905 
1760	 0.213418262420507 
1761	 0.213367365141429 
1762	 0.213318593106597 
1763	 0.213257642733251 
1764	 0.213222550682782 
1765	 0.213210110814068 
1766	 0.213182849099889 
1767	 0.213172988877632 
1768	 0.213147352985434 
1769	 0.213091567142084 
1770	 0.213056829799424 
1771	 0.213037462289466 
1772	 0.213003175538476 
1773	 0.212947657918318 
1774	 0.212910443002072 
1775	 0.212875444306522 
1776	 0.212838767955761 
1777	 0.212841548576849 
1778	 0.212826926437066 
1779	 0.212813154757869 
1780	 0.212805587129493 
1781	 0.212789983148188 
1782	 0.21281280087819 
1783	 0.212800723386162 
1784	 0.212791705392884 
1785	 0.212791970513602 
1786	 0.212779949575481 
1787	 0.212748103072717 
1788	 0.21274056108404 
1789	 0.212734715771675 
1790	 0.212751137001015 
1791	 0.21280859693603 
1792	 0.212840104989441 
1793	 0.212875208668982 
1794	 0.212893615819416 
1795	 0.21288738669928 
1796	 0.212878793741405 
1797	 0.212867274320313 
1798	 0.212852385254123 
1799	 0.21283045182626 
1800	 0.212815055140233 
1801	 0.211071791534982 
1802	 0.211124143335345 
1803	 0.2111780906059 
1804	 0.21122889128161 
1805	 0.21126796815952 
1806	 0.211294971582922 
1807	 0.21130894040048 
1808	 0.211333917702123 
1809	 0.211378059175335 
1810	 0.21140059945423 
1811	 0.211414676999743 
1812	 0.211428096434323 
1813	 0.211432127240868 
1814	 0.211399971779076 
1815	 0.211365527815171 
1816	 0.21135485288751 
1817	 0.211348519805807 
1818	 0.211350010058364 
1819	 0.211347501094809 
1820	 0.21136021275911 
1821	 0.211350386586668 
1822	 0.211325943794993 
1823	 0.211322726713846 
1824	 0.211326444562063 
1825	 0.211327705120851 
1826	 0.211355032792195 
1827	 0.211377992081837 
1828	 0.21135810819577 
1829	 0.211294297740853 
1830	 0.211253658516352 
1831	 0.211192508882645 
1832	 0.211139266876764 
1833	 0.211096317284292 
1834	 0.211108598238391 
1835	 0.211110181316328 
1836	 0.211071551438546 
1837	 0.211037213811845 
1838	 0.211013509794746 
1839	 0.211008088346368 
1840	 0.211023557762607 
1841	 0.21101587517403 
1842	 0.211001968179132 
1843	 0.210967291397889 
1844	 0.210884889806773 
1845	 0.21082025292258 
1846	 0.21074077433781 
1847	 0.210663125026904 
1848	 0.21058387483432 
1849	 0.210496238842728 
1850	 0.210425081555661 
1851	 0.210374107404673 
1852	 0.210317908162684 
1853	 0.210279107852185 
1854	 0.210230618544003 
1855	 0.210153527921661 
1856	 0.210089361214356 
1857	 0.209992387098111 
1858	 0.209869417897388 
1859	 0.209748745565614 
1860	 0.209601429536702 
1861	 0.209424113016502 
1862	 0.209240008722022 
1863	 0.20906392215793 
1864	 0.208863877716385 
1865	 0.208670809481456 
1866	 0.208453339223993 
1867	 0.208182039182026 
1868	 0.207913218684818 
1869	 0.207641133403971 
1870	 0.207329974752687 
1871	 0.207012741288115 
1872	 0.206699404374155 
1873	 0.206359140907547 
1874	 0.205964984978845 
1875	 0.205591437369784 
1876	 0.20517682000899 
1877	 0.204706354033822 
1878	 0.204200930012781 
1879	 0.203629909661542 
1880	 0.203028992775958 
1881	 0.202379005368921 
1882	 0.201699286987254 
1883	 0.200993494606525 
1884	 0.200229623040562 
1885	 0.19942435197901 
1886	 0.198576667268539 
1887	 0.197676250502927 
1888	 0.196767083367798 
1889	 0.195815748162445 
1890	 0.194816198047323 
1891	 0.193840501224943 
1892	 0.192832381208931 
1893	 0.191858135045045 
1894	 0.190886427270927 
1895	 0.189967945210714 
1896	 0.189042168025309 
1897	 0.188142451497685 
1898	 0.187263395591484 
1899	 0.186417802719382 
1900	 0.185627768615702 
1901	 0.184892972061273 
1902	 0.184209547581584 
1903	 0.183589400350525 
1904	 0.183006879850153 
1905	 0.182479404506605 
1906	 0.18198341625681 
1907	 0.18151233155513 
1908	 0.181097802342855 
1909	 0.180698541824612 
1910	 0.180318097850674 
1911	 0.18000149428982 
1912	 0.179718709160188 
1913	 0.179448064699658 
1914	 0.179217487012531 
1915	 0.178987297037794 
1916	 0.178769364252737 
1917	 0.178559557241512 
1918	 0.178359363322815 
1919	 0.178185555703191 
1920	 0.178045797668331 
1921	 0.17791497491476 
1922	 0.177820190689141 
1923	 0.177747801696674 
1924	 0.177681140779789 
1925	 0.177626012577136 
1926	 0.177595875397182 
1927	 0.177579338177843 
1928	 0.177579265230523 
1929	 0.17760518385283 
1930	 0.177632866455334 
1931	 0.177689080362177 
1932	 0.177744024949412 
1933	 0.177802113937173 
1934	 0.177888770098198 
1935	 0.177985820507402 
1936	 0.178093700553387 
1937	 0.178210192886942 
1938	 0.178342270475627 
1939	 0.178486106004307 
1940	 0.178636966318114 
1941	 0.178788107534543 
1942	 0.178976142264852 
1943	 0.17917956595673 
1944	 0.179371842683314 
1945	 0.179571986823213 
1946	 0.179775504706229 
1947	 0.179978634402011 
1948	 0.180184407639442 
1949	 0.18040468512202 
1950	 0.180615735639952 
1951	 0.180818455118298 
1952	 0.181027798005122 
1953	 0.181242633863024 
1954	 0.181457056506172 
1955	 0.181688128639534 
1956	 0.181916527914187 
1957	 0.182140607674343 
1958	 0.182353284558873 
1959	 0.182588977049797 
1960	 0.182835237998946 
1961	 0.183081469960069 
1962	 0.183345702759979 
1963	 0.183601229791594 
1964	 0.183855445566026 
1965	 0.184093770676772 
1966	 0.184344600760424 
1967	 0.184615915053806 
1968	 0.184881010067666 
1969	 0.185150916867554 
1970	 0.185421167824991 
1971	 0.185699145057421 
1972	 0.185961067212659 
1973	 0.186215858383459 
1974	 0.186475375473598 
1975	 0.186724770286254 
1976	 0.18698474863291 
1977	 0.187247917878463 
1978	 0.187488505072655 
1979	 0.187722276818131 
1980	 0.187970585581725 
1981	 0.188219796500251 
1982	 0.188470649217621 
1983	 0.18873268339386 
1984	 0.189008444661008 
1985	 0.189268867341728 
1986	 0.189534311406325 
1987	 0.189794586297262 
1988	 0.190038302560116 
1989	 0.190289513793294 
1990	 0.190560705292844 
1991	 0.190838369315173 
1992	 0.191116593806578 
1993	 0.191433351326783 
1994	 0.19168444485032 
1995	 0.191895487692634 
1996	 0.192122633374939 
1997	 0.192304693996519 
1998	 0.192526366754564 
1999	 0.19279017661218 
2000	 0.193033321327212 
2001	 0.193277848460793 
2002	 0.193511339404645 
2003	 0.193767073648386 
2004	 0.194004468043614 
2005	 0.194225890834296 
2006	 0.194443622699909 
2007	 0.194659611064411 
2008	 0.194840186649167 
2009	 0.1950507684779 
2010	 0.195291553459044 
2011	 0.195505939857764 
2012	 0.195708043455303 
2013	 0.195918522488935 
2014	 0.196122036641894 
2015	 0.19633011518277 
2016	 0.196538164764171 
2017	 0.196754296249969 
2018	 0.196969154202889 
2019	 0.197184479666465 
2020	 0.197394002730721 
2021	 0.197611822199075 
2022	 0.197816176944033 
2023	 0.198006561391063 
2024	 0.198196863061745 
2025	 0.1983812348571 
2026	 0.198565209142413 
2027	 0.198749218778955 
2028	 0.1989248500806 
2029	 0.199101111021352 
2030	 0.199275219310132 
2031	 0.199453181580812 
2032	 0.199633230449069 
2033	 0.199808246068191 
2034	 0.19997363761739 
2035	 0.200158757314634 
2036	 0.200359569114407 
2037	 0.200541157819564 
2038	 0.200743613111024 
2039	 0.200914412034718 
2040	 0.201059664932157 
2041	 0.201184850885714 
2042	 0.201303501507926 
2043	 0.201447276131815 
2044	 0.201591218354061 
2045	 0.201742560419696 
2046	 0.201892192902915 
2047	 0.202056545072802 
2048	 0.202201304971387 
2049	 0.202335767945021 
2050	 0.202474229399398 
2051	 0.202598095417563 
2052	 0.202733570802921 
2053	 0.202888559973863 
2054	 0.203024242064268 
2055	 0.20315131128212 
2056	 0.203291535925817 
2057	 0.203395511658838 
2058	 0.203467102568704 
2059	 0.203561072084351 
2060	 0.203639634108178 
2061	 0.203735224000122 
2062	 0.203853805291173 
2063	 0.203956875912119 
2064	 0.204043135268322 
2065	 0.204150612092487 
2066	 0.20426827966156 
2067	 0.204382434075027 
2068	 0.204493749586305 
2069	 0.204637193217018 
2070	 0.204761002817746 
2071	 0.204874531875272 
2072	 0.204998109603665 
2073	 0.205133989512603 
2074	 0.205250131373099 
2075	 0.205363715268548 
2076	 0.205468843744598 
2077	 0.205552247978127 
2078	 0.205652527430595 
2079	 0.205751008731283 
2080	 0.205857029903261 
2081	 0.205991591634951 
2082	 0.206095659051288 
2083	 0.206183451742937 
2084	 0.206272138231502 
2085	 0.206362811366981 
2086	 0.206437050157864 
2087	 0.206523390463304 
2088	 0.206622895339651 
2089	 0.206714529331661 
2090	 0.206800051410461 
2091	 0.206887442548961 
2092	 0.206978720968026 
2093	 0.207067891776095 
2094	 0.207143889497561 
2095	 0.207234886322755 
2096	 0.207345975740662 
2097	 0.207441729512672 
2098	 0.207535294833487 
2099	 0.207634420464106 
2100	 0.207716842392962 
2101	 0.207780248328509 
2102	 0.207854016775835 
2103	 0.207917095210126 
2104	 0.208003327738377 
2105	 0.208103620263252 
2106	 0.208195131949537 
2107	 0.208302190791586 
2108	 0.208396609529931 
2109	 0.208467555694882 
2110	 0.208562058249707 
2111	 0.208678556170386 
2112	 0.208775788121704 
2113	 0.208884135019324 
2114	 0.20897717017985 
2115	 0.209044496579606 
2116	 0.209078252623668 
2117	 0.209134328594773 
2118	 0.209175694846374 
2119	 0.209234839160668 
2120	 0.209308426109516 
2121	 0.209381182225756 
2122	 0.209460711084904 
2123	 0.209533452291474 
2124	 0.209621634261748 
2125	 0.209681683185271 
2126	 0.209728707900628 
2127	 0.209764654619834 
2128	 0.209771193396841 
2129	 0.209786261036151 
2130	 0.209786165265094 
2131	 0.209808517483465 
2132	 0.209818008195563 
2133	 0.209838463497502 
2134	 0.209828644332938 
2135	 0.209812976847908 
2136	 0.209769960209062 
2137	 0.209687968610593 
2138	 0.209627660065025 
2139	 0.209577312634918 
2140	 0.209490696587021 
2141	 0.209385046265716 
2142	 0.209285884113698 
2143	 0.209146845634854 
2144	 0.209033659445432 
2145	 0.208956475007902 
2146	 0.208860390452146 
2147	 0.20878241066893 
2148	 0.208661006230044 
2149	 0.208526630709285 
2150	 0.208371110118581 
2151	 0.208212530016318 
2152	 0.208025124379548 
2153	 0.207851782882208 
2154	 0.207661715777969 
2155	 0.207511366897202 
2156	 0.207399094859429 
2157	 0.207247323891698 
2158	 0.207109397265982 
2159	 0.206951195663506 
2160	 0.206745188718875 
2161	 0.206557619637642 
2162	 0.206381290130961 
2163	 0.206201826346638 
2164	 0.206009431580027 
2165	 0.205836397770953 
2166	 0.205654055073742 
2167	 0.205475424500467 
2168	 0.20529109122278 
2169	 0.205097808770216 
2170	 0.204915641543213 
2171	 0.204740201582341 
2172	 0.20455803119065 
2173	 0.204375851704665 
2174	 0.204197937168742 
2175	 0.204015090994204 
2176	 0.203836904322922 
2177	 0.203655465949559 
2178	 0.203493446267719 
2179	 0.20334476069748 
2180	 0.203192850514798 
2181	 0.203042456755049 
2182	 0.202914403744297 
2183	 0.202798201512364 
2184	 0.202679400476215 
2185	 0.202575314524214 
2186	 0.202509487170688 
2187	 0.202399215995377 
2188	 0.202270196699989 
2189	 0.202150915252415 
2190	 0.202012929694686 
2191	 0.201894841001445 
2192	 0.201782062881515 
2193	 0.201679277598072 
2194	 0.201576646177033 
2195	 0.201500626071765 
2196	 0.201461895377444 
2197	 0.201403367910088 
2198	 0.201354204729767 
2199	 0.201298960812794 
2200	 0.201234182056165 
2201	 0.201162405492276 
2202	 0.201080103390228 
2203	 0.201014442377164 
2204	 0.200944468259431 
2205	 0.200861077846712 
2206	 0.200796910602568 
2207	 0.200736435836219 
2208	 0.200705821510839 
2209	 0.200686157648031 
2210	 0.200688708187576 
2211	 0.200737774301328 
2212	 0.200760082339323 
2213	 0.200772486978824 
2214	 0.200806705075572 
2215	 0.200836042900233 
2216	 0.200889099539984 
2217	 0.200976733744288 
2218	 0.201055720432896 
2219	 0.201150168288824 
2220	 0.201233824416052 
2221	 0.201302870264011 
2222	 0.201390345426409 
2223	 0.201479941086556 
2224	 0.201555485463889 
2225	 0.201642273309523 
2226	 0.201737824096873 
2227	 0.201824450361564 
2228	 0.201930294295617 
2229	 0.201982158343253 
2230	 0.202006728966953 
2231	 0.202029406331316 
2232	 0.202000218607038 
2233	 0.202009706582555 
2234	 0.202050365939327 
2235	 0.202062465359101 
2236	 0.202067356988371 
2237	 0.202074708887716 
2238	 0.202048999559679 
2239	 0.202058879032266 
2240	 0.202102468549789 
2241	 0.202126940722571 
2242	 0.202178947619541 
2243	 0.202201301657154 
2244	 0.20220454807496 
2245	 0.202181807823813 
2246	 0.202185794568411 
2247	 0.20215089117255 
2248	 0.202135465728847 
2249	 0.202127294059666 
2250	 0.202118218685198 
2251	 0.202103609156343 
2252	 0.202100861912245 
2253	 0.202110612191182 
2254	 0.202109078592939 
2255	 0.20210318896421 
2256	 0.202104659126617 
2257	 0.202101723055921 
2258	 0.202110474677084 
2259	 0.202147173015407 
2260	 0.202145534689523 
2261	 0.202114679102835 
2262	 0.20211061846176 
2263	 0.202090354050936 
2264	 0.202094089633645 
2265	 0.202138761940105 
2266	 0.202168355493291 
2267	 0.202208376468271 
2268	 0.202222814648759 
2269	 0.202225579376601 
2270	 0.202216343996798 
2271	 0.202190268514408 
2272	 0.202190204898549 
2273	 0.202193598035211 
2274	 0.202193920059681 
2275	 0.202217817429577 
2276	 0.202267418505418 
2277	 0.202276303520315 
2278	 0.202296189196327 
2279	 0.202278825035564 
2280	 0.20220255433478 
2281	 0.202168123972532 
2282	 0.202148595347723 
2283	 0.202114093747826 
2284	 0.202086699552369 
2285	 0.202048494003578 
2286	 0.201985693385343 
2287	 0.201936476293624 
2288	 0.201876189009193 
2289	 0.201843382537918 
2290	 0.20183428235767 
2291	 0.201824809559305 
2292	 0.201846342112061 
2293	 0.201846321720879 
2294	 0.201828153643489 
2295	 0.201810694839848 
2296	 0.201793057130689 
2297	 0.20177021658376 
2298	 0.20171612091957 
2299	 0.201690359687783 
2300	 0.20165460839944 
2301	 0.201598313373877 
2302	 0.201537357247452 
2303	 0.201475669245876 
2304	 0.201419364824642 
2305	 0.20133576920228 
2306	 0.201284141801057 
2307	 0.201261667949343 
2308	 0.20121921428407 
2309	 0.201191751272621 
2310	 0.201144785165397 
2311	 0.201092518814105 
2312	 0.201009608455896 
2313	 0.20089983823049 
2314	 0.200773510382305 
2315	 0.200599844756039 
2316	 0.200480469380824 
2317	 0.200361079033313 
2318	 0.200270932185491 
2319	 0.200220068540541 
2320	 0.20017074980203 
2321	 0.20011703271977 
2322	 0.200110631913074 
2323	 0.200166374474705 
2324	 0.200183412062999 
2325	 0.200218544673063 
2326	 0.200236541508899 
2327	 0.200229597531274 
2328	 0.200199799211083 
2329	 0.20023970326601 
2330	 0.200278945966909 
2331	 0.200309875492325 
2332	 0.200362318798102 
2333	 0.200376851996505 
2334	 0.200404002650111 
2335	 0.200412319930845 
2336	 0.200454766512905 
2337	 0.200505030911424 
2338	 0.20049982357307 
2339	 0.200519876465125 
2340	 0.200497288022723 
2341	 0.200454917358853 
2342	 0.200415753872142 
2343	 0.200349752187041 
2344	 0.200325967381624 
2345	 0.200301254843154 
2346	 0.200292082181919 
2347	 0.200259529840621 
2348	 0.200222521729099 
2349	 0.200189756625211 
2350	 0.200148288804849 
2351	 0.200111698371506 
2352	 0.200109513843061 
2353	 0.200039100164768 
2354	 0.199910145851022 
2355	 0.1998305691872 
2356	 0.199743018875753 
2357	 0.199645463184734 
2358	 0.199567198774311 
2359	 0.199486819652818 
2360	 0.199389809236959 
2361	 0.199287324876908 
2362	 0.199199160923693 
2363	 0.19912019778667 
2364	 0.198988329349455 
2365	 0.198915921225252 
2366	 0.198968156142188 
2367	 0.198867320521601 
2368	 0.198663142432237 
2369	 0.198551773767623 
2370	 0.198403830128876 
2371	 0.198277902525615 
2372	 0.198262493746444 
2373	 0.19821778654805 
2374	 0.198052332353439 
2375	 0.19785368369095 
2376	 0.197698198146962 
2377	 0.197507297430346 
2378	 0.197331741812084 
2379	 0.19719317947165 
2380	 0.196987612452941 
2381	 0.196844824676296 
2382	 0.196744815059906 
2383	 0.196603337438359 
2384	 0.196480289174818 
2385	 0.196314257352808 
2386	 0.196104753857032 
2387	 0.195857504147036 
2388	 0.195632440437188 
2389	 0.195468315432042 
2390	 0.195287974859174 
2391	 0.195220878128461 
2392	 0.195205668940725 
2393	 0.195069053161014 
2394	 0.194929437766224 
2395	 0.194814065019064 
2396	 0.194607108426205 
2397	 0.194373853496364 
2398	 0.194198572560959 
2399	 0.193962014688876 
2400	 0.193813874153488 
2401	 0.193776778867609 
2402	 0.193613950538754 
2403	 0.193498641337514 
2404	 0.193378342706444 
2405	 0.19315750647042 
2406	 0.193057229741759 
2407	 0.19295651548432 
2408	 0.192763651509474 
2409	 0.19254418014736 
2410	 0.192326808505066 
2411	 0.192105828683318 
2412	 0.191935832209969 
2413	 0.191828800753243 
2414	 0.191646758686799 
2415	 0.191538800917705 
2416	 0.191399435264768 
2417	 0.191236209270614 
2418	 0.191038523412103 
2419	 0.190821234375907 
2420	 0.190590920915701 
2421	 0.190301306101649 
2422	 0.190072458684623 
2423	 0.189934509090171 
2424	 0.189675191335444 
2425	 0.189333887941817 
2426	 0.18909594378292 
2427	 0.188813683238619 
2428	 0.188597001294196 
2429	 0.188512202903073 
2430	 0.18831201790616 
2431	 0.188079509432127 
2432	 0.187825551772918 
2433	 0.187508665272759 
2434	 0.187361165220597 
2435	 0.187209298535452 
2436	 0.187104935033644 
2437	 0.187213736652717 
2438	 0.187085193594366 
2439	 0.186845591188317 
2440	 0.186680122474982 
2441	 0.186419786503861 
2442	 0.186181437779713 
2443	 0.18603022112125 
2444	 0.185843599117339 
2445	 0.185590027892831 
2446	 0.185434709182847 
2447	 0.185342795488373 
2448	 0.185180414021051 
2449	 0.185014291305222 
2450	 0.184864508480437 
2451	 0.184668545445165 
2452	 0.184507164115297 
2453	 0.184474628770595 
2454	 0.184273633397581 
2455	 0.183974425037585 
2456	 0.183732360999098 
2457	 0.183313921337195 
2458	 0.18305067549331 
2459	 0.182962799584327 
2460	 0.182739388876969 
2461	 0.182544695213619 
2462	 0.182406058592212 
2463	 0.182181987015896 
2464	 0.182047227594772 
2465	 0.182081626014006 
2466	 0.181882199897996 
2467	 0.181529758695482 
2468	 0.181360853047957 
2469	 0.181162351695508 
2470	 0.180991534937536 
2471	 0.180899033378737 
2472	 0.180618795810222 
2473	 0.180443010752652 
2474	 0.180327965083152 
2475	 0.179949906836655 
2476	 0.179765558059873 
2477	 0.179632489384939 
2478	 0.179353773647138 
2479	 0.179302473380669 
2480	 0.179275650417413 
2481	 0.179105271787182 
2482	 0.178946813283025 
2483	 0.178813076169587 
2484	 0.178566391299381 
2485	 0.178229088588431 
2486	 0.17788665193702 
2487	 0.177572569173126 
2488	 0.177355175354228 
2489	 0.177254876466516 
2490	 0.177246616125754 
2491	 0.177187952722287 
2492	 0.177050356952894 
2493	 0.176769797086412 
2494	 0.176403222123469 
2495	 0.176202588695311 
2496	 0.176153826691033 
2497	 0.176135982760941 
2498	 0.175968957217733 
2499	 0.175741527965324 
2500	 0.175521941844677 
