Wavelength	LMW400009.asd
350	 0.113226731022614 
351	 0.120072103553817 
352	 0.121181363928622 
353	 0.111987587069236 
354	 0.122279209478264 
355	 0.122678979647366 
356	 0.119726648977728 
357	 0.123775149777321 
358	 0.1224712100298 
359	 0.125680904626861 
360	 0.130271256212976 
361	 0.126132001397844 
362	 0.127424639097709 
363	 0.129108054870783 
364	 0.128717372287613 
365	 0.1316257008181 
366	 0.133008269942845 
367	 0.133124309529108 
368	 0.133325449074999 
369	 0.133204797607657 
370	 0.135076897723798 
371	 0.137715923925283 
372	 0.137753311382245 
373	 0.137020121232679 
374	 0.136829675326881 
375	 0.137986591024939 
376	 0.140833389082806 
377	 0.14106196446858 
378	 0.140817488498537 
379	 0.142965876152721 
380	 0.144507708941278 
381	 0.144956254955762 
382	 0.146105713667333 
383	 0.150638076448541 
384	 0.150650853253804 
385	 0.149119082605285 
386	 0.149324803157857 
387	 0.152312968318502 
388	 0.153137334968278 
389	 0.152750678815983 
390	 0.153626791669903 
391	 0.15535826719511 
392	 0.155865853326749 
393	 0.155917030182043 
394	 0.15843235419017 
395	 0.160115122812472 
396	 0.160501487059223 
397	 0.160480747033323 
398	 0.163113352253863 
399	 0.163204749829792 
400	 0.162789923687809 
401	 0.165229482064917 
402	 0.165146850875029 
403	 0.165845177533707 
404	 0.167512462116993 
405	 0.166864517420831 
406	 0.167777729811667 
407	 0.169054957474072 
408	 0.169304255356642 
409	 0.169191455212881 
410	 0.169042928022532 
411	 0.1695514542664 
412	 0.171172754907069 
413	 0.17184187790285 
414	 0.171759400098891 
415	 0.171468482713936 
416	 0.171604493128356 
417	 0.172427449882214 
418	 0.173209475911437 
419	 0.17339419750033 
420	 0.173912692382944 
421	 0.173931567019273 
422	 0.173850469950195 
423	 0.174687981483002 
424	 0.174935471961446 
425	 0.174954937258612 
426	 0.175193625240688 
427	 0.175871683950563 
428	 0.17598279057167 
429	 0.175940699364324 
430	 0.176377399876121 
431	 0.176483669442426 
432	 0.176591384526517 
433	 0.176951787680188 
434	 0.177654847663884 
435	 0.17795412619184 
436	 0.177948040848178 
437	 0.177893790573928 
438	 0.177947290405737 
439	 0.178115726629837 
440	 0.178457940570213 
441	 0.178982801535207 
442	 0.179135960564023 
443	 0.17928864110795 
444	 0.179712331110328 
445	 0.180416316126249 
446	 0.180683088321001 
447	 0.180755525633883 
448	 0.181051540129857 
449	 0.181408589191675 
450	 0.181653258920133 
451	 0.181815192771706 
452	 0.182087762389626 
453	 0.182395230590777 
454	 0.182682062658371 
455	 0.182890186535489 
456	 0.182906946234454 
457	 0.183184050007251 
458	 0.183537469340385 
459	 0.18357437514272 
460	 0.183769640481725 
461	 0.183957135333268 
462	 0.184068201769237 
463	 0.184250212488484 
464	 0.18439988540717 
465	 0.18453328823856 
466	 0.184709900146219 
467	 0.185036219001184 
468	 0.185331253855983 
469	 0.185503784378583 
470	 0.185557743340834 
471	 0.185659391056156 
472	 0.185835282185458 
473	 0.186054747034077 
474	 0.18621650942367 
475	 0.186439623289295 
476	 0.186687729394755 
477	 0.186858697197377 
478	 0.186904280920146 
479	 0.187014796341041 
480	 0.187245071162135 
481	 0.187438440204346 
482	 0.187646890557704 
483	 0.187822468727738 
484	 0.187931884131048 
485	 0.188099242908224 
486	 0.1882394146614 
487	 0.188313968250417 
488	 0.188344704378698 
489	 0.188642545847307 
490	 0.188908564049264 
491	 0.188948680965252 
492	 0.189105151451029 
493	 0.189092146477308 
494	 0.189029169887193 
495	 0.189180659643611 
496	 0.189374229685641 
497	 0.18943033777264 
498	 0.189435312768802 
499	 0.189875681121572 
500	 0.19015512487299 
501	 0.190209461105536 
502	 0.19018753282658 
503	 0.190407975379692 
504	 0.190534243509209 
505	 0.190536306697236 
506	 0.190673383775043 
507	 0.190828742313745 
508	 0.190936826420894 
509	 0.19098023046321 
510	 0.191044356006815 
511	 0.191086157643426 
512	 0.191138203156411 
513	 0.191262191109424 
514	 0.191411339254136 
515	 0.191512042109912 
516	 0.191579196447792 
517	 0.191796242835094 
518	 0.191816084105672 
519	 0.191789344509884 
520	 0.191960172715948 
521	 0.192144127363929 
522	 0.19224836741203 
523	 0.192316630292347 
524	 0.192522872956327 
525	 0.192579565865346 
526	 0.192597560435466 
527	 0.192693690594464 
528	 0.192702675617495 
529	 0.192731247744231 
530	 0.192794292691674 
531	 0.192849465382897 
532	 0.192943211366309 
533	 0.19308461430482 
534	 0.193244566781437 
535	 0.193320329367151 
536	 0.193423301609456 
537	 0.193534562095951 
538	 0.193595848856912 
539	 0.193656007488693 
540	 0.193694030013325 
541	 0.19373175785395 
542	 0.193854595729577 
543	 0.193979497104874 
544	 0.194088773553504 
545	 0.194179964714705 
546	 0.194232439420797 
547	 0.194284188936669 
548	 0.194366897106943 
549	 0.19449816405219 
550	 0.194548808008031 
551	 0.194611195068975 
552	 0.194760972937892 
553	 0.194937453666189 
554	 0.195012766074986 
555	 0.195063183653715 
556	 0.195247915553136 
557	 0.19538417630407 
558	 0.195465350038355 
559	 0.195544987520673 
560	 0.195758741718082 
561	 0.195834521076731 
562	 0.195827891237848 
563	 0.195898882882661 
564	 0.196097315866656 
565	 0.196165961325855 
566	 0.196115136054083 
567	 0.196266357589339 
568	 0.196483430627131 
569	 0.196685906788664 
570	 0.196838492903399 
571	 0.197031696571148 
572	 0.197167467317455 
573	 0.197279467765125 
574	 0.197475623325513 
575	 0.197517074137763 
576	 0.197581640794701 
577	 0.197763794147775 
578	 0.197832957077387 
579	 0.19788455820439 
580	 0.197961616923617 
581	 0.198090890592099 
582	 0.198307161831772 
583	 0.198538806769816 
584	 0.198724189290325 
585	 0.198828807104989 
586	 0.19893083825024 
587	 0.19900721853287 
588	 0.199038434581862 
589	 0.199157117488339 
590	 0.199267160374251 
591	 0.199351127373152 
592	 0.199466502827016 
593	 0.199533761708523 
594	 0.199607548015286 
595	 0.199728687049239 
596	 0.199816724417362 
597	 0.200042308760448 
598	 0.200314395097729 
599	 0.200422776914771 
600	 0.200477613976311 
601	 0.200598357209841 
602	 0.200785700856238 
603	 0.200828862738921 
604	 0.200824190496465 
605	 0.20084117456173 
606	 0.200933957664864 
607	 0.201104979847029 
608	 0.201230550487072 
609	 0.201303451581565 
610	 0.201454981205776 
611	 0.201643470224755 
612	 0.201766070792643 
613	 0.201782243199749 
614	 0.201911429586131 
615	 0.202050331042259 
616	 0.20217999883739 
617	 0.202331574086286 
618	 0.202391827190343 
619	 0.202411821947618 
620	 0.202450086466625 
621	 0.202523185385191 
622	 0.202650587750301 
623	 0.202754258717309 
624	 0.202751698239065 
625	 0.202824543261487 
626	 0.202894848451363 
627	 0.202943211636658 
628	 0.203055312745223 
629	 0.203133052742602 
630	 0.203193312729128 
631	 0.203276767397472 
632	 0.203399352145762 
633	 0.203414181240937 
634	 0.203383454650677 
635	 0.203522191623629 
636	 0.203574134436667 
637	 0.203599762834835 
638	 0.20366793229154 
639	 0.20373422315922 
640	 0.203768290508178 
641	 0.203813182471226 
642	 0.203926914449025 
643	 0.203989311689909 
644	 0.204018691501081 
645	 0.204062020984878 
646	 0.204190029861922 
647	 0.20424266318978 
648	 0.204259127306728 
649	 0.204316437199498 
650	 0.204381050705191 
651	 0.204417575273707 
652	 0.204449160941627 
653	 0.204543066991427 
654	 0.204618097000822 
655	 0.204627695529122 
656	 0.20459388385106 
657	 0.204691957829954 
658	 0.204794735600217 
659	 0.2048796216855 
660	 0.204963964495712 
661	 0.20497951643692 
662	 0.205009953337962 
663	 0.205098351137077 
664	 0.205210738389626 
665	 0.205280658635358 
666	 0.205309742001598 
667	 0.205321835740769 
668	 0.205316777886628 
669	 0.205382540155588 
670	 0.205489973754177 
671	 0.205518742910096 
672	 0.205550082877097 
673	 0.205603388873455 
674	 0.205682715486596 
675	 0.205788453338779 
676	 0.205861784599341 
677	 0.20588860972789 
678	 0.205887922639046 
679	 0.205934017491402 
680	 0.205976907665636 
681	 0.206024039649049 
682	 0.206172801543997 
683	 0.206203352423086 
684	 0.20619486793198 
685	 0.206263632065131 
686	 0.206358426495668 
687	 0.206410634929368 
688	 0.206441650424574 
689	 0.206528027746759 
690	 0.206574684690088 
691	 0.206589796225856 
692	 0.206615238164151 
693	 0.206738635696821 
694	 0.206804310332367 
695	 0.206805668423468 
696	 0.206803391220459 
697	 0.206885509280614 
698	 0.206953432060504 
699	 0.206994828806342 
700	 0.207095473607429 
701	 0.207144266853301 
702	 0.207166963912611 
703	 0.207204176766645 
704	 0.207258194324374 
705	 0.207252091497957 
706	 0.207254674431854 
707	 0.207378160114615 
708	 0.20740878755952 
709	 0.20743171961826 
710	 0.207491408000825 
711	 0.207527917943784 
712	 0.20755134541334 
713	 0.207587187714588 
714	 0.207648095188572 
715	 0.207677023696381 
716	 0.20771532208078 
717	 0.207763572650135 
718	 0.207790900609106 
719	 0.207780907474828 
720	 0.207774525102108 
721	 0.207806358294364 
722	 0.207887409888561 
723	 0.207949119502862 
724	 0.207991517732085 
725	 0.208031234213078 
726	 0.208024682521115 
727	 0.208053188547195 
728	 0.208104448188886 
729	 0.208083701624236 
730	 0.208139265799103 
731	 0.208184756677564 
732	 0.208161617346539 
733	 0.208179662578401 
734	 0.208197664040426 
735	 0.208213147808052 
736	 0.208236640179119 
737	 0.208267807408783 
738	 0.208308941972927 
739	 0.208341081374645 
740	 0.208324913155839 
741	 0.208304291816084 
742	 0.208339910834978 
743	 0.208428443509001 
744	 0.208383646525425 
745	 0.208366164893613 
746	 0.208383736746086 
747	 0.208377354550062 
748	 0.208373649253245 
749	 0.208393304406541 
750	 0.208424127207074 
751	 0.208416290247272 
752	 0.208393197934096 
753	 0.208397859921033 
754	 0.20844896241774 
755	 0.208487610474152 
756	 0.208496267245579 
757	 0.208473584830437 
758	 0.208437837888761 
759	 0.208460631444081 
760	 0.208484301705334 
761	 0.208481528936787 
762	 0.208479403736989 
763	 0.208511359858193 
764	 0.208533725925929 
765	 0.208511569736381 
766	 0.208487790574197 
767	 0.208498757830699 
768	 0.208504091292045 
769	 0.20844753478027 
770	 0.208465751936783 
771	 0.208505492726484 
772	 0.208514449746266 
773	 0.208466057222493 
774	 0.208424104478418 
775	 0.208410950018195 
776	 0.208418413157941 
777	 0.208381126565427 
778	 0.208388980539136 
779	 0.208424781726412 
780	 0.208426971753324 
781	 0.20839419176654 
782	 0.208416463255946 
783	 0.208464729941747 
784	 0.208388666333955 
785	 0.208371570581039 
786	 0.208398177004017 
787	 0.20841671114896 
788	 0.208382705065458 
789	 0.208361829705522 
790	 0.20837189141031 
791	 0.208401670176923 
792	 0.208402772144112 
793	 0.20838130317962 
794	 0.208355335878108 
795	 0.20834985875151 
796	 0.208381086729466 
797	 0.20838278661754 
798	 0.208327060351669 
799	 0.20827542671876 
800	 0.208268828803794 
801	 0.208297201379917 
802	 0.208326415483386 
803	 0.20830812296481 
804	 0.208330515883155 
805	 0.208366736363435 
806	 0.208334057617205 
807	 0.20836429953177 
808	 0.208336560023275 
809	 0.208253823914303 
810	 0.208306799858422 
811	 0.208340469638221 
812	 0.208330743735057 
813	 0.208307344276684 
814	 0.208366454911512 
815	 0.208386661088119 
816	 0.208340956560196 
817	 0.208266307188979 
818	 0.208289200468503 
819	 0.208340667529763 
820	 0.208375202148177 
821	 0.208380749121194 
822	 0.20835739334065 
823	 0.208362812998172 
824	 0.208391885501851 
825	 0.208323595227714 
826	 0.208336239527418 
827	 0.208385404373726 
828	 0.208394112515352 
829	 0.208394663718413 
830	 0.208358767987757 
831	 0.208321576496629 
832	 0.208339777260435 
833	 0.208396287147582 
834	 0.208461705979914 
835	 0.2084963828014 
836	 0.208462551866601 
837	 0.208430047433574 
838	 0.208449015329695 
839	 0.208501564747992 
840	 0.208463934261627 
841	 0.208483057128109 
842	 0.208473887997918 
843	 0.208375941104245 
844	 0.208407474477076 
845	 0.208469953557949 
846	 0.208488045676179 
847	 0.208432187070274 
848	 0.208458686820275 
849	 0.208464375208713 
850	 0.208457317366267 
851	 0.208533033856161 
852	 0.208518758391973 
853	 0.208474221902448 
854	 0.20846223277371 
855	 0.208497192358824 
856	 0.20853409572865 
857	 0.208549938451987 
858	 0.20854374462512 
859	 0.208553894616545 
860	 0.208540807770273 
861	 0.208558097340809 
862	 0.208649506462451 
863	 0.208683236820248 
864	 0.208634346097527 
865	 0.208590293094198 
866	 0.208665598860297 
867	 0.208654072314675 
868	 0.208671133306466 
869	 0.208724796468144 
870	 0.208696352457682 
871	 0.208674331535531 
872	 0.208681224888268 
873	 0.208718505080934 
874	 0.208771619814863 
875	 0.208836646310673 
876	 0.208845373840033 
877	 0.208784798151701 
878	 0.208816771963283 
879	 0.208891271483942 
880	 0.20891364797121 
881	 0.208837503705189 
882	 0.208881086658541 
883	 0.208917686601506 
884	 0.208927325073723 
885	 0.208951989311187 
886	 0.208988482301902 
887	 0.209031780667229 
888	 0.209044455052887 
889	 0.208984213077526 
890	 0.209011559374517 
891	 0.20907459480472 
892	 0.209118960232974 
893	 0.209127532042036 
894	 0.209098800595156 
895	 0.209099084738552 
896	 0.209155930250168 
897	 0.209205702971151 
898	 0.209255380446443 
899	 0.209263755265299 
900	 0.209216245194083 
901	 0.209183057382971 
902	 0.2092438275994 
903	 0.209344174253277 
904	 0.209392155153007 
905	 0.209360974229472 
906	 0.209362577449539 
907	 0.209405242211329 
908	 0.20944890439174 
909	 0.20951927128113 
910	 0.209511250438975 
911	 0.209486825224771 
912	 0.209585438999379 
913	 0.209656814358881 
914	 0.209647799669733 
915	 0.209628455795811 
916	 0.209733694989042 
917	 0.209720008369918 
918	 0.209693930921415 
919	 0.209740896673642 
920	 0.209855677706701 
921	 0.209906961602883 
922	 0.209888193518909 
923	 0.209861096245725 
924	 0.209937324623084 
925	 0.209949846457537 
926	 0.209989175886758 
927	 0.210098387263969 
928	 0.210134767747647 
929	 0.210305325966001 
930	 0.210408488038242 
931	 0.210323483801265 
932	 0.210348403693838 
933	 0.210395509021556 
934	 0.210403529443155 
935	 0.210370091771859 
936	 0.210456268684775 
937	 0.210438658331752 
938	 0.210389278005033 
939	 0.210445154762601 
940	 0.210603307504836 
941	 0.210670272505734 
942	 0.210684589433488 
943	 0.210749337810348 
944	 0.210798723063232 
945	 0.210843941521768 
946	 0.210918893137151 
947	 0.211023915019292 
948	 0.210974743840516 
949	 0.210972592889514 
950	 0.210963935965392 
951	 0.210851490177509 
952	 0.211036960087948 
953	 0.211169259497496 
954	 0.211172153034139 
955	 0.211180190341848 
956	 0.211405928822025 
957	 0.211430678074073 
958	 0.211315893142695 
959	 0.211386283093162 
960	 0.211514830243542 
961	 0.211508766026419 
962	 0.211464976233511 
963	 0.211593864588391 
964	 0.211558745737447 
965	 0.211602747444089 
966	 0.211722472511489 
967	 0.211757632951171 
968	 0.211838742704037 
969	 0.211928217786282 
970	 0.21194738160327 
971	 0.21185955106096 
972	 0.211962536356656 
973	 0.212123435516911 
974	 0.212228232644401 
975	 0.212232458613815 
976	 0.21224592745515 
977	 0.212286610667772 
978	 0.21233532133859 
979	 0.212369650696208 
980	 0.212502934659982 
981	 0.212365816893571 
982	 0.212224575918131 
983	 0.212557757901138 
984	 0.212697213580452 
985	 0.212807364168891 
986	 0.212892599016105 
987	 0.21288046503213 
988	 0.212891655530128 
989	 0.212924308155122 
990	 0.21293332243109 
991	 0.212905418902698 
992	 0.213063393743483 
993	 0.213082575477198 
994	 0.213126742647023 
995	 0.213416146873169 
996	 0.213435809541326 
997	 0.213354130142404 
998	 0.213304252069461 
999	 0.21337997484182 
1000	 0.213621666721004 
1001	 0.214766042823771 
1002	 0.214743192381891 
1003	 0.214773939449968 
1004	 0.21480059081768 
1005	 0.214826310161786 
1006	 0.214867391700508 
1007	 0.214939931625822 
1008	 0.21496895330669 
1009	 0.214993271655595 
1010	 0.215095445139425 
1011	 0.215141228835797 
1012	 0.215140452165549 
1013	 0.215164945859464 
1014	 0.215138368931266 
1015	 0.215132820622881 
1016	 0.215213204764937 
1017	 0.215259215012154 
1018	 0.215286423774939 
1019	 0.215365671577562 
1020	 0.215453241807521 
1021	 0.215426637788695 
1022	 0.215421024610802 
1023	 0.215445245472728 
1024	 0.215441411930516 
1025	 0.215455682618514 
1026	 0.215472972484705 
1027	 0.215464255539041 
1028	 0.215471668863096 
1029	 0.215514999297892 
1030	 0.215580383286681 
1031	 0.21561224771086 
1032	 0.215635954479969 
1033	 0.215664722183148 
1034	 0.215703334156174 
1035	 0.215693403819694 
1036	 0.215705768352062 
1037	 0.215698975443865 
1038	 0.215660830397232 
1039	 0.215694363877971 
1040	 0.215786152317781 
1041	 0.215854256251511 
1042	 0.215903004055232 
1043	 0.215955031651181 
1044	 0.216002090783023 
1045	 0.21601421821436 
1046	 0.216066342772498 
1047	 0.216148093241713 
1048	 0.216237593284342 
1049	 0.216305076133615 
1050	 0.216352722727346 
1051	 0.216401620719385 
1052	 0.216407949670008 
1053	 0.216458816167917 
1054	 0.216552314904682 
1055	 0.216606591465592 
1056	 0.216620041050368 
1057	 0.216642179476357 
1058	 0.216596257257922 
1059	 0.216616934095924 
1060	 0.216664260872477 
1061	 0.216779955607259 
1062	 0.216823107794645 
1063	 0.216802169641387 
1064	 0.216812885612813 
1065	 0.216782724343889 
1066	 0.216751652555653 
1067	 0.216773145284332 
1068	 0.216812317589639 
1069	 0.216844233937682 
1070	 0.216862209596389 
1071	 0.216911144218956 
1072	 0.216942881728686 
1073	 0.216944752251573 
1074	 0.216931433501179 
1075	 0.216913676609488 
1076	 0.216890477299821 
1077	 0.216893774040897 
1078	 0.216887367095495 
1079	 0.216873111767097 
1080	 0.216852352424084 
1081	 0.216791572241547 
1082	 0.216734513732062 
1083	 0.216685449542859 
1084	 0.216645888414818 
1085	 0.216629242083935 
1086	 0.216620361772813 
1087	 0.216605679129301 
1088	 0.216615969246856 
1089	 0.216615789706275 
1090	 0.216577673766322 
1091	 0.216559075158549 
1092	 0.216547258586438 
1093	 0.21652830912557 
1094	 0.216526710387937 
1095	 0.216513569964488 
1096	 0.216495182180004 
1097	 0.216497774594453 
1098	 0.216477051158401 
1099	 0.216421394094199 
1100	 0.216412741762794 
1101	 0.216411331188108 
1102	 0.216421842899707 
1103	 0.216461368023289 
1104	 0.216512814214344 
1105	 0.216550496464085 
1106	 0.216556143716108 
1107	 0.216553228251064 
1108	 0.216558931020071 
1109	 0.216514196227353 
1110	 0.216513352397086 
1111	 0.216542498563707 
1112	 0.216585542217616 
1113	 0.216635888431583 
1114	 0.216759404473755 
1115	 0.216805073751369 
1116	 0.216798143212766 
1117	 0.216840928529471 
1118	 0.216888969503766 
1119	 0.216904800717217 
1120	 0.216985397823542 
1121	 0.217055436497374 
1122	 0.217099348179261 
1123	 0.217168243231858 
1124	 0.217229790088509 
1125	 0.217289634540893 
1126	 0.21735782443195 
1127	 0.217427992053537 
1128	 0.2174977078551 
1129	 0.217583925781101 
1130	 0.21764541021646 
1131	 0.217711939724228 
1132	 0.217753010075288 
1133	 0.217741904678963 
1134	 0.217772687308934 
1135	 0.217826986146395 
1136	 0.217846827996259 
1137	 0.217872614834549 
1138	 0.217931166718155 
1139	 0.217982055529123 
1140	 0.218022084165051 
1141	 0.2180665814199 
1142	 0.218134106516027 
1143	 0.218171661604695 
1144	 0.218187116611105 
1145	 0.218211806553457 
1146	 0.218243581643164 
1147	 0.21825844512735 
1148	 0.218240520128369 
1149	 0.218256563271705 
1150	 0.218281325653245 
1151	 0.218302368455265 
1152	 0.218362837171094 
1153	 0.218421157212125 
1154	 0.218458548176486 
1155	 0.218489336597022 
1156	 0.218509660860436 
1157	 0.218511002319728 
1158	 0.218518239433699 
1159	 0.218513796998459 
1160	 0.218522440401134 
1161	 0.218541174996224 
1162	 0.218554368594567 
1163	 0.21856502213653 
1164	 0.218581781403238 
1165	 0.218603572912232 
1166	 0.218619665947388 
1167	 0.218632896078996 
1168	 0.21864095762209 
1169	 0.218647795680266 
1170	 0.218642852723569 
1171	 0.218643161105914 
1172	 0.218648294690942 
1173	 0.218650202375521 
1174	 0.21864532238491 
1175	 0.218644566608452 
1176	 0.218645715184776 
1177	 0.218647451764876 
1178	 0.218645285297653 
1179	 0.218652455697081 
1180	 0.218672939066052 
1181	 0.218684648013536 
1182	 0.218706368003216 
1183	 0.218705436626384 
1184	 0.218712034317086 
1185	 0.21870698535494 
1186	 0.218718011043984 
1187	 0.218747717173129 
1188	 0.218747483388169 
1189	 0.218734112747227 
1190	 0.218731188532584 
1191	 0.218706730183707 
1192	 0.218705361011724 
1193	 0.218729463671501 
1194	 0.218743506411208 
1195	 0.218747622963251 
1196	 0.218768960194985 
1197	 0.21881781189141 
1198	 0.218839544514956 
1199	 0.218854411108509 
1200	 0.218871052865437 
1201	 0.218883502490341 
1202	 0.218870977364774 
1203	 0.218880684527589 
1204	 0.218910533703151 
1205	 0.218923424181958 
1206	 0.218922773659322 
1207	 0.218939037950597 
1208	 0.218964808427282 
1209	 0.218981377368895 
1210	 0.219006166327709 
1211	 0.219022620203004 
1212	 0.219020198026585 
1213	 0.219030408012776 
1214	 0.219043303917622 
1215	 0.219061776476826 
1216	 0.219085271930171 
1217	 0.219121463058934 
1218	 0.219138609268242 
1219	 0.219148003071448 
1220	 0.219168952210573 
1221	 0.219196849572811 
1222	 0.21920089881062 
1223	 0.219209230662094 
1224	 0.219200551094417 
1225	 0.219146530312382 
1226	 0.219127147114217 
1227	 0.219128469132708 
1228	 0.219116967433485 
1229	 0.219102761808206 
1230	 0.219098756592092 
1231	 0.219097449531934 
1232	 0.219091547286767 
1233	 0.219087809005641 
1234	 0.219092965590276 
1235	 0.219098513866156 
1236	 0.219094385459533 
1237	 0.219106588025364 
1238	 0.219148325083375 
1239	 0.219153565517949 
1240	 0.219144251920147 
1241	 0.219138008334807 
1242	 0.219110480309768 
1243	 0.219097203869559 
1244	 0.2190946509736 
1245	 0.219088330399215 
1246	 0.219086225810121 
1247	 0.219076583177078 
1248	 0.219048076801166 
1249	 0.219046483896907 
1250	 0.219051895161773 
1251	 0.219039201576832 
1252	 0.219047960036709 
1253	 0.219082857586883 
1254	 0.219087813281279 
1255	 0.219079830244722 
1256	 0.219084464868703 
1257	 0.21908980618011 
1258	 0.219083481856938 
1259	 0.219082734204617 
1260	 0.219073545053655 
1261	 0.219042813805691 
1262	 0.219021346812239 
1263	 0.219005613854811 
1264	 0.218986258465143 
1265	 0.218962167553668 
1266	 0.218941782022903 
1267	 0.218921917197417 
1268	 0.21890287734354 
1269	 0.218891314089172 
1270	 0.218880163246481 
1271	 0.218879720104092 
1272	 0.218889705015428 
1273	 0.218900399235266 
1274	 0.218911177929194 
1275	 0.21893965497888 
1276	 0.21897438308984 
1277	 0.219019963515118 
1278	 0.219090054537307 
1279	 0.2191499924579 
1280	 0.219217844798368 
1281	 0.219276302698535 
1282	 0.219330525947647 
1283	 0.219381498368964 
1284	 0.219433907660343 
1285	 0.219473974445852 
1286	 0.219487819096837 
1287	 0.219510891435388 
1288	 0.219522306045025 
1289	 0.21951594438639 
1290	 0.219510230996719 
1291	 0.219500594436533 
1292	 0.219495388721762 
1293	 0.219488219323814 
1294	 0.219471354431475 
1295	 0.219468407648356 
1296	 0.21943674175467 
1297	 0.21937059015279 
1298	 0.219320847668436 
1299	 0.2192614360555 
1300	 0.219211169471063 
1301	 0.219180080587221 
1302	 0.219128880114333 
1303	 0.21906887373624 
1304	 0.219012213884232 
1305	 0.218930549585384 
1306	 0.218857422696879 
1307	 0.218790003672606 
1308	 0.218698083974832 
1309	 0.218616314775386 
1310	 0.218529312536505 
1311	 0.218452384601508 
1312	 0.218379971798994 
1313	 0.21831087639784 
1314	 0.218248134989981 
1315	 0.218185425396044 
1316	 0.218116619044992 
1317	 0.218062743656221 
1318	 0.218020428259484 
1319	 0.217979859854177 
1320	 0.217945361644372 
1321	 0.217917605064098 
1322	 0.217900571823148 
1323	 0.217874319500741 
1324	 0.21785656924051 
1325	 0.21783383435744 
1326	 0.217802495552053 
1327	 0.21777044779425 
1328	 0.217736541990756 
1329	 0.217718117370184 
1330	 0.217707023375287 
1331	 0.217699172989101 
1332	 0.217708490380162 
1333	 0.217741988151245 
1334	 0.21776042141025 
1335	 0.217782529227612 
1336	 0.21780363877496 
1337	 0.217815945753414 
1338	 0.217834441540159 
1339	 0.217859002974017 
1340	 0.21788596980346 
1341	 0.217913470344638 
1342	 0.217943647069932 
1343	 0.217982300739884 
1344	 0.218014005426544 
1345	 0.218048156732497 
1346	 0.218075557941586 
1347	 0.218093501814305 
1348	 0.218119654043611 
1349	 0.218139021873599 
1350	 0.2181629265194 
1351	 0.218181100693789 
1352	 0.218195613915155 
1353	 0.218214311232664 
1354	 0.218230461168901 
1355	 0.21824743199907 
1356	 0.218270175321294 
1357	 0.218287941843078 
1358	 0.218299444904437 
1359	 0.218315143508615 
1360	 0.218323912064386 
1361	 0.218349902017988 
1362	 0.218390728425431 
1363	 0.218426863559774 
1364	 0.218486168546211 
1365	 0.218513979938573 
1366	 0.218520985775686 
1367	 0.218523194467918 
1368	 0.218533305494563 
1369	 0.218546414724693 
1370	 0.218545473589421 
1371	 0.218551845906813 
1372	 0.218536130119575 
1373	 0.218496537222511 
1374	 0.218463799477961 
1375	 0.218440559920011 
1376	 0.218385955073306 
1377	 0.218316518056205 
1378	 0.218239196171011 
1379	 0.218141456223542 
1380	 0.2180403161882 
1381	 0.217934365707833 
1382	 0.217812502833639 
1383	 0.217678204194099 
1384	 0.217538866022041 
1385	 0.217401683082169 
1386	 0.217237563820283 
1387	 0.21706005482775 
1388	 0.216866123613469 
1389	 0.216656879932257 
1390	 0.216415018980225 
1391	 0.216174764364891 
1392	 0.215907556159708 
1393	 0.215612824655329 
1394	 0.215331242678308 
1395	 0.215012463048247 
1396	 0.214676748559846 
1397	 0.214357769805548 
1398	 0.214031914954721 
1399	 0.213704882874026 
1400	 0.213385112360351 
1401	 0.213069069350255 
1402	 0.212739906098946 
1403	 0.212429650728918 
1404	 0.212134409021469 
1405	 0.211843373516276 
1406	 0.21155248304235 
1407	 0.211279638126549 
1408	 0.211011592164896 
1409	 0.210766126328577 
1410	 0.21052717411723 
1411	 0.210324776334722 
1412	 0.210139226856883 
1413	 0.20999976859402 
1414	 0.209890597378477 
1415	 0.209785555143854 
1416	 0.209699557012958 
1417	 0.209599376295594 
1418	 0.209491327914506 
1419	 0.209386273697056 
1420	 0.209277604053144 
1421	 0.209186084408097 
1422	 0.209101341911105 
1423	 0.209018487785353 
1424	 0.208936026950278 
1425	 0.208846535109921 
1426	 0.208781122110654 
1427	 0.208721256907762 
1428	 0.208676804031328 
1429	 0.208653320337679 
1430	 0.208629583689948 
1431	 0.208620517373316 
1432	 0.208603848066385 
1433	 0.20858339346312 
1434	 0.208577513873038 
1435	 0.208573232712139 
1436	 0.208575490727982 
1437	 0.208596029660271 
1438	 0.208610031712829 
1439	 0.208621798559949 
1440	 0.208637616383669 
1441	 0.208652570781465 
1442	 0.208651685148879 
1443	 0.208646920228697 
1444	 0.208637629370917 
1445	 0.208634529611182 
1446	 0.208633798270765 
1447	 0.20863250371163 
1448	 0.208639487511826 
1449	 0.208639050662013 
1450	 0.208639357885757 
1451	 0.208648941138905 
1452	 0.208665927319076 
1453	 0.208680794866281 
1454	 0.208698057774118 
1455	 0.20872039404193 
1456	 0.208740629040328 
1457	 0.20876658523024 
1458	 0.208811201839417 
1459	 0.20883865880467 
1460	 0.208855608719378 
1461	 0.208884096831249 
1462	 0.208903423508683 
1463	 0.208933517877691 
1464	 0.208985947151765 
1465	 0.209020366845818 
1466	 0.209049442784522 
1467	 0.209079381518473 
1468	 0.209084875711028 
1469	 0.209118545049244 
1470	 0.209174018690497 
1471	 0.209225721122354 
1472	 0.209271735673974 
1473	 0.209318828664513 
1474	 0.209339176217392 
1475	 0.209368539788312 
1476	 0.209411888936526 
1477	 0.209476029665088 
1478	 0.209571264675823 
1479	 0.209666231981612 
1480	 0.209773818646042 
1481	 0.20990564358493 
1482	 0.210029922083391 
1483	 0.210152241878218 
1484	 0.210285142850938 
1485	 0.210434709604589 
1486	 0.210564207547224 
1487	 0.210690462054586 
1488	 0.210817795658439 
1489	 0.210938002621494 
1490	 0.211055649054422 
1491	 0.211178228908572 
1492	 0.211289912645976 
1493	 0.211382377656193 
1494	 0.211486643007681 
1495	 0.211599745926553 
1496	 0.211705396947298 
1497	 0.211813789653086 
1498	 0.211915744597855 
1499	 0.212013144826568 
1500	 0.212097235689501 
1501	 0.212162861969744 
1502	 0.212244840435069 
1503	 0.212320947287144 
1504	 0.212405242611834 
1505	 0.212510608742105 
1506	 0.212624506417945 
1507	 0.212729459199288 
1508	 0.212814135193448 
1509	 0.212875291361459 
1510	 0.212928573287002 
1511	 0.21298180029288 
1512	 0.213035938669663 
1513	 0.213117604258047 
1514	 0.21319858100284 
1515	 0.21327195142208 
1516	 0.213361427968058 
1517	 0.213427328816902 
1518	 0.213478932702864 
1519	 0.213536977879018 
1520	 0.213580516925398 
1521	 0.213636730758382 
1522	 0.213705525795243 
1523	 0.213768923193321 
1524	 0.213839038986999 
1525	 0.213894734650191 
1526	 0.213935847282938 
1527	 0.213989188945426 
1528	 0.214036203133108 
1529	 0.214091076062404 
1530	 0.21415876300943 
1531	 0.214225215618967 
1532	 0.214290612368165 
1533	 0.214361581215516 
1534	 0.214455616090765 
1535	 0.214516653823893 
1536	 0.21455430658094 
1537	 0.214600723299605 
1538	 0.214635835438083 
1539	 0.2146694593468 
1540	 0.21470314413808 
1541	 0.21474548010638 
1542	 0.214791662470484 
1543	 0.214823408904085 
1544	 0.214864150299896 
1545	 0.214894197053724 
1546	 0.214908283389367 
1547	 0.214904456540633 
1548	 0.214921151334664 
1549	 0.214957589004551 
1550	 0.214991345947556 
1551	 0.215031967249686 
1552	 0.215083603477045 
1553	 0.215117853945944 
1554	 0.2151628627695 
1555	 0.215219738752161 
1556	 0.215267590403421 
1557	 0.21530142709554 
1558	 0.215308154235509 
1559	 0.215323060500212 
1560	 0.215348512406686 
1561	 0.215375926720227 
1562	 0.215398389942474 
1563	 0.215427767235954 
1564	 0.215459669424466 
1565	 0.215477055644933 
1566	 0.215521186939938 
1567	 0.215596361350162 
1568	 0.215640822900496 
1569	 0.215689161325216 
1570	 0.215716476451009 
1571	 0.215718968930433 
1572	 0.215730903097707 
1573	 0.215735126430757 
1574	 0.215743073604467 
1575	 0.215751403960603 
1576	 0.215760625285487 
1577	 0.215774702208069 
1578	 0.215777522041875 
1579	 0.215773073786274 
1580	 0.215773796986174 
1581	 0.215774817135622 
1582	 0.215766999484466 
1583	 0.215744871221852 
1584	 0.215749590099392 
1585	 0.215758803999096 
1586	 0.215772370516715 
1587	 0.215819034264362 
1588	 0.215840546996582 
1589	 0.215843875853043 
1590	 0.215853199102922 
1591	 0.215856232759825 
1592	 0.215867282019873 
1593	 0.215885705236881 
1594	 0.215897351713952 
1595	 0.215909264336027 
1596	 0.215918448755048 
1597	 0.215924765923094 
1598	 0.215928439485194 
1599	 0.215923160637203 
1600	 0.215929770885127 
1601	 0.215945021245029 
1602	 0.215952020285123 
1603	 0.215961606955438 
1604	 0.215972403138316 
1605	 0.215973638199581 
1606	 0.215978216358507 
1607	 0.215991762901529 
1608	 0.21600463169912 
1609	 0.215995556193223 
1610	 0.215994045480558 
1611	 0.215979554118632 
1612	 0.215970352051978 
1613	 0.215988366460318 
1614	 0.21599967119705 
1615	 0.216017578294972 
1616	 0.216036302492782 
1617	 0.216042224435581 
1618	 0.216056414967869 
1619	 0.216066322950794 
1620	 0.216073951155825 
1621	 0.216082604937809 
1622	 0.216091963713886 
1623	 0.216087746772141 
1624	 0.216074119740762 
1625	 0.216077592785581 
1626	 0.216077306552761 
1627	 0.216079757496715 
1628	 0.216102309365635 
1629	 0.216103919095242 
1630	 0.216086095858905 
1631	 0.216086075772558 
1632	 0.216091614082323 
1633	 0.216091469233512 
1634	 0.216095441887596 
1635	 0.216093712204809 
1636	 0.216084126330175 
1637	 0.216081943873737 
1638	 0.216079658995733 
1639	 0.216083753085541 
1640	 0.216097740207468 
1641	 0.216098301373788 
1642	 0.216094232526596 
1643	 0.216097105052644 
1644	 0.216093572591652 
1645	 0.21609679067998 
1646	 0.216117257110079 
1647	 0.216115233049265 
1648	 0.216095127351457 
1649	 0.216094700195792 
1650	 0.216089743382203 
1651	 0.216098055218045 
1652	 0.216132925492306 
1653	 0.216140526865978 
1654	 0.216144393205968 
1655	 0.216136235934045 
1656	 0.216104383498032 
1657	 0.216091405008581 
1658	 0.216076227489367 
1659	 0.216070678029764 
1660	 0.216086970034778 
1661	 0.21607676383375 
1662	 0.216057183091801 
1663	 0.216038198175329 
1664	 0.215994080633709 
1665	 0.215982444913992 
1666	 0.215996502748525 
1667	 0.215989642046611 
1668	 0.215983290730164 
1669	 0.215982945442507 
1670	 0.215974901193832 
1671	 0.215969778344799 
1672	 0.215983423127512 
1673	 0.215976607738269 
1674	 0.215949791538111 
1675	 0.215934790961926 
1676	 0.215911080084394 
1677	 0.215908357979812 
1678	 0.215921669330007 
1679	 0.215928062578472 
1680	 0.21595498727188 
1681	 0.215953520741173 
1682	 0.215934675899615 
1683	 0.215915630064621 
1684	 0.215872526731609 
1685	 0.215857110192105 
1686	 0.215849362543295 
1687	 0.215848858737996 
1688	 0.215863392678065 
1689	 0.215880405157038 
1690	 0.215912862006673 
1691	 0.215924075090787 
1692	 0.215937366203356 
1693	 0.215935761044021 
1694	 0.215911647912026 
1695	 0.215892283705511 
1696	 0.215863841739247 
1697	 0.215849237833319 
1698	 0.215835269280468 
1699	 0.215825770161523 
1700	 0.215831333776368 
1701	 0.215827264170754 
1702	 0.215823112305294 
1703	 0.215809234284079 
1704	 0.215790888939798 
1705	 0.215766539892786 
1706	 0.215728232871398 
1707	 0.215700795984912 
1708	 0.215668405736416 
1709	 0.215650669304562 
1710	 0.215641945418944 
1711	 0.215636755873913 
1712	 0.215649221453742 
1713	 0.215645364583352 
1714	 0.215637048119578 
1715	 0.215625758771895 
1716	 0.215603382873277 
1717	 0.215592091866471 
1718	 0.215591438767829 
1719	 0.215573961583454 
1720	 0.215560885621411 
1721	 0.215523778465537 
1722	 0.215459008992027 
1723	 0.215413708087158 
1724	 0.215354121310895 
1725	 0.215316109269098 
1726	 0.215302118830632 
1727	 0.215273165964697 
1728	 0.21525653699653 
1729	 0.215210277258659 
1730	 0.215138289954231 
1731	 0.215080080499915 
1732	 0.215012712170135 
1733	 0.214955725244268 
1734	 0.214917519607315 
1735	 0.214858256021581 
1736	 0.214785341265727 
1737	 0.214708322209405 
1738	 0.214611872878173 
1739	 0.214549970430839 
1740	 0.21450265183581 
1741	 0.214452552700827 
1742	 0.214429541686328 
1743	 0.214372197008525 
1744	 0.214285268798428 
1745	 0.214228137096111 
1746	 0.214169305188467 
1747	 0.214140324189713 
1748	 0.214118158134414 
1749	 0.214049281486678 
1750	 0.213985592111481 
1751	 0.213908531609902 
1752	 0.213829375132571 
1753	 0.213784682695431 
1754	 0.213721811904315 
1755	 0.213683541636692 
1756	 0.21364071574417 
1757	 0.213580041021998 
1758	 0.213547006822172 
1759	 0.213486812777627 
1760	 0.213428749077673 
1761	 0.213380181410896 
1762	 0.213319143157182 
1763	 0.213254446705149 
1764	 0.21318965370141 
1765	 0.213168731955799 
1766	 0.213168471313156 
1767	 0.213164585521481 
1768	 0.213160868537902 
1769	 0.21312702184595 
1770	 0.213070471908133 
1771	 0.213028278059529 
1772	 0.212983910754577 
1773	 0.212927544019103 
1774	 0.21288541891943 
1775	 0.212840368315863 
1776	 0.212790657647743 
1777	 0.212765655730024 
1778	 0.212748102283425 
1779	 0.212731931302897 
1780	 0.212738335209927 
1781	 0.212738321376102 
1782	 0.212738046101645 
1783	 0.212745959081208 
1784	 0.212741890340836 
1785	 0.212735336081336 
1786	 0.212709975133441 
1787	 0.212653796527552 
1788	 0.212628895564513 
1789	 0.212604558833584 
1790	 0.212605839978216 
1791	 0.212646246074969 
1792	 0.212662655468927 
1793	 0.212677867394694 
1794	 0.212694234752136 
1795	 0.212699946864606 
1796	 0.212706394685963 
1797	 0.212719666480735 
1798	 0.212730946704554 
1799	 0.212741139139982 
1800	 0.212750677302387 
1801	 0.211034307304473 
1802	 0.211081705067159 
1803	 0.211113534100461 
1804	 0.211173859728464 
1805	 0.2112282653103 
1806	 0.211241722487164 
1807	 0.211273234612668 
1808	 0.211307487607263 
1809	 0.211346346672304 
1810	 0.211367202766647 
1811	 0.211399699473867 
1812	 0.211406054497779 
1813	 0.211396564235399 
1814	 0.211350990531758 
1815	 0.21130703155686 
1816	 0.211285530928642 
1817	 0.211266569560966 
1818	 0.21125411402187 
1819	 0.211240621233764 
1820	 0.211237209420516 
1821	 0.211225050097952 
1822	 0.211208629180461 
1823	 0.211173528738315 
1824	 0.21117126036521 
1825	 0.211173639526986 
1826	 0.211145282377521 
1827	 0.211139172398216 
1828	 0.211131770893062 
1829	 0.211117290704205 
1830	 0.211095305494376 
1831	 0.211083235170088 
1832	 0.211066037357781 
1833	 0.21101314516937 
1834	 0.210957110191296 
1835	 0.210923046060382 
1836	 0.210891817659782 
1837	 0.210858507614543 
1838	 0.210839617360304 
1839	 0.210821441679057 
1840	 0.210814910855356 
1841	 0.210771951014592 
1842	 0.210741432982021 
1843	 0.210722301448264 
1844	 0.210660818072707 
1845	 0.210599716349563 
1846	 0.210540873665319 
1847	 0.210456319881171 
1848	 0.210337649317851 
1849	 0.210250050612548 
1850	 0.210187950736973 
1851	 0.210146961352198 
1852	 0.210088046354191 
1853	 0.210066769463987 
1854	 0.210028603422177 
1855	 0.209934629066384 
1856	 0.20982830672368 
1857	 0.209708048172109 
1858	 0.20956980277103 
1859	 0.209443634514409 
1860	 0.2093039434967 
1861	 0.209166822115525 
1862	 0.209001830182898 
1863	 0.208826692861908 
1864	 0.208601863475223 
1865	 0.208365469454714 
1866	 0.208105557211494 
1867	 0.207802665409201 
1868	 0.207518514341423 
1869	 0.207193474932073 
1870	 0.206834933732283 
1871	 0.206465070691849 
1872	 0.206094461546958 
1873	 0.205668446850439 
1874	 0.205213913510446 
1875	 0.204755115688778 
1876	 0.204249246499237 
1877	 0.20370010906984 
1878	 0.203116185527094 
1879	 0.2024891318203 
1880	 0.201815509118063 
1881	 0.201098480265123 
1882	 0.200337343131774 
1883	 0.199533944226239 
1884	 0.19866758209735 
1885	 0.197774319271438 
1886	 0.196833806418752 
1887	 0.19584552698064 
1888	 0.194831387201893 
1889	 0.193757860863003 
1890	 0.192639262471088 
1891	 0.19154061864911 
1892	 0.190386099129748 
1893	 0.189298823877273 
1894	 0.188229516346872 
1895	 0.187208493955034 
1896	 0.186207205500522 
1897	 0.185226065206671 
1898	 0.184256290732317 
1899	 0.18333794962832 
1900	 0.182465594208956 
1901	 0.181662451057519 
1902	 0.180916935794514 
1903	 0.180246407426108 
1904	 0.179605393325622 
1905	 0.179013606197141 
1906	 0.178479591322069 
1907	 0.177959977268347 
1908	 0.177498302281727 
1909	 0.177112045529719 
1910	 0.176713606215258 
1911	 0.17636416686665 
1912	 0.176046637802253 
1913	 0.17572824821554 
1914	 0.175400514217549 
1915	 0.175127214922579 
1916	 0.174880477520922 
1917	 0.174653095743368 
1918	 0.174479883539467 
1919	 0.174315303712191 
1920	 0.174152458412168 
1921	 0.174010665699752 
1922	 0.173901142705947 
1923	 0.173813068174481 
1924	 0.173738250321297 
1925	 0.173693891795751 
1926	 0.173666505958085 
1927	 0.173652681916989 
1928	 0.173644120440292 
1929	 0.173674979149231 
1930	 0.173730296937274 
1931	 0.173787185828364 
1932	 0.173867499104538 
1933	 0.17396159499125 
1934	 0.174065400579297 
1935	 0.174178174632098 
1936	 0.174304840021733 
1937	 0.174431550985527 
1938	 0.174557960050348 
1939	 0.174703298732189 
1940	 0.17484791269456 
1941	 0.17502102381816 
1942	 0.175213502306802 
1943	 0.17544006123276 
1944	 0.175705027554698 
1945	 0.175952226236006 
1946	 0.176192953274964 
1947	 0.176432849236389 
1948	 0.176671490862806 
1949	 0.176900324238602 
1950	 0.177137794529787 
1951	 0.177374309466217 
1952	 0.177627877380064 
1953	 0.17788569678702 
1954	 0.178142496129322 
1955	 0.178406686218753 
1956	 0.178689711054864 
1957	 0.178960954734868 
1958	 0.179224682131648 
1959	 0.179487232052622 
1960	 0.179744502079205 
1961	 0.180012237694692 
1962	 0.180283838867875 
1963	 0.180559453327642 
1964	 0.180842700404751 
1965	 0.181128844788907 
1966	 0.181410518932028 
1967	 0.181699372184557 
1968	 0.181995363828686 
1969	 0.182306976902599 
1970	 0.182602049794605 
1971	 0.182902716330542 
1972	 0.183187445713744 
1973	 0.183449925925054 
1974	 0.183727359301622 
1975	 0.18400758571444 
1976	 0.18428159133652 
1977	 0.184569049716693 
1978	 0.184839027384252 
1979	 0.185111156746815 
1980	 0.185404020188852 
1981	 0.18567540696387 
1982	 0.185935853489073 
1983	 0.186214608959623 
1984	 0.186482136164141 
1985	 0.186764194516512 
1986	 0.18707855840394 
1987	 0.187373244834578 
1988	 0.187659751714312 
1989	 0.18794713375672 
1990	 0.188240827562302 
1991	 0.188536887310894 
1992	 0.188827369743888 
1993	 0.189126693348863 
1994	 0.189410595961226 
1995	 0.189693945522116 
1996	 0.189949504361646 
1997	 0.190182044673458 
1998	 0.190424314933524 
1999	 0.190637566869227 
2000	 0.190872449896119 
2001	 0.191124157312261 
2002	 0.191374415787035 
2003	 0.191635101672572 
2004	 0.191887092758656 
2005	 0.192137400915577 
2006	 0.192400192391409 
2007	 0.192636469913523 
2008	 0.192835916254826 
2009	 0.193075377004454 
2010	 0.193325518693 
2011	 0.193564134675769 
2012	 0.193832448729353 
2013	 0.1940779502022 
2014	 0.19430046074651 
2015	 0.19451831331856 
2016	 0.194725412349805 
2017	 0.194945881739933 
2018	 0.195171112809714 
2019	 0.195392153898502 
2020	 0.195623762256541 
2021	 0.195882230892939 
2022	 0.196113207804093 
2023	 0.196344857026682 
2024	 0.196558980193355 
2025	 0.196749205693112 
2026	 0.196943731330048 
2027	 0.197132425449069 
2028	 0.197310534299841 
2029	 0.197493265760865 
2030	 0.197669878363893 
2031	 0.197863453977092 
2032	 0.198061867976947 
2033	 0.198262458492482 
2034	 0.198478728363878 
2035	 0.198687948307613 
2036	 0.198908081404427 
2037	 0.199101075757929 
2038	 0.199278830710593 
2039	 0.19945849308027 
2040	 0.199624896583433 
2041	 0.199781530231511 
2042	 0.199947693432439 
2043	 0.200103467133416 
2044	 0.200254123226124 
2045	 0.200389002384218 
2046	 0.200530725422187 
2047	 0.200673136538101 
2048	 0.200814607644069 
2049	 0.20094506696407 
2050	 0.201090281352768 
2051	 0.201253027182732 
2052	 0.201399023759743 
2053	 0.201552073189149 
2054	 0.201691447383338 
2055	 0.201818734449205 
2056	 0.201929714243496 
2057	 0.20204574103032 
2058	 0.202153520286599 
2059	 0.202269107046092 
2060	 0.202383578228993 
2061	 0.202501974930421 
2062	 0.202620507876097 
2063	 0.202749171268416 
2064	 0.202880836202316 
2065	 0.203019018018864 
2066	 0.203183278146237 
2067	 0.203324494859691 
2068	 0.203454897603829 
2069	 0.203585254293372 
2070	 0.203718129705058 
2071	 0.203831014629339 
2072	 0.203977094186346 
2073	 0.204160134115978 
2074	 0.204297660587505 
2075	 0.204440190312831 
2076	 0.204552044641474 
2077	 0.204608018610516 
2078	 0.204702519618572 
2079	 0.204798212634123 
2080	 0.204901588778124 
2081	 0.205043990708108 
2082	 0.205148994611592 
2083	 0.205246634383333 
2084	 0.205312821339853 
2085	 0.205393893136512 
2086	 0.205443323145298 
2087	 0.205539977690977 
2088	 0.205668252038279 
2089	 0.205779211530103 
2090	 0.205920006124113 
2091	 0.206016255623302 
2092	 0.206066639222338 
2093	 0.206156245556541 
2094	 0.206250248132284 
2095	 0.206336216984735 
2096	 0.20643676616058 
2097	 0.206536168063217 
2098	 0.206620797652331 
2099	 0.206719956987778 
2100	 0.206790838984035 
2101	 0.206853847208847 
2102	 0.206937818094899 
2103	 0.206997724477346 
2104	 0.207090933876902 
2105	 0.207236536057135 
2106	 0.207342102659653 
2107	 0.207429539201951 
2108	 0.207527003007973 
2109	 0.207620701378394 
2110	 0.207716789721897 
2111	 0.207821915495032 
2112	 0.207917992223131 
2113	 0.208007606846863 
2114	 0.208095289549238 
2115	 0.208185025043433 
2116	 0.208276714258561 
2117	 0.208358863297131 
2118	 0.208439251042733 
2119	 0.208514372043859 
2120	 0.208566205401688 
2121	 0.208649972362304 
2122	 0.208764956934203 
2123	 0.208843580344555 
2124	 0.208925855504836 
2125	 0.208994491059673 
2126	 0.209038939218424 
2127	 0.209072707862361 
2128	 0.20908901033737 
2129	 0.209117542761832 
2130	 0.209129365536741 
2131	 0.209150147915137 
2132	 0.209180116149694 
2133	 0.20924144566988 
2134	 0.20926536818242 
2135	 0.209296364990915 
2136	 0.209273469583061 
2137	 0.209205646126537 
2138	 0.209151158189366 
2139	 0.209072045125722 
2140	 0.208985951000388 
2141	 0.208907300940424 
2142	 0.208808834357169 
2143	 0.208657929650496 
2144	 0.208544701416439 
2145	 0.208460358793262 
2146	 0.208353563634095 
2147	 0.20824708256432 
2148	 0.208152554544014 
2149	 0.208021817673032 
2150	 0.207865747221703 
2151	 0.207701404041428 
2152	 0.207515066879178 
2153	 0.207336094070098 
2154	 0.207131397401915 
2155	 0.206960179660273 
2156	 0.20680760478267 
2157	 0.206650480052214 
2158	 0.206509844869054 
2159	 0.20636000773074 
2160	 0.206207660465071 
2161	 0.206051721778725 
2162	 0.205897149459264 
2163	 0.20573571845138 
2164	 0.205560465046919 
2165	 0.205391240782605 
2166	 0.205228863804752 
2167	 0.205071680658145 
2168	 0.204905453322447 
2169	 0.204745198057548 
2170	 0.204575191885281 
2171	 0.20438509719368 
2172	 0.204217451735446 
2173	 0.20406651369627 
2174	 0.203896860304867 
2175	 0.203741771849259 
2176	 0.203556145219117 
2177	 0.203323272747188 
2178	 0.203127774043619 
2179	 0.202923497268042 
2180	 0.202740634592147 
2181	 0.202586406028688 
2182	 0.202438829506114 
2183	 0.202279311154551 
2184	 0.202166340326423 
2185	 0.20206818385553 
2186	 0.202003789962475 
2187	 0.201917192093254 
2188	 0.20185778758716 
2189	 0.201761729763534 
2190	 0.201635612757914 
2191	 0.201525393050846 
2192	 0.201401642402685 
2193	 0.201297950666786 
2194	 0.201199761327414 
2195	 0.201114573186943 
2196	 0.201055845423217 
2197	 0.200979532307535 
2198	 0.200907537862708 
2199	 0.200828659079528 
2200	 0.200734666252407 
2201	 0.200646913987646 
2202	 0.20056744661572 
2203	 0.200475199118375 
2204	 0.200387150235271 
2205	 0.200285232268395 
2206	 0.200222999297017 
2207	 0.200172675968794 
2208	 0.20013577580353 
2209	 0.200120660147614 
2210	 0.200125071971259 
2211	 0.200145328090319 
2212	 0.200171284645688 
2213	 0.20023076322496 
2214	 0.200275201779798 
2215	 0.200295839347997 
2216	 0.200354653981083 
2217	 0.20043813123062 
2218	 0.200521314187906 
2219	 0.20063237017587 
2220	 0.200735156557433 
2221	 0.200834047470642 
2222	 0.200936880226119 
2223	 0.201036292099864 
2224	 0.201122756435459 
2225	 0.201221418295859 
2226	 0.201331629323405 
2227	 0.201396754906527 
2228	 0.201456731316814 
2229	 0.20149846504109 
2230	 0.201487771376071 
2231	 0.201509303469089 
2232	 0.201546177832545 
2233	 0.201564732074875 
2234	 0.201574095903072 
2235	 0.201587816356193 
2236	 0.20159808340997 
2237	 0.201607907359825 
2238	 0.20161351138464 
2239	 0.201626834161846 
2240	 0.201637608773593 
2241	 0.201655125209245 
2242	 0.201701914110404 
2243	 0.201719399356496 
2244	 0.201729748304441 
2245	 0.201724170106464 
2246	 0.201697581712581 
2247	 0.201651926000292 
2248	 0.201643664799959 
2249	 0.201651471450391 
2250	 0.201643812439872 
2251	 0.201655062561224 
2252	 0.201644945562906 
2253	 0.201603277971503 
2254	 0.201588369928868 
2255	 0.201579049062181 
2256	 0.201583170891666 
2257	 0.201611832380849 
2258	 0.201617773398576 
2259	 0.201636087470105 
2260	 0.201619277980686 
2261	 0.201545215744444 
2262	 0.201524854832738 
2263	 0.201513340801864 
2264	 0.201513576005735 
2265	 0.201551759028717 
2266	 0.201580861548646 
2267	 0.201627397036879 
2268	 0.201639542820186 
2269	 0.201625695035586 
2270	 0.201629589813089 
2271	 0.201636159267628 
2272	 0.201615548095872 
2273	 0.20162013795446 
2274	 0.201628833672716 
2275	 0.201609442296564 
2276	 0.201549876546805 
2277	 0.201539957511302 
2278	 0.201539329108819 
2279	 0.201539790285333 
2280	 0.201568828026538 
2281	 0.201565798331607 
2282	 0.201554964344909 
2283	 0.201536470816978 
2284	 0.20152516136031 
2285	 0.201467225466865 
2286	 0.201345776007966 
2287	 0.201273649212288 
2288	 0.201173479979737 
2289	 0.201124460572241 
2290	 0.201165357994793 
2291	 0.201148489858152 
2292	 0.201114035700489 
2293	 0.201086755881009 
2294	 0.201031908429214 
2295	 0.200990896672792 
2296	 0.200964814257234 
2297	 0.200937186195107 
2298	 0.200911377860521 
2299	 0.200925745267106 
2300	 0.200941680836441 
2301	 0.200934876455366 
2302	 0.20090120134788 
2303	 0.200829023689647 
2304	 0.200757291536204 
2305	 0.200673498657817 
2306	 0.200578920418262 
2307	 0.200468414211233 
2308	 0.20037638889395 
2309	 0.200294212173486 
2310	 0.20019092286837 
2311	 0.200083037062874 
2312	 0.199975242900096 
2313	 0.199805222653621 
2314	 0.199719268697837 
2315	 0.199724122403425 
2316	 0.199653716742103 
2317	 0.199590705465561 
2318	 0.199526687940976 
2319	 0.19938376265632 
2320	 0.199313237180793 
2321	 0.199292546148974 
2322	 0.19927773766496 
2323	 0.199294953133207 
2324	 0.199305667034053 
2325	 0.199336309096867 
2326	 0.199358662623397 
2327	 0.199374286477214 
2328	 0.199401101093394 
2329	 0.199400249874479 
2330	 0.199409452268302 
2331	 0.199393034812105 
2332	 0.199394713832559 
2333	 0.199458993165869 
2334	 0.199464416833086 
2335	 0.199448899606902 
2336	 0.199462460451514 
2337	 0.199459560866858 
2338	 0.199498111939303 
2339	 0.199523949426969 
2340	 0.199520439255609 
2341	 0.199529825184461 
2342	 0.199486000192197 
2343	 0.199445854224053 
2344	 0.199431969965314 
2345	 0.199373019112835 
2346	 0.199256748592753 
2347	 0.199191223259627 
2348	 0.199121492451161 
2349	 0.199065399835354 
2350	 0.199064965591846 
2351	 0.19901136898707 
2352	 0.198934031833224 
2353	 0.198848391571846 
2354	 0.198715277640011 
2355	 0.198611539539649 
2356	 0.198526313991692 
2357	 0.198431750905738 
2358	 0.198342368436253 
2359	 0.198255914695796 
2360	 0.198169213005043 
2361	 0.198075275312098 
2362	 0.197974031106136 
2363	 0.197881850010857 
2364	 0.197791632519997 
2365	 0.197682739576361 
2366	 0.197602744032199 
2367	 0.197481845613811 
2368	 0.197255077612521 
2369	 0.197142831494548 
2370	 0.19708203388655 
2371	 0.197021583161297 
2372	 0.196978704300541 
2373	 0.196916417952078 
2374	 0.19683585154076 
2375	 0.196685544724372 
2376	 0.196467491122141 
2377	 0.196317293414553 
2378	 0.196136182984357 
2379	 0.195912889305435 
2380	 0.195771402956937 
2381	 0.195613620754424 
2382	 0.195363920148485 
2383	 0.195150198179852 
2384	 0.194962059355929 
2385	 0.194745788673249 
2386	 0.194641976049734 
2387	 0.194547155735975 
2388	 0.194363580506971 
2389	 0.19422543144709 
2390	 0.194007673034307 
2391	 0.193759969443278 
2392	 0.193653358185776 
2393	 0.193508672496943 
2394	 0.193367881270557 
2395	 0.193287784180075 
2396	 0.193100051984258 
2397	 0.192899085699188 
2398	 0.192733252252539 
2399	 0.192509190407376 
2400	 0.192323280232709 
2401	 0.1921671898283 
2402	 0.191955717856243 
2403	 0.191735977755004 
2404	 0.191549500519642 
2405	 0.191412778240009 
2406	 0.191316995567342 
2407	 0.191269286455092 
2408	 0.19116263661952 
2409	 0.19098693008543 
2410	 0.190879830031933 
2411	 0.190692655176673 
2412	 0.190488279622612 
2413	 0.190438978335481 
2414	 0.190308645045824 
2415	 0.190071412879446 
2416	 0.1898715086934 
2417	 0.189646206446956 
2418	 0.189428993160008 
2419	 0.189247454694163 
2420	 0.189018388866201 
2421	 0.188751863220882 
2422	 0.18850144247794 
2423	 0.188191270334545 
2424	 0.187970864174583 
2425	 0.187840964886294 
2426	 0.187650960585715 
2427	 0.18749048771372 
2428	 0.187289985966276 
2429	 0.186995481407484 
2430	 0.186792617046772 
2431	 0.18661507807531 
2432	 0.186420658835965 
2433	 0.186309220637198 
2434	 0.186127605225164 
2435	 0.185888354140244 
2436	 0.185709416602037 
2437	 0.185558942289341 
2438	 0.185352145122251 
2439	 0.185108833157743 
2440	 0.184889803930721 
2441	 0.184653213637381 
2442	 0.184396775874737 
2443	 0.184194276361448 
2444	 0.183950854006592 
2445	 0.183572762637952 
2446	 0.183365855541348 
2447	 0.183251779611175 
2448	 0.183065706078485 
2449	 0.182958845454065 
2450	 0.182770042195824 
2451	 0.182509885924558 
2452	 0.182310417359856 
2453	 0.182112848966251 
2454	 0.181944253510104 
2455	 0.181806137708163 
2456	 0.181625586173539 
2457	 0.181427781956311 
2458	 0.181226728965593 
2459	 0.181015101642612 
2460	 0.180805519515669 
2461	 0.180629238891235 
2462	 0.180434633303219 
2463	 0.180190615689069 
2464	 0.179960283588015 
2465	 0.179736110558008 
2466	 0.179459025246699 
2467	 0.179168883836433 
2468	 0.178949465737818 
2469	 0.178696178021678 
2470	 0.178561407535263 
2471	 0.178370598470729 
2472	 0.178154576384169 
2473	 0.177958574845809 
2474	 0.177763343146623 
2475	 0.177615063948384 
2476	 0.177390859666575 
2477	 0.177248016581822 
2478	 0.177105091065276 
2479	 0.176867127877295 
2480	 0.176802700400642 
2481	 0.176605166509263 
2482	 0.176295650104468 
2483	 0.176255969297005 
2484	 0.176066100135743 
2485	 0.175675270251534 
2486	 0.175529362670185 
2487	 0.17539312702504 
2488	 0.175207691508481 
2489	 0.175289845152788 
2490	 0.175343123073656 
2491	 0.17505760625573 
2492	 0.174688619077541 
2493	 0.174373386253896 
2494	 0.173925347240146 
2495	 0.173685195911942 
2496	 0.173727309933052 
2497	 0.173580751932101 
2498	 0.173522631057654 
2499	 0.173582829102076 
2500	 0.173461101143703 
