Wavelength	LMW400003.asd
350	 0.124577831490565 
351	 0.129830286167334 
352	 0.129723985328577 
353	 0.121260452713125 
354	 0.118604926095797 
355	 0.118412820609174 
356	 0.121892317109969 
357	 0.128328061837713 
358	 0.126734931325013 
359	 0.126865208944361 
360	 0.130604881901617 
361	 0.133984409590071 
362	 0.132153976584905 
363	 0.129840715548358 
364	 0.129902823408012 
365	 0.130590677591183 
366	 0.130671655338267 
367	 0.132403774518953 
368	 0.137227823528164 
369	 0.140086993670374 
370	 0.140786937560438 
371	 0.139434957107998 
372	 0.136691487417914 
373	 0.137390606204044 
374	 0.13891067964953 
375	 0.139732515077387 
376	 0.142213969691944 
377	 0.14245189496381 
378	 0.143849267318998 
379	 0.148988229569129 
380	 0.147803868329298 
381	 0.145825255013652 
382	 0.145852205800192 
383	 0.147825359401265 
384	 0.148539096465806 
385	 0.147633723363729 
386	 0.146787419642835 
387	 0.150939351050059 
388	 0.152599514536496 
389	 0.152309459276135 
390	 0.152916465720426 
391	 0.154490687832846 
392	 0.156042682912964 
393	 0.157535956094097 
394	 0.159642434431036 
395	 0.159643966648956 
396	 0.159957473486163 
397	 0.161889756455477 
398	 0.162652985961408 
399	 0.163087394450151 
400	 0.16394614156161 
401	 0.165503466402047 
402	 0.165268151592516 
403	 0.165723806670398 
404	 0.167205648673196 
405	 0.167672879760889 
406	 0.168592326040056 
407	 0.170025521605375 
408	 0.171219533487674 
409	 0.169814484113793 
410	 0.1696107984967 
411	 0.170337202912845 
412	 0.170145752421297 
413	 0.171070354179365 
414	 0.17199819443228 
415	 0.172293312166773 
416	 0.172245115631043 
417	 0.172814969956821 
418	 0.173504336701202 
419	 0.173727079112635 
420	 0.173928431530349 
421	 0.174056889436011 
422	 0.174370182236554 
423	 0.175202685703578 
424	 0.175480610101786 
425	 0.175535844829168 
426	 0.175706404728609 
427	 0.17603202139118 
428	 0.175929251026902 
429	 0.17596391804831 
430	 0.176698160760993 
431	 0.17671927377864 
432	 0.176737479887089 
433	 0.177154394629348 
434	 0.177938370302937 
435	 0.178128359086376 
436	 0.178028412949624 
437	 0.178028132252462 
438	 0.177958447341826 
439	 0.17837373125152 
440	 0.178953374273379 
441	 0.179065069634444 
442	 0.179473205154136 
443	 0.179858819891525 
444	 0.180035479676034 
445	 0.180155880495199 
446	 0.18049386314665 
447	 0.180946448974805 
448	 0.181305033866059 
449	 0.181453508532186 
450	 0.181683268792075 
451	 0.182041762039229 
452	 0.182356575469923 
453	 0.182596698313425 
454	 0.182647982055019 
455	 0.182572921391632 
456	 0.182886187845535 
457	 0.183223868831792 
458	 0.183525726646899 
459	 0.183827327206366 
460	 0.183837066134549 
461	 0.183820976867641 
462	 0.183968745640757 
463	 0.18429361911548 
464	 0.184685097296137 
465	 0.184950750385411 
466	 0.184973037300512 
467	 0.184949438319973 
468	 0.185131877811583 
469	 0.185481780225344 
470	 0.185735719266673 
471	 0.186039877943678 
472	 0.186215916845311 
473	 0.186190151569975 
474	 0.186226220514263 
475	 0.18633075172218 
476	 0.18651468174685 
477	 0.186764499681411 
478	 0.186971863300998 
479	 0.187195965930346 
480	 0.187431459006009 
481	 0.187561899068726 
482	 0.187700626900659 
483	 0.187853499741289 
484	 0.188013700203989 
485	 0.188277151062761 
486	 0.188354023634002 
487	 0.188323156180283 
488	 0.188549737884784 
489	 0.188744938157194 
490	 0.188880408298806 
491	 0.18896534544223 
492	 0.188977937304558 
493	 0.188963060468596 
494	 0.189044396839268 
495	 0.189321727826976 
496	 0.189446905437613 
497	 0.189474505187518 
498	 0.18955772897232 
499	 0.18994535981604 
500	 0.190121384638914 
501	 0.190149917451893 
502	 0.190232541786047 
503	 0.190317516298022 
504	 0.190499970975718 
505	 0.190696481487996 
506	 0.19067915306362 
507	 0.190752013719504 
508	 0.190884776759961 
509	 0.191003742715741 
510	 0.191108550404993 
511	 0.191175023914116 
512	 0.19125924669636 
513	 0.19143495329424 
514	 0.191512191283883 
515	 0.191607681104214 
516	 0.191756838467774 
517	 0.191790918952927 
518	 0.191899319298321 
519	 0.192015094731532 
520	 0.192033936393102 
521	 0.192114380906705 
522	 0.192222104329307 
523	 0.192340638007027 
524	 0.19248281562975 
525	 0.192590619670124 
526	 0.192608573765299 
527	 0.192551117946765 
528	 0.192631301542747 
529	 0.192754876022366 
530	 0.19287326895887 
531	 0.192970367645933 
532	 0.193027601365781 
533	 0.193115565738754 
534	 0.193250830687188 
535	 0.19330281060088 
536	 0.193434319482418 
537	 0.193582296710051 
538	 0.193624180390439 
539	 0.193684335057392 
540	 0.193762514329114 
541	 0.193845844447356 
542	 0.193918667691248 
543	 0.193991313709948 
544	 0.194070746154079 
545	 0.194159923647578 
546	 0.194250597522009 
547	 0.194344679335234 
548	 0.194426069306318 
549	 0.194467331394758 
550	 0.194521043389213 
551	 0.194594329934312 
552	 0.194705160279976 
553	 0.194948360145039 
554	 0.195081527890658 
555	 0.195114198023068 
556	 0.195190126855536 
557	 0.195320352283397 
558	 0.195460407153122 
559	 0.195596164388351 
560	 0.195796098646609 
561	 0.195805849293874 
562	 0.195740214808477 
563	 0.195815349516554 
564	 0.196018921856833 
565	 0.196120752210444 
566	 0.196126588767835 
567	 0.196313480896538 
568	 0.196484870195235 
569	 0.196666945231955 
570	 0.196890643094425 
571	 0.197028387584629 
572	 0.197157843025942 
573	 0.197310860088704 
574	 0.197472863023039 
575	 0.197479889148299 
576	 0.197514979364806 
577	 0.197676971052445 
578	 0.197762178478821 
579	 0.19784567180035 
580	 0.197952947050769 
581	 0.1980953584543 
582	 0.198303403768283 
583	 0.198522123011499 
584	 0.198717267036559 
585	 0.198899365961999 
586	 0.198941481617446 
587	 0.198954095300174 
588	 0.199066817675725 
589	 0.199157715617154 
590	 0.199240972604335 
591	 0.199325085569466 
592	 0.199411740039379 
593	 0.199551550250776 
594	 0.199661597128878 
595	 0.199705782831683 
596	 0.199835846417611 
597	 0.200037071477932 
598	 0.200243251198561 
599	 0.20037133048386 
600	 0.200490414308266 
601	 0.200617977043234 
602	 0.200734604492427 
603	 0.20076372520627 
604	 0.200775560778654 
605	 0.200806909719071 
606	 0.200886029098904 
607	 0.201068371881115 
608	 0.20119803291931 
609	 0.201256460959037 
610	 0.201392475766173 
611	 0.201498061077494 
612	 0.201602215300273 
613	 0.201742821585228 
614	 0.201882402783818 
615	 0.202005982689698 
616	 0.202108999089678 
617	 0.202193059824362 
618	 0.202231421886937 
619	 0.20227083421141 
620	 0.202349500343396 
621	 0.202473305815714 
622	 0.202562960884362 
623	 0.202616357520982 
624	 0.202670374820519 
625	 0.202776955296066 
626	 0.202847747864794 
627	 0.202863989635902 
628	 0.202911401903759 
629	 0.203030056812984 
630	 0.203141576715101 
631	 0.203179008392816 
632	 0.203267788298663 
633	 0.203318159666907 
634	 0.203343120569125 
635	 0.20343421888565 
636	 0.203481631333695 
637	 0.203519498069332 
638	 0.203577846628753 
639	 0.203607043086016 
640	 0.203697009208775 
641	 0.20381095662887 
642	 0.203863896668409 
643	 0.203904111825648 
644	 0.203955273679534 
645	 0.204034090440146 
646	 0.204153466713295 
647	 0.204189018054594 
648	 0.204194872345235 
649	 0.204256308414135 
650	 0.20435019472232 
651	 0.204374890027759 
652	 0.204349668848876 
653	 0.204396579093772 
654	 0.204492329113384 
655	 0.204557757291363 
656	 0.204564339404413 
657	 0.204637287940389 
658	 0.204711104654178 
659	 0.204773860918606 
660	 0.204833511923595 
661	 0.204855888939703 
662	 0.204903660567332 
663	 0.20499601532622 
664	 0.205078476158551 
665	 0.205120023875376 
666	 0.205147833529214 
667	 0.205190238353478 
668	 0.20518491241274 
669	 0.205251254196009 
670	 0.205362891984215 
671	 0.205379838872018 
672	 0.205436397433635 
673	 0.205511881864372 
674	 0.205574795249298 
675	 0.205631537504788 
676	 0.205694106232084 
677	 0.205739715989159 
678	 0.205744946715886 
679	 0.205795336915917 
680	 0.205828427189032 
681	 0.205861410592892 
682	 0.206031637884822 
683	 0.206074557794839 
684	 0.206068989987645 
685	 0.206138134296132 
686	 0.20621429808629 
687	 0.20628006320373 
688	 0.206340632776079 
689	 0.206413470285983 
690	 0.206455683629861 
691	 0.20645593802669 
692	 0.206447559840832 
693	 0.206549177428579 
694	 0.206610975963376 
695	 0.206651042908006 
696	 0.206727947051481 
697	 0.206756499918984 
698	 0.206804174559348 
699	 0.206890062754095 
700	 0.206972767560612 
701	 0.207016423608868 
702	 0.20704761355293 
703	 0.207088594051516 
704	 0.207107167635624 
705	 0.207100396820331 
706	 0.207116348488696 
707	 0.207207005576816 
708	 0.20722044978939 
709	 0.207252564879925 
710	 0.207332330783946 
711	 0.207355038210573 
712	 0.207375163381745 
713	 0.207398487505695 
714	 0.20742377659457 
715	 0.207468250886224 
716	 0.207543930343911 
717	 0.207624298796531 
718	 0.207657940986415 
719	 0.207647671555268 
720	 0.20764303656596 
721	 0.207673637665479 
722	 0.207718551067176 
723	 0.207776452975196 
724	 0.207847178660107 
725	 0.207914222438745 
726	 0.207871379463815 
727	 0.207872304969268 
728	 0.207937107697499 
729	 0.207955957631693 
730	 0.208017897536159 
731	 0.208049234837619 
732	 0.208008797471259 
733	 0.20798967529118 
734	 0.208043159894591 
735	 0.208107369665658 
736	 0.208097224887367 
737	 0.208127706067396 
738	 0.208169668449846 
739	 0.208186410163884 
740	 0.208148464497553 
741	 0.208159282418632 
742	 0.208200469859973 
743	 0.208235050365234 
744	 0.208256271427503 
745	 0.208260517344499 
746	 0.20825846141652 
747	 0.208266561121335 
748	 0.208282890866582 
749	 0.208318195559501 
750	 0.208348297842084 
751	 0.208308782628149 
752	 0.208260240955322 
753	 0.208250305493294 
754	 0.208295610282871 
755	 0.208341068506426 
756	 0.208373884086868 
757	 0.208365536214018 
758	 0.208301214069089 
759	 0.208301408156901 
760	 0.208315965561225 
761	 0.208316183151681 
762	 0.208321755558702 
763	 0.208337004993468 
764	 0.208351069804693 
765	 0.208349896555696 
766	 0.208317814748662 
767	 0.208309508751824 
768	 0.208311189462605 
769	 0.208285012111796 
770	 0.208297058562472 
771	 0.208320778000589 
772	 0.208323769278244 
773	 0.208280122737587 
774	 0.208290618758277 
775	 0.208301631745116 
776	 0.208263528789193 
777	 0.208231884214936 
778	 0.20824438802658 
779	 0.208271643474629 
780	 0.208262438604376 
781	 0.208255846776246 
782	 0.208275221367195 
783	 0.208291022338855 
784	 0.208227445804954 
785	 0.208219427979081 
786	 0.208264507716906 
787	 0.208306234238142 
788	 0.208219354831682 
789	 0.208191266603226 
790	 0.20821832910843 
791	 0.208228522609895 
792	 0.208215820510954 
793	 0.208218380798355 
794	 0.208231529001163 
795	 0.20821619362373 
796	 0.208226790515462 
797	 0.208226160801381 
798	 0.20819210101107 
799	 0.208152552110842 
800	 0.208158808817954 
801	 0.208208258447972 
802	 0.20825740324968 
803	 0.208180222596985 
804	 0.208187685368912 
805	 0.208256581197639 
806	 0.208232164418724 
807	 0.208260305959969 
808	 0.20824012157099 
809	 0.208165185179659 
810	 0.208179645990695 
811	 0.208213642738869 
812	 0.208209133755581 
813	 0.208163848873171 
814	 0.208222641340962 
815	 0.208255956391118 
816	 0.208231795759709 
817	 0.208175956837459 
818	 0.20817073597701 
819	 0.208217457170039 
820	 0.208279692414312 
821	 0.208296300202984 
822	 0.208258724339561 
823	 0.208215159377235 
824	 0.20820220879047 
825	 0.208221343508581 
826	 0.208222780712446 
827	 0.208246531692181 
828	 0.20831205440935 
829	 0.208296104767708 
830	 0.208230486694359 
831	 0.208186570369463 
832	 0.208230259425129 
833	 0.20826632141753 
834	 0.208321201328717 
835	 0.208369586926518 
836	 0.208340531096535 
837	 0.208311024579181 
838	 0.208312038021329 
839	 0.208336553878731 
840	 0.208327349423173 
841	 0.2083692228777 
842	 0.208359930156232 
843	 0.208246689050373 
844	 0.208291125137894 
845	 0.208354016369416 
846	 0.208368941654504 
847	 0.208329683791365 
848	 0.208354980930634 
849	 0.208363666231278 
850	 0.208358527814165 
851	 0.208408731202483 
852	 0.208378345627863 
853	 0.208326590203163 
854	 0.208317719060225 
855	 0.208377618539955 
856	 0.208427613862698 
857	 0.208463309086827 
858	 0.20848472749425 
859	 0.208448607950664 
860	 0.208424977323768 
861	 0.20843744968645 
862	 0.20848161707942 
863	 0.208525921006569 
864	 0.208542872561044 
865	 0.208547270821817 
866	 0.208567965425331 
867	 0.208521108511863 
868	 0.208537446982658 
869	 0.208599773684326 
870	 0.208539893273659 
871	 0.208503997040595 
872	 0.208507043046015 
873	 0.208544384164746 
874	 0.208615203250805 
875	 0.208636085690608 
876	 0.208622003606195 
877	 0.208619397838026 
878	 0.208684225246387 
879	 0.208746072980169 
880	 0.208753776499665 
881	 0.20870828180756 
882	 0.208777618926819 
883	 0.20882870631546 
884	 0.208821117535275 
885	 0.20879024564016 
886	 0.208842579535716 
887	 0.208918294683693 
888	 0.208950722616025 
889	 0.208897747828517 
890	 0.208864933962287 
891	 0.208885019494368 
892	 0.208961592730509 
893	 0.209067824325367 
894	 0.209016348541626 
895	 0.208964428410374 
896	 0.209025079702187 
897	 0.20910354830847 
898	 0.209157442613113 
899	 0.209165581414081 
900	 0.209129746487977 
901	 0.209067686555858 
902	 0.209139388578189 
903	 0.209255784826762 
904	 0.209284832778116 
905	 0.209300021246891 
906	 0.209334167593367 
907	 0.209367960781635 
908	 0.209371439166689 
909	 0.209404916949375 
910	 0.209442921921271 
911	 0.209468159122771 
912	 0.209481091570872 
913	 0.209546267744509 
914	 0.209547982073031 
915	 0.209512219621898 
916	 0.209579581598558 
917	 0.209603880884936 
918	 0.209627102321923 
919	 0.209690648862513 
920	 0.2097954686401 
921	 0.209785693346566 
922	 0.209748829092327 
923	 0.209767034812109 
924	 0.20984190731443 
925	 0.209845649854922 
926	 0.209891778610818 
927	 0.210021510799768 
928	 0.21005119896382 
929	 0.210158903841308 
930	 0.210242560464498 
931	 0.210213144263531 
932	 0.210171782908947 
933	 0.210182366797466 
934	 0.210213415388933 
935	 0.210227628577125 
936	 0.210275828873613 
937	 0.210266258053169 
938	 0.210252549673867 
939	 0.210313840387902 
940	 0.21043933754334 
941	 0.210527503153927 
942	 0.210577388135371 
943	 0.210613279792146 
944	 0.210558255554837 
945	 0.210594104321069 
946	 0.210728502694368 
947	 0.210859301763459 
948	 0.210835168734549 
949	 0.210820956335587 
950	 0.21080147374916 
951	 0.210728904614888 
952	 0.210907884049645 
953	 0.211052428546409 
954	 0.21109496155767 
955	 0.211118659554094 
956	 0.211169258974131 
957	 0.211176998191288 
958	 0.211174641999839 
959	 0.21123347835579 
960	 0.211239430871764 
961	 0.211285657124182 
962	 0.21136445581848 
963	 0.211402718939537 
964	 0.211404869690301 
965	 0.211450609135656 
966	 0.211553838048566 
967	 0.211665159700613 
968	 0.21169678543946 
969	 0.211666705187074 
970	 0.211662422747801 
971	 0.211770462009725 
972	 0.211834727100303 
973	 0.211937474511363 
974	 0.212047034032602 
975	 0.212076669979972 
976	 0.212143911358841 
977	 0.212264571139911 
978	 0.212337318126927 
979	 0.212254194778766 
980	 0.212272440006758 
981	 0.212244261055804 
982	 0.212241772403207 
983	 0.212418696955713 
984	 0.212545435904377 
985	 0.212606229661601 
986	 0.212609255413739 
987	 0.212592219702408 
988	 0.212663803703743 
989	 0.212738481613485 
990	 0.212763715151915 
991	 0.212748085596681 
992	 0.212845250626287 
993	 0.212882137820295 
994	 0.212897673144925 
995	 0.212992140055448 
996	 0.213069026375144 
997	 0.213120087955911 
998	 0.213200981677153 
999	 0.21335218623942 
1000	 0.21348205130382 
1001	 0.214663012007642 
1002	 0.214604610542801 
1003	 0.21462963192651 
1004	 0.214661793830833 
1005	 0.214758686616071 
1006	 0.214802845949395 
1007	 0.214856512248267 
1008	 0.214848917814332 
1009	 0.214857371103045 
1010	 0.214867773581017 
1011	 0.214889562542106 
1012	 0.214972187276329 
1013	 0.214959974244692 
1014	 0.21492027578216 
1015	 0.214986423871655 
1016	 0.215010368614853 
1017	 0.215039601912622 
1018	 0.215086316328697 
1019	 0.215193586618363 
1020	 0.215203301628683 
1021	 0.215223595969258 
1022	 0.215321033612678 
1023	 0.21539005464334 
1024	 0.215474196326188 
1025	 0.215538976018248 
1026	 0.215541607509193 
1027	 0.215501978585253 
1028	 0.215452055756488 
1029	 0.215463180306145 
1030	 0.215473474562544 
1031	 0.215473390501602 
1032	 0.215489631353332 
1033	 0.215532059134146 
1034	 0.215529844676121 
1035	 0.215534663893834 
1036	 0.215591292577921 
1037	 0.21560030829775 
1038	 0.215585430774403 
1039	 0.21564907612292 
1040	 0.21569836947047 
1041	 0.215713096449897 
1042	 0.215763554078583 
1043	 0.215754969377669 
1044	 0.215773893687411 
1045	 0.215772868299724 
1046	 0.215844464192465 
1047	 0.215887785186204 
1048	 0.215948819147326 
1049	 0.216003420150631 
1050	 0.216071532562432 
1051	 0.21618827617682 
1052	 0.21627117944565 
1053	 0.21630297826159 
1054	 0.216305236823298 
1055	 0.216288353092045 
1056	 0.216270648816204 
1057	 0.216294953056619 
1058	 0.216375519668355 
1059	 0.216423875824572 
1060	 0.216479259477932 
1061	 0.216540699166775 
1062	 0.216552193363351 
1063	 0.216568450920323 
1064	 0.216611405710284 
1065	 0.216595474789512 
1066	 0.216610622747703 
1067	 0.216622399915118 
1068	 0.216599688565779 
1069	 0.216625087948822 
1070	 0.216646513225085 
1071	 0.216688960075203 
1072	 0.216710264766357 
1073	 0.216728289495526 
1074	 0.216732553983467 
1075	 0.216731327513537 
1076	 0.216707414300775 
1077	 0.216679756681641 
1078	 0.216672078634519 
1079	 0.216633729827655 
1080	 0.216561316966436 
1081	 0.216501764095463 
1082	 0.216491470645351 
1083	 0.216471580277728 
1084	 0.216471907717648 
1085	 0.216458858865459 
1086	 0.216444843893017 
1087	 0.216420506539649 
1088	 0.21638327354553 
1089	 0.216369909727314 
1090	 0.216350955137109 
1091	 0.216319667573851 
1092	 0.21628900770689 
1093	 0.216265777620467 
1094	 0.216273846854054 
1095	 0.216290976880377 
1096	 0.216280333371374 
1097	 0.216284815534692 
1098	 0.216302552243833 
1099	 0.21631075400152 
1100	 0.216333648117607 
1101	 0.216407120231109 
1102	 0.216432818636504 
1103	 0.216442690783377 
1104	 0.21643620568046 
1105	 0.216411476042683 
1106	 0.216393810727135 
1107	 0.216398125946974 
1108	 0.216384405604706 
1109	 0.216392177977062 
1110	 0.216431650020508 
1111	 0.216480222903335 
1112	 0.216564728724921 
1113	 0.216620714077139 
1114	 0.216681411490565 
1115	 0.21672010837065 
1116	 0.216725882758235 
1117	 0.216763240528266 
1118	 0.216809830900624 
1119	 0.216852366820966 
1120	 0.216920518265345 
1121	 0.216963816535653 
1122	 0.216973287418297 
1123	 0.217020509311726 
1124	 0.217070054990086 
1125	 0.217123291299586 
1126	 0.217176114649957 
1127	 0.217240452028959 
1128	 0.217295788596763 
1129	 0.217345891592366 
1130	 0.217405157423082 
1131	 0.217483755555427 
1132	 0.2175340159276 
1133	 0.217557681329766 
1134	 0.217598848487765 
1135	 0.217626528263125 
1136	 0.21767671098372 
1137	 0.217733121445892 
1138	 0.217788321349559 
1139	 0.217820029063353 
1140	 0.217818819872312 
1141	 0.217849629790309 
1142	 0.217879432633226 
1143	 0.217917037015439 
1144	 0.217987390510399 
1145	 0.218019900936227 
1146	 0.218031758654178 
1147	 0.218054892858925 
1148	 0.218057357858033 
1149	 0.218079081106842 
1150	 0.218121820111388 
1151	 0.218148950737777 
1152	 0.218202691506127 
1153	 0.218238262178429 
1154	 0.218275220656794 
1155	 0.218325152018234 
1156	 0.218348945815918 
1157	 0.218355048853872 
1158	 0.218360741965148 
1159	 0.218346436882821 
1160	 0.21834536044294 
1161	 0.218344879645663 
1162	 0.218351784531435 
1163	 0.218355203224248 
1164	 0.218377116145154 
1165	 0.21842351110278 
1166	 0.218455424459134 
1167	 0.218481339273093 
1168	 0.218502641494588 
1169	 0.218519680629884 
1170	 0.218519080333915 
1171	 0.218524140098726 
1172	 0.218537034089806 
1173	 0.218539406797478 
1174	 0.21852428417699 
1175	 0.218521373897926 
1176	 0.21852366440834 
1177	 0.218525487704291 
1178	 0.218530624077311 
1179	 0.218534221116307 
1180	 0.218534375148875 
1181	 0.218539247389281 
1182	 0.218556351903236 
1183	 0.218559225666141 
1184	 0.218552980418953 
1185	 0.218534320743911 
1186	 0.218538579132826 
1187	 0.218538833192042 
1188	 0.218548200119303 
1189	 0.218586914414818 
1190	 0.218598847946889 
1191	 0.218592969121809 
1192	 0.218595832054075 
1193	 0.218595364021656 
1194	 0.218598891738642 
1195	 0.218606240100978 
1196	 0.218611614291123 
1197	 0.218615550008726 
1198	 0.21862284477992 
1199	 0.218631482066289 
1200	 0.218640679006221 
1201	 0.218651038397115 
1202	 0.218662662607834 
1203	 0.218677740114314 
1204	 0.218694592479913 
1205	 0.218711689042727 
1206	 0.218738497972876 
1207	 0.21875132488697 
1208	 0.218758198158666 
1209	 0.218763197731383 
1210	 0.218747655309941 
1211	 0.218755265063837 
1212	 0.218785702200623 
1213	 0.218796659143091 
1214	 0.21881245502017 
1215	 0.218821610047052 
1216	 0.218822261929403 
1217	 0.218799740339065 
1218	 0.218797915125591 
1219	 0.218802071628252 
1220	 0.218806670593066 
1221	 0.218813088255024 
1222	 0.218823385942512 
1223	 0.218846945490103 
1224	 0.218851044102261 
1225	 0.218846833055866 
1226	 0.218846215231133 
1227	 0.218831867898171 
1228	 0.218825850965516 
1229	 0.218828694660212 
1230	 0.218829971391843 
1231	 0.218826420069667 
1232	 0.218829671935363 
1233	 0.218836778665456 
1234	 0.218847497300917 
1235	 0.218862320595105 
1236	 0.218886413595122 
1237	 0.21890100245031 
1238	 0.21891715609264 
1239	 0.218928942773199 
1240	 0.218935937841798 
1241	 0.218939375883522 
1242	 0.21894333454326 
1243	 0.218939307093915 
1244	 0.21891772257708 
1245	 0.218912511211192 
1246	 0.218910080035856 
1247	 0.21891116794938 
1248	 0.218925882030373 
1249	 0.218938967143183 
1250	 0.218931871261461 
1251	 0.218927746688752 
1252	 0.218913322825378 
1253	 0.218876474381971 
1254	 0.218866269160689 
1255	 0.218864013799055 
1256	 0.218860341317279 
1257	 0.218867465029897 
1258	 0.21887356369269 
1259	 0.218882972312412 
1260	 0.218884840351471 
1261	 0.218897584093679 
1262	 0.218889805230345 
1263	 0.218854435560659 
1264	 0.218832339543325 
1265	 0.218806031062502 
1266	 0.21878422298105 
1267	 0.218767316586124 
1268	 0.218759181001689 
1269	 0.21874324640947 
1270	 0.218717238664886 
1271	 0.218711896710956 
1272	 0.218709553312025 
1273	 0.218722107216963 
1274	 0.218753643732804 
1275	 0.218784125809365 
1276	 0.218824441634161 
1277	 0.218859626224749 
1278	 0.218892929053329 
1279	 0.218936039821364 
1280	 0.218980911588547 
1281	 0.219033361339354 
1282	 0.2191069726549 
1283	 0.219165415321077 
1284	 0.219226255895867 
1285	 0.219271627921076 
1286	 0.219309475900326 
1287	 0.219341450766946 
1288	 0.219364408146658 
1289	 0.219381291152853 
1290	 0.21938302817112 
1291	 0.219365513190716 
1292	 0.219361505472638 
1293	 0.219358614467774 
1294	 0.219339643026453 
1295	 0.219316005488898 
1296	 0.219292670260356 
1297	 0.219264018249473 
1298	 0.219219277203279 
1299	 0.21917745148404 
1300	 0.219121760448589 
1301	 0.219032962418282 
1302	 0.218954185977271 
1303	 0.21886564727664 
1304	 0.218796585564365 
1305	 0.218746553488889 
1306	 0.21868393284179 
1307	 0.218631670301914 
1308	 0.218559661352894 
1309	 0.218489400861014 
1310	 0.218402014279369 
1311	 0.218333035157949 
1312	 0.218278499106617 
1313	 0.21820719783809 
1314	 0.218126456101843 
1315	 0.218052164395026 
1316	 0.217953607996038 
1317	 0.217901188926957 
1318	 0.217884271628542 
1319	 0.217852454994561 
1320	 0.217851319589274 
1321	 0.217826893673366 
1322	 0.217782076666142 
1323	 0.217735440163527 
1324	 0.217712135733102 
1325	 0.217677782160835 
1326	 0.217661539683596 
1327	 0.217662270350833 
1328	 0.21763924780313 
1329	 0.217639359915304 
1330	 0.217634601285774 
1331	 0.217621824800811 
1332	 0.217627510738341 
1333	 0.217645877589788 
1334	 0.217660360883757 
1335	 0.217683273446741 
1336	 0.217707208616452 
1337	 0.217727135706339 
1338	 0.217758905940559 
1339	 0.217806513703098 
1340	 0.217843500584274 
1341	 0.217883395015305 
1342	 0.217918638842262 
1343	 0.217952649226637 
1344	 0.217970893964869 
1345	 0.217996945945446 
1346	 0.218023141279706 
1347	 0.21803452418734 
1348	 0.21805759746611 
1349	 0.218084705338392 
1350	 0.21810102217657 
1351	 0.218127299612492 
1352	 0.218160959376012 
1353	 0.218192556808393 
1354	 0.218233950269679 
1355	 0.218253572257126 
1356	 0.218261748748939 
1357	 0.218277311469483 
1358	 0.218277564168636 
1359	 0.218293064500852 
1360	 0.21831379663062 
1361	 0.218342730836098 
1362	 0.218389157089902 
1363	 0.218422759213324 
1364	 0.218464977488133 
1365	 0.218499139576587 
1366	 0.218531040806132 
1367	 0.218532923373613 
1368	 0.218546173316216 
1369	 0.218560061502195 
1370	 0.21855952567546 
1371	 0.218560073481423 
1372	 0.2185612394702 
1373	 0.218549172796691 
1374	 0.218530365453643 
1375	 0.218511591311714 
1376	 0.218470412755784 
1377	 0.218416842425651 
1378	 0.21834902114481 
1379	 0.218257256964443 
1380	 0.21817495051001 
1381	 0.218079809707529 
1382	 0.217990893557875 
1383	 0.217916058338032 
1384	 0.217818668492292 
1385	 0.217729936111479 
1386	 0.217608079731648 
1387	 0.217456059466104 
1388	 0.217300415931319 
1389	 0.217138176907334 
1390	 0.216938061463801 
1391	 0.216734939208355 
1392	 0.216523218115278 
1393	 0.216273141720335 
1394	 0.216029944578903 
1395	 0.215776616487565 
1396	 0.215516431875196 
1397	 0.215252608629029 
1398	 0.214977544757357 
1399	 0.214709828658158 
1400	 0.21444190663789 
1401	 0.214175939867675 
1402	 0.213911846787223 
1403	 0.213654139012464 
1404	 0.213381779002549 
1405	 0.213145110046749 
1406	 0.212928525093899 
1407	 0.212723889212122 
1408	 0.212542027047592 
1409	 0.212364469064752 
1410	 0.212189898905731 
1411	 0.212035070715078 
1412	 0.211892157774719 
1413	 0.211769965613601 
1414	 0.211671236368878 
1415	 0.211571870205153 
1416	 0.211461180590614 
1417	 0.211373558494714 
1418	 0.211298169737162 
1419	 0.211217775721044 
1420	 0.211153716968354 
1421	 0.211086055352163 
1422	 0.211006509913961 
1423	 0.210930901110694 
1424	 0.210860234664515 
1425	 0.210793659793211 
1426	 0.210739609613117 
1427	 0.210684746541674 
1428	 0.210646990148044 
1429	 0.210628789646127 
1430	 0.210609762851809 
1431	 0.210596528682886 
1432	 0.210591329620891 
1433	 0.210597752383285 
1434	 0.210599917768344 
1435	 0.210608230033112 
1436	 0.210614418797585 
1437	 0.210613327596259 
1438	 0.210621212493793 
1439	 0.210635683690828 
1440	 0.210648333253956 
1441	 0.210662877966662 
1442	 0.210687779490743 
1443	 0.210701511546434 
1444	 0.210709326417778 
1445	 0.210725539987097 
1446	 0.210715648488027 
1447	 0.210700918429241 
1448	 0.210695823819251 
1449	 0.210672932858291 
1450	 0.210672343181382 
1451	 0.210670958134174 
1452	 0.210671495426041 
1453	 0.210677469225087 
1454	 0.210686897748992 
1455	 0.210703076458701 
1456	 0.210729805924083 
1457	 0.21075539885535 
1458	 0.210787138865747 
1459	 0.210815936647677 
1460	 0.210844899674115 
1461	 0.210870848500072 
1462	 0.210899916217374 
1463	 0.210922015649707 
1464	 0.210933900269284 
1465	 0.210953687573119 
1466	 0.21097669360487 
1467	 0.210995327527395 
1468	 0.211014448363225 
1469	 0.211032052403343 
1470	 0.211049145107252 
1471	 0.211057777641133 
1472	 0.211058063306153 
1473	 0.211082976995971 
1474	 0.211099588527401 
1475	 0.211123944432346 
1476	 0.211173435732698 
1477	 0.211208036775418 
1478	 0.211269524090938 
1479	 0.211352937744538 
1480	 0.211448289624179 
1481	 0.211575916876737 
1482	 0.211683441008146 
1483	 0.211794002336088 
1484	 0.211902506993495 
1485	 0.212000821126852 
1486	 0.212110012836378 
1487	 0.212234984935844 
1488	 0.212339615185364 
1489	 0.212443166381766 
1490	 0.212529883170437 
1491	 0.212591890211502 
1492	 0.212671058893114 
1493	 0.212745669434285 
1494	 0.212828440577609 
1495	 0.212930338899802 
1496	 0.213015006123009 
1497	 0.213089659134424 
1498	 0.213168866635706 
1499	 0.213250812999463 
1500	 0.213316803965805 
1501	 0.213373073468317 
1502	 0.213433981001664 
1503	 0.213484389615388 
1504	 0.213535534537233 
1505	 0.213599736445856 
1506	 0.213677526660893 
1507	 0.213731063770009 
1508	 0.213789649326154 
1509	 0.21385009855415 
1510	 0.213891010086449 
1511	 0.213966142975751 
1512	 0.214037372191312 
1513	 0.214119121871386 
1514	 0.21421745604825 
1515	 0.21430118400702 
1516	 0.214377436753833 
1517	 0.214425882458976 
1518	 0.214447027328118 
1519	 0.21448313024185 
1520	 0.214497276279673 
1521	 0.214532997995382 
1522	 0.214587460869501 
1523	 0.214628505323527 
1524	 0.214669769575408 
1525	 0.214708334827127 
1526	 0.214735080501567 
1527	 0.214777836678164 
1528	 0.214827419369285 
1529	 0.214876196346608 
1530	 0.214943104964578 
1531	 0.214991969092348 
1532	 0.215023319421166 
1533	 0.21506635091895 
1534	 0.215109774704598 
1535	 0.215150815604862 
1536	 0.21519896560664 
1537	 0.215242895212931 
1538	 0.215278998768493 
1539	 0.215317877990435 
1540	 0.215365444876606 
1541	 0.215398087229107 
1542	 0.21543032915049 
1543	 0.215447309023155 
1544	 0.215442396127226 
1545	 0.215443686261876 
1546	 0.215436604230764 
1547	 0.215425706346964 
1548	 0.215439391706005 
1549	 0.215458816740578 
1550	 0.215483452010197 
1551	 0.215525376329652 
1552	 0.215564173124854 
1553	 0.215586929328703 
1554	 0.21561366235703 
1555	 0.215637908397672 
1556	 0.215652888691944 
1557	 0.215687740095699 
1558	 0.215709868090057 
1559	 0.215710407149376 
1560	 0.215720610757393 
1561	 0.21572365282828 
1562	 0.215726716953094 
1563	 0.215725586658619 
1564	 0.215746947530632 
1565	 0.215771956459176 
1566	 0.215805932325453 
1567	 0.215862400831782 
1568	 0.215911305982463 
1569	 0.21596791958756 
1570	 0.215994557321824 
1571	 0.216016112791853 
1572	 0.216031206797362 
1573	 0.2160177734236 
1574	 0.216018477750508 
1575	 0.216029532275823 
1576	 0.216028243031178 
1577	 0.216008865370095 
1578	 0.216008294194083 
1579	 0.216014663493095 
1580	 0.216020707687717 
1581	 0.216049623860024 
1582	 0.216048928863013 
1583	 0.216024884353342 
1584	 0.216016061548448 
1585	 0.215984922322737 
1586	 0.215985295180114 
1587	 0.216023494485039 
1588	 0.21603578004782 
1589	 0.216054166932603 
1590	 0.216060708800112 
1591	 0.216040465106688 
1592	 0.216038387866861 
1593	 0.216041822066132 
1594	 0.216046287381216 
1595	 0.216057039713714 
1596	 0.216069448120641 
1597	 0.216080481986916 
1598	 0.216097509612028 
1599	 0.216132195117035 
1600	 0.216147669903086 
1601	 0.216153974522373 
1602	 0.216164363800877 
1603	 0.216164350981163 
1604	 0.216165698126696 
1605	 0.216170934571179 
1606	 0.216174398612672 
1607	 0.216174750587477 
1608	 0.216171228805524 
1609	 0.216178915430836 
1610	 0.216183011701215 
1611	 0.216167581293196 
1612	 0.216171508118508 
1613	 0.216179935587165 
1614	 0.216160598867689 
1615	 0.216153224649979 
1616	 0.21614481696627 
1617	 0.216104860997182 
1618	 0.21611117915366 
1619	 0.216137916205692 
1620	 0.216142116869822 
1621	 0.216149487754347 
1622	 0.216170488870034 
1623	 0.216163795040013 
1624	 0.216131790299037 
1625	 0.216124847760718 
1626	 0.216120308222902 
1627	 0.216112687945532 
1628	 0.21610829446572 
1629	 0.216114719195925 
1630	 0.216120290847552 
1631	 0.216130086035219 
1632	 0.216163510277145 
1633	 0.216164897333689 
1634	 0.216149368682961 
1635	 0.21613590506664 
1636	 0.216109574269304 
1637	 0.21609368953652 
1638	 0.216072440223719 
1639	 0.216069518907149 
1640	 0.216077459950519 
1641	 0.216084863920745 
1642	 0.216102364003565 
1643	 0.2161224461389 
1644	 0.216152093777947 
1645	 0.216161762021808 
1646	 0.216168508583924 
1647	 0.216173561545716 
1648	 0.216161172090746 
1649	 0.216158651810272 
1650	 0.216169263974509 
1651	 0.216164278269773 
1652	 0.216148549638316 
1653	 0.216135945129149 
1654	 0.216126842542439 
1655	 0.216100298166509 
1656	 0.216057714134963 
1657	 0.216030613639238 
1658	 0.215990197629361 
1659	 0.21597318628284 
1660	 0.215974428320164 
1661	 0.215981918019718 
1662	 0.216009383996569 
1663	 0.216016921467668 
1664	 0.216031972780425 
1665	 0.216029829295358 
1666	 0.215999509535642 
1667	 0.21599137499496 
1668	 0.215995379727616 
1669	 0.215982508226599 
1670	 0.215960303002882 
1671	 0.215955249208532 
1672	 0.215947639875894 
1673	 0.215942882970687 
1674	 0.215960043445325 
1675	 0.215960080796135 
1676	 0.215940190443312 
1677	 0.215937167151816 
1678	 0.215941932890636 
1679	 0.215944903664279 
1680	 0.215953650787774 
1681	 0.215957661254386 
1682	 0.215969058219763 
1683	 0.215958267959175 
1684	 0.215932565956507 
1685	 0.215911895473638 
1686	 0.215871091487205 
1687	 0.215849918184962 
1688	 0.215834296748832 
1689	 0.215836474697741 
1690	 0.215854493179454 
1691	 0.21587015054864 
1692	 0.215915838113806 
1693	 0.215922146006625 
1694	 0.215902662352406 
1695	 0.21589568622325 
1696	 0.215876863454849 
1697	 0.215860059509708 
1698	 0.215852289744982 
1699	 0.215836874522004 
1700	 0.215806742742842 
1701	 0.21578731892902 
1702	 0.215767872012914 
1703	 0.215763343944257 
1704	 0.215775375885474 
1705	 0.215769465853269 
1706	 0.215773473891141 
1707	 0.215759920641619 
1708	 0.215717644128034 
1709	 0.215695670670546 
1710	 0.215671074451602 
1711	 0.215661769587808 
1712	 0.215670435037701 
1713	 0.215672466085929 
1714	 0.215695747877505 
1715	 0.215680362039738 
1716	 0.215630277770587 
1717	 0.21561176511212 
1718	 0.215588451989049 
1719	 0.215568551506869 
1720	 0.215577288729263 
1721	 0.215556074907204 
1722	 0.215510918904771 
1723	 0.215478405487022 
1724	 0.215442173390775 
1725	 0.215416971375604 
1726	 0.215398540127162 
1727	 0.215369667238238 
1728	 0.215347572270551 
1729	 0.215309046420249 
1730	 0.215262566182782 
1731	 0.21520573746242 
1732	 0.215136618818073 
1733	 0.215066050855147 
1734	 0.214975110945799 
1735	 0.21491145079891 
1736	 0.214860800063257 
1737	 0.214800744208557 
1738	 0.214746931119959 
1739	 0.214697427621408 
1740	 0.214638580410865 
1741	 0.21459792941969 
1742	 0.214584385334486 
1743	 0.214543250040372 
1744	 0.214501745285882 
1745	 0.214441870718055 
1746	 0.214349240312994 
1747	 0.214293184162993 
1748	 0.214237417510679 
1749	 0.21419632770765 
1750	 0.214189204086924 
1751	 0.214150353996421 
1752	 0.214105664965471 
1753	 0.214049914098255 
1754	 0.213967276973055 
1755	 0.213914774047473 
1756	 0.213866970577678 
1757	 0.213846071814715 
1758	 0.213835475052373 
1759	 0.213789660290707 
1760	 0.213746746712325 
1761	 0.213662121463843 
1762	 0.213578100333881 
1763	 0.213517532199786 
1764	 0.213459699245533 
1765	 0.213462412226168 
1766	 0.213463495976443 
1767	 0.213441909102178 
1768	 0.21343620381999 
1769	 0.21340140153956 
1770	 0.213370441210525 
1771	 0.213354777898591 
1772	 0.213314976008721 
1773	 0.213273648484436 
1774	 0.213227978930955 
1775	 0.213187944668593 
1776	 0.213153126843636 
1777	 0.213116355549171 
1778	 0.213105365420443 
1779	 0.213106470655449 
1780	 0.213100767443546 
1781	 0.213106741547465 
1782	 0.213090416412091 
1783	 0.213057370811223 
1784	 0.213046580073032 
1785	 0.213031927772534 
1786	 0.213024031911076 
1787	 0.213036202025006 
1788	 0.213027896482309 
1789	 0.213006452581943 
1790	 0.213008574845774 
1791	 0.21301493196031 
1792	 0.213022460024863 
1793	 0.213048959056413 
1794	 0.213061921722285 
1795	 0.213075222806415 
1796	 0.213075565132343 
1797	 0.213049816389842 
1798	 0.213045044560931 
1799	 0.213048170978823 
1800	 0.213041477238016 
1801	 0.211455304795314 
1802	 0.211487200370784 
1803	 0.211495786037779 
1804	 0.211542943513532 
1805	 0.211583704419872 
1806	 0.211574323225373 
1807	 0.211586707799617 
1808	 0.211597305314719 
1809	 0.211589580545485 
1810	 0.211587656300704 
1811	 0.211606420805131 
1812	 0.211606340839328 
1813	 0.211582108505042 
1814	 0.211561660735972 
1815	 0.211527295439158 
1816	 0.211510220421893 
1817	 0.211504308816204 
1818	 0.211510031576278 
1819	 0.21150577874799 
1820	 0.211506991200044 
1821	 0.211516643499527 
1822	 0.211501404889153 
1823	 0.21149145173614 
1824	 0.211499095709842 
1825	 0.211490355051635 
1826	 0.211483649605931 
1827	 0.211486199575391 
1828	 0.211479895531765 
1829	 0.211467894833756 
1830	 0.211455634893977 
1831	 0.211447006812622 
1832	 0.211425529159254 
1833	 0.211383238767387 
1834	 0.211335968254375 
1835	 0.211306382457112 
1836	 0.211280575180881 
1837	 0.211257837156075 
1838	 0.211228661865062 
1839	 0.211201972246066 
1840	 0.211169373369956 
1841	 0.211123756496482 
1842	 0.211097130162863 
1843	 0.211106144183146 
1844	 0.211072019330945 
1845	 0.211023512424981 
1846	 0.210996845283106 
1847	 0.210947374399671 
1848	 0.210878295653899 
1849	 0.2108299550089 
1850	 0.210788818319084 
1851	 0.210751198902501 
1852	 0.210688710351184 
1853	 0.210644669291672 
1854	 0.210598064842943 
1855	 0.210522753063872 
1856	 0.210453892752456 
1857	 0.210394697586742 
1858	 0.210306391849992 
1859	 0.210186581742655 
1860	 0.210065641890284 
1861	 0.20993151072634 
1862	 0.209766744456102 
1863	 0.209602719915905 
1864	 0.209433629960194 
1865	 0.209232228639244 
1866	 0.209024598228221 
1867	 0.208805115786377 
1868	 0.208594576988863 
1869	 0.208378609031498 
1870	 0.208114010259058 
1871	 0.20782722526075 
1872	 0.207514746682063 
1873	 0.207185831246618 
1874	 0.206830354334191 
1875	 0.206485564880937 
1876	 0.20613997410025 
1877	 0.205748870352127 
1878	 0.205303031448181 
1879	 0.20481976445112 
1880	 0.20429601684097 
1881	 0.203713882269245 
1882	 0.203110936504255 
1883	 0.20248860770914 
1884	 0.201803006007537 
1885	 0.201078410690964 
1886	 0.200321457844511 
1887	 0.1994974509892 
1888	 0.198675196794673 
1889	 0.197810125321933 
1890	 0.196912806710596 
1891	 0.196042099421552 
1892	 0.195148541513307 
1893	 0.194286615740942 
1894	 0.193444742196106 
1895	 0.192625077000686 
1896	 0.191796104808288 
1897	 0.190965414721787 
1898	 0.190158137641334 
1899	 0.189397529918296 
1900	 0.188672118840527 
1901	 0.188019643050463 
1902	 0.187407327294476 
1903	 0.186845583278932 
1904	 0.186315453753984 
1905	 0.185826955462264 
1906	 0.185392494980342 
1907	 0.184994955224088 
1908	 0.184623295814385 
1909	 0.184294110201577 
1910	 0.183986535657969 
1911	 0.183698446272686 
1912	 0.183446628696518 
1913	 0.183207317854325 
1914	 0.183002578633252 
1915	 0.18279213098769 
1916	 0.182585440709703 
1917	 0.182396548499344 
1918	 0.182238308139322 
1919	 0.182083680925266 
1920	 0.181956551223948 
1921	 0.18184937977904 
1922	 0.18172429822277 
1923	 0.181628338673283 
1924	 0.181558821949619 
1925	 0.181507658712934 
1926	 0.181478797683425 
1927	 0.181482883079713 
1928	 0.181501762667681 
1929	 0.181512457515097 
1930	 0.181539322220986 
1931	 0.181577528115932 
1932	 0.18161167230781 
1933	 0.181660498713796 
1934	 0.181734475193833 
1935	 0.181825924022739 
1936	 0.181937533233766 
1937	 0.182050073491656 
1938	 0.182194226938006 
1939	 0.182324642264817 
1940	 0.18244013455093 
1941	 0.182570593183721 
1942	 0.182733439650117 
1943	 0.182884333832235 
1944	 0.183041728452473 
1945	 0.183222456430088 
1946	 0.183393480819826 
1947	 0.183549513015431 
1948	 0.183729557616943 
1949	 0.183926719292194 
1950	 0.184115568600416 
1951	 0.184305706966764 
1952	 0.184513972807357 
1953	 0.184706516115712 
1954	 0.184900741053974 
1955	 0.18510232318947 
1956	 0.185312933004924 
1957	 0.185538252850878 
1958	 0.185789210191938 
1959	 0.186015174957247 
1960	 0.186249591424089 
1961	 0.18646883874068 
1962	 0.186650939069097 
1963	 0.186866420416128 
1964	 0.187094869632952 
1965	 0.187322608855715 
1966	 0.187581774451012 
1967	 0.187834708055879 
1968	 0.188077813999732 
1969	 0.188316323151868 
1970	 0.188561887137266 
1971	 0.188814766235452 
1972	 0.189050260649973 
1973	 0.189284113902362 
1974	 0.189511613813901 
1975	 0.189721808562014 
1976	 0.189922816515687 
1977	 0.19015052031151 
1978	 0.190389667151274 
1979	 0.190615353921799 
1980	 0.190839146794959 
1981	 0.19106088811315 
1982	 0.19126216901789 
1983	 0.191487529408772 
1984	 0.191737887355204 
1985	 0.191961945131979 
1986	 0.192175137645879 
1987	 0.192403463304719 
1988	 0.192621116637716 
1989	 0.192848471386446 
1990	 0.193113656036594 
1991	 0.193354074045807 
1992	 0.193581082752434 
1993	 0.193790965199518 
1994	 0.194016027648469 
1995	 0.194236760083168 
1996	 0.194452584481179 
1997	 0.194677021320538 
1998	 0.194895344415259 
1999	 0.195098692480297 
2000	 0.195305137790935 
2001	 0.195519796389558 
2002	 0.195726112350323 
2003	 0.195927566553704 
2004	 0.196121302181064 
2005	 0.196319215951463 
2006	 0.196521026057503 
2007	 0.196715996420177 
2008	 0.196907490800057 
2009	 0.197097424424013 
2010	 0.197279011134395 
2011	 0.197466152090845 
2012	 0.197652273520336 
2013	 0.197844356760528 
2014	 0.198036710051506 
2015	 0.198242452999948 
2016	 0.198448353065512 
2017	 0.198636731911459 
2018	 0.19883814862505 
2019	 0.199047867031783 
2020	 0.199243877152638 
2021	 0.19944134080488 
2022	 0.199630714583234 
2023	 0.199803319709883 
2024	 0.199982951420366 
2025	 0.200168497117059 
2026	 0.200344040954253 
2027	 0.20051549934863 
2028	 0.200681492534709 
2029	 0.200850316497927 
2030	 0.201013403990032 
2031	 0.20118163054142 
2032	 0.201354312897442 
2033	 0.201522912995764 
2034	 0.201688168552728 
2035	 0.201855994665887 
2036	 0.202034665992413 
2037	 0.202195280263679 
2038	 0.202351923351369 
2039	 0.20250006908441 
2040	 0.202643835988125 
2041	 0.202762853018138 
2042	 0.202883466371529 
2043	 0.202987827489802 
2044	 0.203105301098672 
2045	 0.203211429236902 
2046	 0.203338896731082 
2047	 0.203494416319669 
2048	 0.203621067130326 
2049	 0.203740869359061 
2050	 0.203861028905747 
2051	 0.203965383408992 
2052	 0.204076250698815 
2053	 0.204193865030722 
2054	 0.20430832070034 
2055	 0.204425605550165 
2056	 0.204531959070674 
2057	 0.204636781784453 
2058	 0.204743941227603 
2059	 0.204841008685086 
2060	 0.204923168455675 
2061	 0.2050161837229 
2062	 0.205100770529722 
2063	 0.205202311559643 
2064	 0.205321169635919 
2065	 0.205430313895905 
2066	 0.205541336193261 
2067	 0.205656327594111 
2068	 0.205781006624314 
2069	 0.205883712142908 
2070	 0.2059907455518 
2071	 0.206106943044235 
2072	 0.206204359380901 
2073	 0.206277459087826 
2074	 0.206376194443939 
2075	 0.206481888113948 
2076	 0.206582156927577 
2077	 0.206700397512743 
2078	 0.206796479022984 
2079	 0.206873523002652 
2080	 0.206955973418914 
2081	 0.207024625974227 
2082	 0.207104786287681 
2083	 0.207182587894453 
2084	 0.207281433177123 
2085	 0.207370607136352 
2086	 0.207472068979425 
2087	 0.207550370012376 
2088	 0.207610209961994 
2089	 0.207689381884365 
2090	 0.207770978891098 
2091	 0.207843607183654 
2092	 0.207919095889764 
2093	 0.207998480907441 
2094	 0.20806074046941 
2095	 0.208140178231038 
2096	 0.208243515609612 
2097	 0.208337889693262 
2098	 0.208433793474632 
2099	 0.208531498530539 
2100	 0.208611275060295 
2101	 0.208680684532672 
2102	 0.208756475690171 
2103	 0.208821190771708 
2104	 0.208891070182309 
2105	 0.208968079346365 
2106	 0.209041857932618 
2107	 0.20910214976953 
2108	 0.209180940961048 
2109	 0.209272267173611 
2110	 0.209362014401577 
2111	 0.209474887632243 
2112	 0.209562039633711 
2113	 0.209625465940933 
2114	 0.209711550619313 
2115	 0.209771141769576 
2116	 0.209800964397942 
2117	 0.209864638327647 
2118	 0.209932394386126 
2119	 0.210005275090773 
2120	 0.210103194185314 
2121	 0.210178989636656 
2122	 0.210256068126382 
2123	 0.210313339146345 
2124	 0.210343562424759 
2125	 0.210390266140588 
2126	 0.210438579239409 
2127	 0.210476010090267 
2128	 0.210550707597761 
2129	 0.210567341468722 
2130	 0.210530654049136 
2131	 0.210485632050486 
2132	 0.210466751136997 
2133	 0.210426845203739 
2134	 0.210404654574994 
2135	 0.210435269701628 
2136	 0.21040008491023 
2137	 0.210327763600182 
2138	 0.210257058498272 
2139	 0.210160085749739 
2140	 0.210069865220693 
2141	 0.209976583760247 
2142	 0.20987926287733 
2143	 0.209786563628953 
2144	 0.209676778397954 
2145	 0.20954208272906 
2146	 0.209421323205262 
2147	 0.209294668135318 
2148	 0.209178783364495 
2149	 0.209045681858096 
2150	 0.208925397068555 
2151	 0.208774444483922 
2152	 0.208592836064564 
2153	 0.208420647307093 
2154	 0.208235090413144 
2155	 0.208063355185364 
2156	 0.207896967401692 
2157	 0.207728162916754 
2158	 0.207570884853542 
2159	 0.207398329475281 
2160	 0.207212379060501 
2161	 0.207030889955825 
2162	 0.206837939109548 
2163	 0.206657019031178 
2164	 0.206491728481353 
2165	 0.206313968612571 
2166	 0.206139607206834 
2167	 0.205969928053873 
2168	 0.205795347398639 
2169	 0.205614563594095 
2170	 0.205438323189445 
2171	 0.205266354959024 
2172	 0.205089098665265 
2173	 0.204915499123694 
2174	 0.204729077995795 
2175	 0.204529318079941 
2176	 0.204335943111437 
2177	 0.204130535783189 
2178	 0.203938609131792 
2179	 0.203740234648051 
2180	 0.203570518939401 
2181	 0.203420977951495 
2182	 0.203279155699198 
2183	 0.203148520349905 
2184	 0.203055144375265 
2185	 0.202938840099082 
2186	 0.202820677358668 
2187	 0.202702104531877 
2188	 0.202586240935031 
2189	 0.202463142030156 
2190	 0.202317348709197 
2191	 0.202216729036087 
2192	 0.202130768873952 
2193	 0.202048475450167 
2194	 0.202023620715988 
2195	 0.201946023373841 
2196	 0.201821396964569 
2197	 0.201734386231245 
2198	 0.201635414766661 
2199	 0.201555718046288 
2200	 0.201519933893781 
2201	 0.20146531983166 
2202	 0.201416271734118 
2203	 0.201359553731359 
2204	 0.201267032920681 
2205	 0.201136211515438 
2206	 0.201058836285691 
2207	 0.200957301988384 
2208	 0.200914024430042 
2209	 0.200925103012501 
2210	 0.200941548001164 
2211	 0.200978106004602 
2212	 0.201025242655697 
2213	 0.201108900254777 
2214	 0.20117951796948 
2215	 0.201252650339911 
2216	 0.201327780279543 
2217	 0.201401599706911 
2218	 0.201483379852403 
2219	 0.201574966870551 
2220	 0.201661540310464 
2221	 0.20172816859045 
2222	 0.201845897465603 
2223	 0.201953583027322 
2224	 0.202044873649968 
2225	 0.202132172651548 
2226	 0.202226211646787 
2227	 0.202292645883924 
2228	 0.202342458476842 
2229	 0.202385661988653 
2230	 0.202416988175549 
2231	 0.202437332132409 
2232	 0.202439223522224 
2233	 0.202441189505345 
2234	 0.202420439595102 
2235	 0.202428727076824 
2236	 0.202447227421065 
2237	 0.202467491009209 
2238	 0.202512379990835 
2239	 0.202538795658918 
2240	 0.202549003296498 
2241	 0.202571316367944 
2242	 0.202596527544921 
2243	 0.202618808878125 
2244	 0.202656385521112 
2245	 0.202679494463441 
2246	 0.202673810783128 
2247	 0.202671930094978 
2248	 0.202662110075295 
2249	 0.202630128803351 
2250	 0.202621974388604 
2251	 0.202625547384546 
2252	 0.202619749641246 
2253	 0.202619335156986 
2254	 0.20261203990678 
2255	 0.202604780488448 
2256	 0.202583662516933 
2257	 0.202535167760783 
2258	 0.202524265486081 
2259	 0.202530822656837 
2260	 0.202520101521219 
2261	 0.20252925837849 
2262	 0.20252959345404 
2263	 0.202478844650798 
2264	 0.202482249074805 
2265	 0.202534622199661 
2266	 0.202563245138793 
2267	 0.202624733301855 
2268	 0.202656366151763 
2269	 0.202646270899151 
2270	 0.202658954573145 
2271	 0.2026720433418 
2272	 0.202672630378457 
2273	 0.202684081991549 
2274	 0.202680010758286 
2275	 0.202675874616236 
2276	 0.202662339704556 
2277	 0.202652289183893 
2278	 0.202639501827768 
2279	 0.20262689063427 
2280	 0.202604610095751 
2281	 0.202604517879501 
2282	 0.202642957392454 
2283	 0.202617476752435 
2284	 0.202565620398176 
2285	 0.202533521397435 
2286	 0.202447751581084 
2287	 0.202408756704412 
2288	 0.202430003021296 
2289	 0.202409793967271 
2290	 0.202380887950876 
2291	 0.202355585306783 
2292	 0.202299075058059 
2293	 0.202279517729539 
2294	 0.202285092571378 
2295	 0.202276954550217 
2296	 0.202264634637739 
2297	 0.20229812040648 
2298	 0.202318422993818 
2299	 0.202338488880461 
2300	 0.202354322443214 
2301	 0.20237002514424 
2302	 0.202338588116122 
2303	 0.202281039144506 
2304	 0.202279064616037 
2305	 0.202243129862639 
2306	 0.202188853440441 
2307	 0.2021374730728 
2308	 0.202065436263115 
2309	 0.201954412994514 
2310	 0.201858592837044 
2311	 0.20175670032039 
2312	 0.201664047251538 
2313	 0.201564949676786 
2314	 0.201468049128082 
2315	 0.201378338485396 
2316	 0.201305286024949 
2317	 0.201233960371184 
2318	 0.201164861854639 
2319	 0.201103348353108 
2320	 0.201062415092535 
2321	 0.2010254194144 
2322	 0.200999344783081 
2323	 0.201005136043616 
2324	 0.201013299861573 
2325	 0.201030658257343 
2326	 0.20104257033959 
2327	 0.201074671334372 
2328	 0.201073835961267 
2329	 0.201087812888171 
2330	 0.201084424902815 
2331	 0.201064915324906 
2332	 0.201067359672026 
2333	 0.201058316611656 
2334	 0.201110639173651 
2335	 0.201190206662074 
2336	 0.201255185788096 
2337	 0.201310350569117 
2338	 0.201299715296884 
2339	 0.201310186818148 
2340	 0.20134632327054 
2341	 0.201406447365859 
2342	 0.20146588830634 
2343	 0.2014733759736 
2344	 0.201488688206977 
2345	 0.201457170003947 
2346	 0.201352052756181 
2347	 0.201293854998175 
2348	 0.201232704366229 
2349	 0.201187629668331 
2350	 0.201182492422567 
2351	 0.201132637272361 
2352	 0.201043927936323 
2353	 0.200983434650104 
2354	 0.20092544527284 
2355	 0.200868396069101 
2356	 0.200837862802403 
2357	 0.200785653375527 
2358	 0.200693515650443 
2359	 0.200617932856155 
2360	 0.200563859190087 
2361	 0.200505374394614 
2362	 0.200465588732721 
2363	 0.2003903879107 
2364	 0.20029453885247 
2365	 0.20017959722485 
2366	 0.200014828316183 
2367	 0.199884936338459 
2368	 0.199748603475253 
2369	 0.199641395273985 
2370	 0.199574670848208 
2371	 0.199477756205775 
2372	 0.199410191380215 
2373	 0.199349001824292 
2374	 0.199192609439828 
2375	 0.199070881819575 
2376	 0.19895045939576 
2377	 0.198783375508674 
2378	 0.198685040944117 
2379	 0.198555110414315 
2380	 0.198417592528494 
2381	 0.198305069890847 
2382	 0.198130215641934 
2383	 0.197964612388323 
2384	 0.197723507118532 
2385	 0.19751302920919 
2386	 0.197420188478592 
2387	 0.197257813662359 
2388	 0.197163909206457 
2389	 0.197016390081961 
2390	 0.19672836859388 
2391	 0.196592003580148 
2392	 0.196457122105839 
2393	 0.196272718542008 
2394	 0.196187497603623 
2395	 0.196063061406648 
2396	 0.195844122918126 
2397	 0.195698715040783 
2398	 0.195590513806503 
2399	 0.195414196529344 
2400	 0.195340774428011 
2401	 0.195269062344273 
2402	 0.195060824764479 
2403	 0.194872323495173 
2404	 0.194705209179009 
2405	 0.194502374397431 
2406	 0.19432790146733 
2407	 0.194222213668716 
2408	 0.194062828053521 
2409	 0.19392299161928 
2410	 0.193855398186834 
2411	 0.193715091879598 
2412	 0.193605828075609 
2413	 0.193465697529551 
2414	 0.193313435067397 
2415	 0.193204021530842 
2416	 0.193060195211159 
2417	 0.192954986604671 
2418	 0.192758307605263 
2419	 0.192463422315 
2420	 0.192226209423493 
2421	 0.191908870624503 
2422	 0.191717134724942 
2423	 0.191670933691878 
2424	 0.191466378827639 
2425	 0.191231779303287 
2426	 0.191020276533953 
2427	 0.1906624053551 
2428	 0.190506117607536 
2429	 0.190587465312308 
2430	 0.190478840862266 
2431	 0.190362108715921 
2432	 0.190207871332528 
2433	 0.189894033881167 
2434	 0.189678329779204 
2435	 0.189518770339696 
2436	 0.189337928208686 
2437	 0.189190009279058 
2438	 0.189001626006331 
2439	 0.188806351579308 
2440	 0.188505245996458 
2441	 0.188100222185647 
2442	 0.187869071719626 
2443	 0.187645109704225 
2444	 0.18748388064051 
2445	 0.187405625790738 
2446	 0.187318000283332 
2447	 0.187306052704518 
2448	 0.187168788199087 
2449	 0.187086806702815 
2450	 0.186933321931029 
2451	 0.186529774818371 
2452	 0.186342645937792 
2453	 0.186305766717347 
2454	 0.186150015803029 
2455	 0.186004879710717 
2456	 0.185768768350199 
2457	 0.18540623115443 
2458	 0.185197333848429 
2459	 0.185119630262532 
2460	 0.184903003600235 
2461	 0.184639272341534 
2462	 0.184404394415078 
2463	 0.184040130784063 
2464	 0.183856695424554 
2465	 0.183840572901634 
2466	 0.183710531448608 
2467	 0.183533935551303 
2468	 0.183387404210998 
2469	 0.183246028528651 
2470	 0.183214332541215 
2471	 0.183193520871387 
2472	 0.182936273768012 
2473	 0.182757286603703 
2474	 0.18266125354142 
2475	 0.182547154879038 
2476	 0.182652886781632 
2477	 0.182666057354629 
2478	 0.1823507675735 
2479	 0.182060385276048 
2480	 0.181832116483764 
2481	 0.181735687091087 
2482	 0.181767223884333 
2483	 0.181717718167543 
2484	 0.181665137049122 
2485	 0.181493106701246 
2486	 0.18111838823126 
2487	 0.180792769814234 
2488	 0.180472343197092 
2489	 0.179987657491 
2490	 0.179646319669118 
2491	 0.179553259918051 
2492	 0.179330794118571 
2493	 0.179076380142291 
2494	 0.179038654411144 
2495	 0.17877086010636 
2496	 0.178458041224045 
2497	 0.178483593705042 
2498	 0.178390813297854 
2499	 0.178260529106686 
2500	 0.178238614200473 
