Wavelength	LMW500002.asd
350	 7.87193175717247E-02 
351	 7.95152808714241E-02 
352	 7.86918553956912E-02 
353	 7.54576844614302E-02 
354	 7.39634171889804E-02 
355	 0.078623768374518 
356	 8.23397587109271E-02 
357	 7.92074151444362E-02 
358	 8.05324467113531E-02 
359	 7.89744748182333E-02 
360	 7.65113499644852E-02 
361	 8.00606052257387E-02 
362	 0.077935468597467 
363	 7.68284579170261E-02 
364	 7.90102723541843E-02 
365	 7.60817633582263E-02 
366	 7.87309553207922E-02 
367	 8.15969622278927E-02 
368	 7.91353480971992E-02 
369	 8.33624389718887E-02 
370	 0.085285296520895 
371	 8.38750201307773E-02 
372	 8.38356734153608E-02 
373	 8.50027489547291E-02 
374	 8.55289546149866E-02 
375	 0.085524761270503 
376	 8.92043944346236E-02 
377	 8.87250659833527E-02 
378	 0.088263041114758 
379	 9.25818754745607E-02 
380	 9.28606682672159E-02 
381	 9.28921794947553E-02 
382	 9.40638446964535E-02 
383	 9.55632582501826E-02 
384	 9.67071119235808E-02 
385	 0.098447286765829 
386	 0.101028583807335 
387	 0.103075298704298 
388	 0.103551030276324 
389	 0.10375336146663 
390	 0.105221381036455 
391	 0.106383935743241 
392	 0.108972663692609 
393	 0.112155762256679 
394	 0.11308034924063 
395	 0.113686299727831 
396	 0.114796319235601 
397	 0.116617587318255 
398	 0.118660342312708 
399	 0.119906488766535 
400	 0.121647564423601 
401	 0.125080524227979 
402	 0.125798987241918 
403	 0.126521109680817 
404	 0.128048301144123 
405	 0.128861462365853 
406	 0.130793436683536 
407	 0.133323342541216 
408	 0.135300085815452 
409	 0.134897648844565 
410	 0.136107137317412 
411	 0.138550536329777 
412	 0.139893862378517 
413	 0.140077221444596 
414	 0.140457424224259 
415	 0.141539453605046 
416	 0.142609621224335 
417	 0.143260932729092 
418	 0.143362517792085 
419	 0.143115053680755 
420	 0.143402262152273 
421	 0.143874758855531 
422	 0.144092086902815 
423	 0.14374240238348 
424	 0.144569354348994 
425	 0.144752092758784 
426	 0.143721813635583 
427	 0.14397027831577 
428	 0.143880923817291 
429	 0.143711913949464 
430	 0.144018030976759 
431	 0.143835257162659 
432	 0.143636480086425 
433	 0.143522373707825 
434	 0.143199931312493 
435	 0.143590513153722 
436	 0.144116157310127 
437	 0.144291515150447 
438	 0.144613153354444 
439	 0.145319264803803 
440	 0.146322520493128 
441	 0.147356264342308 
442	 0.148288005617189 
443	 0.149261385419504 
444	 0.150340574554107 
445	 0.151420024736423 
446	 0.152464317901856 
447	 0.153758796968664 
448	 0.155377747526497 
449	 0.156089606000501 
450	 0.157136549460683 
451	 0.158611879527104 
452	 0.159609044145326 
453	 0.160535380154002 
454	 0.161476761749072 
455	 0.162463789455019 
456	 0.163540320921836 
457	 0.164474196972013 
458	 0.165278053757667 
459	 0.166079333626271 
460	 0.166929493450757 
461	 0.167651127894689 
462	 0.168270570248025 
463	 0.169131281237666 
464	 0.169643155155013 
465	 0.170126396524255 
466	 0.17093709667616 
467	 0.17151639918637 
468	 0.172013361015743 
469	 0.17254851105577 
470	 0.173182244637864 
471	 0.173574111515771 
472	 0.17395374420226 
473	 0.174514109433764 
474	 0.175154480008886 
475	 0.175655178000872 
476	 0.176061645435641 
477	 0.176540280989757 
478	 0.177139482665786 
479	 0.17762051518889 
480	 0.177949130633501 
481	 0.178398621175302 
482	 0.17895548219782 
483	 0.179534860193822 
484	 0.180041612850357 
485	 0.180471327143648 
486	 0.180770054131786 
487	 0.181098428812375 
488	 0.18175516592628 
489	 0.18226579604649 
490	 0.182715407911925 
491	 0.183217744354635 
492	 0.183703112850585 
493	 0.184142426695469 
494	 0.184635168439388 
495	 0.185281103520849 
496	 0.185686385953939 
497	 0.186029761471391 
498	 0.186474134239377 
499	 0.187079336177683 
500	 0.187652825861418 
501	 0.188170610797454 
502	 0.188660459102903 
503	 0.189113988456943 
504	 0.189612766098625 
505	 0.19014732556978 
506	 0.190626014834091 
507	 0.191040464102463 
508	 0.191475829579439 
509	 0.191978311854485 
510	 0.192448990524324 
511	 0.192885717802697 
512	 0.193312448828035 
513	 0.193768932683782 
514	 0.194261965047073 
515	 0.194795480934539 
516	 0.195320470293279 
517	 0.195690218950484 
518	 0.196107264866586 
519	 0.196574649458614 
520	 0.197042741570367 
521	 0.197578923607789 
522	 0.198024929753252 
523	 0.198397328004777 
524	 0.198900584655069 
525	 0.199326244012562 
526	 0.199683355117448 
527	 0.200037768868623 
528	 0.200466864330066 
529	 0.20093477068383 
530	 0.201436527986347 
531	 0.20197692942092 
532	 0.202419654757047 
533	 0.202835900642785 
534	 0.203295693719867 
535	 0.203809784663921 
536	 0.204292365442288 
537	 0.204741383252394 
538	 0.205180189980928 
539	 0.205534636971161 
540	 0.205985340291697 
541	 0.206542455475263 
542	 0.20696838025865 
543	 0.207411720510408 
544	 0.207893990826171 
545	 0.208396005756885 
546	 0.208880975186869 
547	 0.209335613045318 
548	 0.209792476642595 
549	 0.210315132456872 
550	 0.210783747161413 
551	 0.211261130197792 
552	 0.211806346765953 
553	 0.212386542582601 
554	 0.212950030595619 
555	 0.213505142768588 
556	 0.214090882635343 
557	 0.214697859734345 
558	 0.215309743299295 
559	 0.215923039491467 
560	 0.216567130818903 
561	 0.217108855288193 
562	 0.217583198773213 
563	 0.218095676894154 
564	 0.218770293675881 
565	 0.219389595188602 
566	 0.219940340726214 
567	 0.220655947536616 
568	 0.221380011042762 
569	 0.222088476821534 
570	 0.2228052988638 
571	 0.223613567929468 
572	 0.224450837791311 
573	 0.22523850112767 
574	 0.225899604691093 
575	 0.226537456645637 
576	 0.227184123903811 
577	 0.227866249544048 
578	 0.228638255396033 
579	 0.229386145782859 
580	 0.230114583542361 
581	 0.230877096522123 
582	 0.231656434425302 
583	 0.232502964608788 
584	 0.233389617123051 
585	 0.23417623682763 
586	 0.234955259855444 
587	 0.235748092949403 
588	 0.236542204513844 
589	 0.237271382598665 
590	 0.237998029614713 
591	 0.238737674227606 
592	 0.239462688528347 
593	 0.240220284161567 
594	 0.240954624594493 
595	 0.241656380300091 
596	 0.242499537282313 
597	 0.243378973166166 
598	 0.244239219862119 
599	 0.245051082086291 
600	 0.245749339506694 
601	 0.246433043468105 
602	 0.247140089855235 
603	 0.247770748121006 
604	 0.248316004868362 
605	 0.248888326505606 
606	 0.249597653211315 
607	 0.250276646440348 
608	 0.250906356979479 
609	 0.251526451675235 
610	 0.252230809767964 
611	 0.252893678547333 
612	 0.253534222502975 
613	 0.254176443924007 
614	 0.25474336651233 
615	 0.255293378514017 
616	 0.255830030069829 
617	 0.256320898415346 
618	 0.256825028899541 
619	 0.257304647759948 
620	 0.257743733968587 
621	 0.258200012109525 
622	 0.258669927589664 
623	 0.259099016664348 
624	 0.259450540462395 
625	 0.259962095559405 
626	 0.260453809407854 
627	 0.260841927840335 
628	 0.261212687806516 
629	 0.261627712070512 
630	 0.262081404434561 
631	 0.262529758807858 
632	 0.262874841978604 
633	 0.263212848779413 
634	 0.263602624480842 
635	 0.264058039510477 
636	 0.264436451881262 
637	 0.26480595844718 
638	 0.265218176762861 
639	 0.265584661883284 
640	 0.265975099232945 
641	 0.26637572856041 
642	 0.266749219579944 
643	 0.267204326578537 
644	 0.267588367920767 
645	 0.267884825988649 
646	 0.268307675105216 
647	 0.268720151198374 
648	 0.269118718781263 
649	 0.269531451446477 
650	 0.269957766437524 
651	 0.270384561766323 
652	 0.270802894669459 
653	 0.271209463071628 
654	 0.271618058037982 
655	 0.272020089706818 
656	 0.272412968172135 
657	 0.272808088974625 
658	 0.273294155891834 
659	 0.273804952405019 
660	 0.274213686371038 
661	 0.274575846701106 
662	 0.275004985566621 
663	 0.275509316630041 
664	 0.275938800379492 
665	 0.27635186298884 
666	 0.276806531595712 
667	 0.277315835109395 
668	 0.277688859956689 
669	 0.278139833623096 
670	 0.278656253517116 
671	 0.27904165248327 
672	 0.279477135146689 
673	 0.279980267358383 
674	 0.280506991614895 
675	 0.280931930557684 
676	 0.281391211262082 
677	 0.281861673183735 
678	 0.282274434479972 
679	 0.282754417159069 
680	 0.283265584316338 
681	 0.283777646605879 
682	 0.284289073990632 
683	 0.284735321603315 
684	 0.285174014532912 
685	 0.285669679234321 
686	 0.286190148013693 
687	 0.286690682777535 
688	 0.287175227313178 
689	 0.287682145657408 
690	 0.288212895748212 
691	 0.28868667504595 
692	 0.289104901438765 
693	 0.28966245169946 
694	 0.290185215008037 
695	 0.290661351102058 
696	 0.291133569225023 
697	 0.291587750161107 
698	 0.292097914529008 
699	 0.292649913047991 
700	 0.293136744313483 
701	 0.293650831227319 
702	 0.294138674086933 
703	 0.294566156141155 
704	 0.295031134704512 
705	 0.295544197706826 
706	 0.296079380031767 
707	 0.296586496335237 
708	 0.297023337092112 
709	 0.2974401284825 
710	 0.297889045277372 
711	 0.298411166084543 
712	 0.29891177699681 
713	 0.29934960394683 
714	 0.29972879100926 
715	 0.300140930150046 
716	 0.300594663340985 
717	 0.301072425742175 
718	 0.30153552716079 
719	 0.301948362888061 
720	 0.302301382042111 
721	 0.302623091747262 
722	 0.303000981938653 
723	 0.303413773549431 
724	 0.303823189366431 
725	 0.304191376909101 
726	 0.304529350030735 
727	 0.304839430748454 
728	 0.305138693655087 
729	 0.305454376310298 
730	 0.305768241126715 
731	 0.30602175127018 
732	 0.306223570733882 
733	 0.306568975561562 
734	 0.306843827239119 
735	 0.307045259042333 
736	 0.307254156352493 
737	 0.307479824515428 
738	 0.307664596952042 
739	 0.307806339265215 
740	 0.307967784047503 
741	 0.30813408809304 
742	 0.308306791334223 
743	 0.308465475805112 
744	 0.308519830600092 
745	 0.308567450961439 
746	 0.30864676748223 
747	 0.308752875865286 
748	 0.308806879364027 
749	 0.308855307947361 
750	 0.30889600660025 
751	 0.308857133776324 
752	 0.308907706382095 
753	 0.308905331957905 
754	 0.30876336433678 
755	 0.308772872613877 
756	 0.308808166409468 
757	 0.308780153158011 
758	 0.308649112629191 
759	 0.308594798035487 
760	 0.308535372276074 
761	 0.308434360686202 
762	 0.308343285089716 
763	 0.308242698955801 
764	 0.308109461288356 
765	 0.307954126599283 
766	 0.307896164798536 
767	 0.307783892169465 
768	 0.307593970283802 
769	 0.307382397980857 
770	 0.307231909434524 
771	 0.307122575213572 
772	 0.307003529330151 
773	 0.306805207308957 
774	 0.306628904207434 
775	 0.30646500520129 
776	 0.306296204363296 
777	 0.306167079114222 
778	 0.305958407988643 
779	 0.305704188339867 
780	 0.305500851896717 
781	 0.305332069094446 
782	 0.305170940089929 
783	 0.304986586599154 
784	 0.304751513907666 
785	 0.304528502517982 
786	 0.304371100836597 
787	 0.304261812843961 
788	 0.304026059010776 
789	 0.303743701034304 
790	 0.303487480613459 
791	 0.303316879386915 
792	 0.303231952096254 
793	 0.303047322643168 
794	 0.302764196085907 
795	 0.302546163277158 
796	 0.302317272182825 
797	 0.30215918171579 
798	 0.302056298699041 
799	 0.301773412833531 
800	 0.301573347767088 
801	 0.30143933301088 
802	 0.301275237329933 
803	 0.301029519508546 
804	 0.30086349006366 
805	 0.30074145195262 
806	 0.300522145475025 
807	 0.300343809612647 
808	 0.300142333411403 
809	 0.299912571417414 
810	 0.299749232486004 
811	 0.299623969158388 
812	 0.299510789170884 
813	 0.299388904582308 
814	 0.299262593007461 
815	 0.299052788225605 
816	 0.298827494173853 
817	 0.298691563655581 
818	 0.298579914444008 
819	 0.298458201105397 
820	 0.298320678608047 
821	 0.298181923383534 
822	 0.297976894747436 
823	 0.297848429890588 
824	 0.297818240763617 
825	 0.297664509953853 
826	 0.297513174128426 
827	 0.297427177859177 
828	 0.29739201033427 
829	 0.297203292499279 
830	 0.297003768855085 
831	 0.296836917575221 
832	 0.296707320059107 
833	 0.296710920013001 
834	 0.296712203212704 
835	 0.296654906573379 
836	 0.296571049455777 
837	 0.296366390266641 
838	 0.296229541079828 
839	 0.296226837271459 
840	 0.296143436438632 
841	 0.296072734231482 
842	 0.295981656599827 
843	 0.295847157768172 
844	 0.295769647544126 
845	 0.295743777791882 
846	 0.295745813536665 
847	 0.295741142575575 
848	 0.295706734675146 
849	 0.295664821191955 
850	 0.2956293005119 
851	 0.295597814532691 
852	 0.295498540048028 
853	 0.295456993662362 
854	 0.295501708131178 
855	 0.295484955665729 
856	 0.295501775333129 
857	 0.295476091700132 
858	 0.295384502735197 
859	 0.2954410946384 
860	 0.29544054177049 
861	 0.295370772105132 
862	 0.295320050105966 
863	 0.295480143417513 
864	 0.295565919094711 
865	 0.295560057386505 
866	 0.295598838767393 
867	 0.295526093640044 
868	 0.295578045688891 
869	 0.295750659545533 
870	 0.295775991476846 
871	 0.295691933350558 
872	 0.295655364128221 
873	 0.295751568065425 
874	 0.295913450049332 
875	 0.296008332963294 
876	 0.29609387207818 
877	 0.296207826603352 
878	 0.296177973669484 
879	 0.296292993139395 
880	 0.296435637837092 
881	 0.296431243727223 
882	 0.296499344274154 
883	 0.296677699513738 
884	 0.296849560786557 
885	 0.296872781762454 
886	 0.297005524140051 
887	 0.297173537544656 
888	 0.297273984746227 
889	 0.297243490489394 
890	 0.297399232562539 
891	 0.297623842070333 
892	 0.297814164501669 
893	 0.297965420099732 
894	 0.298097858250887 
895	 0.298185601373855 
896	 0.29825917602886 
897	 0.298457715696537 
898	 0.298727275456675 
899	 0.298927058317623 
900	 0.299005355750117 
901	 0.299201297745776 
902	 0.299373586363733 
903	 0.299560432844824 
904	 0.299825486110249 
905	 0.300103812572111 
906	 0.300364117489528 
907	 0.30058861135587 
908	 0.300776071753653 
909	 0.300947960754294 
910	 0.301138995169735 
911	 0.301356582824986 
912	 0.301595852725959 
913	 0.301934513682798 
914	 0.30213502847916 
915	 0.302269331134871 
916	 0.302638938278234 
917	 0.302773863190352 
918	 0.302964215244339 
919	 0.303343269396202 
920	 0.30374370860542 
921	 0.304060164590835 
922	 0.304267613870796 
923	 0.30445136295633 
924	 0.304806318408155 
925	 0.30509895272551 
926	 0.305402549759667 
927	 0.305780807720074 
928	 0.306158194679598 
929	 0.306547607285583 
930	 0.306886078672437 
931	 0.307149169489505 
932	 0.307436641737475 
933	 0.307739787872492 
934	 0.308048062231428 
935	 0.308360986846497 
936	 0.308713994691611 
937	 0.309086407634527 
938	 0.309473576551922 
939	 0.309867031339137 
940	 0.310232529289587 
941	 0.310576179496393 
942	 0.310958175196927 
943	 0.311429973951107 
944	 0.311933887433421 
945	 0.312388208302812 
946	 0.3127474742901 
947	 0.313036460381955 
948	 0.313471324421154 
949	 0.313829370783782 
950	 0.314120533688129 
951	 0.314489209930238 
952	 0.315048587327897 
953	 0.315510112474059 
954	 0.315879674777729 
955	 0.3163328932163 
956	 0.316903967366483 
957	 0.317319112612417 
958	 0.317635751987674 
959	 0.318094100020761 
960	 0.318637591487445 
961	 0.319134871495322 
962	 0.319600554973861 
963	 0.320121741945421 
964	 0.32057891195143 
965	 0.32102533483925 
966	 0.321531397479588 
967	 0.322125504332184 
968	 0.322580080303531 
969	 0.323115985841081 
970	 0.323669265337428 
971	 0.324039742740013 
972	 0.32456795960642 
973	 0.325121335283138 
974	 0.325699262794576 
975	 0.32636635078868 
976	 0.326902417480957 
977	 0.327396839034486 
978	 0.327932051440607 
979	 0.328540759868475 
980	 0.329139559271303 
981	 0.32952496270715 
982	 0.329883925422285 
983	 0.330542708833393 
984	 0.331197094054396 
985	 0.331826319540582 
986	 0.332345280206864 
987	 0.332722554536561 
988	 0.333348009849716 
989	 0.333940143606961 
990	 0.334450001968983 
991	 0.334980727863434 
992	 0.33564582056856 
993	 0.336114274323388 
994	 0.336559892912371 
995	 0.337248355938722 
996	 0.337793751342365 
997	 0.33832264705192 
998	 0.338883863301244 
999	 0.339478377355064 
1000	 0.340072927215713 
1001	 0.342712951957639 
1002	 0.343212864189997 
1003	 0.34373513794631 
1004	 0.344249986131623 
1005	 0.344778753626931 
1006	 0.345301479914171 
1007	 0.345837705837724 
1008	 0.346326039980571 
1009	 0.346797798729946 
1010	 0.347240774811879 
1011	 0.347686152144 
1012	 0.348169736901406 
1013	 0.34866873086129 
1014	 0.349145226559296 
1015	 0.349600004901861 
1016	 0.350041812721478 
1017	 0.350496458299878 
1018	 0.350929184203463 
1019	 0.351400473683992 
1020	 0.351911005305591 
1021	 0.352369320140994 
1022	 0.352774388724058 
1023	 0.353203531872952 
1024	 0.353602933547553 
1025	 0.353973742607066 
1026	 0.354381980696567 
1027	 0.354784653499924 
1028	 0.35516741522227 
1029	 0.355572964211034 
1030	 0.355989756038575 
1031	 0.356390180152322 
1032	 0.356772750970273 
1033	 0.357150933142558 
1034	 0.357565937988812 
1035	 0.358013237853128 
1036	 0.358432834327574 
1037	 0.358845693800443 
1038	 0.359247713539862 
1039	 0.359568167141841 
1040	 0.359897221024138 
1041	 0.360273903989202 
1042	 0.360676877289536 
1043	 0.361084278825392 
1044	 0.361471435103936 
1045	 0.361860025408546 
1046	 0.362262039075884 
1047	 0.362666657885373 
1048	 0.363081744332465 
1049	 0.363500439209473 
1050	 0.363898333378939 
1051	 0.364281468583964 
1052	 0.364644220212106 
1053	 0.365068632104891 
1054	 0.365509464419003 
1055	 0.365842105751594 
1056	 0.366179386592525 
1057	 0.366506016906906 
1058	 0.366743334407128 
1059	 0.367060191947166 
1060	 0.36743789140535 
1061	 0.367776726175048 
1062	 0.368077419793102 
1063	 0.368447548158896 
1064	 0.368765240459665 
1065	 0.369065360378052 
1066	 0.369377751485054 
1067	 0.369667449858974 
1068	 0.36997599716506 
1069	 0.370255634428557 
1070	 0.370509647499419 
1071	 0.370741090628113 
1072	 0.371001042573508 
1073	 0.37125293799346 
1074	 0.371497214559413 
1075	 0.371763773930655 
1076	 0.372003415779459 
1077	 0.372259608486588 
1078	 0.3724528026892 
1079	 0.372650592756033 
1080	 0.372895227363757 
1081	 0.373102812515161 
1082	 0.373308094578537 
1083	 0.373498018102564 
1084	 0.373686186920632 
1085	 0.373885495895422 
1086	 0.374045729554323 
1087	 0.374241586954533 
1088	 0.374471394555105 
1089	 0.374707104871806 
1090	 0.37489991640066 
1091	 0.375130603655048 
1092	 0.375349714540209 
1093	 0.37554468258822 
1094	 0.375789527104681 
1095	 0.376020553389827 
1096	 0.376242456366949 
1097	 0.37646773984293 
1098	 0.376708149846675 
1099	 0.376947950116805 
1100	 0.377200105617192 
1101	 0.377473228253947 
1102	 0.377750433464758 
1103	 0.378043641273004 
1104	 0.378290097596628 
1105	 0.378595831066289 
1106	 0.378902722777934 
1107	 0.379171706617437 
1108	 0.379477737635743 
1109	 0.379757830869314 
1110	 0.380038498840355 
1111	 0.380343571548955 
1112	 0.380668153840171 
1113	 0.380989696776964 
1114	 0.381335260656646 
1115	 0.381653670795998 
1116	 0.381946871660661 
1117	 0.38227441043473 
1118	 0.382610518022322 
1119	 0.382938159992347 
1120	 0.383311971260692 
1121	 0.383677882569989 
1122	 0.383993834746067 
1123	 0.384318236251232 
1124	 0.384656209991119 
1125	 0.384987311243067 
1126	 0.385325405729929 
1127	 0.385686201063902 
1128	 0.386030240574914 
1129	 0.386369169640169 
1130	 0.386691975631986 
1131	 0.387010072321689 
1132	 0.387322126079039 
1133	 0.387623721039702 
1134	 0.387912558497403 
1135	 0.388190038449834 
1136	 0.388475680999937 
1137	 0.388730518175639 
1138	 0.388970521471306 
1139	 0.38924249944988 
1140	 0.389524531003941 
1141	 0.38979722979192 
1142	 0.390096280956272 
1143	 0.390368117894088 
1144	 0.39063111979527 
1145	 0.390878196680851 
1146	 0.391093431000391 
1147	 0.391327411973618 
1148	 0.391551209003981 
1149	 0.391784951911455 
1150	 0.392034314790174 
1151	 0.392300172552953 
1152	 0.392518174312758 
1153	 0.392737149341896 
1154	 0.392967978420475 
1155	 0.393190023642388 
1156	 0.393420366196992 
1157	 0.393686004581146 
1158	 0.393898523996385 
1159	 0.39407221284171 
1160	 0.39427115466713 
1161	 0.394454359246001 
1162	 0.394654397183033 
1163	 0.394870130316074 
1164	 0.395088808467875 
1165	 0.395328265058808 
1166	 0.395538061450114 
1167	 0.395738500181229 
1168	 0.395957972602997 
1169	 0.396171694757883 
1170	 0.39638511077142 
1171	 0.396570766130412 
1172	 0.396750898756101 
1173	 0.396931421057796 
1174	 0.397080866568684 
1175	 0.397250432367516 
1176	 0.397442855435973 
1177	 0.39762031571205 
1178	 0.397784165874162 
1179	 0.397954568614811 
1180	 0.398134130939531 
1181	 0.398304699760155 
1182	 0.398477657042242 
1183	 0.398639284639573 
1184	 0.398792360311276 
1185	 0.398931543063681 
1186	 0.399080378133463 
1187	 0.399226305826753 
1188	 0.399372188728901 
1189	 0.399527985773208 
1190	 0.399666944606259 
1191	 0.399777296513003 
1192	 0.399921580791068 
1193	 0.400079436910155 
1194	 0.400232326950315 
1195	 0.400412456515803 
1196	 0.400573246803849 
1197	 0.400716690381517 
1198	 0.400860105379519 
1199	 0.401000172166364 
1200	 0.401132006887364 
1201	 0.401278833509837 
1202	 0.401433453984863 
1203	 0.401574373303704 
1204	 0.401718149523156 
1205	 0.401859440242055 
1206	 0.401986334437921 
1207	 0.402121786262898 
1208	 0.402271542914212 
1209	 0.402407470826063 
1210	 0.402526703681169 
1211	 0.402660942522098 
1212	 0.402804631780455 
1213	 0.40293899062565 
1214	 0.403084467663988 
1215	 0.403215944199015 
1216	 0.403337924625742 
1217	 0.403443379174603 
1218	 0.403557230447071 
1219	 0.403666607031865 
1220	 0.403777812849248 
1221	 0.403895284947718 
1222	 0.403999108924812 
1223	 0.404093675235138 
1224	 0.404192741272087 
1225	 0.404282578644736 
1226	 0.404381132188214 
1227	 0.40449769073318 
1228	 0.404592943618033 
1229	 0.404667047840287 
1230	 0.404760322815629 
1231	 0.404856162624537 
1232	 0.404947965560609 
1233	 0.40504328324129 
1234	 0.405156774923472 
1235	 0.405250522827951 
1236	 0.405321462111868 
1237	 0.405421754065367 
1238	 0.405544226889848 
1239	 0.405639629385857 
1240	 0.405735599148504 
1241	 0.405825668241804 
1242	 0.40590392110676 
1243	 0.405971187378662 
1244	 0.406023100283253 
1245	 0.406093792339976 
1246	 0.406159711422479 
1247	 0.406226583717677 
1248	 0.406305661505432 
1249	 0.40638992134094 
1250	 0.406485016729292 
1251	 0.406558841441315 
1252	 0.406641549635116 
1253	 0.406746418996745 
1254	 0.406819722138331 
1255	 0.406865098486157 
1256	 0.406931690160757 
1257	 0.406996320568314 
1258	 0.407064565873136 
1259	 0.40713686161709 
1260	 0.407214937699028 
1261	 0.40731456407512 
1262	 0.40738121482146 
1263	 0.407432615735073 
1264	 0.407490390575526 
1265	 0.407522061287895 
1266	 0.407563979147022 
1267	 0.407614968513742 
1268	 0.40767947345094 
1269	 0.407732314379396 
1270	 0.407772860562714 
1271	 0.407835940487419 
1272	 0.407908637565031 
1273	 0.407980088207911 
1274	 0.408053588078163 
1275	 0.408144946542207 
1276	 0.408237036669136 
1277	 0.408348606004203 
1278	 0.40850026368345 
1279	 0.40862302040617 
1280	 0.408745812990422 
1281	 0.408860810805097 
1282	 0.408964910095645 
1283	 0.409061212798242 
1284	 0.409149607094638 
1285	 0.409237788436646 
1286	 0.409315252835983 
1287	 0.409395065097481 
1288	 0.409451612444939 
1289	 0.409497247004254 
1290	 0.409538428575181 
1291	 0.409570154681185 
1292	 0.409577164262355 
1293	 0.409574284274278 
1294	 0.409561442957629 
1295	 0.409505850215517 
1296	 0.409480368184149 
1297	 0.409479933899728 
1298	 0.409452938511261 
1299	 0.409427950342924 
1300	 0.409382536959276 
1301	 0.409307889506067 
1302	 0.409236673680795 
1303	 0.409164141453159 
1304	 0.409079862154819 
1305	 0.408980958550407 
1306	 0.408874596992337 
1307	 0.408733588551777 
1308	 0.408601311300697 
1309	 0.408495269309293 
1310	 0.408395155531509 
1311	 0.408312130658877 
1312	 0.408265301443824 
1313	 0.408195857541779 
1314	 0.408132721709247 
1315	 0.408054173007578 
1316	 0.407951715829366 
1317	 0.407875339642932 
1318	 0.407804652779743 
1319	 0.407730937774898 
1320	 0.407668238775151 
1321	 0.407613112964757 
1322	 0.407555329642412 
1323	 0.407497101993777 
1324	 0.407472296163359 
1325	 0.407446546605334 
1326	 0.40741523271778 
1327	 0.40740616165982 
1328	 0.407394438214985 
1329	 0.407372245473725 
1330	 0.407369512451402 
1331	 0.407370688464083 
1332	 0.407387156673433 
1333	 0.407417996220089 
1334	 0.40745374590788 
1335	 0.407498968222699 
1336	 0.407553411619321 
1337	 0.40762333447523 
1338	 0.407685963832918 
1339	 0.407753222983116 
1340	 0.407816049944012 
1341	 0.407888049905888 
1342	 0.407936864434921 
1343	 0.407970468343882 
1344	 0.408007722760405 
1345	 0.408039460524148 
1346	 0.408068516470403 
1347	 0.408119473316137 
1348	 0.408177923840137 
1349	 0.408213916974591 
1350	 0.40824118721093 
1351	 0.408266304602719 
1352	 0.408272757916056 
1353	 0.408304137040901 
1354	 0.408348052940548 
1355	 0.408379546719549 
1356	 0.408418793995354 
1357	 0.408450489185977 
1358	 0.408477864605408 
1359	 0.408493676676415 
1360	 0.408491427629107 
1361	 0.408511993810962 
1362	 0.408539096596836 
1363	 0.408557294792424 
1364	 0.408604182134466 
1365	 0.408619858198467 
1366	 0.408624193926019 
1367	 0.408585108559446 
1368	 0.408557502737016 
1369	 0.408508683760011 
1370	 0.408427715390724 
1371	 0.408354708795042 
1372	 0.408255612457602 
1373	 0.40812696555758 
1374	 0.407953841150596 
1375	 0.407749865805617 
1376	 0.407502725307173 
1377	 0.407214878404535 
1378	 0.406889524668039 
1379	 0.406532792541781 
1380	 0.406134340435805 
1381	 0.405699696763649 
1382	 0.405208611416796 
1383	 0.404683974355209 
1384	 0.404093851693504 
1385	 0.403486885648819 
1386	 0.402761430783377 
1387	 0.401979621052453 
1388	 0.401087509364419 
1389	 0.400098942468462 
1390	 0.398990654905792 
1391	 0.397816562060552 
1392	 0.396537628466462 
1393	 0.395167879846619 
1394	 0.393752806354173 
1395	 0.392223942047131 
1396	 0.39066725807634 
1397	 0.389114288215831 
1398	 0.387490794408959 
1399	 0.385941581275572 
1400	 0.384399301141854 
1401	 0.38291410555276 
1402	 0.381451060585259 
1403	 0.380058495185769 
1404	 0.378696547269609 
1405	 0.377428679573233 
1406	 0.376212391328768 
1407	 0.37509316921564 
1408	 0.374018967577745 
1409	 0.373105172252758 
1410	 0.372243751735902 
1411	 0.371600048520526 
1412	 0.37111085434926 
1413	 0.370792141440893 
1414	 0.370704094303716 
1415	 0.370760538375384 
1416	 0.370967941443526 
1417	 0.371303141984645 
1418	 0.371666888407972 
1419	 0.372058786987777 
1420	 0.37246925417796 
1421	 0.372846485154631 
1422	 0.373167394215488 
1423	 0.373437318937566 
1424	 0.37364841284224 
1425	 0.373784681827221 
1426	 0.373903520535792 
1427	 0.373974669523692 
1428	 0.374033222279142 
1429	 0.374048517310144 
1430	 0.374060594300649 
1431	 0.374054998996344 
1432	 0.374037336214349 
1433	 0.373994099604525 
1434	 0.37396464967134 
1435	 0.373926607003741 
1436	 0.373895803037285 
1437	 0.373879558400165 
1438	 0.373851402420061 
1439	 0.373823822915451 
1440	 0.373776156192523 
1441	 0.373732371974987 
1442	 0.373697590825535 
1443	 0.373664661572993 
1444	 0.37363576062775 
1445	 0.373607359546752 
1446	 0.373600180005502 
1447	 0.373605110279219 
1448	 0.373602271258575 
1449	 0.373598426982 
1450	 0.373588656459207 
1451	 0.373576557727026 
1452	 0.373541531493684 
1453	 0.373547001418515 
1454	 0.373573292506561 
1455	 0.373587605825769 
1456	 0.373626961626127 
1457	 0.373644213433372 
1458	 0.3736420399244 
1459	 0.373646271804183 
1460	 0.373633762749726 
1461	 0.37364816130832 
1462	 0.373658297050322 
1463	 0.373709670642093 
1464	 0.373788085999836 
1465	 0.373887315887083 
1466	 0.374014899288824 
1467	 0.374158810271933 
1468	 0.374325598997607 
1469	 0.374512864201462 
1470	 0.374727601697284 
1471	 0.374945611929246 
1472	 0.375175894750574 
1473	 0.375431387669295 
1474	 0.375693423084656 
1475	 0.375985122133925 
1476	 0.376311043410738 
1477	 0.376626140896529 
1478	 0.376955498558787 
1479	 0.377294701825107 
1480	 0.37763655850138 
1481	 0.37798440020522 
1482	 0.378309645076838 
1483	 0.378621226202703 
1484	 0.378949198610574 
1485	 0.379266866778117 
1486	 0.379593713408627 
1487	 0.379948323636607 
1488	 0.380272157819631 
1489	 0.380579786271477 
1490	 0.380880697005939 
1491	 0.3811694868689 
1492	 0.381462287611824 
1493	 0.381732429194881 
1494	 0.382034454639852 
1495	 0.382359638075255 
1496	 0.382669204440813 
1497	 0.38300260218784 
1498	 0.383308608402009 
1499	 0.383595699855299 
1500	 0.383874368119792 
1501	 0.384135666596322 
1502	 0.38439586150471 
1503	 0.384648183078703 
1504	 0.384890450103248 
1505	 0.385137010809266 
1506	 0.385388625304358 
1507	 0.385628755556924 
1508	 0.385859703401944 
1509	 0.386095537745706 
1510	 0.386319083573602 
1511	 0.386529687456805 
1512	 0.386766392013111 
1513	 0.387036571945611 
1514	 0.387295739529615 
1515	 0.387552194671786 
1516	 0.387814799898339 
1517	 0.388048804671703 
1518	 0.388248480103084 
1519	 0.388454421986655 
1520	 0.388643551654892 
1521	 0.388854659281577 
1522	 0.389069156017771 
1523	 0.389279524584789 
1524	 0.389514023775437 
1525	 0.389722464506021 
1526	 0.389895929171854 
1527	 0.390094593323092 
1528	 0.390307051112531 
1529	 0.390504707928795 
1530	 0.390705424152117 
1531	 0.390904922714858 
1532	 0.391089233612794 
1533	 0.391277447989728 
1534	 0.391484866142088 
1535	 0.391664242986221 
1536	 0.391815828275158 
1537	 0.391986531702822 
1538	 0.392153634893988 
1539	 0.392318790508377 
1540	 0.392504714332702 
1541	 0.392671817056667 
1542	 0.392828560546949 
1543	 0.392969402868514 
1544	 0.393089774372459 
1545	 0.393211325499129 
1546	 0.393304931540592 
1547	 0.393424455973383 
1548	 0.393570331347658 
1549	 0.393729227994976 
1550	 0.393922159748382 
1551	 0.394100556144389 
1552	 0.394243229389497 
1553	 0.394368281460286 
1554	 0.394476829276125 
1555	 0.394590919524927 
1556	 0.394711929503478 
1557	 0.394851204468645 
1558	 0.39498301013032 
1559	 0.395089831425747 
1560	 0.395206592710473 
1561	 0.395318934905295 
1562	 0.395431137393514 
1563	 0.395536573383586 
1564	 0.395667456230958 
1565	 0.39580606599691 
1566	 0.395953771263655 
1567	 0.396128805926229 
1568	 0.396276107497627 
1569	 0.396420461263757 
1570	 0.396551136561732 
1571	 0.396679852398652 
1572	 0.396780733510612 
1573	 0.396858298431659 
1574	 0.396933989091655 
1575	 0.396982246496843 
1576	 0.397041308295502 
1577	 0.397106209152485 
1578	 0.397161804018519 
1579	 0.397204923158412 
1580	 0.397262567218257 
1581	 0.397321183793944 
1582	 0.3973830205334 
1583	 0.397447661803172 
1584	 0.397525764356968 
1585	 0.397602342859333 
1586	 0.397699667086578 
1587	 0.397829362420486 
1588	 0.397939199435054 
1589	 0.398072148453349 
1590	 0.398164321584604 
1591	 0.398216147976563 
1592	 0.398286495759213 
1593	 0.398345022257377 
1594	 0.398403094676079 
1595	 0.398468349842154 
1596	 0.398533173435957 
1597	 0.398581257290393 
1598	 0.398643667499187 
1599	 0.398736165510545 
1600	 0.398801751880175 
1601	 0.39884868371837 
1602	 0.398906599617086 
1603	 0.39896124026582 
1604	 0.399007204250679 
1605	 0.39904475222188 
1606	 0.399099961496438 
1607	 0.399161876788275 
1608	 0.399214278911211 
1609	 0.39926691443168 
1610	 0.399340059463735 
1611	 0.399362391394511 
1612	 0.399367217323058 
1613	 0.399398841712929 
1614	 0.399407637317958 
1615	 0.399417554779887 
1616	 0.399449957802085 
1617	 0.399471135207634 
1618	 0.399502117048187 
1619	 0.399542657983161 
1620	 0.399564069477679 
1621	 0.399599355368393 
1622	 0.39963341022003 
1623	 0.39966956609269 
1624	 0.399710241928134 
1625	 0.399760541472107 
1626	 0.399817046951681 
1627	 0.399858881891974 
1628	 0.399907831895746 
1629	 0.3999451297617 
1630	 0.399970067792774 
1631	 0.399983023710737 
1632	 0.39998937971176 
1633	 0.399998847957619 
1634	 0.399988490018659 
1635	 0.399995112187848 
1636	 0.400020319067227 
1637	 0.40002850803792 
1638	 0.4000307507113 
1639	 0.400028866356468 
1640	 0.400017642664027 
1641	 0.400017336465973 
1642	 0.400015946076212 
1643	 0.400017696607424 
1644	 0.400018439679191 
1645	 0.400043675303645 
1646	 0.400076806674179 
1647	 0.400118007384841 
1648	 0.400197503772205 
1649	 0.400233887091847 
1650	 0.400257215128994 
1651	 0.400268703187373 
1652	 0.400262629605771 
1653	 0.400245976548447 
1654	 0.400208962475815 
1655	 0.400187419627526 
1656	 0.400144881175289 
1657	 0.400141032239674 
1658	 0.400173528017448 
1659	 0.40017912644594 
1660	 0.400195039165154 
1661	 0.400196702836125 
1662	 0.40018183866201 
1663	 0.400165202311696 
1664	 0.400143106905311 
1665	 0.40012566143138 
1666	 0.400093759186184 
1667	 0.400081881598986 
1668	 0.400088154179276 
1669	 0.400085948897154 
1670	 0.400094790381181 
1671	 0.400084713690408 
1672	 0.400066463381127 
1673	 0.400042334885074 
1674	 0.400004348466373 
1675	 0.399969084410338 
1676	 0.399917391793022 
1677	 0.399896321440629 
1678	 0.399895100286344 
1679	 0.399878852999146 
1680	 0.399891452209356 
1681	 0.399859263345913 
1682	 0.399779592440426 
1683	 0.399734290313929 
1684	 0.399673725305265 
1685	 0.399647093616291 
1686	 0.399649869491639 
1687	 0.399653718011973 
1688	 0.399680495763779 
1689	 0.39969124840119 
1690	 0.399710273798061 
1691	 0.399711647165337 
1692	 0.399701818448168 
1693	 0.399685402300867 
1694	 0.39965474240253 
1695	 0.399628709913525 
1696	 0.399597238310412 
1697	 0.39956358412295 
1698	 0.399526120484942 
1699	 0.399497434389447 
1700	 0.39947678551799 
1701	 0.399441880109022 
1702	 0.399407359099061 
1703	 0.399364516908942 
1704	 0.399306771657897 
1705	 0.399249211304928 
1706	 0.399188326770274 
1707	 0.399133539358688 
1708	 0.399080088223124 
1709	 0.399015074468626 
1710	 0.398942750871335 
1711	 0.398888154665257 
1712	 0.398826505759861 
1713	 0.398776440713694 
1714	 0.398754944930658 
1715	 0.398713410335917 
1716	 0.39866781690313 
1717	 0.398610071426391 
1718	 0.398549511330401 
1719	 0.398471934212438 
1720	 0.398371764258546 
1721	 0.398282290055299 
1722	 0.398186791710388 
1723	 0.398094432658564 
1724	 0.397995653989576 
1725	 0.397918305203056 
1726	 0.397861313966032 
1727	 0.397777532599975 
1728	 0.397700361978805 
1729	 0.397606435631171 
1730	 0.397490710133562 
1731	 0.397371387094171 
1732	 0.39725430013332 
1733	 0.397114688514321 
1734	 0.396936905770169 
1735	 0.39679572770016 
1736	 0.396664283650169 
1737	 0.396532907642241 
1738	 0.396418685318107 
1739	 0.39629130543612 
1740	 0.396150524645857 
1741	 0.39602051163533 
1742	 0.395907452233334 
1743	 0.395769848001443 
1744	 0.395620364016851 
1745	 0.395473852827446 
1746	 0.39530684670169 
1747	 0.395153298935998 
1748	 0.395031174999652 
1749	 0.394921665691097 
1750	 0.394808383912515 
1751	 0.394677753659717 
1752	 0.394531318804381 
1753	 0.394362414494951 
1754	 0.394209724916286 
1755	 0.394112470888036 
1756	 0.394013795552437 
1757	 0.393891327168712 
1758	 0.393781554489471 
1759	 0.393643164069171 
1760	 0.39347861224028 
1761	 0.393348439024031 
1762	 0.393181762530549 
1763	 0.392967046420305 
1764	 0.392802627181019 
1765	 0.392662806675369 
1766	 0.392561950900523 
1767	 0.392518464568451 
1768	 0.3924437220432 
1769	 0.392347799684415 
1770	 0.392212271221246 
1771	 0.392071643159938 
1772	 0.391962035005745 
1773	 0.391799574330406 
1774	 0.391673148169032 
1775	 0.391559038732805 
1776	 0.391408794982618 
1777	 0.39133239031697 
1778	 0.391248359566441 
1779	 0.391161562689007 
1780	 0.391102687300166 
1781	 0.391031968777035 
1782	 0.390996070191613 
1783	 0.390949218192646 
1784	 0.390887427960142 
1785	 0.390813638144307 
1786	 0.390721477459332 
1787	 0.390596842944875 
1788	 0.39050696880336 
1789	 0.390423799399319 
1790	 0.390372221424647 
1791	 0.390354481236711 
1792	 0.390321443939548 
1793	 0.390301877351414 
1794	 0.390250991972665 
1795	 0.390201456127345 
1796	 0.390143680456655 
1797	 0.390045250856429 
1798	 0.389988190086559 
1799	 0.389932856843567 
1800	 0.389891889939892 
1801	 0.385223098394952 
1802	 0.385286000773225 
1803	 0.385301261447367 
1804	 0.385346662280759 
1805	 0.385405873829909 
1806	 0.38544841251697 
1807	 0.385525527760982 
1808	 0.385581225947532 
1809	 0.385652035724578 
1810	 0.385682956836136 
1811	 0.385705553214513 
1812	 0.385678769348984 
1813	 0.385666259388787 
1814	 0.385637862534207 
1815	 0.385598566265408 
1816	 0.385586718953792 
1817	 0.385552682891042 
1818	 0.385481210374395 
1819	 0.385447031856485 
1820	 0.385425092711573 
1821	 0.385411571139764 
1822	 0.385393042051021 
1823	 0.385366207927941 
1824	 0.38532080728268 
1825	 0.385249309911232 
1826	 0.38519255633592 
1827	 0.385144334538801 
1828	 0.38505982534696 
1829	 0.384955052419263 
1830	 0.384845379205388 
1831	 0.384715149852785 
1832	 0.38457109455782 
1833	 0.38443043125697 
1834	 0.38428237977463 
1835	 0.384118960119483 
1836	 0.383957680049773 
1837	 0.383791093903207 
1838	 0.383637612481079 
1839	 0.383510718400862 
1840	 0.383420847708281 
1841	 0.383295540269902 
1842	 0.383165008964778 
1843	 0.383041256498534 
1844	 0.382830496932384 
1845	 0.382595414377557 
1846	 0.382374231687036 
1847	 0.382133633362817 
1848	 0.38187899258584 
1849	 0.381646367267526 
1850	 0.381430001766643 
1851	 0.381232655459789 
1852	 0.381002916930209 
1853	 0.380789655664563 
1854	 0.38058105417536 
1855	 0.380334308380245 
1856	 0.38007178921371 
1857	 0.379772547044844 
1858	 0.379432941550716 
1859	 0.379054853693726 
1860	 0.378620881249019 
1861	 0.37813929318301 
1862	 0.377620410023869 
1863	 0.377032619573673 
1864	 0.37638963066513 
1865	 0.375743368456 
1866	 0.375012370165664 
1867	 0.374229207901544 
1868	 0.37341893665399 
1869	 0.372500499495343 
1870	 0.371540618531365 
1871	 0.370487765277982 
1872	 0.36938249576462 
1873	 0.368155279663962 
1874	 0.366848420183674 
1875	 0.36545367490176 
1876	 0.363988946296037 
1877	 0.362449491148896 
1878	 0.360768705466355 
1879	 0.358950216322441 
1880	 0.356981104041496 
1881	 0.354843443927139 
1882	 0.352589748028922 
1883	 0.350216950991419 
1884	 0.347660956214323 
1885	 0.344981582298561 
1886	 0.342175096049256 
1887	 0.339183207717274 
1888	 0.336100788581017 
1889	 0.332900041276392 
1890	 0.329592502606779 
1891	 0.326293761801441 
1892	 0.322861161932602 
1893	 0.319529752327006 
1894	 0.316202379393161 
1895	 0.312921793636304 
1896	 0.309654040462077 
1897	 0.306544274120758 
1898	 0.303504840571157 
1899	 0.300620219001464 
1900	 0.29792549792697 
1901	 0.295375394444291 
1902	 0.292991835013883 
1903	 0.290797000453803 
1904	 0.288725320759231 
1905	 0.286799094758147 
1906	 0.285045499665171 
1907	 0.28340204224601 
1908	 0.281888576326669 
1909	 0.280532782565881 
1910	 0.279245401114254 
1911	 0.278089221251075 
1912	 0.277050108101916 
1913	 0.276063200012528 
1914	 0.275171685839709 
1915	 0.274328728526574 
1916	 0.273548773435387 
1917	 0.272826154481654 
1918	 0.272185370302295 
1919	 0.271585901972877 
1920	 0.271080346112993 
1921	 0.270627043050445 
1922	 0.270199510304104 
1923	 0.269835227465707 
1924	 0.269529570446263 
1925	 0.269277023869581 
1926	 0.269077263213737 
1927	 0.268932221506454 
1928	 0.268856570545567 
1929	 0.268825162119242 
1930	 0.26882633461419 
1931	 0.268877807344283 
1932	 0.268944069317034 
1933	 0.26903286005243 
1934	 0.269165509515662 
1935	 0.269337109722185 
1936	 0.269551932321011 
1937	 0.269797716921068 
1938	 0.270090618263255 
1939	 0.270395950818228 
1940	 0.270728500969397 
1941	 0.271077703571399 
1942	 0.271464360298836 
1943	 0.27188264560552 
1944	 0.272312755560719 
1945	 0.272777707392761 
1946	 0.273250096136116 
1947	 0.273721420286005 
1948	 0.274232359792961 
1949	 0.274791616087476 
1950	 0.275335716256703 
1951	 0.275890807705194 
1952	 0.276460467866733 
1953	 0.277036919177068 
1954	 0.277604561182092 
1955	 0.278192570833283 
1956	 0.278813209932779 
1957	 0.27943106340334 
1958	 0.28004657523458 
1959	 0.280685112121792 
1960	 0.281339344406794 
1961	 0.282005830941725 
1962	 0.282712066833426 
1963	 0.283397722143202 
1964	 0.284080323171888 
1965	 0.284760192133379 
1966	 0.285472287760078 
1967	 0.286150290177519 
1968	 0.286856600980531 
1969	 0.287604943411305 
1970	 0.288317611916086 
1971	 0.289007900178182 
1972	 0.289725242463262 
1973	 0.290436765327203 
1974	 0.291160358164424 
1975	 0.291903828583707 
1976	 0.292649687576901 
1977	 0.293390766108443 
1978	 0.294135207466421 
1979	 0.294884958803605 
1980	 0.295622922203199 
1981	 0.296353319035939 
1982	 0.297058524920912 
1983	 0.297806047781177 
1984	 0.298568049158744 
1985	 0.299323834132026 
1986	 0.300118450838494 
1987	 0.300879836492212 
1988	 0.301608764488237 
1989	 0.302353710490191 
1990	 0.303096012465992 
1991	 0.30382755397724 
1992	 0.304580249508338 
1993	 0.305357115983919 
1994	 0.306103089936579 
1995	 0.306857912111023 
1996	 0.307582514642014 
1997	 0.308275941717023 
1998	 0.308969601387 
1999	 0.309645189341569 
2000	 0.3103278655273 
2001	 0.311009779508888 
2002	 0.311675943808861 
2003	 0.312370430678001 
2004	 0.313064749126416 
2005	 0.313746408767817 
2006	 0.314438505840457 
2007	 0.315110604841573 
2008	 0.31575391049748 
2009	 0.316413344688252 
2010	 0.317065899383575 
2011	 0.317728983538878 
2012	 0.318414454063661 
2013	 0.319078813495021 
2014	 0.319738917173833 
2015	 0.320401275094777 
2016	 0.321027324959553 
2017	 0.32164785541269 
2018	 0.322282043696233 
2019	 0.32291688974186 
2020	 0.323547085154888 
2021	 0.324194048005276 
2022	 0.324816902289117 
2023	 0.325440248523658 
2024	 0.326032705535619 
2025	 0.326588852350947 
2026	 0.327155485805517 
2027	 0.32770958942341 
2028	 0.328246756955876 
2029	 0.328800256492108 
2030	 0.329365042751438 
2031	 0.32992873143542 
2032	 0.330495647102357 
2033	 0.33105396007339 
2034	 0.331619062347649 
2035	 0.332173747666473 
2036	 0.332726783975315 
2037	 0.333256358841726 
2038	 0.333776161588128 
2039	 0.33428338974763 
2040	 0.334760641011227 
2041	 0.335251242150464 
2042	 0.335704247924982 
2043	 0.336158963973849 
2044	 0.336611042672793 
2045	 0.337038299076042 
2046	 0.337487158821817 
2047	 0.337961898636809 
2048	 0.338406518495054 
2049	 0.338853773833261 
2050	 0.339272373096175 
2051	 0.339665514001432 
2052	 0.340050692197219 
2053	 0.340407702020508 
2054	 0.340773688142994 
2055	 0.341135347093121 
2056	 0.341495161617192 
2057	 0.341847892551544 
2058	 0.342195103980869 
2059	 0.342547152707712 
2060	 0.342889791043291 
2061	 0.343245029255849 
2062	 0.343617944620923 
2063	 0.343974273504211 
2064	 0.344318093583655 
2065	 0.344676182680547 
2066	 0.345038922934321 
2067	 0.345396870518528 
2068	 0.345767650038859 
2069	 0.346128254975572 
2070	 0.346479322037319 
2071	 0.346821338487499 
2072	 0.347152904715684 
2073	 0.347480976209091 
2074	 0.347792461446117 
2075	 0.348077850088502 
2076	 0.348378590354748 
2077	 0.348674139767408 
2078	 0.348971313952637 
2079	 0.349289880774961 
2080	 0.34957952737692 
2081	 0.349854487335424 
2082	 0.350120399766078 
2083	 0.350370227561023 
2084	 0.350596252779511 
2085	 0.350858723287947 
2086	 0.351135308200585 
2087	 0.35139717593145 
2088	 0.351668116283655 
2089	 0.351936330242159 
2090	 0.352190212008042 
2091	 0.352450903348188 
2092	 0.352736515897489 
2093	 0.352994480375019 
2094	 0.353230473510152 
2095	 0.353470992861059 
2096	 0.353697166299689 
2097	 0.353932631732724 
2098	 0.354185386186005 
2099	 0.354421364662251 
2100	 0.354636682108121 
2101	 0.354836893089917 
2102	 0.355047504687236 
2103	 0.35522375766471 
2104	 0.355450328360292 
2105	 0.35569838503652 
2106	 0.355965897396665 
2107	 0.356267368570834 
2108	 0.356559426746946 
2109	 0.356882647350249 
2110	 0.357180747745861 
2111	 0.3574614000404 
2112	 0.357747053296736 
2113	 0.358033119603364 
2114	 0.358306140634421 
2115	 0.358580870213497 
2116	 0.358847926866195 
2117	 0.359136831486166 
2118	 0.359431066713082 
2119	 0.359723523978513 
2120	 0.360031131215825 
2121	 0.360338879594842 
2122	 0.360656401384014 
2123	 0.360945185420475 
2124	 0.361240411213383 
2125	 0.36150888812797 
2126	 0.361750632791721 
2127	 0.36197423635131 
2128	 0.362188498980009 
2129	 0.362378361804777 
2130	 0.362528625906341 
2131	 0.362672480050707 
2132	 0.362818827968757 
2133	 0.362958909212481 
2134	 0.363084669963271 
2135	 0.36322291878478 
2136	 0.363309074311246 
2137	 0.363354965042483 
2138	 0.363404573281848 
2139	 0.363437100955053 
2140	 0.363444777271374 
2141	 0.36344552194791 
2142	 0.363421250412674 
2143	 0.363370942669015 
2144	 0.363294007510403 
2145	 0.363193293675995 
2146	 0.363075529492079 
2147	 0.362938452669112 
2148	 0.362772804109112 
2149	 0.362563967873075 
2150	 0.362326728516496 
2151	 0.362071489239334 
2152	 0.361749497640526 
2153	 0.361467623040658 
2154	 0.361194547709812 
2155	 0.3609114518251 
2156	 0.360643896837229 
2157	 0.360341226328401 
2158	 0.360025490820482 
2159	 0.359686835873487 
2160	 0.359319423759429 
2161	 0.358940823841319 
2162	 0.358535317381294 
2163	 0.358134969686195 
2164	 0.357728867716209 
2165	 0.357317547369366 
2166	 0.356876196110275 
2167	 0.356420462493764 
2168	 0.355960070899995 
2169	 0.355485021989446 
2170	 0.354978546464883 
2171	 0.354486986891322 
2172	 0.353920670486214 
2173	 0.353290329709407 
2174	 0.352649439247701 
2175	 0.351974304129039 
2176	 0.351270022125524 
2177	 0.350538280194219 
2178	 0.349776860961886 
2179	 0.348962837410624 
2180	 0.348151876014266 
2181	 0.3473348414142 
2182	 0.346484914448591 
2183	 0.345619214035682 
2184	 0.344719863570149 
2185	 0.343816823523582 
2186	 0.342868039714176 
2187	 0.341956449581455 
2188	 0.341032304025544 
2189	 0.340161100051559 
2190	 0.339292751363454 
2191	 0.338491513338916 
2192	 0.337722618824669 
2193	 0.337025859354488 
2194	 0.336375873608362 
2195	 0.335798289030573 
2196	 0.335301240833339 
2197	 0.334848184422682 
2198	 0.334446618426341 
2199	 0.334116269588726 
2200	 0.333847526498177 
2201	 0.333638212335092 
2202	 0.333501068810254 
2203	 0.333419630184333 
2204	 0.33340918649878 
2205	 0.333448351408664 
2206	 0.33359203221347 
2207	 0.333831916148873 
2208	 0.334115126810165 
2209	 0.334472957663465 
2210	 0.334903512074352 
2211	 0.335419333863674 
2212	 0.335953122820593 
2213	 0.336604759236921 
2214	 0.337189559648911 
2215	 0.337790995209037 
2216	 0.338349654276867 
2217	 0.338893471547123 
2218	 0.33940207751644 
2219	 0.339879798166633 
2220	 0.340327711443918 
2221	 0.340739495632982 
2222	 0.341130670637197 
2223	 0.341501180502773 
2224	 0.341852011987218 
2225	 0.342140208017383 
2226	 0.342402913655826 
2227	 0.342592275070141 
2228	 0.34269426722831 
2229	 0.342813645051493 
2230	 0.342895504898946 
2231	 0.342964906475108 
2232	 0.343027142696606 
2233	 0.34305700347854 
2234	 0.343047844184904 
2235	 0.343032926176565 
2236	 0.34299693600578 
2237	 0.342952910300386 
2238	 0.342883142667884 
2239	 0.342820491658216 
2240	 0.342761284877505 
2241	 0.342685960413674 
2242	 0.342612521784669 
2243	 0.342515886132028 
2244	 0.342401188618296 
2245	 0.342266658782869 
2246	 0.34214423537234 
2247	 0.34197927741374 
2248	 0.3417665304351 
2249	 0.341500123067381 
2250	 0.341280924399288 
2251	 0.341007187248255 
2252	 0.340827026469404 
2253	 0.340718768732841 
2254	 0.340582713201206 
2255	 0.340466008067303 
2256	 0.340347545856541 
2257	 0.34022855393369 
2258	 0.340136357971807 
2259	 0.340076650260707 
2260	 0.339986027977278 
2261	 0.33987866463097 
2262	 0.339801600708356 
2263	 0.339672883471568 
2264	 0.339647471115809 
2265	 0.339729449144593 
2266	 0.339774576708166 
2267	 0.339883232360233 
2268	 0.339949775495827 
2269	 0.339984610850788 
2270	 0.340007637864145 
2271	 0.34002570165745 
2272	 0.340049070453135 
2273	 0.340052540527946 
2274	 0.340041499106894 
2275	 0.34004474436001 
2276	 0.340046295056079 
2277	 0.340048645920495 
2278	 0.340032277360326 
2279	 0.340090435153539 
2280	 0.340184669157562 
2281	 0.340260040750309 
2282	 0.340411931784919 
2283	 0.340473366701114 
2284	 0.340476362753621 
2285	 0.340491750950095 
2286	 0.340473977307969 
2287	 0.34047174213731 
2288	 0.340473422862996 
2289	 0.340452232080101 
2290	 0.340413326397111 
2291	 0.340397911803164 
2292	 0.340395958927393 
2293	 0.340365665979733 
2294	 0.340331503516423 
2295	 0.340295917895649 
2296	 0.340232043110144 
2297	 0.340162608599708 
2298	 0.340142430896976 
2299	 0.340126567819541 
2300	 0.340123301675505 
2301	 0.340115829015456 
2302	 0.340071254518856 
2303	 0.34000530540474 
2304	 0.339889654422193 
2305	 0.339782283803288 
2306	 0.339640831691471 
2307	 0.339469797510717 
2308	 0.339306306325459 
2309	 0.339123148375045 
2310	 0.338935913120394 
2311	 0.338764239476718 
2312	 0.338547973258635 
2313	 0.33830056889628 
2314	 0.338032187032991 
2315	 0.337714738032678 
2316	 0.337441309466433 
2317	 0.33714628758514 
2318	 0.336906604306334 
2319	 0.336724311776327 
2320	 0.33651679736879 
2321	 0.336333779023374 
2322	 0.336131193281119 
2323	 0.335908620621152 
2324	 0.335690989343494 
2325	 0.335482691687324 
2326	 0.335268758227049 
2327	 0.335058812217894 
2328	 0.334822326123168 
2329	 0.334609246195081 
2330	 0.334311086038776 
2331	 0.33398895967944 
2332	 0.333745701133018 
2333	 0.333479479215099 
2334	 0.33319865135863 
2335	 0.332951033327023 
2336	 0.332698089409489 
2337	 0.332412809510898 
2338	 0.332141799185654 
2339	 0.331838291018846 
2340	 0.331475337855899 
2341	 0.331208741810502 
2342	 0.330926473401369 
2343	 0.33062034635514 
2344	 0.330345076206611 
2345	 0.330037070315544 
2346	 0.329674420704529 
2347	 0.329356631447147 
2348	 0.329030589915602 
2349	 0.328767358183035 
2350	 0.328561073833462 
2351	 0.328311937417195 
2352	 0.328107226477138 
2353	 0.327861317747324 
2354	 0.327517553274905 
2355	 0.327273544919071 
2356	 0.327070882265321 
2357	 0.326880382105533 
2358	 0.326770525560321 
2359	 0.326621556221046 
2360	 0.326478129213026 
2361	 0.326301230358448 
2362	 0.326104077878606 
2363	 0.325879879275983 
2364	 0.325601271472376 
2365	 0.325345951870066 
2366	 0.325122515827729 
2367	 0.324855282126126 
2368	 0.324563491913111 
2369	 0.32427715610585 
2370	 0.324001404498171 
2371	 0.323609531111323 
2372	 0.323245529570392 
2373	 0.322937970944788 
2374	 0.322612799343801 
2375	 0.322218823253025 
2376	 0.321865625774914 
2377	 0.321493445991824 
2378	 0.321078554186378 
2379	 0.320736568880199 
2380	 0.320324647982058 
2381	 0.319823355065721 
2382	 0.319305746851861 
2383	 0.318842816688719 
2384	 0.318411172588175 
2385	 0.317965067260775 
2386	 0.317508790319535 
2387	 0.316987636101752 
2388	 0.316574534360691 
2389	 0.316198022365915 
2390	 0.315802164744342 
2391	 0.315474500751542 
2392	 0.314993358075432 
2393	 0.314480790071588 
2394	 0.314089250457917 
2395	 0.313699683968545 
2396	 0.31335148401586 
2397	 0.313040310183011 
2398	 0.312595361333779 
2399	 0.312066723985044 
2400	 0.311499712737155 
2401	 0.310841625501679 
2402	 0.310293501389487 
2403	 0.309731217881874 
2404	 0.309157156163822 
2405	 0.308663059908918 
2406	 0.308052057913932 
2407	 0.307536320518352 
2408	 0.307024869689161 
2409	 0.306358787712185 
2410	 0.305752126745665 
2411	 0.305136743300357 
2412	 0.304476180106896 
2413	 0.303860216856631 
2414	 0.303247612468954 
2415	 0.302603880840701 
2416	 0.301954406525456 
2417	 0.301296985553242 
2418	 0.300652541704516 
2419	 0.29997973086581 
2420	 0.299306461446826 
2421	 0.298641170318652 
2422	 0.297996525958665 
2423	 0.297380926199929 
2424	 0.296748963182895 
2425	 0.296150490008414 
2426	 0.295484485726757 
2427	 0.294748061841859 
2428	 0.294084180773408 
2429	 0.293393919392078 
2430	 0.292749086520936 
2431	 0.292167591263879 
2432	 0.291539753407461 
2433	 0.290938909735308 
2434	 0.290334305820354 
2435	 0.289684533152811 
2436	 0.289069515911034 
2437	 0.288509392795451 
2438	 0.287863918852706 
2439	 0.28715463687666 
2440	 0.286568124362365 
2441	 0.285955824837673 
2442	 0.285414346623777 
2443	 0.285054748885538 
2444	 0.28458227213496 
2445	 0.284087424485196 
2446	 0.283583700152072 
2447	 0.283006918044788 
2448	 0.282422589908498 
2449	 0.281837495687136 
2450	 0.281275656233556 
2451	 0.280760947912469 
2452	 0.280114907772288 
2453	 0.279350731131289 
2454	 0.278755105828591 
2455	 0.278157837030067 
2456	 0.277625474751326 
2457	 0.277242504717885 
2458	 0.276757235134291 
2459	 0.276206481615305 
2460	 0.275690990695293 
2461	 0.275233746026464 
2462	 0.274814008719594 
2463	 0.274419277381482 
2464	 0.273952226726936 
2465	 0.273474559125808 
2466	 0.272908294169429 
2467	 0.272209509092214 
2468	 0.271605177987201 
2469	 0.27100280052967 
2470	 0.270619549644145 
2471	 0.270228511242297 
2472	 0.26977819327646 
2473	 0.269293216612057 
2474	 0.268711120730261 
2475	 0.268247776955823 
2476	 0.267904356061925 
2477	 0.267501317619613 
2478	 0.267099274556266 
2479	 0.266576693922815 
2480	 0.265952419419704 
2481	 0.265407550543264 
2482	 0.265117058177824 
2483	 0.264857576258441 
2484	 0.264507932084664 
2485	 0.264244800962917 
2486	 0.263762289095282 
2487	 0.263243461678223 
2488	 0.262878524357486 
2489	 0.262471888569961 
2490	 0.262182669769308 
2491	 0.261808877032313 
2492	 0.261408719016681 
2493	 0.261096808254801 
2494	 0.260612253157969 
2495	 0.260226192541349 
2496	 0.26001681200576 
2497	 0.259608971989924 
2498	 0.259209855620992 
2499	 0.258876000062111 
2500	 0.258363760350216 
