Wavelength	LMW500005.asd
350	 8.15450077763149E-02 
351	 8.25692328119171E-02 
352	 8.30468321174741E-02 
353	 7.84761266538455E-02 
354	 8.05663147104957E-02 
355	 8.00808206534188E-02 
356	 7.69386059041317E-02 
357	 7.46388479388902E-02 
358	 8.08025164880137E-02 
359	 8.21268274448068E-02 
360	 7.72035315451516E-02 
361	 7.30319365460382E-02 
362	 7.52968758497057E-02 
363	 7.87201334733956E-02 
364	 7.98915122137284E-02 
365	 8.04742839046962E-02 
366	 7.85737181327325E-02 
367	 7.81855982265137E-02 
368	 8.24244410637991E-02 
369	 8.53635829121036E-02 
370	 8.52272186926598E-02 
371	 8.31406264540111E-02 
372	 8.21118972497026E-02 
373	 8.24350366011276E-02 
374	 8.71697930195137E-02 
375	 9.37334286292563E-02 
376	 8.93539315212652E-02 
377	 8.61817263918719E-02 
378	 8.75813783502819E-02 
379	 9.25265952675506E-02 
380	 9.45105807431335E-02 
381	 9.44066126408589E-02 
382	 9.44804226653906E-02 
383	 0.097328005637679 
384	 9.83227164830008E-02 
385	 9.89532216803239E-02 
386	 0.100496956245858 
387	 0.102142922487469 
388	 0.103796434087417 
389	 0.105276631715879 
390	 0.106482393354158 
391	 0.107529079527913 
392	 0.109095665265522 
393	 0.111101491649444 
394	 0.112829327045317 
395	 0.114240906271894 
396	 0.11575030588798 
397	 0.11784641024141 
398	 0.121416284590934 
399	 0.122759116458688 
400	 0.123691333513976 
401	 0.126952536555429 
402	 0.127918499345413 
403	 0.129291224411346 
404	 0.131428182677201 
405	 0.131993281025637 
406	 0.133138258239843 
407	 0.134864190752121 
408	 0.136595195094652 
409	 0.137399111603522 
410	 0.138451423760429 
411	 0.139533582838835 
412	 0.140033634802112 
413	 0.141637044590612 
414	 0.142822017114435 
415	 0.143292497242888 
416	 0.144654832747607 
417	 0.145287127199646 
418	 0.145501266147315 
419	 0.145903249479812 
420	 0.146469028541002 
421	 0.146528555780227 
422	 0.146561473377997 
423	 0.147539953780875 
424	 0.14716322168124 
425	 0.146515105762068 
426	 0.146500200216976 
427	 0.147001466513805 
428	 0.146900275747724 
429	 0.146298037782385 
430	 0.145782461245156 
431	 0.146054754216751 
432	 0.146034522585794 
433	 0.145687785351802 
434	 0.146009519310586 
435	 0.146252226783014 
436	 0.146334226992081 
437	 0.146458929664828 
438	 0.147212797239003 
439	 0.148305653094125 
440	 0.149446066175573 
441	 0.150377631433585 
442	 0.151125566367149 
443	 0.152201217323036 
444	 0.153544509597144 
445	 0.154156357030599 
446	 0.155209781478717 
447	 0.15673402691517 
448	 0.158338231123927 
449	 0.159440222566228 
450	 0.160363231586843 
451	 0.161378744504726 
452	 0.162645904771422 
453	 0.16366178825737 
454	 0.16461169272669 
455	 0.165713785574027 
456	 0.167011133030004 
457	 0.167948494479364 
458	 0.16865616400053 
459	 0.169529105386986 
460	 0.170307677152017 
461	 0.170898283176852 
462	 0.171411352632362 
463	 0.172217282465865 
464	 0.172963447735279 
465	 0.173626392882762 
466	 0.174277560561446 
467	 0.174989709024013 
468	 0.175608714230752 
469	 0.176075122044761 
470	 0.176436138612248 
471	 0.177057705278811 
472	 0.177752507239896 
473	 0.178297757638486 
474	 0.178580592270682 
475	 0.179059904932437 
476	 0.17961932138236 
477	 0.179975790186382 
478	 0.180706024697155 
479	 0.181364306096879 
480	 0.181726094064336 
481	 0.181973953465557 
482	 0.182669776955168 
483	 0.18348226343395 
484	 0.183978446793473 
485	 0.184469534464109 
486	 0.184827996012788 
487	 0.185139774064615 
488	 0.185654855877555 
489	 0.186201023686425 
490	 0.186660671222136 
491	 0.187034908111462 
492	 0.187609984237995 
493	 0.187965843654245 
494	 0.188276845677678 
495	 0.188919404947494 
496	 0.189487123294458 
497	 0.190025479959411 
498	 0.190581277067045 
499	 0.191140700688755 
500	 0.191626529826335 
501	 0.192063409461531 
502	 0.192526685898588 
503	 0.193163766399725 
504	 0.193783481949813 
505	 0.194267649328919 
506	 0.194592666342223 
507	 0.195046570710169 
508	 0.195602518169056 
509	 0.196155962297019 
510	 0.196581712356769 
511	 0.197016065450526 
512	 0.197494800350354 
513	 0.197992210050559 
514	 0.198438517300324 
515	 0.198916517521685 
516	 0.199457302216421 
517	 0.199974548934384 
518	 0.200537957265151 
519	 0.201040446292644 
520	 0.201390426968078 
521	 0.201876645390389 
522	 0.202327680289707 
523	 0.202710997190611 
524	 0.203163406580366 
525	 0.203652366999954 
526	 0.20412606937601 
527	 0.204571250176109 
528	 0.205136849546082 
529	 0.205552019134223 
530	 0.205882360998141 
531	 0.206387140730138 
532	 0.206748556811628 
533	 0.207290402335266 
534	 0.208070546744152 
535	 0.208390872532467 
536	 0.208792589188208 
537	 0.209287469661975 
538	 0.209713494315091 
539	 0.210194411842852 
540	 0.21068615788406 
541	 0.211160085978919 
542	 0.211622194658367 
543	 0.212150842161185 
544	 0.212702154285687 
545	 0.213209273941039 
546	 0.213671136970628 
547	 0.214079526849487 
548	 0.214497408441684 
549	 0.215038042684261 
550	 0.21558757330059 
551	 0.21614799587161 
552	 0.216730877108376 
553	 0.217314762810568 
554	 0.217917165423792 
555	 0.218508607459535 
556	 0.219052729518352 
557	 0.219689442046467 
558	 0.220353719234925 
559	 0.220992153742112 
560	 0.221616425619372 
561	 0.222197915113068 
562	 0.222740839683732 
563	 0.22327823194771 
564	 0.223925939237268 
565	 0.224532795650108 
566	 0.225100229709533 
567	 0.225814326489419 
568	 0.226551827458674 
569	 0.227323739565537 
570	 0.228150714102909 
571	 0.228996322123765 
572	 0.229793410987445 
573	 0.230526229372471 
574	 0.231215744715526 
575	 0.231833396709895 
576	 0.232517890109625 
577	 0.23332613115698 
578	 0.234097115962478 
579	 0.234802345926656 
580	 0.235520478662043 
581	 0.236360058645524 
582	 0.237223866460975 
583	 0.238095733284375 
584	 0.23896583309443 
585	 0.239828557383387 
586	 0.24062597697974 
587	 0.241384776084418 
588	 0.242156127623476 
589	 0.242981306230735 
590	 0.243750672415033 
591	 0.244463985420767 
592	 0.245225052854059 
593	 0.246045396520705 
594	 0.246814308498688 
595	 0.24750263789598 
596	 0.248368035699807 
597	 0.249282570420892 
598	 0.250172474026478 
599	 0.250998300283833 
600	 0.251754332496893 
601	 0.252463975835537 
602	 0.253147326987739 
603	 0.25381849342281 
604	 0.254401006443416 
605	 0.254998841011976 
606	 0.25573051529285 
607	 0.256419554694175 
608	 0.257067155078927 
609	 0.257722872590867 
610	 0.258476102140477 
611	 0.259111389487068 
612	 0.25972770406553 
613	 0.260422600636416 
614	 0.261028017574718 
615	 0.261576936924891 
616	 0.262121739411443 
617	 0.26271205700837 
618	 0.26320838813729 
619	 0.263663384320898 
620	 0.264130512393067 
621	 0.264599469802872 
622	 0.26505151218855 
623	 0.265494311480428 
624	 0.265948140663254 
625	 0.266434277343599 
626	 0.26689253487708 
627	 0.267301766751413 
628	 0.267699658117305 
629	 0.268139734285181 
630	 0.268587924223686 
631	 0.26899940955597 
632	 0.269397466817834 
633	 0.269759316275377 
634	 0.270156000350146 
635	 0.270710691024694 
636	 0.271086829316075 
637	 0.271419521177449 
638	 0.271841110230324 
639	 0.272271277024943 
640	 0.272665365120703 
641	 0.273074635356153 
642	 0.27356809054589 
643	 0.273968183379735 
644	 0.274319969202708 
645	 0.27468902038966 
646	 0.275139235930538 
647	 0.27553500770451 
648	 0.275919681952443 
649	 0.276357992279643 
650	 0.276755554533893 
651	 0.27722456025126 
652	 0.277735749062486 
653	 0.278141489127292 
654	 0.278519255454492 
655	 0.278913627317244 
656	 0.279342627199123 
657	 0.279766469211834 
658	 0.280246353617676 
659	 0.280731281954669 
660	 0.281134089112649 
661	 0.281535519061538 
662	 0.282029883026293 
663	 0.282598795596105 
664	 0.28306344638042 
665	 0.283486451102698 
666	 0.283910115186055 
667	 0.284359321929304 
668	 0.284780859099341 
669	 0.28529248963316 
670	 0.285837466621712 
671	 0.286226731569049 
672	 0.286664854701931 
673	 0.287149345394667 
674	 0.287646125875368 
675	 0.288135006693085 
676	 0.288647963877493 
677	 0.289145577466524 
678	 0.289582704817459 
679	 0.290105340800819 
680	 0.290601410352337 
681	 0.291061695428911 
682	 0.291640426062437 
683	 0.292122533758428 
684	 0.292553211165742 
685	 0.293034441607475 
686	 0.293614824321338 
687	 0.294153983314207 
688	 0.294632254200867 
689	 0.295120266646275 
690	 0.295626554559631 
691	 0.296124297053229 
692	 0.296614213790659 
693	 0.297172749416527 
694	 0.297675054695168 
695	 0.298167825489923 
696	 0.298720537069853 
697	 0.299137949859652 
698	 0.299647978546689 
699	 0.3002717803364 
700	 0.300793505142875 
701	 0.301281809345567 
702	 0.301769920349807 
703	 0.302266402363437 
704	 0.302715564992865 
705	 0.303215267132478 
706	 0.303764246445828 
707	 0.30429743131125 
708	 0.304713817260583 
709	 0.305137841027356 
710	 0.305636163334549 
711	 0.306158366156067 
712	 0.306676491532549 
713	 0.307130018855116 
714	 0.307508275303356 
715	 0.30800627619821 
716	 0.308471526867937 
717	 0.30889275812752 
718	 0.309356994811402 
719	 0.309768176069882 
720	 0.310162768354455 
721	 0.31055131135095 
722	 0.310845415026102 
723	 0.311241298592384 
724	 0.311696783231667 
725	 0.312097403501874 
726	 0.312431744320344 
727	 0.312771455992438 
728	 0.313108516839984 
729	 0.313365318005925 
730	 0.313696031068624 
731	 0.314010684655606 
732	 0.31425009280002 
733	 0.31453978451813 
734	 0.314810105974606 
735	 0.315033379659984 
736	 0.315215310290884 
737	 0.315457956261771 
738	 0.31567099894149 
739	 0.315825197924829 
740	 0.315973813469224 
741	 0.316131991783352 
742	 0.316331157388438 
743	 0.316545108018135 
744	 0.31658437541011 
745	 0.31662185576759 
746	 0.316685463006949 
747	 0.316736799707008 
748	 0.316799971954 
749	 0.316880989575096 
750	 0.316947008124393 
751	 0.316924065550366 
752	 0.316965945534303 
753	 0.31696698505042 
754	 0.316862777513808 
755	 0.316894647332479 
756	 0.316903278141808 
757	 0.316844421128328 
758	 0.316744301730882 
759	 0.316666340337186 
760	 0.316610789885783 
761	 0.316535537385727 
762	 0.316358907384832 
763	 0.316283223537691 
764	 0.316190154406613 
765	 0.315991143959336 
766	 0.315923709818721 
767	 0.315810173263895 
768	 0.315642146072401 
769	 0.315488392193394 
770	 0.315296261701811 
771	 0.315129889061615 
772	 0.314997284325874 
773	 0.314829387372573 
774	 0.314630912051637 
775	 0.314459671413363 
776	 0.314336919965468 
777	 0.314154183821806 
778	 0.313932125056734 
779	 0.313706783066163 
780	 0.313508514660235 
781	 0.313260913513262 
782	 0.313071707841951 
783	 0.312920614813497 
784	 0.312650665824696 
785	 0.312453972876585 
786	 0.312291637836715 
787	 0.31210801163124 
788	 0.31192583362825 
789	 0.311662095411881 
790	 0.31140865283059 
791	 0.311279565733058 
792	 0.311142103616939 
793	 0.310897598003865 
794	 0.310590320573123 
795	 0.310378740312002 
796	 0.310219417652748 
797	 0.310083583616596 
798	 0.3099236750207 
799	 0.309653090038449 
800	 0.309463986980316 
801	 0.309316974024001 
802	 0.309117230191064 
803	 0.308848482097729 
804	 0.308692752442072 
805	 0.308608002327223 
806	 0.308420709644071 
807	 0.308188163250878 
808	 0.30792990117889 
809	 0.307699497024833 
810	 0.307589332042601 
811	 0.307486579132552 
812	 0.307379607546615 
813	 0.307259047760819 
814	 0.307053256120614 
815	 0.306828583285825 
816	 0.306635261290177 
817	 0.306500797000207 
818	 0.306376463486161 
819	 0.30625721976844 
820	 0.306136778488914 
821	 0.306002952597867 
822	 0.305790444351648 
823	 0.305636657608819 
824	 0.30557797992538 
825	 0.30543889792932 
826	 0.305314552581928 
827	 0.305219709003589 
828	 0.305129146237362 
829	 0.304960936009319 
830	 0.304752754301716 
831	 0.304574103685316 
832	 0.304493073745439 
833	 0.304478441781099 
834	 0.304443166078227 
835	 0.304366526940399 
836	 0.304290073112868 
837	 0.304126171739336 
838	 0.304013007185568 
839	 0.304007479293741 
840	 0.303971044552337 
841	 0.303875583991884 
842	 0.303747872018012 
843	 0.303632364793735 
844	 0.303559909313387 
845	 0.303484738517392 
846	 0.303461504645759 
847	 0.30354072995615 
848	 0.30348297158468 
849	 0.303418559404462 
850	 0.30339831817307 
851	 0.30337861964329 
852	 0.303284522451807 
853	 0.303240188262695 
854	 0.303269419827591 
855	 0.303214386873366 
856	 0.303246350966612 
857	 0.303250656394586 
858	 0.30315341206278 
859	 0.303155669727456 
860	 0.303156501357595 
861	 0.303120910087442 
862	 0.303077943280262 
863	 0.303235364949531 
864	 0.303305240080074 
865	 0.303299260325659 
866	 0.303383579171272 
867	 0.303303008685738 
868	 0.303324931476518 
869	 0.30348993150566 
870	 0.303564093389714 
871	 0.303472708540726 
872	 0.303423160343422 
873	 0.30354357425623 
874	 0.303751251744369 
875	 0.303864866487639 
876	 0.303908554837099 
877	 0.303951182259282 
878	 0.304004856483174 
879	 0.3041764144131 
880	 0.304309681761109 
881	 0.304263004567791 
882	 0.304349678334072 
883	 0.304517368514587 
884	 0.304663144089729 
885	 0.30469839062719 
886	 0.304775386070478 
887	 0.304913674910617 
888	 0.305048587234905 
889	 0.305084963392901 
890	 0.305266144847527 
891	 0.305463722186075 
892	 0.305610968814457 
893	 0.305778766685133 
894	 0.305945635835657 
895	 0.306070510778739 
896	 0.30617868597177 
897	 0.306415898270679 
898	 0.306624075872562 
899	 0.306798392685383 
900	 0.306968417348977 
901	 0.307137686845137 
902	 0.307312782379872 
903	 0.307505768803055 
904	 0.307734216198132 
905	 0.308036659218946 
906	 0.308320557750952 
907	 0.308552216188829 
908	 0.308740665933034 
909	 0.308922093184317 
910	 0.309111282815765 
911	 0.309317292103726 
912	 0.309550877376303 
913	 0.309879087502352 
914	 0.310131694527329 
915	 0.310310977238384 
916	 0.31057065565866 
917	 0.310777709121137 
918	 0.311029262206353 
919	 0.311366074571198 
920	 0.311724584424353 
921	 0.312011523821733 
922	 0.312267819945178 
923	 0.312559664809694 
924	 0.312940192607676 
925	 0.313210361720852 
926	 0.313501283498035 
927	 0.313885735546758 
928	 0.314196480984085 
929	 0.314681795622446 
930	 0.315075301740468 
931	 0.315222408377789 
932	 0.315521218267217 
933	 0.315812632061601 
934	 0.316133912587362 
935	 0.316537545834857 
936	 0.316985733940506 
937	 0.317292924876884 
938	 0.317561273972885 
939	 0.317951702067038 
940	 0.318454396131082 
941	 0.31888131345816 
942	 0.319265086952152 
943	 0.319700965139919 
944	 0.32012301034424 
945	 0.320578839805023 
946	 0.321003361851676 
947	 0.321321707828153 
948	 0.321646613514435 
949	 0.322013493869374 
950	 0.322424555919962 
951	 0.322868806185288 
952	 0.323379116715853 
953	 0.323877113780409 
954	 0.324279945425391 
955	 0.324586448696312 
956	 0.325172412933854 
957	 0.325713911560709 
958	 0.326137851847076 
959	 0.326555765063665 
960	 0.32698310149147 
961	 0.327498063594653 
962	 0.328020654371723 
963	 0.328420641063379 
964	 0.328911934622423 
965	 0.329436899537357 
966	 0.329963261761401 
967	 0.330488284713996 
968	 0.330991290411168 
969	 0.331508035632944 
970	 0.332030352475044 
971	 0.33253781327089 
972	 0.333148809923398 
973	 0.333790731448701 
974	 0.334396007938198 
975	 0.334949206134157 
976	 0.335643053459548 
977	 0.336184102460597 
978	 0.336635911083319 
979	 0.337248092524578 
980	 0.337800200546652 
981	 0.338168998347659 
982	 0.33857480558388 
983	 0.339320679155447 
984	 0.340022323867173 
985	 0.340574620424126 
986	 0.341093547645581 
987	 0.341729501050629 
988	 0.342156811981801 
989	 0.342707519479279 
990	 0.343391146848827 
991	 0.344019598610983 
992	 0.344448556350231 
993	 0.344950361300727 
994	 0.345554119053409 
995	 0.346174456175998 
996	 0.346839330902521 
997	 0.347352492995711 
998	 0.347843355675693 
999	 0.348477834194807 
1000	 0.349056303625236 
1001	 0.351547356796874 
1002	 0.352078870356353 
1003	 0.352645019142702 
1004	 0.353184783479855 
1005	 0.353710960219251 
1006	 0.354261527099425 
1007	 0.354827512961929 
1008	 0.355364105279393 
1009	 0.355883306561574 
1010	 0.356380393683239 
1011	 0.356815384331509 
1012	 0.357260498263525 
1013	 0.357782727094332 
1014	 0.358241345443515 
1015	 0.35864642883136 
1016	 0.359154263857171 
1017	 0.359646897373332 
1018	 0.360125645126744 
1019	 0.36056346983407 
1020	 0.361061522847435 
1021	 0.361514817060079 
1022	 0.361893209717713 
1023	 0.36233251447349 
1024	 0.362790574754441 
1025	 0.36313313886087 
1026	 0.363497848432227 
1027	 0.363941111490578 
1028	 0.364348732614717 
1029	 0.364796154673226 
1030	 0.36524017881178 
1031	 0.365672297969024 
1032	 0.366058393507675 
1033	 0.366518654109994 
1034	 0.366995577453153 
1035	 0.367433427828638 
1036	 0.367866602077824 
1037	 0.36823903444103 
1038	 0.368574145822043 
1039	 0.368967180959777 
1040	 0.369365944355669 
1041	 0.369779350030447 
1042	 0.370258537687375 
1043	 0.370700526666505 
1044	 0.371098393710325 
1045	 0.371461167078161 
1046	 0.37185477391081 
1047	 0.372205330880334 
1048	 0.372581726984113 
1049	 0.373108634679386 
1050	 0.373561500907409 
1051	 0.373977251057232 
1052	 0.374408045115313 
1053	 0.374752043181638 
1054	 0.375134941597488 
1055	 0.375507602623503 
1056	 0.375872312994264 
1057	 0.376221659743449 
1058	 0.376512516410339 
1059	 0.376851115826405 
1060	 0.377223153258457 
1061	 0.377550261607229 
1062	 0.377891962452024 
1063	 0.378287407258579 
1064	 0.37862944373305 
1065	 0.378940458234642 
1066	 0.379233976219078 
1067	 0.379465360929355 
1068	 0.379703381263444 
1069	 0.379986550850796 
1070	 0.380257687939846 
1071	 0.380575299082404 
1072	 0.380847534278762 
1073	 0.381078495885924 
1074	 0.381300228679693 
1075	 0.38150788299688 
1076	 0.381691921291161 
1077	 0.381904488604493 
1078	 0.382174546774205 
1079	 0.382442179916889 
1080	 0.382662502848009 
1081	 0.382832385508031 
1082	 0.383033529846016 
1083	 0.383227003992841 
1084	 0.383408571063072 
1085	 0.383610525528133 
1086	 0.383810331993523 
1087	 0.384011672584497 
1088	 0.384222948933644 
1089	 0.384445903971435 
1090	 0.384628855565748 
1091	 0.384846998156311 
1092	 0.385054307746035 
1093	 0.385248383310874 
1094	 0.385477868271344 
1095	 0.385722373958438 
1096	 0.385939937654999 
1097	 0.386165066086945 
1098	 0.386402933298411 
1099	 0.386638960235005 
1100	 0.3868796987249 
1101	 0.387131150116016 
1102	 0.387397316360389 
1103	 0.387683949292456 
1104	 0.387937945926923 
1105	 0.388195894695607 
1106	 0.388505785370543 
1107	 0.388823174432553 
1108	 0.389159446886778 
1109	 0.389486529758454 
1110	 0.389794577401649 
1111	 0.3901144121736 
1112	 0.390394344941562 
1113	 0.390723011545731 
1114	 0.391111959956912 
1115	 0.391454639374476 
1116	 0.391772736663374 
1117	 0.392114137776687 
1118	 0.392456332970937 
1119	 0.392792365497193 
1120	 0.393147950300504 
1121	 0.393525803450021 
1122	 0.393901295405662 
1123	 0.394247074465469 
1124	 0.394602005363444 
1125	 0.394955803353704 
1126	 0.395319665306126 
1127	 0.395685665855559 
1128	 0.396050521218154 
1129	 0.39643416059998 
1130	 0.396782408205734 
1131	 0.397105623928191 
1132	 0.397441321023832 
1133	 0.397784522620942 
1134	 0.398100772603588 
1135	 0.398422830319326 
1136	 0.398703271040484 
1137	 0.398960929760057 
1138	 0.39923548635928 
1139	 0.399511052066617 
1140	 0.39978718322698 
1141	 0.400074058625181 
1142	 0.400374242902578 
1143	 0.400653419600429 
1144	 0.400935853252645 
1145	 0.401209917490643 
1146	 0.401462602554924 
1147	 0.401724655829499 
1148	 0.4019946234646 
1149	 0.402256795491529 
1150	 0.402525050419696 
1151	 0.402777367278224 
1152	 0.403008722336218 
1153	 0.403234183033414 
1154	 0.403465411734642 
1155	 0.403684543430253 
1156	 0.403911548557374 
1157	 0.40416163294659 
1158	 0.404379786316661 
1159	 0.404572475882002 
1160	 0.404780545929261 
1161	 0.404984650551577 
1162	 0.405184682784376 
1163	 0.405374258806182 
1164	 0.4055890165758 
1165	 0.405810315458097 
1166	 0.406037568759333 
1167	 0.406286091552097 
1168	 0.406530986541893 
1169	 0.4067436468709 
1170	 0.406939106798311 
1171	 0.407121435902201 
1172	 0.407274954721818 
1173	 0.407443910925531 
1174	 0.407600252213859 
1175	 0.407772827980701 
1176	 0.407957507935109 
1177	 0.40813609620648 
1178	 0.408316439019143 
1179	 0.408499517001724 
1180	 0.408694281117833 
1181	 0.408871878008495 
1182	 0.409049541220321 
1183	 0.409211464770262 
1184	 0.409379299302377 
1185	 0.409534413860186 
1186	 0.409693709564316 
1187	 0.409864078463987 
1188	 0.410019757369086 
1189	 0.410161397109832 
1190	 0.410307097955431 
1191	 0.410450427912296 
1192	 0.410593631229372 
1193	 0.410729872594081 
1194	 0.410876824532686 
1195	 0.41101970765514 
1196	 0.411178389515787 
1197	 0.411366467053356 
1198	 0.411533009216836 
1199	 0.411695192921459 
1200	 0.411865987938382 
1201	 0.412012119625953 
1202	 0.412136040443231 
1203	 0.412264283353183 
1204	 0.412371820410327 
1205	 0.412511529820693 
1206	 0.412663781113215 
1207	 0.412810977479349 
1208	 0.41298197015832 
1209	 0.413133670391692 
1210	 0.413275236259529 
1211	 0.413409630985028 
1212	 0.413535676950437 
1213	 0.413662245723278 
1214	 0.413782630072291 
1215	 0.413898319744395 
1216	 0.414011303549182 
1217	 0.414119803144154 
1218	 0.414240676328036 
1219	 0.41436648378362 
1220	 0.41447899800751 
1221	 0.414592463578332 
1222	 0.414710289752089 
1223	 0.414821545763736 
1224	 0.414929006286018 
1225	 0.41504485515592 
1226	 0.415155565898614 
1227	 0.415255871345687 
1228	 0.415353110725423 
1229	 0.415447892948418 
1230	 0.415549705873721 
1231	 0.415653631473021 
1232	 0.415747416612007 
1233	 0.415839348498946 
1234	 0.415934731079754 
1235	 0.41603168576524 
1236	 0.41611240936709 
1237	 0.416218164215812 
1238	 0.416360166351905 
1239	 0.416459519183389 
1240	 0.416542583550173 
1241	 0.416633281199312 
1242	 0.416704140574822 
1243	 0.416784736392126 
1244	 0.41688122201084 
1245	 0.416968109027779 
1246	 0.417051926840436 
1247	 0.417127506343148 
1248	 0.41719932236 
1249	 0.417262775341513 
1250	 0.417331471045981 
1251	 0.417403300418967 
1252	 0.417486703020051 
1253	 0.417592406970584 
1254	 0.417674944589484 
1255	 0.417759057959314 
1256	 0.41782874808858 
1257	 0.417875104311115 
1258	 0.417938667267737 
1259	 0.417995921567499 
1260	 0.418067476247698 
1261	 0.418163017980433 
1262	 0.418242638595959 
1263	 0.41832555742436 
1264	 0.41839655201105 
1265	 0.418454487005013 
1266	 0.4185097677115 
1267	 0.418553693386919 
1268	 0.418602999200874 
1269	 0.418656512104006 
1270	 0.418707284223956 
1271	 0.418765068410693 
1272	 0.418829134033512 
1273	 0.418900191903442 
1274	 0.418967206451343 
1275	 0.419055495533082 
1276	 0.419164577710271 
1277	 0.419268168735279 
1278	 0.419380479554161 
1279	 0.419493846820008 
1280	 0.419615767198373 
1281	 0.419728590397299 
1282	 0.419840702691636 
1283	 0.419953413665237 
1284	 0.420087049715762 
1285	 0.420167338464522 
1286	 0.420241097090191 
1287	 0.420318984149991 
1288	 0.420366519612002 
1289	 0.420376142482563 
1290	 0.420402830286732 
1291	 0.420433332030505 
1292	 0.420440525566999 
1293	 0.420442684161408 
1294	 0.420420805737597 
1295	 0.420366825782955 
1296	 0.420320538965269 
1297	 0.420261410536815 
1298	 0.42020695454034 
1299	 0.420159741201336 
1300	 0.420095150794365 
1301	 0.420019590215849 
1302	 0.419942050494618 
1303	 0.419853428715814 
1304	 0.419772164802588 
1305	 0.419673027448643 
1306	 0.419552176035846 
1307	 0.419412800429901 
1308	 0.419252096051694 
1309	 0.419110987909543 
1310	 0.418967026371094 
1311	 0.418837614194993 
1312	 0.418719796855504 
1313	 0.418602219752678 
1314	 0.41849270950675 
1315	 0.418378137503167 
1316	 0.418247800105484 
1317	 0.418154626756712 
1318	 0.418072073439661 
1319	 0.418005532789826 
1320	 0.417986815404378 
1321	 0.417941327941207 
1322	 0.417893966731192 
1323	 0.417835419235119 
1324	 0.417780451158703 
1325	 0.417728517021076 
1326	 0.417689739344546 
1327	 0.41766361162598 
1328	 0.417612901595502 
1329	 0.417575021980326 
1330	 0.417558730445947 
1331	 0.417536079703732 
1332	 0.41755634188731 
1333	 0.417618275303335 
1334	 0.417667705100294 
1335	 0.417745051008866 
1336	 0.417801874054811 
1337	 0.417834666753295 
1338	 0.417903907738194 
1339	 0.417989104047654 
1340	 0.418067829103497 
1341	 0.418176821524362 
1342	 0.418262969639137 
1343	 0.418345397901687 
1344	 0.418394301718365 
1345	 0.418440057497295 
1346	 0.41851128659683 
1347	 0.418568412599009 
1348	 0.418637318000647 
1349	 0.418706169910402 
1350	 0.418749208576771 
1351	 0.418792697674456 
1352	 0.418821937600864 
1353	 0.418863472369499 
1354	 0.418899806039713 
1355	 0.418944618830919 
1356	 0.419002466992435 
1357	 0.419048342476066 
1358	 0.419098703994631 
1359	 0.419138582489357 
1360	 0.419164527197239 
1361	 0.419194789686626 
1362	 0.419226821867745 
1363	 0.41924833831289 
1364	 0.419278669499814 
1365	 0.41928696126042 
1366	 0.419273266973275 
1367	 0.419258267368532 
1368	 0.41924946124406 
1369	 0.419208658299535 
1370	 0.419156407430079 
1371	 0.41907882663979 
1372	 0.418950957423621 
1373	 0.418795653104914 
1374	 0.418614936507995 
1375	 0.418419863389366 
1376	 0.418152441800058 
1377	 0.417849426302999 
1378	 0.417496038658641 
1379	 0.417076349105661 
1380	 0.416634168711716 
1381	 0.41616663546199 
1382	 0.415633634432225 
1383	 0.415071933691322 
1384	 0.414428585447928 
1385	 0.413757430330524 
1386	 0.412975882919825 
1387	 0.412130130919622 
1388	 0.411167637762617 
1389	 0.410118737963715 
1390	 0.40893853107583 
1391	 0.407650366092236 
1392	 0.406266675813954 
1393	 0.404769986034583 
1394	 0.403224923740896 
1395	 0.40159236028376 
1396	 0.399926315911551 
1397	 0.398271692962539 
1398	 0.396556734001657 
1399	 0.394908838452565 
1400	 0.393268075836222 
1401	 0.391681875379292 
1402	 0.390120167127949 
1403	 0.388621927954888 
1404	 0.387146455787798 
1405	 0.385777657208886 
1406	 0.384449377580655 
1407	 0.383237848113848 
1408	 0.382081710786679 
1409	 0.38109563061242 
1410	 0.380187082204029 
1411	 0.379485984646133 
1412	 0.378939104646703 
1413	 0.378572508250098 
1414	 0.378431770755318 
1415	 0.37842964636046 
1416	 0.37859858267869 
1417	 0.378891616312712 
1418	 0.379235382651606 
1419	 0.379611208853967 
1420	 0.379979629602346 
1421	 0.380343125541067 
1422	 0.380643981113801 
1423	 0.380893733363547 
1424	 0.381089454569989 
1425	 0.381231084063628 
1426	 0.381327246629638 
1427	 0.381351625863559 
1428	 0.381384951878102 
1429	 0.381378457796634 
1430	 0.381374608428765 
1431	 0.381367548105983 
1432	 0.381340869556499 
1433	 0.381281361426425 
1434	 0.381241667497467 
1435	 0.381192480260691 
1436	 0.381161097020888 
1437	 0.381153526052184 
1438	 0.381132386363459 
1439	 0.381122801246826 
1440	 0.38108233438289 
1441	 0.381043852605041 
1442	 0.381013704443944 
1443	 0.380966158060853 
1444	 0.380931740186684 
1445	 0.380894911726956 
1446	 0.380853006431546 
1447	 0.38083339214786 
1448	 0.380826677533889 
1449	 0.38081819287202 
1450	 0.38080868016226 
1451	 0.380808321300607 
1452	 0.380808431856273 
1453	 0.380814452777387 
1454	 0.380830562485838 
1455	 0.380847498331071 
1456	 0.380867500699927 
1457	 0.380888534085456 
1458	 0.38091397837289 
1459	 0.380940995088363 
1460	 0.380955013900533 
1461	 0.38099477130022 
1462	 0.381035031961667 
1463	 0.381113864254463 
1464	 0.381214838175961 
1465	 0.381344065922413 
1466	 0.381516773246064 
1467	 0.381690111600399 
1468	 0.381863272815592 
1469	 0.382080306867836 
1470	 0.382338818515086 
1471	 0.382580666066262 
1472	 0.382849218497233 
1473	 0.383168084532074 
1474	 0.383458390147068 
1475	 0.38377501453976 
1476	 0.384128654299252 
1477	 0.384460728740362 
1478	 0.38482166261775 
1479	 0.385187411017484 
1480	 0.385551282705304 
1481	 0.385940036634365 
1482	 0.386297516602156 
1483	 0.386635974160988 
1484	 0.386992085233893 
1485	 0.387340700842372 
1486	 0.387693361487533 
1487	 0.388065478864896 
1488	 0.388416770931888 
1489	 0.388753565655101 
1490	 0.389093647496304 
1491	 0.389425869338417 
1492	 0.38977203557748 
1493	 0.39012404355814 
1494	 0.390468536555644 
1495	 0.390822414484948 
1496	 0.391163512383311 
1497	 0.39149657348334 
1498	 0.391827251981509 
1499	 0.392153499626406 
1500	 0.392472691916201 
1501	 0.392794367266074 
1502	 0.393093220500096 
1503	 0.393370125018912 
1504	 0.393652990649106 
1505	 0.393931512012094 
1506	 0.394208407882361 
1507	 0.394510492283666 
1508	 0.394810066194418 
1509	 0.395081435084382 
1510	 0.395348153769169 
1511	 0.395609309248517 
1512	 0.395857890508377 
1513	 0.39613379183863 
1514	 0.396421672940285 
1515	 0.396715206918353 
1516	 0.397012211845458 
1517	 0.397258633569206 
1518	 0.39747066162484 
1519	 0.39769423569471 
1520	 0.397873454378808 
1521	 0.398098777881572 
1522	 0.398360703927893 
1523	 0.398600806045157 
1524	 0.398852286887722 
1525	 0.399082207973909 
1526	 0.399293848390176 
1527	 0.399504939641013 
1528	 0.399702443708273 
1529	 0.399900722985685 
1530	 0.400086932396826 
1531	 0.400299129628045 
1532	 0.400527361470389 
1533	 0.400743717711989 
1534	 0.400990552606606 
1535	 0.401196171804255 
1536	 0.401360780499639 
1537	 0.401541505377724 
1538	 0.401703183101095 
1539	 0.401878961984231 
1540	 0.402075355663547 
1541	 0.402260205881834 
1542	 0.402455806309928 
1543	 0.402624836146756 
1544	 0.402770461422773 
1545	 0.402917349647194 
1546	 0.403044135261294 
1547	 0.403174117261306 
1548	 0.403327536574209 
1549	 0.403495189704463 
1550	 0.40365215653098 
1551	 0.403827312173484 
1552	 0.404012993833086 
1553	 0.404159288116456 
1554	 0.404304062737088 
1555	 0.404463556527954 
1556	 0.404607495914934 
1557	 0.404749462837225 
1558	 0.404882010789755 
1559	 0.40499326893269 
1560	 0.405112060327977 
1561	 0.405205394084819 
1562	 0.405329831415007 
1563	 0.405470503139227 
1564	 0.405620300091578 
1565	 0.405781169356293 
1566	 0.405945242118646 
1567	 0.406129773554026 
1568	 0.406289436619592 
1569	 0.406446877733499 
1570	 0.406585420368854 
1571	 0.406711877807096 
1572	 0.406831174717103 
1573	 0.406931510312023 
1574	 0.407037678139716 
1575	 0.407131628043345 
1576	 0.407237540619934 
1577	 0.407372048673867 
1578	 0.407455783877709 
1579	 0.407512750134247 
1580	 0.407579006937542 
1581	 0.407608429214934 
1582	 0.407665802464494 
1583	 0.407742655944529 
1584	 0.407824462996581 
1585	 0.407905631098911 
1586	 0.407996153254116 
1587	 0.408114053975432 
1588	 0.40821148985101 
1589	 0.408314661332374 
1590	 0.408396277838843 
1591	 0.408445989115818 
1592	 0.408518327477105 
1593	 0.408587893361454 
1594	 0.408658221275737 
1595	 0.408742102907056 
1596	 0.408822852619939 
1597	 0.408899065580735 
1598	 0.408975894547839 
1599	 0.409065304671569 
1600	 0.409137596715604 
1601	 0.409191865943563 
1602	 0.409255731177422 
1603	 0.409316870159186 
1604	 0.409377227705998 
1605	 0.409441041716895 
1606	 0.409501434139073 
1607	 0.409555944664219 
1608	 0.409614923300829 
1609	 0.40966473495681 
1610	 0.409726588238953 
1611	 0.409768072559809 
1612	 0.409793829084802 
1613	 0.409817804502974 
1614	 0.409834646871358 
1615	 0.409860220718783 
1616	 0.409880237203277 
1617	 0.409898668819988 
1618	 0.409931622738906 
1619	 0.409976638687048 
1620	 0.410032156145678 
1621	 0.410083539007319 
1622	 0.410155311869376 
1623	 0.410192859422556 
1624	 0.410204659527909 
1625	 0.410246931290113 
1626	 0.41028631236721 
1627	 0.410332020917019 
1628	 0.410407692568727 
1629	 0.410443884542011 
1630	 0.410457574908395 
1631	 0.410481348125716 
1632	 0.4104966991425 
1633	 0.410508298340139 
1634	 0.410525103724064 
1635	 0.410525057154788 
1636	 0.410501550464366 
1637	 0.410504716947892 
1638	 0.41051079689927 
1639	 0.410521876844303 
1640	 0.410555748074535 
1641	 0.41056278400782 
1642	 0.410550413173971 
1643	 0.410560336265575 
1644	 0.410561558962497 
1645	 0.410589252075887 
1646	 0.4106478439572 
1647	 0.410685642856725 
1648	 0.410738914957654 
1649	 0.410757844822407 
1650	 0.410750346346311 
1651	 0.410755164930254 
1652	 0.410745785610306 
1653	 0.410743482040893 
1654	 0.410749971972798 
1655	 0.41075060989426 
1656	 0.410741998904223 
1657	 0.410742658249412 
1658	 0.410744316799061 
1659	 0.41075703059473 
1660	 0.41078591186074 
1661	 0.410795226948938 
1662	 0.410810559555672 
1663	 0.41080700613186 
1664	 0.410777932256938 
1665	 0.410760910723372 
1666	 0.410736675536664 
1667	 0.410725270509617 
1668	 0.410728933064105 
1669	 0.410712787542471 
1670	 0.410698471934638 
1671	 0.410671876380496 
1672	 0.410616611159528 
1673	 0.410588176920399 
1674	 0.410566536405252 
1675	 0.4105495175098 
1676	 0.410545339966739 
1677	 0.410539523101462 
1678	 0.41054116787138 
1679	 0.410532118847431 
1680	 0.410530734728919 
1681	 0.410506103407727 
1682	 0.410459323681267 
1683	 0.410419559108742 
1684	 0.410359816006011 
1685	 0.41032589631325 
1686	 0.410304362357632 
1687	 0.41028789914324 
1688	 0.410289283280954 
1689	 0.410280544248641 
1690	 0.410273331167786 
1691	 0.410261601397714 
1692	 0.410246880971177 
1693	 0.410230517401022 
1694	 0.410218607097732 
1695	 0.410189400254629 
1696	 0.410148674321867 
1697	 0.410110268008443 
1698	 0.410055299315534 
1699	 0.410014852696053 
1700	 0.409989531101819 
1701	 0.409946371257894 
1702	 0.409899093172448 
1703	 0.409849615659927 
1704	 0.409781451966368 
1705	 0.409734964368205 
1706	 0.409708142772963 
1707	 0.40965949510876 
1708	 0.409617255281997 
1709	 0.409553873974871 
1710	 0.4094485367169 
1711	 0.409390787138306 
1712	 0.409337515363972 
1713	 0.409311775792876 
1714	 0.409346332377017 
1715	 0.40931689544791 
1716	 0.409269014007953 
1717	 0.409222142866727 
1718	 0.409145183580324 
1719	 0.409079774083987 
1720	 0.409035009726803 
1721	 0.408963249482863 
1722	 0.408865584040754 
1723	 0.408777694278138 
1724	 0.408693523107654 
1725	 0.408586404526441 
1726	 0.40845947105647 
1727	 0.408356193841789 
1728	 0.408248802689616 
1729	 0.40814379666291 
1730	 0.408071483867902 
1731	 0.407948413825869 
1732	 0.407796991035009 
1733	 0.407642691076172 
1734	 0.407455292285268 
1735	 0.407298530516678 
1736	 0.407149996576313 
1737	 0.406991270058706 
1738	 0.4068335531066 
1739	 0.406696457543766 
1740	 0.4065596951159 
1741	 0.406430088805979 
1742	 0.406341029894327 
1743	 0.406194288975779 
1744	 0.406009048224354 
1745	 0.405842880548727 
1746	 0.405644989943273 
1747	 0.405516725290801 
1748	 0.40542968197399 
1749	 0.405332377187647 
1750	 0.405237985830947 
1751	 0.405115996384975 
1752	 0.404963552078317 
1753	 0.404834634764305 
1754	 0.404669310869955 
1755	 0.404508367705304 
1756	 0.404377551668124 
1757	 0.404231173074291 
1758	 0.404115371148935 
1759	 0.403977255792775 
1760	 0.40380153540435 
1761	 0.403646485604198 
1762	 0.40345949735077 
1763	 0.403259770179699 
1764	 0.403110639276089 
1765	 0.402976464611558 
1766	 0.402861197024874 
1767	 0.402780327068102 
1768	 0.402695176960912 
1769	 0.402592278848269 
1770	 0.402463360564657 
1771	 0.402312555870745 
1772	 0.402159473621642 
1773	 0.401979199163353 
1774	 0.401808544750544 
1775	 0.401667174371168 
1776	 0.401515179644446 
1777	 0.401419000036439 
1778	 0.401365446539952 
1779	 0.401305635340323 
1780	 0.401268838602294 
1781	 0.401199345773051 
1782	 0.401097809274971 
1783	 0.401021795214577 
1784	 0.40093935337356 
1785	 0.400869794935092 
1786	 0.400788158090994 
1787	 0.400674509232486 
1788	 0.400600618762965 
1789	 0.400543174803717 
1790	 0.40048044674422 
1791	 0.40042745296017 
1792	 0.400395327731416 
1793	 0.400387671762614 
1794	 0.400347418986603 
1795	 0.400326017924606 
1796	 0.400267325726365 
1797	 0.400142843769793 
1798	 0.400064791028685 
1799	 0.399984804622223 
1800	 0.399941371755172 
1801	 0.395775557423135 
1802	 0.395741269826086 
1803	 0.395750110516307 
1804	 0.395806718754685 
1805	 0.395866642549846 
1806	 0.395942599195691 
1807	 0.396032457332778 
1808	 0.396092319463408 
1809	 0.396140128576256 
1810	 0.39617082390123 
1811	 0.396198807824002 
1812	 0.396189713468212 
1813	 0.39614924754655 
1814	 0.396124955984126 
1815	 0.396073407528325 
1816	 0.39603809955856 
1817	 0.396010328827456 
1818	 0.395976485911439 
1819	 0.395958268991658 
1820	 0.395967979057015 
1821	 0.395950534475047 
1822	 0.395925299172609 
1823	 0.395913718174788 
1824	 0.395854131825986 
1825	 0.395788824091856 
1826	 0.395736589840938 
1827	 0.395665288782601 
1828	 0.395564758052799 
1829	 0.395446240805105 
1830	 0.395325173413183 
1831	 0.395186785223631 
1832	 0.395014397430642 
1833	 0.394846525294551 
1834	 0.394684978365428 
1835	 0.394497859560327 
1836	 0.394327090987539 
1837	 0.39417676861348 
1838	 0.394015451973507 
1839	 0.393865948869504 
1840	 0.393731424568465 
1841	 0.393576204632429 
1842	 0.393407705335245 
1843	 0.393245811350449 
1844	 0.393026299132336 
1845	 0.39278608747824 
1846	 0.392539570878736 
1847	 0.392266602130006 
1848	 0.391995176691946 
1849	 0.391740017022401 
1850	 0.391496094615946 
1851	 0.391267589630647 
1852	 0.391039758877944 
1853	 0.390824523868811 
1854	 0.390582716622695 
1855	 0.390313292608191 
1856	 0.390033746145132 
1857	 0.389682859161004 
1858	 0.389282867427736 
1859	 0.388852283094518 
1860	 0.388359766190487 
1861	 0.387804485283508 
1862	 0.387203608038809 
1863	 0.386566656776922 
1864	 0.385876432371565 
1865	 0.385148094209034 
1866	 0.384359668944884 
1867	 0.383495051176282 
1868	 0.382563123522816 
1869	 0.381547618039076 
1870	 0.380465719487657 
1871	 0.379287441306252 
1872	 0.378040025632287 
1873	 0.376702566448544 
1874	 0.375266952202151 
1875	 0.37372901372807 
1876	 0.372089660688808 
1877	 0.37031874096839 
1878	 0.368379453334798 
1879	 0.366276635286582 
1880	 0.364021708580751 
1881	 0.361578527263941 
1882	 0.359035455735739 
1883	 0.356373135676532 
1884	 0.353516599107163 
1885	 0.350546946280878 
1886	 0.34743257913876 
1887	 0.344125176630164 
1888	 0.340704965836389 
1889	 0.337153162102135 
1890	 0.333511162903444 
1891	 0.329884832117986 
1892	 0.326118795308059 
1893	 0.322480113858316 
1894	 0.318868320871625 
1895	 0.315305996322814 
1896	 0.311748817510993 
1897	 0.308344864876284 
1898	 0.30500295045618 
1899	 0.301793744359193 
1900	 0.298818169502533 
1901	 0.296015389818972 
1902	 0.293410051997003 
1903	 0.291055214161467 
1904	 0.288809676828372 
1905	 0.286718994551185 
1906	 0.28482044772656 
1907	 0.283036027501919 
1908	 0.281382834530775 
1909	 0.279895176543765 
1910	 0.278478592996857 
1911	 0.277179586292154 
1912	 0.276007424008007 
1913	 0.274934436433427 
1914	 0.273995346916932 
1915	 0.273104479208507 
1916	 0.272319094338088 
1917	 0.271583034829924 
1918	 0.270898478759643 
1919	 0.270256365740161 
1920	 0.269697139167117 
1921	 0.269212674485278 
1922	 0.268781957328826 
1923	 0.268429600424396 
1924	 0.268117932278929 
1925	 0.267855181169149 
1926	 0.267653499574292 
1927	 0.267503219875647 
1928	 0.267417392063568 
1929	 0.267385672872012 
1930	 0.267412402955067 
1931	 0.267469274802975 
1932	 0.267538901090269 
1933	 0.26767049704477 
1934	 0.267856154009572 
1935	 0.268075699897024 
1936	 0.268358206364361 
1937	 0.26865818748112 
1938	 0.268986545586326 
1939	 0.269342896415992 
1940	 0.269735674156116 
1941	 0.270144173341315 
1942	 0.270580646587684 
1943	 0.271062368761241 
1944	 0.271569716280683 
1945	 0.272110432644049 
1946	 0.272659107307662 
1947	 0.273230973151571 
1948	 0.273802293024425 
1949	 0.274390267282719 
1950	 0.274985080409344 
1951	 0.27556613586125 
1952	 0.276202896806214 
1953	 0.276871825222341 
1954	 0.277519394385018 
1955	 0.278173206293656 
1956	 0.278844124018621 
1957	 0.279539139412595 
1958	 0.280236918342395 
1959	 0.280957239192674 
1960	 0.281728176594598 
1961	 0.282478894315144 
1962	 0.283217289814228 
1963	 0.283977635890264 
1964	 0.284755941989763 
1965	 0.285529428463702 
1966	 0.286318622370968 
1967	 0.287106740526687 
1968	 0.287898399306673 
1969	 0.288686999721734 
1970	 0.289489338157165 
1971	 0.290315804707662 
1972	 0.29112109913934 
1973	 0.291917084924996 
1974	 0.292722574558065 
1975	 0.293527575558646 
1976	 0.294317137249525 
1977	 0.295140984150477 
1978	 0.295972143750219 
1979	 0.296762601592258 
1980	 0.297586221183496 
1981	 0.298408693007466 
1982	 0.299217143227517 
1983	 0.300048660407586 
1984	 0.300919660965911 
1985	 0.301755126928764 
1986	 0.302582401386724 
1987	 0.303409733532506 
1988	 0.304209439632047 
1989	 0.305040768706846 
1990	 0.305885993212943 
1991	 0.306719616975131 
1992	 0.307555645674457 
1993	 0.308413743730989 
1994	 0.309234863017214 
1995	 0.310039798256925 
1996	 0.310834824123512 
1997	 0.311607652188672 
1998	 0.312378990045333 
1999	 0.313127892459093 
2000	 0.313896658186498 
2001	 0.314671999354688 
2002	 0.315446256152028 
2003	 0.316234888523012 
2004	 0.317012317480563 
2005	 0.317761534726858 
2006	 0.318487041286492 
2007	 0.319220684233105 
2008	 0.319920235835234 
2009	 0.320653716874472 
2010	 0.321418666177875 
2011	 0.322152584339622 
2012	 0.322893754512299 
2013	 0.323617561946414 
2014	 0.324309545434046 
2015	 0.325017262014351 
2016	 0.325707195677624 
2017	 0.326386009516189 
2018	 0.327081116289122 
2019	 0.327783761719848 
2020	 0.328469207301337 
2021	 0.329164726838548 
2022	 0.329839777198382 
2023	 0.330500285564194 
2024	 0.331145831265779 
2025	 0.331770754209703 
2026	 0.332403232952612 
2027	 0.333039115858072 
2028	 0.333638123694882 
2029	 0.33424965942804 
2030	 0.334870894183745 
2031	 0.335474405007621 
2032	 0.336068203038867 
2033	 0.33665251004078 
2034	 0.337218339485125 
2035	 0.337800601443188 
2036	 0.338385222103558 
2037	 0.338956495811657 
2038	 0.339557371215684 
2039	 0.340109310547942 
2040	 0.340624469372753 
2041	 0.341121392867236 
2042	 0.341611556922769 
2043	 0.342121731329299 
2044	 0.342627381265833 
2045	 0.343152723796291 
2046	 0.343655790484712 
2047	 0.344155364105659 
2048	 0.344631944270007 
2049	 0.345088873657034 
2050	 0.345546059591067 
2051	 0.345995859849121 
2052	 0.346428110577741 
2053	 0.346845471386027 
2054	 0.34726653762639 
2055	 0.347674742975879 
2056	 0.348077527911206 
2057	 0.34847296724763 
2058	 0.348872873216278 
2059	 0.349259245824569 
2060	 0.349614725845515 
2061	 0.350002081109449 
2062	 0.350413071047399 
2063	 0.350799101741074 
2064	 0.351185326172454 
2065	 0.351567556256188 
2066	 0.351930329921248 
2067	 0.352300079496576 
2068	 0.352676907024555 
2069	 0.353049677942807 
2070	 0.353423068686942 
2071	 0.353789601171384 
2072	 0.354167845555103 
2073	 0.354567072103885 
2074	 0.354928461543147 
2075	 0.355275192167327 
2076	 0.355625094303085 
2077	 0.35595811615974 
2078	 0.3562866795742 
2079	 0.356631129740052 
2080	 0.356945953989528 
2081	 0.357227060792884 
2082	 0.357514557661413 
2083	 0.357782521676166 
2084	 0.358062699000798 
2085	 0.358348404323785 
2086	 0.358641410122947 
2087	 0.358923693819721 
2088	 0.359205710770046 
2089	 0.359490761531219 
2090	 0.359770127338278 
2091	 0.36005399850032 
2092	 0.360356317290702 
2093	 0.360637356459776 
2094	 0.360902181820518 
2095	 0.361169815473396 
2096	 0.361416591512585 
2097	 0.361685986975951 
2098	 0.361970167200765 
2099	 0.362263759486087 
2100	 0.362526319014933 
2101	 0.362790074066195 
2102	 0.363038328713329 
2103	 0.363236793928828 
2104	 0.363495044610617 
2105	 0.363779399675049 
2106	 0.364060536557062 
2107	 0.364366839076935 
2108	 0.364664428629745 
2109	 0.364952624013745 
2110	 0.3652560378603 
2111	 0.365586136150075 
2112	 0.365891350228784 
2113	 0.36618928699273 
2114	 0.366491246167969 
2115	 0.366773901654886 
2116	 0.367024699879835 
2117	 0.367312239221684 
2118	 0.367588761125491 
2119	 0.367915985005072 
2120	 0.368289283428189 
2121	 0.368641984348044 
2122	 0.369037592432141 
2123	 0.369384694943648 
2124	 0.369721579633966 
2125	 0.370022045857749 
2126	 0.370299411389464 
2127	 0.370547962001026 
2128	 0.370750332831138 
2129	 0.37094749885442 
2130	 0.371121932170164 
2131	 0.371279209486451 
2132	 0.371442685838251 
2133	 0.371609194542533 
2134	 0.371740278757794 
2135	 0.371871856228769 
2136	 0.371957954412074 
2137	 0.371991020146725 
2138	 0.372038296353201 
2139	 0.372080672876789 
2140	 0.37208821912322 
2141	 0.372078180058992 
2142	 0.372055940207496 
2143	 0.372002428256488 
2144	 0.37193913546386 
2145	 0.371881273203213 
2146	 0.371790032777141 
2147	 0.37168413291798 
2148	 0.371528198172987 
2149	 0.371362894590241 
2150	 0.37118283720597 
2151	 0.370959037661702 
2152	 0.370694877765526 
2153	 0.370425984860155 
2154	 0.370106462696199 
2155	 0.369816718153228 
2156	 0.369548512856598 
2157	 0.369239572181035 
2158	 0.368943743334393 
2159	 0.368589719695333 
2160	 0.368158999140906 
2161	 0.36775798081617 
2162	 0.367335099596326 
2163	 0.366915787462453 
2164	 0.366502540075586 
2165	 0.366105435129987 
2166	 0.365676958856259 
2167	 0.365232689539785 
2168	 0.364779572017176 
2169	 0.364331882603514 
2170	 0.363827398716028 
2171	 0.363310511032313 
2172	 0.362735534113443 
2173	 0.36209671758183 
2174	 0.361450832483025 
2175	 0.360780995033993 
2176	 0.360066665122756 
2177	 0.35931934909561 
2178	 0.35854293081804 
2179	 0.357709867992551 
2180	 0.356871845401019 
2181	 0.356004564063405 
2182	 0.355135813052321 
2183	 0.354264382216858 
2184	 0.353355869379276 
2185	 0.352452102245923 
2186	 0.351533593456693 
2187	 0.350626431699696 
2188	 0.349703375796404 
2189	 0.348806540708232 
2190	 0.347897354241739 
2191	 0.347055053098455 
2192	 0.346205285938442 
2193	 0.345464639696021 
2194	 0.344796209903676 
2195	 0.344188140264228 
2196	 0.343661014898421 
2197	 0.343187223397152 
2198	 0.342771253969641 
2199	 0.342422155495547 
2200	 0.342135050099379 
2201	 0.341916306380625 
2202	 0.341770108434735 
2203	 0.341677353944607 
2204	 0.341669210914909 
2205	 0.341739814221226 
2206	 0.341874189536115 
2207	 0.342066508950952 
2208	 0.342370336031262 
2209	 0.342771491285472 
2210	 0.34322417007959 
2211	 0.34381223356972 
2212	 0.344370777266139 
2213	 0.344984705068674 
2214	 0.345571397143263 
2215	 0.346184929375829 
2216	 0.346762244562362 
2217	 0.347340953068999 
2218	 0.347872734854027 
2219	 0.348380263754875 
2220	 0.348850183808197 
2221	 0.349257089739867 
2222	 0.349676699542746 
2223	 0.350085781851578 
2224	 0.350422261108162 
2225	 0.350711173790435 
2226	 0.350968074263389 
2227	 0.351152728098012 
2228	 0.351246200512878 
2229	 0.351368233749131 
2230	 0.351456356349139 
2231	 0.351525357158242 
2232	 0.351594945672617 
2233	 0.351607855606969 
2234	 0.351560921943626 
2235	 0.35152980936879 
2236	 0.351472910764853 
2237	 0.35141176238303 
2238	 0.351338099360228 
2239	 0.351268595495799 
2240	 0.351186705420552 
2241	 0.351112466869379 
2242	 0.351061138365454 
2243	 0.350982391524783 
2244	 0.350911008364946 
2245	 0.350798788732252 
2246	 0.350639106528115 
2247	 0.350466799986038 
2248	 0.350267537056871 
2249	 0.350010225175139 
2250	 0.349797420366061 
2251	 0.349571940302477 
2252	 0.349387406339359 
2253	 0.34923604899392 
2254	 0.349077693681531 
2255	 0.348939873853969 
2256	 0.348793968151715 
2257	 0.348631048634885 
2258	 0.348503345781885 
2259	 0.348383209508864 
2260	 0.348293278074494 
2261	 0.348239991747139 
2262	 0.348183469457213 
2263	 0.348141949260709 
2264	 0.348112764759106 
2265	 0.348091963557501 
2266	 0.348087464795429 
2267	 0.348118541409525 
2268	 0.348129866136424 
2269	 0.348133362432662 
2270	 0.348141690380396 
2271	 0.348188223334261 
2272	 0.348208738669349 
2273	 0.34822465230753 
2274	 0.348249713418205 
2275	 0.348272221163306 
2276	 0.348259238053169 
2277	 0.348297344306604 
2278	 0.34839201001391 
2279	 0.348416790995238 
2280	 0.348413373832472 
2281	 0.348438395820423 
2282	 0.348451924299473 
2283	 0.348468829410322 
2284	 0.348520735080097 
2285	 0.348527158198663 
2286	 0.348478388621086 
2287	 0.348460229093399 
2288	 0.348459190607892 
2289	 0.348441145083756 
2290	 0.348429537290942 
2291	 0.34840310241926 
2292	 0.348343114658807 
2293	 0.34829844596802 
2294	 0.348256551954926 
2295	 0.348219450429821 
2296	 0.348200525025887 
2297	 0.348160522093532 
2298	 0.348104160027322 
2299	 0.348050034892133 
2300	 0.347997960722894 
2301	 0.347912719291428 
2302	 0.347831107455826 
2303	 0.347708223812876 
2304	 0.347540557999615 
2305	 0.34737685770817 
2306	 0.347202499112307 
2307	 0.346997538753493 
2308	 0.346846485972135 
2309	 0.346733719780168 
2310	 0.346567198885258 
2311	 0.346425510942045 
2312	 0.346212165286431 
2313	 0.345909546844406 
2314	 0.345644433117936 
2315	 0.345379926989507 
2316	 0.34510142292668 
2317	 0.344823837442293 
2318	 0.344533598521918 
2319	 0.34418442615647 
2320	 0.343898996034767 
2321	 0.34360920465836 
2322	 0.343383420085088 
2323	 0.343282367733769 
2324	 0.343096943846125 
2325	 0.342935075743798 
2326	 0.342711176270593 
2327	 0.342429916841897 
2328	 0.342085418967469 
2329	 0.341755714634441 
2330	 0.341451539295739 
2331	 0.341194755433874 
2332	 0.340924275927846 
2333	 0.340627888465699 
2334	 0.34034551797822 
2335	 0.339995142637318 
2336	 0.339651353457699 
2337	 0.339356235500659 
2338	 0.339081626676504 
2339	 0.338859820980418 
2340	 0.338581373425062 
2341	 0.338287879712261 
2342	 0.337941870931842 
2343	 0.337516120722434 
2344	 0.337178842229091 
2345	 0.336814983510361 
2346	 0.336426291313215 
2347	 0.336115203203585 
2348	 0.335825091790337 
2349	 0.33555250137307 
2350	 0.335381331168364 
2351	 0.335114082968528 
2352	 0.33480834506489 
2353	 0.334502815939595 
2354	 0.334104184871106 
2355	 0.333850619989811 
2356	 0.333698317173607 
2357	 0.333490444349986 
2358	 0.333345292639619 
2359	 0.333163053457572 
2360	 0.332917945180965 
2361	 0.332687291377298 
2362	 0.332514720642543 
2363	 0.332265128197996 
2364	 0.331903331803547 
2365	 0.331640027338332 
2366	 0.331453930737852 
2367	 0.331159254557693 
2368	 0.330858053085216 
2369	 0.330546131964697 
2370	 0.330160689776175 
2371	 0.329745733682698 
2372	 0.329391840863481 
2373	 0.329010622532006 
2374	 0.328610052236304 
2375	 0.328206713220694 
2376	 0.327820701166283 
2377	 0.327432476356874 
2378	 0.32700464364258 
2379	 0.326470028635118 
2380	 0.325929518270351 
2381	 0.325484047460677 
2382	 0.32498232735385 
2383	 0.32455936353879 
2384	 0.32418354163046 
2385	 0.32370119785565 
2386	 0.323214979797168 
2387	 0.322702021640593 
2388	 0.322211386724754 
2389	 0.321699970402903 
2390	 0.3212125387265 
2391	 0.320834811208404 
2392	 0.32036844793396 
2393	 0.319884963853989 
2394	 0.319408920093926 
2395	 0.318932359794342 
2396	 0.318469157223541 
2397	 0.317919363536739 
2398	 0.317399898625433 
2399	 0.31681515145305 
2400	 0.31623751689781 
2401	 0.315787299726133 
2402	 0.31531287067369 
2403	 0.314883455542163 
2404	 0.314322732496352 
2405	 0.313686418323284 
2406	 0.313100777168634 
2407	 0.312368595119193 
2408	 0.311716723362636 
2409	 0.311037548630412 
2410	 0.310234722764189 
2411	 0.309588397029529 
2412	 0.308997207276834 
2413	 0.308417055362202 
2414	 0.307864830489213 
2415	 0.30723933234894 
2416	 0.306560867413692 
2417	 0.305785194884432 
2418	 0.305030083223474 
2419	 0.304192342908312 
2420	 0.303458955255773 
2421	 0.302780866508053 
2422	 0.302057909366054 
2423	 0.301396124854801 
2424	 0.300739924375551 
2425	 0.299993975883884 
2426	 0.299311057097129 
2427	 0.298771546193984 
2428	 0.29807206934016 
2429	 0.297277199367 
2430	 0.296553100933011 
2431	 0.295743997414401 
2432	 0.295055583922403 
2433	 0.294456945784397 
2434	 0.293881882609669 
2435	 0.293447725230406 
2436	 0.29284421769816 
2437	 0.292176972672119 
2438	 0.291514185510238 
2439	 0.290734764376642 
2440	 0.290025998405316 
2441	 0.289333415036659 
2442	 0.288714250581027 
2443	 0.28816585841324 
2444	 0.28757921977906 
2445	 0.287071494476018 
2446	 0.286525604007253 
2447	 0.285919811715454 
2448	 0.285315096777352 
2449	 0.284668060995775 
2450	 0.284101182937808 
2451	 0.283550104176828 
2452	 0.282951569502361 
2453	 0.282476424394001 
2454	 0.281916390787326 
2455	 0.281188750533374 
2456	 0.28065224422879 
2457	 0.280203822758507 
2458	 0.279707830594599 
2459	 0.279341526201631 
2460	 0.278814611637103 
2461	 0.278129598945562 
2462	 0.277590366081578 
2463	 0.276971345637839 
2464	 0.276448235497085 
2465	 0.276185481683942 
2466	 0.27569207827679 
2467	 0.275071502704899 
2468	 0.274568673673573 
2469	 0.274012953448309 
2470	 0.27362058480808 
2471	 0.273164730371913 
2472	 0.272602900484844 
2473	 0.271924995280163 
2474	 0.2711384056401 
2475	 0.270542978668905 
2476	 0.270011107275383 
2477	 0.269476511314762 
2478	 0.269030670649077 
2479	 0.268486601450355 
2480	 0.268080753007122 
2481	 0.267752640482265 
2482	 0.267284038079078 
2483	 0.266852282856528 
2484	 0.266308030689342 
2485	 0.265752845807971 
2486	 0.265187560639262 
2487	 0.264526176242525 
2488	 0.264074891806264 
2489	 0.263622680978085 
2490	 0.263112768290021 
2491	 0.26274816856593 
2492	 0.262244439385099 
2493	 0.261740462672617 
2494	 0.261371190666973 
2495	 0.260918225539171 
2496	 0.260621805944175 
2497	 0.2602278561654 
2498	 0.259669009568676 
2499	 0.259445593176638 
2500	 0.259207329437789 
