Wavelength	LMW500006.asd
350	 7.12360349309769E-02 
351	 7.77384398893611E-02 
352	 8.16296122632617E-02 
353	 7.92386982434749E-02 
354	 8.17664368511536E-02 
355	 8.46643909138992E-02 
356	 8.53084020479261E-02 
357	 0.083282016968013 
358	 8.54580002432048E-02 
359	 8.40292731457851E-02 
360	 0.07938929337053 
361	 7.73772260894039E-02 
362	 7.93136495262118E-02 
363	 7.95469759987728E-02 
364	 7.69808606213923E-02 
365	 7.88294953824385E-02 
366	 8.09342605318352E-02 
367	 8.26136935782787E-02 
368	 8.39962677779702E-02 
369	 8.47672901615472E-02 
370	 8.59591327376567E-02 
371	 8.69003980427672E-02 
372	 8.60953129769677E-02 
373	 8.70897053829307E-02 
374	 8.69965267417935E-02 
375	 0.085863155195198 
376	 9.05382794072399E-02 
377	 9.12784556560439E-02 
378	 8.99581615189525E-02 
379	 9.11376340355411E-02 
380	 9.48774350979188E-02 
381	 9.64712752893037E-02 
382	 9.60524887257057E-02 
383	 9.73971198977316E-02 
384	 9.99242828184766E-02 
385	 0.101703583766278 
386	 0.102019594471049 
387	 0.102724271156562 
388	 0.104262347503455 
389	 0.105979267528237 
390	 0.107217483530094 
391	 0.109526851468241 
392	 0.110658722877191 
393	 0.111381513690978 
394	 0.114782989847995 
395	 0.116900754692031 
396	 0.117622551364097 
397	 0.118068629271298 
398	 0.120747990705261 
399	 0.122263549247514 
400	 0.124057837696394 
401	 0.128111453773457 
402	 0.128881241959162 
403	 0.130245869761636 
404	 0.132553870953674 
405	 0.132226946466563 
406	 0.133889129973718 
407	 0.136309650613596 
408	 0.137810703671642 
409	 0.138585829953886 
410	 0.139486566170766 
411	 0.140733532568001 
412	 0.142108229352535 
413	 0.142706603048232 
414	 0.143646898651576 
415	 0.144935913770699 
416	 0.144945677604959 
417	 0.145405045448089 
418	 0.146204553556103 
419	 0.146914302173515 
420	 0.147765743912953 
421	 0.14783982753895 
422	 0.147512879479544 
423	 0.147888457198809 
424	 0.148349363470284 
425	 0.148261787123632 
426	 0.147698501970587 
427	 0.148017625189177 
428	 0.147936407242699 
429	 0.147443930793683 
430	 0.146966678009219 
431	 0.146919679689827 
432	 0.146724287421526 
433	 0.146506457035726 
434	 0.147053284323214 
435	 0.147341834785154 
436	 0.147412340803098 
437	 0.147512118857297 
438	 0.147751529840471 
439	 0.148741382396491 
440	 0.150201249082578 
441	 0.151413969708541 
442	 0.152236014043337 
443	 0.152923089621594 
444	 0.153767976140194 
445	 0.155048601091206 
446	 0.156336372338498 
447	 0.15764147228568 
448	 0.159001494936395 
449	 0.159980078110257 
450	 0.161082824634348 
451	 0.162420237717436 
452	 0.163718008241084 
453	 0.164418176447379 
454	 0.165335950371362 
455	 0.166853265860759 
456	 0.16770345033507 
457	 0.168514295378324 
458	 0.169422983051049 
459	 0.170351240096307 
460	 0.171293422139989 
461	 0.172047530077638 
462	 0.172628074018789 
463	 0.173365293721733 
464	 0.174037053722647 
465	 0.174668332677332 
466	 0.175330217412005 
467	 0.176008195244965 
468	 0.176679614611505 
469	 0.177209180997611 
470	 0.177428195694442 
471	 0.178103711909903 
472	 0.178805944736071 
473	 0.179194457701308 
474	 0.179591548934725 
475	 0.180231646427162 
476	 0.180929289147604 
477	 0.18134649735597 
478	 0.181610552915283 
479	 0.182048806990186 
480	 0.182698997493852 
481	 0.183183313703587 
482	 0.183728684666417 
483	 0.184371661853241 
484	 0.185035750266457 
485	 0.185410017233331 
486	 0.185746435454224 
487	 0.186153631914725 
488	 0.186602208983119 
489	 0.187028413921963 
490	 0.18747334620315 
491	 0.187984852457155 
492	 0.188599933592734 
493	 0.189106641532876 
494	 0.189494125713947 
495	 0.189883987329769 
496	 0.190579968956991 
497	 0.191178042467961 
498	 0.191563740038211 
499	 0.192151405779805 
500	 0.192654843816549 
501	 0.193084489555501 
502	 0.193543397163954 
503	 0.194161441586132 
504	 0.194694727715765 
505	 0.195123734570883 
506	 0.195635573686599 
507	 0.196067954897253 
508	 0.19655272945894 
509	 0.197152871725409 
510	 0.197605637163332 
511	 0.198047895468318 
512	 0.19854457891139 
513	 0.1991043357709 
514	 0.199558834660221 
515	 0.200093304938856 
516	 0.200735032477039 
517	 0.201178013848182 
518	 0.201572695340652 
519	 0.201957903394222 
520	 0.202362892815469 
521	 0.202936996790357 
522	 0.203501844329279 
523	 0.203964671398242 
524	 0.204344260232444 
525	 0.204720322427939 
526	 0.205139460605874 
527	 0.205613859691214 
528	 0.206091574936539 
529	 0.206576779679498 
530	 0.207032962732041 
531	 0.207415251877654 
532	 0.207890312997307 
533	 0.208458610697027 
534	 0.209035939184941 
535	 0.209394892428154 
536	 0.209852698987845 
537	 0.210375569943975 
538	 0.210818214142228 
539	 0.211311414955085 
540	 0.211788102520375 
541	 0.212233403849129 
542	 0.212720769200362 
543	 0.21316399142974 
544	 0.213648665835437 
545	 0.214245510074065 
546	 0.214797907901422 
547	 0.215227128784365 
548	 0.215614882367764 
549	 0.216163336687835 
550	 0.216716993686612 
551	 0.217266944933507 
552	 0.217826687762163 
553	 0.218392095592473 
554	 0.219011469883244 
555	 0.219644200386094 
556	 0.220214383199779 
557	 0.220800020262804 
558	 0.221403355629645 
559	 0.222032745130339 
560	 0.222735694863276 
561	 0.223333127647282 
562	 0.223817393567611 
563	 0.224282876217315 
564	 0.224988213806609 
565	 0.225660100366236 
566	 0.226244600487138 
567	 0.226965807515365 
568	 0.227692034253703 
569	 0.228471667751685 
570	 0.229340009658287 
571	 0.230169030416648 
572	 0.23092615257834 
573	 0.231629846447806 
574	 0.232331369032645 
575	 0.232992794130523 
576	 0.233699149407399 
577	 0.234485599232695 
578	 0.235248961948281 
579	 0.23596620308259 
580	 0.236703155627722 
581	 0.237551523033818 
582	 0.238457164268444 
583	 0.239323621721357 
584	 0.240131040231579 
585	 0.240974663185393 
586	 0.24184041741888 
587	 0.24265621263615 
588	 0.243369814845802 
589	 0.24408788287034 
590	 0.24488436537936 
591	 0.245713971141171 
592	 0.246435143713454 
593	 0.247169384329531 
594	 0.247921819591823 
595	 0.24869010403912 
596	 0.249508933813463 
597	 0.250457865820972 
598	 0.25142919004724 
599	 0.252234149363406 
600	 0.252940014015494 
601	 0.253660529348854 
602	 0.254417277226187 
603	 0.255063070457845 
604	 0.255631017057567 
605	 0.256237007221319 
606	 0.256974871157358 
607	 0.257629962097613 
608	 0.258251224444206 
609	 0.258908217810497 
610	 0.259672782522042 
611	 0.260358180801061 
612	 0.261004167921773 
613	 0.26166315405137 
614	 0.262232576465894 
615	 0.262794108226964 
616	 0.263370167352388 
617	 0.263934739821311 
618	 0.264455877799507 
619	 0.264906331099029 
620	 0.265320018606903 
621	 0.265864667090555 
622	 0.266370021729764 
623	 0.266809884922852 
624	 0.267228769724804 
625	 0.267725469848588 
626	 0.268192248630139 
627	 0.268588119685426 
628	 0.26898127842504 
629	 0.269418556622908 
630	 0.269874295343467 
631	 0.270304511135419 
632	 0.270688442938795 
633	 0.271065204136904 
634	 0.271478951312725 
635	 0.271964826789754 
636	 0.272357076150219 
637	 0.272748118131132 
638	 0.273198439797253 
639	 0.273573565260059 
640	 0.27393352492419 
641	 0.27434247704698 
642	 0.274844769289171 
643	 0.275324747669508 
644	 0.27568737462317 
645	 0.275974706015406 
646	 0.276419889681411 
647	 0.276827188703739 
648	 0.277208506025309 
649	 0.277624494137717 
650	 0.278074409759287 
651	 0.278559718484602 
652	 0.279024437179672 
653	 0.279378546101049 
654	 0.27982209509631 
655	 0.280284161488921 
656	 0.280688714447338 
657	 0.281063719680384 
658	 0.281511750690596 
659	 0.281998254474212 
660	 0.282427575337966 
661	 0.282815243302958 
662	 0.283289734065663 
663	 0.283868532220943 
664	 0.28439944579041 
665	 0.284794007560116 
666	 0.285197653298314 
667	 0.285739031238254 
668	 0.286150204735278 
669	 0.286613253161102 
670	 0.28712911686868 
671	 0.287546416522093 
672	 0.287961147125599 
673	 0.288458762080231 
674	 0.289040996087954 
675	 0.289522073431951 
676	 0.289985381945767 
677	 0.290445826702094 
678	 0.290903218618436 
679	 0.291446843111909 
680	 0.291920681307808 
681	 0.292331507571353 
682	 0.292923495091619 
683	 0.293449827634517 
684	 0.293907230813276 
685	 0.294369925603848 
686	 0.294952739278619 
687	 0.295475932740824 
688	 0.295947597272501 
689	 0.29650016834495 
690	 0.297003497115807 
691	 0.297484039262879 
692	 0.297982486693755 
693	 0.298528066766587 
694	 0.299044015442385 
695	 0.299544555693791 
696	 0.30006246246357 
697	 0.300513604857627 
698	 0.301047659231212 
699	 0.301641615438111 
700	 0.302087929473332 
701	 0.302608644666032 
702	 0.303136881343141 
703	 0.303602751813791 
704	 0.304101628271924 
705	 0.304614075248054 
706	 0.305137055453121 
707	 0.305662306719658 
708	 0.306083913047235 
709	 0.306527633755771 
710	 0.30704201202418 
711	 0.307530593594477 
712	 0.308023178705034 
713	 0.308478152076908 
714	 0.308878725941886 
715	 0.309365672666752 
716	 0.309838522677534 
717	 0.310285129915862 
718	 0.310753637882676 
719	 0.311161271318303 
720	 0.311567417250831 
721	 0.311980284695646 
722	 0.312257030016411 
723	 0.312638934931357 
724	 0.313080886420016 
725	 0.313458126918571 
726	 0.313796335707691 
727	 0.314139990708935 
728	 0.314475830986415 
729	 0.314741698141453 
730	 0.315039016581595 
731	 0.315332208007022 
732	 0.315600077181964 
733	 0.315925192032672 
734	 0.316213390615902 
735	 0.316438338408866 
736	 0.316615478121771 
737	 0.316813929357547 
738	 0.317022417420992 
739	 0.317211082959535 
740	 0.317340938037827 
741	 0.317500674061854 
742	 0.317703895767002 
743	 0.317911868389976 
744	 0.317997958195443 
745	 0.318019910873026 
746	 0.31804392275068 
747	 0.318127116539258 
748	 0.31822296634738 
749	 0.318301043631105 
750	 0.318338605878556 
751	 0.318322626877887 
752	 0.318360387762327 
753	 0.31835168082266 
754	 0.318244754012842 
755	 0.318282061846642 
756	 0.318274396558644 
757	 0.318201385635803 
758	 0.318129561711234 
759	 0.318067528308286 
760	 0.317971180814946 
761	 0.317846191412113 
762	 0.317764922384385 
763	 0.317703357740699 
764	 0.317582918512222 
765	 0.317382943691108 
766	 0.317290950605619 
767	 0.31716649422547 
768	 0.317006217681748 
769	 0.316864917604374 
770	 0.316672456996593 
771	 0.316505026463682 
772	 0.316373475528657 
773	 0.316197778131867 
774	 0.316018945593 
775	 0.315869465865453 
776	 0.315747354008127 
777	 0.315564959567416 
778	 0.315353432942705 
779	 0.315120378372943 
780	 0.314869082605192 
781	 0.314622928536197 
782	 0.314448376220271 
783	 0.314305993028035 
784	 0.314053124365811 
785	 0.313830970740359 
786	 0.313652498164884 
787	 0.313492106662362 
788	 0.313303255135858 
789	 0.313022462722739 
790	 0.312760077735083 
791	 0.312640278599229 
792	 0.312485345503539 
793	 0.312268381729916 
794	 0.312016054735123 
795	 0.311793994590429 
796	 0.31160594101371 
797	 0.311433731334619 
798	 0.311241485134695 
799	 0.310964591783657 
800	 0.310785450366667 
801	 0.310654463368072 
802	 0.310467047090988 
803	 0.310200911536078 
804	 0.310057957001259 
805	 0.309978261480173 
806	 0.309757005917388 
807	 0.309522768639973 
808	 0.309256541133168 
809	 0.309013397249035 
810	 0.308951638092853 
811	 0.308864402155134 
812	 0.308753985809561 
813	 0.308630867432181 
814	 0.30838302621106 
815	 0.30814829549312 
816	 0.307961232242462 
817	 0.307809682029873 
818	 0.307694884263315 
819	 0.307576181624947 
820	 0.307456232425019 
821	 0.307363660419809 
822	 0.307134582531966 
823	 0.306960537399072 
824	 0.30691070235111 
825	 0.30676883524883 
826	 0.306631601031102 
827	 0.306538861028356 
828	 0.306476092300467 
829	 0.30630388713341 
830	 0.306093488156967 
831	 0.305922795460356 
832	 0.305852068308678 
833	 0.305827018574335 
834	 0.305781421210431 
835	 0.305699806975385 
836	 0.305611880686236 
837	 0.30543335120207 
838	 0.305336343476132 
839	 0.305359122747175 
840	 0.305246861454612 
841	 0.305193959948614 
842	 0.305092827691048 
843	 0.30487458982605 
844	 0.304847336108245 
845	 0.304818109329152 
846	 0.304804229125221 
847	 0.304872148384734 
848	 0.304782090073459 
849	 0.304705101278249 
850	 0.304706525990521 
851	 0.304725979534106 
852	 0.304631287246252 
853	 0.304521802296324 
854	 0.304480036778801 
855	 0.304508420964704 
856	 0.304584448114518 
857	 0.304598858263882 
858	 0.304509871161569 
859	 0.30448624435896 
860	 0.304496611164046 
861	 0.304486503597849 
862	 0.304440217746954 
863	 0.304567207867234 
864	 0.304621828385774 
865	 0.304609601145503 
866	 0.30466646001645 
867	 0.304574225637047 
868	 0.304605112948008 
869	 0.304780653757862 
870	 0.304835248730483 
871	 0.30479303919773 
872	 0.304755577703688 
873	 0.304820995576454 
874	 0.30504857634565 
875	 0.305158890696874 
876	 0.305212912497938 
877	 0.305299032854139 
878	 0.305315501459578 
879	 0.305475395779542 
880	 0.305609184302595 
881	 0.305540703137659 
882	 0.305649384602985 
883	 0.305803626577201 
884	 0.305932171981643 
885	 0.306019154200583 
886	 0.306126932114997 
887	 0.306264199965321 
888	 0.306381842449124 
889	 0.306415615085577 
890	 0.30660469649796 
891	 0.306785567355147 
892	 0.306925763170397 
893	 0.30720261854526 
894	 0.307295913652093 
895	 0.307337006461492 
896	 0.307470434243263 
897	 0.307694127301088 
898	 0.307929172123185 
899	 0.308158586634232 
900	 0.308367999131871 
901	 0.30849411353705 
902	 0.308625866121055 
903	 0.308820649286101 
904	 0.309103095945134 
905	 0.309446072519666 
906	 0.309721236531869 
907	 0.309886237709947 
908	 0.309986793240158 
909	 0.310227966143534 
910	 0.310416899380114 
911	 0.310555983370774 
912	 0.310790943144688 
913	 0.31121240703165 
914	 0.311508413965851 
915	 0.311653919573389 
916	 0.311890502611305 
917	 0.312083517069709 
918	 0.312392830608257 
919	 0.31280903926855 
920	 0.313104919598186 
921	 0.313356939333742 
922	 0.313580227370029 
923	 0.313843898272521 
924	 0.314285098311347 
925	 0.314572434497124 
926	 0.314852341683686 
927	 0.315215394573106 
928	 0.315455281955553 
929	 0.315944321675243 
930	 0.316432263691276 
931	 0.316693814344722 
932	 0.316941862879409 
933	 0.317182200781561 
934	 0.317481094778039 
935	 0.317869657980159 
936	 0.318257338566992 
937	 0.318634670263098 
938	 0.318980882462749 
939	 0.319305460735678 
940	 0.319708371038757 
941	 0.320170644461423 
942	 0.320631452948642 
943	 0.321053090518073 
944	 0.321560974138927 
945	 0.321994719004125 
946	 0.322350478100057 
947	 0.322703889166631 
948	 0.323111150769349 
949	 0.323465341882976 
950	 0.323813762988169 
951	 0.324268019145074 
952	 0.324830327766603 
953	 0.325272345631977 
954	 0.32558361839463 
955	 0.325919072699996 
956	 0.326513432138574 
957	 0.326980032402356 
958	 0.327391259929359 
959	 0.32802379329399 
960	 0.328472984271833 
961	 0.328868813605981 
962	 0.329307050720089 
963	 0.329814234449203 
964	 0.330303183288993 
965	 0.330803079092865 
966	 0.331357025475397 
967	 0.331973603035697 
968	 0.332440773677642 
969	 0.332947650400682 
970	 0.333495560539446 
971	 0.333973223634231 
972	 0.334540170768688 
973	 0.335196701090474 
974	 0.335869397047959 
975	 0.336469062292591 
976	 0.337077796115947 
977	 0.337583846891262 
978	 0.338057001510806 
979	 0.338635313799402 
980	 0.339099356275538 
981	 0.339550911432349 
982	 0.340093109122308 
983	 0.340767605521672 
984	 0.341410813262752 
985	 0.341934965282361 
986	 0.342443369527417 
987	 0.343080447167028 
988	 0.343642383539926 
989	 0.344160867276537 
990	 0.344699567632487 
991	 0.34530073928809 
992	 0.345871677382916 
993	 0.346383127291399 
994	 0.346952123707287 
995	 0.347648660646638 
996	 0.34809653384721 
997	 0.348628753002926 
998	 0.349276801929593 
999	 0.34993748214455 
1000	 0.350539961154322 
1001	 0.3529317599806 
1002	 0.353461127406232 
1003	 0.353968575494896 
1004	 0.354484485317414 
1005	 0.355010183407538 
1006	 0.355552466523281 
1007	 0.356111959373956 
1008	 0.356641886344635 
1009	 0.357140136507703 
1010	 0.357660807826982 
1011	 0.358106642367333 
1012	 0.35850580000787 
1013	 0.359032044953947 
1014	 0.359548582709272 
1015	 0.360032623891559 
1016	 0.360512764083203 
1017	 0.360965191883723 
1018	 0.361371510456708 
1019	 0.361774867742774 
1020	 0.362206262868376 
1021	 0.362716044568753 
1022	 0.363241997131266 
1023	 0.363649756697026 
1024	 0.364053252685729 
1025	 0.364516665293314 
1026	 0.364936715889361 
1027	 0.365332579504148 
1028	 0.365753712293755 
1029	 0.36612399099842 
1030	 0.366500362425639 
1031	 0.366916346680792 
1032	 0.367382620449168 
1033	 0.367853810771534 
1034	 0.368335339759859 
1035	 0.368763823575819 
1036	 0.36916135476887 
1037	 0.369559320160661 
1038	 0.369927423722021 
1039	 0.370319133395644 
1040	 0.370735294690594 
1041	 0.371153554906874 
1042	 0.371554889575621 
1043	 0.371939406793517 
1044	 0.372331436616865 
1045	 0.372725682943351 
1046	 0.373113199109078 
1047	 0.373513912395425 
1048	 0.373958546129921 
1049	 0.374396482503848 
1050	 0.374810063827131 
1051	 0.375270131983795 
1052	 0.375695791887238 
1053	 0.376101172590244 
1054	 0.376549763926104 
1055	 0.376902893279651 
1056	 0.377247614773529 
1057	 0.377605092284704 
1058	 0.377951520195797 
1059	 0.378266270530766 
1060	 0.378568383952545 
1061	 0.378905001045539 
1062	 0.379194690149618 
1063	 0.379502050729503 
1064	 0.379880818331379 
1065	 0.38020342664305 
1066	 0.380470129049104 
1067	 0.380738333578588 
1068	 0.381021922033642 
1069	 0.381331638549769 
1070	 0.381604061649736 
1071	 0.381883060121349 
1072	 0.382166241956889 
1073	 0.382434258164897 
1074	 0.382662970170792 
1075	 0.382880127052868 
1076	 0.383103969121195 
1077	 0.383315205016244 
1078	 0.383487376046177 
1079	 0.383721329536847 
1080	 0.383963175383294 
1081	 0.384149811770083 
1082	 0.384358843459485 
1083	 0.384551650480241 
1084	 0.384724454707668 
1085	 0.384915398974889 
1086	 0.385104076869541 
1087	 0.385287797499801 
1088	 0.385472259568051 
1089	 0.385666609715375 
1090	 0.38584173251067 
1091	 0.386031533212142 
1092	 0.38625881936589 
1093	 0.386506165117189 
1094	 0.386765343363124 
1095	 0.387002984760344 
1096	 0.387173610283822 
1097	 0.387366476595181 
1098	 0.387604270169001 
1099	 0.387873442572239 
1100	 0.388117956124424 
1101	 0.388379453413196 
1102	 0.388652712466953 
1103	 0.388909260622104 
1104	 0.389173436202062 
1105	 0.389471969546572 
1106	 0.389800961951606 
1107	 0.390108463299239 
1108	 0.390416836680723 
1109	 0.39074609528 
1110	 0.391061651607224 
1111	 0.391386685307777 
1112	 0.391701998900291 
1113	 0.392029981521381 
1114	 0.392379983482072 
1115	 0.392720424764784 
1116	 0.39303612735759 
1117	 0.393394294138486 
1118	 0.393789319153104 
1119	 0.394150303422864 
1120	 0.394529009720821 
1121	 0.394900628549004 
1122	 0.395234609721769 
1123	 0.395573673388332 
1124	 0.395942646284016 
1125	 0.396337085743707 
1126	 0.396715861822675 
1127	 0.397109765767435 
1128	 0.397485760719782 
1129	 0.397856400162345 
1130	 0.398208593669844 
1131	 0.398552559743884 
1132	 0.398889229833391 
1133	 0.399199884905566 
1134	 0.399521551489154 
1135	 0.3998549288748 
1136	 0.400177784239929 
1137	 0.400456954144689 
1138	 0.400721943390923 
1139	 0.401016460860919 
1140	 0.401293294814842 
1141	 0.401589004108353 
1142	 0.401947042780369 
1143	 0.402232013129297 
1144	 0.402470282005228 
1145	 0.402727909827163 
1146	 0.402964089109987 
1147	 0.403205289560692 
1148	 0.403446817845812 
1149	 0.403699535941727 
1150	 0.403952595622645 
1151	 0.404218260215078 
1152	 0.404462993221818 
1153	 0.404710473172778 
1154	 0.404958390181486 
1155	 0.405195430593427 
1156	 0.405425582116934 
1157	 0.405680791697488 
1158	 0.405887528030496 
1159	 0.406022583551863 
1160	 0.406229839928661 
1161	 0.406460038091127 
1162	 0.406678283702616 
1163	 0.406940377467493 
1164	 0.40717230687146 
1165	 0.407371558431955 
1166	 0.407575817194662 
1167	 0.407790907236135 
1168	 0.408008235067478 
1169	 0.40821828530003 
1170	 0.408435721658958 
1171	 0.408627232247976 
1172	 0.408803081404945 
1173	 0.408981587181635 
1174	 0.409133792813339 
1175	 0.409317100436645 
1176	 0.409524035374815 
1177	 0.409712315231714 
1178	 0.409906525302595 
1179	 0.410094409000709 
1180	 0.410269209219593 
1181	 0.410444983856438 
1182	 0.410622372744554 
1183	 0.410802589235644 
1184	 0.410973497149613 
1185	 0.411143844912667 
1186	 0.411294547912743 
1187	 0.411428956095041 
1188	 0.411577047190996 
1189	 0.411710320144716 
1190	 0.411857458713248 
1191	 0.412018556128138 
1192	 0.412179402001773 
1193	 0.412344749832054 
1194	 0.412506185670782 
1195	 0.412674529594251 
1196	 0.412836672127239 
1197	 0.413004171414362 
1198	 0.41315151549236 
1199	 0.413288343780521 
1200	 0.413413084575122 
1201	 0.413548528874575 
1202	 0.413664642116511 
1203	 0.413808261046489 
1204	 0.413975398976234 
1205	 0.414129537188094 
1206	 0.414290839151874 
1207	 0.414440667481687 
1208	 0.414586875555301 
1209	 0.414728465374647 
1210	 0.414862721037992 
1211	 0.41499547978365 
1212	 0.415132924475734 
1213	 0.415254316784036 
1214	 0.415366231555222 
1215	 0.415472897790886 
1216	 0.415571335342041 
1217	 0.415639407419086 
1218	 0.415761457907713 
1219	 0.415909320304284 
1220	 0.416034928833065 
1221	 0.41618111690312 
1222	 0.416314427405329 
1223	 0.416430151546211 
1224	 0.416544280284397 
1225	 0.4166701096885 
1226	 0.41678084703128 
1227	 0.41686959227267 
1228	 0.416962240286217 
1229	 0.417044119213187 
1230	 0.417142175320115 
1231	 0.417254251976861 
1232	 0.417351853803356 
1233	 0.417448155239036 
1234	 0.417553660590063 
1235	 0.417650555564342 
1236	 0.417724506228845 
1237	 0.417827838752786 
1238	 0.417955918890674 
1239	 0.418061977291437 
1240	 0.418174061868803 
1241	 0.418270376564709 
1242	 0.418351056122516 
1243	 0.418430515824436 
1244	 0.418500144503353 
1245	 0.41857309131126 
1246	 0.418632663620771 
1247	 0.418707802258285 
1248	 0.41878812197168 
1249	 0.418886268847258 
1250	 0.418965347611948 
1251	 0.419036638135589 
1252	 0.419101522902658 
1253	 0.419138935163122 
1254	 0.419207178878446 
1255	 0.419289334268647 
1256	 0.419365269805368 
1257	 0.419452016502367 
1258	 0.419529705965773 
1259	 0.419597219271907 
1260	 0.419673821261717 
1261	 0.419765288254623 
1262	 0.419835859805858 
1263	 0.419891984064726 
1264	 0.419958882699365 
1265	 0.420023656910968 
1266	 0.420080873229254 
1267	 0.42015041402757 
1268	 0.420199459269836 
1269	 0.420254617694016 
1270	 0.420288582297462 
1271	 0.420355237219697 
1272	 0.420444497983389 
1273	 0.420519268004508 
1274	 0.42059697597853 
1275	 0.420679425169517 
1276	 0.420752294757133 
1277	 0.420843916996061 
1278	 0.420949388339219 
1279	 0.421058282180098 
1280	 0.42117723676427 
1281	 0.421295232943079 
1282	 0.421425671322242 
1283	 0.421549133501186 
1284	 0.421684162282471 
1285	 0.421802638371388 
1286	 0.421869572912779 
1287	 0.4219346092015 
1288	 0.421977444945743 
1289	 0.421974738459848 
1290	 0.421990566653459 
1291	 0.422009109225991 
1292	 0.422012822898119 
1293	 0.42201902271855 
1294	 0.42198979730124 
1295	 0.421927084079465 
1296	 0.421888255683679 
1297	 0.421828582718191 
1298	 0.421779624422161 
1299	 0.421772182533116 
1300	 0.421716164726269 
1301	 0.421632596924536 
1302	 0.421544591484772 
1303	 0.42142806907719 
1304	 0.421323487467896 
1305	 0.421211313186707 
1306	 0.421081789024092 
1307	 0.420948886246225 
1308	 0.420792827005718 
1309	 0.420645512606144 
1310	 0.420484679697932 
1311	 0.420350088279559 
1312	 0.420231099358836 
1313	 0.420099255504491 
1314	 0.419971655597999 
1315	 0.4198483009928 
1316	 0.419700515357432 
1317	 0.419596746815558 
1318	 0.419517856878824 
1319	 0.419450922445489 
1320	 0.419425664470062 
1321	 0.419378157605804 
1322	 0.419333661085001 
1323	 0.419279062034114 
1324	 0.419244073881942 
1325	 0.419200885710269 
1326	 0.419148789842756 
1327	 0.419133106047389 
1328	 0.41911512754 
1329	 0.419076941703647 
1330	 0.419060783898655 
1331	 0.419061214758972 
1332	 0.419069975727779 
1333	 0.419070814765451 
1334	 0.419108493369533 
1335	 0.419189384758844 
1336	 0.41924547959891 
1337	 0.419304677248314 
1338	 0.419370455912151 
1339	 0.419430325812985 
1340	 0.419492715330155 
1341	 0.419560445960364 
1342	 0.419638960028891 
1343	 0.419724048889157 
1344	 0.419808402846974 
1345	 0.419886730118286 
1346	 0.419971992517276 
1347	 0.420037661674824 
1348	 0.420084294084256 
1349	 0.420139854450868 
1350	 0.42019519210174 
1351	 0.420244239146867 
1352	 0.420272137658041 
1353	 0.420344537577369 
1354	 0.420448112687746 
1355	 0.420507342560014 
1356	 0.420579237008684 
1357	 0.420629924744659 
1358	 0.420638932872564 
1359	 0.420669403056956 
1360	 0.420702655178445 
1361	 0.420740321754895 
1362	 0.420778751501015 
1363	 0.420812740299354 
1364	 0.420879152809898 
1365	 0.420902528896268 
1366	 0.420908966823409 
1367	 0.420885616469149 
1368	 0.420841225641753 
1369	 0.420778239118219 
1370	 0.420694440288039 
1371	 0.420599777025446 
1372	 0.42049107446084 
1373	 0.420356045278795 
1374	 0.420177616392994 
1375	 0.419984319866198 
1376	 0.419722698073208 
1377	 0.419416056936443 
1378	 0.419049605624158 
1379	 0.418616544684963 
1380	 0.418168835640702 
1381	 0.417684578605041 
1382	 0.417145815886388 
1383	 0.416612491544481 
1384	 0.41595826893924 
1385	 0.415243902952527 
1386	 0.414430970685097 
1387	 0.4135414184876 
1388	 0.412551244924883 
1389	 0.411487031381581 
1390	 0.410285539871371 
1391	 0.40899893249758 
1392	 0.407593290441226 
1393	 0.406094331411431 
1394	 0.404558690233885 
1395	 0.402920582307299 
1396	 0.401256597377129 
1397	 0.399589891098918 
1398	 0.397858899144918 
1399	 0.396179090571651 
1400	 0.394486650831011 
1401	 0.392866684314827 
1402	 0.391262540052242 
1403	 0.389733594187324 
1404	 0.388236883026166 
1405	 0.386850816400328 
1406	 0.385513012331392 
1407	 0.384294207149453 
1408	 0.383143783288278 
1409	 0.38215377939295 
1410	 0.381235635728274 
1411	 0.380521157760772 
1412	 0.379947873609229 
1413	 0.37957719732547 
1414	 0.379424277925726 
1415	 0.379414765526886 
1416	 0.379584974262749 
1417	 0.379868376546086 
1418	 0.380196008459934 
1419	 0.380548908218351 
1420	 0.380907614444743 
1421	 0.381254212925024 
1422	 0.381547832310893 
1423	 0.381809528394866 
1424	 0.381995931523797 
1425	 0.382110613897936 
1426	 0.382205811627248 
1427	 0.382235458355858 
1428	 0.382266808774917 
1429	 0.382268603796468 
1430	 0.382271145995806 
1431	 0.382263810791478 
1432	 0.382233769616899 
1433	 0.382182295571755 
1434	 0.382139423688251 
1435	 0.382064704652565 
1436	 0.382022416191703 
1437	 0.38201352325648 
1438	 0.381983185241913 
1439	 0.381950664224786 
1440	 0.381918555164959 
1441	 0.381889141092138 
1442	 0.381860050414308 
1443	 0.381823775846288 
1444	 0.381781351988199 
1445	 0.381751984516071 
1446	 0.381732460012909 
1447	 0.381724302148262 
1448	 0.381729586149564 
1449	 0.381721384724933 
1450	 0.381703723033461 
1451	 0.381699667907019 
1452	 0.381700423716208 
1453	 0.381711918321933 
1454	 0.381729646465432 
1455	 0.381753728954258 
1456	 0.381804127114415 
1457	 0.381821797370191 
1458	 0.381821315166526 
1459	 0.381839441210129 
1460	 0.381829495384928 
1461	 0.381864444786604 
1462	 0.381930851140135 
1463	 0.382004932760245 
1464	 0.382078605275895 
1465	 0.382200234733887 
1466	 0.382355109150827 
1467	 0.382527839745795 
1468	 0.382737914046286 
1469	 0.382968900618273 
1470	 0.383218300464468 
1471	 0.383488696262724 
1472	 0.383777541518224 
1473	 0.384079097432396 
1474	 0.38438809512693 
1475	 0.384712677534123 
1476	 0.38505728190997 
1477	 0.385406237710403 
1478	 0.385792597524436 
1479	 0.386179496613814 
1480	 0.386560568047519 
1481	 0.386971446212815 
1482	 0.387348539569504 
1483	 0.387696063078664 
1484	 0.388066689068984 
1485	 0.388439595399151 
1486	 0.388806370630945 
1487	 0.389184008215107 
1488	 0.389542630490111 
1489	 0.389887208305177 
1490	 0.390229479846697 
1491	 0.390568332573541 
1492	 0.390899250785074 
1493	 0.391206626936223 
1494	 0.391543115324923 
1495	 0.391887705632805 
1496	 0.392234243764847 
1497	 0.392611125885854 
1498	 0.392960319959792 
1499	 0.393298987622966 
1500	 0.393625877986073 
1501	 0.393938439900315 
1502	 0.394248538450025 
1503	 0.394547947689045 
1504	 0.394844421755402 
1505	 0.395139636174816 
1506	 0.395426293790612 
1507	 0.395708655814962 
1508	 0.395988366158162 
1509	 0.396262919380577 
1510	 0.396528852662463 
1511	 0.39679740846325 
1512	 0.397060219481397 
1513	 0.397345542287469 
1514	 0.397643136650433 
1515	 0.397935123889392 
1516	 0.398233355990583 
1517	 0.39849778442651 
1518	 0.398728159936969 
1519	 0.39897889059323 
1520	 0.39922316077242 
1521	 0.399463224700532 
1522	 0.399707506023218 
1523	 0.399947847694984 
1524	 0.40018096591408 
1525	 0.400408349636782 
1526	 0.400631605369147 
1527	 0.40086066769305 
1528	 0.401087653446397 
1529	 0.401303780907128 
1530	 0.401523651738576 
1531	 0.40173936629812 
1532	 0.401933834101354 
1533	 0.402142251185787 
1534	 0.402377174923507 
1535	 0.40257873919337 
1536	 0.402759813545434 
1537	 0.402947447905263 
1538	 0.403111843115299 
1539	 0.403291995576756 
1540	 0.403493310313482 
1541	 0.403679123119104 
1542	 0.403874686282525 
1543	 0.404042250021296 
1544	 0.404174668783609 
1545	 0.404325438657763 
1546	 0.404462963103493 
1547	 0.404610699788322 
1548	 0.404781282909102 
1549	 0.404958996818782 
1550	 0.405142382945992 
1551	 0.40531892966268 
1552	 0.405506448540522 
1553	 0.405677960751642 
1554	 0.405822533101353 
1555	 0.405983608856897 
1556	 0.406131972369224 
1557	 0.406270272410176 
1558	 0.40642421820624 
1559	 0.406549172188628 
1560	 0.406665044700636 
1561	 0.406754202949268 
1562	 0.406872591104314 
1563	 0.406981961960301 
1564	 0.407127333515243 
1565	 0.407304108209876 
1566	 0.407473871071683 
1567	 0.407660294774773 
1568	 0.407832748318152 
1569	 0.408013046522401 
1570	 0.40816291083726 
1571	 0.408309978739737 
1572	 0.408426824083746 
1573	 0.408499759169025 
1574	 0.40859650007858 
1575	 0.408687684935899 
1576	 0.408767864173672 
1577	 0.40885843864078 
1578	 0.408929939671445 
1579	 0.408969953539093 
1580	 0.409032515144492 
1581	 0.409095631481263 
1582	 0.409164365808281 
1583	 0.409241084325743 
1584	 0.409320893503621 
1585	 0.409399815641135 
1586	 0.409490953551143 
1587	 0.409593606978185 
1588	 0.409697348470014 
1589	 0.409827997054961 
1590	 0.409922377260725 
1591	 0.40999185600287 
1592	 0.410073803229747 
1593	 0.410148449448048 
1594	 0.41021289130617 
1595	 0.410269148798497 
1596	 0.410343829483187 
1597	 0.410413780827599 
1598	 0.41048557126921 
1599	 0.410592388512651 
1600	 0.410670322048639 
1601	 0.410711533104546 
1602	 0.410774064134783 
1603	 0.41084278372938 
1604	 0.410905760378191 
1605	 0.410972419192979 
1606	 0.411042151726914 
1607	 0.411104820543592 
1608	 0.411178216466682 
1609	 0.4112458452595 
1610	 0.411311257820275 
1611	 0.411348496663187 
1612	 0.411377746322922 
1613	 0.411410820647322 
1614	 0.411425054333961 
1615	 0.4114452349781 
1616	 0.411459607274497 
1617	 0.411482379195779 
1618	 0.411526655021948 
1619	 0.411560320243098 
1620	 0.411595179730177 
1621	 0.411639134395341 
1622	 0.411684008623831 
1623	 0.411721008151016 
1624	 0.411766923278351 
1625	 0.411804609125231 
1626	 0.411819328277923 
1627	 0.411862163905616 
1628	 0.411924204162838 
1629	 0.411976740149914 
1630	 0.412041960721463 
1631	 0.412080010939636 
1632	 0.412103691832896 
1633	 0.412130298533819 
1634	 0.41214153155042 
1635	 0.412161743235436 
1636	 0.41219697820879 
1637	 0.412202650419559 
1638	 0.412185998244489 
1639	 0.412190726089302 
1640	 0.412191429560417 
1641	 0.412191729280879 
1642	 0.412198253884478 
1643	 0.412215572383046 
1644	 0.412219524245918 
1645	 0.412255475234656 
1646	 0.412342102253002 
1647	 0.412371236364058 
1648	 0.412385664610184 
1649	 0.412399026064847 
1650	 0.412380235342045 
1651	 0.412381862806231 
1652	 0.4123992889555 
1653	 0.412405133299833 
1654	 0.412405920470873 
1655	 0.412403192789379 
1656	 0.412397901514616 
1657	 0.412391517361821 
1658	 0.41238127497718 
1659	 0.412367018835329 
1660	 0.412343985775955 
1661	 0.412337326616858 
1662	 0.412337639572349 
1663	 0.41232904466108 
1664	 0.412331604564994 
1665	 0.412321813863071 
1666	 0.412288821405193 
1667	 0.412277775981667 
1668	 0.41228013541738 
1669	 0.412273825613542 
1670	 0.412276622170236 
1671	 0.412263286117239 
1672	 0.412234341541952 
1673	 0.412215967692354 
1674	 0.412193519537459 
1675	 0.412176013683186 
1676	 0.412156336478539 
1677	 0.412155874828337 
1678	 0.412180634727017 
1679	 0.412172263658653 
1680	 0.412165131228083 
1681	 0.412147640803128 
1682	 0.41210504325912 
1683	 0.412060459536608 
1684	 0.412013417326003 
1685	 0.411970331251883 
1686	 0.411904893334805 
1687	 0.41186466017873 
1688	 0.411838654386832 
1689	 0.411826341941232 
1690	 0.411824896106016 
1691	 0.411831540987118 
1692	 0.411882455699078 
1693	 0.411876245933629 
1694	 0.411839689972006 
1695	 0.411819081400431 
1696	 0.411777668472706 
1697	 0.41173798827938 
1698	 0.411707150928822 
1699	 0.411679331034283 
1700	 0.411636629573199 
1701	 0.411604846736533 
1702	 0.411615008991758 
1703	 0.411563471939639 
1704	 0.41147363647353 
1705	 0.411397461614287 
1706	 0.411286647543921 
1707	 0.4112067008247 
1708	 0.411158764766101 
1709	 0.411074333872408 
1710	 0.410958444569281 
1711	 0.410892193353621 
1712	 0.410829683684997 
1713	 0.410785508447386 
1714	 0.410796411665337 
1715	 0.410768068268595 
1716	 0.410723215464909 
1717	 0.410676650239312 
1718	 0.410631707928593 
1719	 0.410568509800871 
1720	 0.410494884151108 
1721	 0.41040998130838 
1722	 0.410297296026039 
1723	 0.410207879650672 
1724	 0.410117844844907 
1725	 0.410034248792791 
1726	 0.409977859555419 
1727	 0.409883033870513 
1728	 0.409763433721965 
1729	 0.409659802299184 
1730	 0.409552601799676 
1731	 0.409437761029801 
1732	 0.409338591562908 
1733	 0.409200854028726 
1734	 0.409021736310423 
1735	 0.408870553498981 
1736	 0.408715068268313 
1737	 0.408570609719563 
1738	 0.408435042719482 
1739	 0.408307202236936 
1740	 0.408190375921991 
1741	 0.408055635918186 
1742	 0.407931174322374 
1743	 0.407789139132763 
1744	 0.407617526229815 
1745	 0.407466870458432 
1746	 0.407316701656785 
1747	 0.40718948820067 
1748	 0.407079745860975 
1749	 0.406954804740948 
1750	 0.406811248895454 
1751	 0.406660594525881 
1752	 0.406509156066833 
1753	 0.406355657344905 
1754	 0.40620984115141 
1755	 0.406097155549015 
1756	 0.405947416911263 
1757	 0.405780210437432 
1758	 0.405662215420034 
1759	 0.405503333717155 
1760	 0.405305674676523 
1761	 0.405130884994543 
1762	 0.40494812751008 
1763	 0.404756003383128 
1764	 0.404607315891149 
1765	 0.404499865637765 
1766	 0.404400724414571 
1767	 0.404315565635208 
1768	 0.404234956818611 
1769	 0.404146399845861 
1770	 0.40403038348261 
1771	 0.403909888426624 
1772	 0.40377778282924 
1773	 0.403608875778256 
1774	 0.403461898017632 
1775	 0.403297303932841 
1776	 0.403124425032128 
1777	 0.403007225770976 
1778	 0.40289022755352 
1779	 0.402812897507874 
1780	 0.402791538723506 
1781	 0.402744519601726 
1782	 0.402690286230638 
1783	 0.402634148846787 
1784	 0.402565036047928 
1785	 0.402506561579842 
1786	 0.40242513606329 
1787	 0.402303234342973 
1788	 0.402204543023551 
1789	 0.402094996398666 
1790	 0.402016305518774 
1791	 0.401956712747207 
1792	 0.401915013872848 
1793	 0.401920227024067 
1794	 0.401884616075695 
1795	 0.401839538772004 
1796	 0.40179842198569 
1797	 0.401728941728267 
1798	 0.401671327931046 
1799	 0.401631771084521 
1800	 0.401601477860784 
1801	 0.397069151527052 
1802	 0.397071440530056 
1803	 0.397097817655936 
1804	 0.397125466888112 
1805	 0.397150253242514 
1806	 0.397186893964173 
1807	 0.397253820703377 
1808	 0.397318819101821 
1809	 0.397421140130844 
1810	 0.397466242453506 
1811	 0.397503950092906 
1812	 0.397519105128928 
1813	 0.397491237796182 
1814	 0.397424644721857 
1815	 0.397402016798355 
1816	 0.397385640861415 
1817	 0.397347205883094 
1818	 0.397308078257311 
1819	 0.397281553928662 
1820	 0.397251374562838 
1821	 0.397190810288885 
1822	 0.39718478168413 
1823	 0.397164275542001 
1824	 0.397138904207341 
1825	 0.397115818961773 
1826	 0.397061027948338 
1827	 0.396992541956784 
1828	 0.396899963507604 
1829	 0.396786949634395 
1830	 0.396646733252032 
1831	 0.396479798327676 
1832	 0.396301854738373 
1833	 0.396099249615804 
1834	 0.39588607871177 
1835	 0.395713879080885 
1836	 0.395542443515506 
1837	 0.395368542829731 
1838	 0.395235197435154 
1839	 0.395106467430903 
1840	 0.394997688911836 
1841	 0.394866760495377 
1842	 0.394739426678967 
1843	 0.394590860018099 
1844	 0.394393976483771 
1845	 0.394173872670291 
1846	 0.393928213598659 
1847	 0.39366875358822 
1848	 0.393380476877927 
1849	 0.39311019214404 
1850	 0.392865863934224 
1851	 0.392651435197615 
1852	 0.392416971561107 
1853	 0.39220684501308 
1854	 0.391962195822386 
1855	 0.391651199622104 
1856	 0.391329669898402 
1857	 0.390973460546153 
1858	 0.390576132935188 
1859	 0.390121955752674 
1860	 0.389615590176143 
1861	 0.389056632452541 
1862	 0.388443920140555 
1863	 0.387773728241407 
1864	 0.387089344971593 
1865	 0.386372865872815 
1866	 0.38554766010455 
1867	 0.384643339872645 
1868	 0.383676062623635 
1869	 0.382607284315746 
1870	 0.381463845248002 
1871	 0.380233553919352 
1872	 0.378934271342461 
1873	 0.377550579759436 
1874	 0.376082619886855 
1875	 0.374503984746679 
1876	 0.372830361266694 
1877	 0.371031473808957 
1878	 0.369045910758584 
1879	 0.366913695806167 
1880	 0.364619810635944 
1881	 0.362138769771809 
1882	 0.359538845486942 
1883	 0.35681280771843 
1884	 0.353872837651399 
1885	 0.350820039784913 
1886	 0.34763420715537 
1887	 0.344223816164133 
1888	 0.34074576246361 
1889	 0.337141667918499 
1890	 0.33340981780421 
1891	 0.329713066010531 
1892	 0.325900741771263 
1893	 0.322181639901936 
1894	 0.318463800913145 
1895	 0.314816017513421 
1896	 0.311187322601214 
1897	 0.307731961692054 
1898	 0.304378643303568 
1899	 0.301197796750283 
1900	 0.298208008689767 
1901	 0.295383371642213 
1902	 0.292748900699412 
1903	 0.290326091853104 
1904	 0.288037710873695 
1905	 0.285914039904963 
1906	 0.283986328839231 
1907	 0.282181767857083 
1908	 0.280504294974824 
1909	 0.278991995647083 
1910	 0.277572107875852 
1911	 0.27627807850601 
1912	 0.275119365836344 
1913	 0.274032826810974 
1914	 0.273057341747378 
1915	 0.2721475335901 
1916	 0.271328076682813 
1917	 0.270566837969715 
1918	 0.269891717501581 
1919	 0.269256395516008 
1920	 0.268705635948096 
1921	 0.268231471684868 
1922	 0.267785352215707 
1923	 0.267417072689244 
1924	 0.267091441535547 
1925	 0.266794760393366 
1926	 0.266581786410629 
1927	 0.266434675797478 
1928	 0.266349334672592 
1929	 0.266337074724839 
1930	 0.266356981011212 
1931	 0.266440268534902 
1932	 0.266563736149291 
1933	 0.26669446574188 
1934	 0.266886744705453 
1935	 0.267118449852235 
1936	 0.267391157609501 
1937	 0.267683013214555 
1938	 0.268023664056591 
1939	 0.268387772836577 
1940	 0.26876704512101 
1941	 0.26917575671927 
1942	 0.269631820328924 
1943	 0.270120206084585 
1944	 0.270640214254675 
1945	 0.271179833477925 
1946	 0.271739809679523 
1947	 0.272329452728068 
1948	 0.272931883992709 
1949	 0.273563054893076 
1950	 0.274196709296263 
1951	 0.274847510492438 
1952	 0.275508759379265 
1953	 0.276164251766643 
1954	 0.276794110520929 
1955	 0.277461332813198 
1956	 0.278137197916403 
1957	 0.27883672785809 
1958	 0.27957397098895 
1959	 0.280301139930577 
1960	 0.281038835105062 
1961	 0.281781146746134 
1962	 0.282515038221809 
1963	 0.283280519862111 
1964	 0.284071283776771 
1965	 0.284859498928607 
1966	 0.285672194574698 
1967	 0.286467956239473 
1968	 0.287281889979357 
1969	 0.288100486364951 
1970	 0.288927420992599 
1971	 0.289784354248853 
1972	 0.290613864395939 
1973	 0.291418370054213 
1974	 0.292241969163704 
1975	 0.293060956265707 
1976	 0.293894331561431 
1977	 0.294737333186804 
1978	 0.295589569581867 
1979	 0.296427897785727 
1980	 0.297286084192456 
1981	 0.298124978652911 
1982	 0.298953287494527 
1983	 0.299791045168254 
1984	 0.300614993668077 
1985	 0.301453199025713 
1986	 0.302318170889511 
1987	 0.303167963828988 
1988	 0.304009039992538 
1989	 0.304863022117622 
1990	 0.3057169507823 
1991	 0.30655502579406 
1992	 0.307390586785574 
1993	 0.308229827519904 
1994	 0.309057124517047 
1995	 0.309878268702231 
1996	 0.310678226563091 
1997	 0.311460653591266 
1998	 0.312253016625642 
1999	 0.313030831290564 
2000	 0.313810456305427 
2001	 0.314613104046928 
2002	 0.315382391548736 
2003	 0.316142629269113 
2004	 0.316894778682844 
2005	 0.317651356313208 
2006	 0.318407009919471 
2007	 0.319163283042181 
2008	 0.319916069898249 
2009	 0.320671929449319 
2010	 0.321430504424168 
2011	 0.322184376083681 
2012	 0.322959960282992 
2013	 0.323699381751879 
2014	 0.324409585922423 
2015	 0.325123921037347 
2016	 0.325832776354746 
2017	 0.326525676689987 
2018	 0.327242584895808 
2019	 0.327999725075937 
2020	 0.328705356783262 
2021	 0.32940248843414 
2022	 0.330078858636008 
2023	 0.330712230873295 
2024	 0.331365079239963 
2025	 0.332019187803387 
2026	 0.332663816554148 
2027	 0.333324123686906 
2028	 0.333949555266583 
2029	 0.334563955103485 
2030	 0.335154246571252 
2031	 0.335754909434406 
2032	 0.336344176486201 
2033	 0.336937945179034 
2034	 0.337532737774234 
2035	 0.338130047441894 
2036	 0.33873445762087 
2037	 0.339319826638716 
2038	 0.339917522937492 
2039	 0.340481138174282 
2040	 0.341020509518179 
2041	 0.341540610025211 
2042	 0.342041984493065 
2043	 0.342532624248754 
2044	 0.343033417714977 
2045	 0.343527563455761 
2046	 0.344030816480601 
2047	 0.344550665444648 
2048	 0.345049354925362 
2049	 0.345553556875705 
2050	 0.346027491737667 
2051	 0.346470170491857 
2052	 0.346921152905862 
2053	 0.347358530749303 
2054	 0.347793786814317 
2055	 0.348227048805163 
2056	 0.348668776127479 
2057	 0.349087170091737 
2058	 0.349488631127464 
2059	 0.349889627266659 
2060	 0.350272610803575 
2061	 0.350671477553035 
2062	 0.351078721767829 
2063	 0.351474713481175 
2064	 0.351874808275971 
2065	 0.352267186940328 
2066	 0.352647936898798 
2067	 0.353027687338182 
2068	 0.353410142361695 
2069	 0.353777507064905 
2070	 0.354156566684056 
2071	 0.354531186954447 
2072	 0.354913606402565 
2073	 0.355332618395285 
2074	 0.355682267814236 
2075	 0.355991172769971 
2076	 0.35631884418333 
2077	 0.356601893854355 
2078	 0.356917293793996 
2079	 0.357272676434357 
2080	 0.357604433575026 
2081	 0.357936971594761 
2082	 0.358250048210424 
2083	 0.358539755447622 
2084	 0.358839898032752 
2085	 0.359134516321724 
2086	 0.359414611606707 
2087	 0.359705295120015 
2088	 0.360008307669504 
2089	 0.360293770487703 
2090	 0.360566037433752 
2091	 0.360848289437072 
2092	 0.361122677834764 
2093	 0.361411052011125 
2094	 0.36172363509634 
2095	 0.362011322135752 
2096	 0.362300934518387 
2097	 0.362574316484253 
2098	 0.362815230959339 
2099	 0.363075219644439 
2100	 0.363317582767624 
2101	 0.363544506081886 
2102	 0.363784673537729 
2103	 0.364015537884688 
2104	 0.364266877607549 
2105	 0.364505670927534 
2106	 0.364805952879041 
2107	 0.365166184032624 
2108	 0.365490575109281 
2109	 0.365855210596991 
2110	 0.366186970796311 
2111	 0.36648008727893 
2112	 0.36677545232217 
2113	 0.367059497265524 
2114	 0.367361821555162 
2115	 0.36764220445364 
2116	 0.367892841873728 
2117	 0.368188684702007 
2118	 0.368493624466288 
2119	 0.368812866260144 
2120	 0.369154913127286 
2121	 0.369506709076264 
2122	 0.369890230248535 
2123	 0.370237175793042 
2124	 0.37061791978623 
2125	 0.370930150389343 
2126	 0.371182133542027 
2127	 0.371432476404976 
2128	 0.371652066679901 
2129	 0.37185573410575 
2130	 0.372028522979835 
2131	 0.372215053388762 
2132	 0.372386828267711 
2133	 0.372549860848137 
2134	 0.372680784642968 
2135	 0.372806552668301 
2136	 0.372902894106698 
2137	 0.37296437049274 
2138	 0.37300776967063 
2139	 0.373034518176582 
2140	 0.373041844488258 
2141	 0.37301480404499 
2142	 0.37298081901332 
2143	 0.372944346011584 
2144	 0.372880249029144 
2145	 0.372792997483692 
2146	 0.372686196962204 
2147	 0.372565885321633 
2148	 0.372410018883692 
2149	 0.372239069140514 
2150	 0.372045658133598 
2151	 0.371835992102286 
2152	 0.371611661004299 
2153	 0.371351867067978 
2154	 0.371043189493495 
2155	 0.370766924967379 
2156	 0.370500347157268 
2157	 0.370186015452607 
2158	 0.369880261537692 
2159	 0.36953175202757 
2160	 0.369101011342487 
2161	 0.368699018096827 
2162	 0.368305652192732 
2163	 0.367896297075361 
2164	 0.36748679399351 
2165	 0.36706143011447 
2166	 0.366609353471826 
2167	 0.366126848128796 
2168	 0.365658637042144 
2169	 0.365182274320964 
2170	 0.364686336131211 
2171	 0.36423125636779 
2172	 0.363664835701324 
2173	 0.363032963642 
2174	 0.362378595733044 
2175	 0.361645607656504 
2176	 0.360915713331629 
2177	 0.360169678320343 
2178	 0.359400841832843 
2179	 0.358613006562042 
2180	 0.357792874889415 
2181	 0.356949245136003 
2182	 0.356078529585505 
2183	 0.355164860076488 
2184	 0.354233071735285 
2185	 0.353299055988208 
2186	 0.352332832979104 
2187	 0.351393467241418 
2188	 0.350425177596124 
2189	 0.34954240477571 
2190	 0.348689361181429 
2191	 0.347877923626772 
2192	 0.347111861783231 
2193	 0.346397692145218 
2194	 0.345679042923479 
2195	 0.345086252634576 
2196	 0.344605712825934 
2197	 0.344157483158776 
2198	 0.34379925277904 
2199	 0.343476229319019 
2200	 0.343167172801358 
2201	 0.342947706645504 
2202	 0.34281204548195 
2203	 0.342724293719487 
2204	 0.34269690139721 
2205	 0.342729687221047 
2206	 0.342857800538077 
2207	 0.343034535511739 
2208	 0.343335221968245 
2209	 0.343768181955403 
2210	 0.344232751869068 
2211	 0.344815663324065 
2212	 0.345376636684984 
2213	 0.346014580555692 
2214	 0.346596437176661 
2215	 0.347170553359061 
2216	 0.347736180421951 
2217	 0.348312448613456 
2218	 0.34883129782578 
2219	 0.349333624156448 
2220	 0.349800944578205 
2221	 0.350213655387089 
2222	 0.350595416603881 
2223	 0.350984336114936 
2224	 0.351346171913894 
2225	 0.351651196807116 
2226	 0.351938223807808 
2227	 0.352131573641553 
2228	 0.352242471927676 
2229	 0.352339447987791 
2230	 0.352355117523508 
2231	 0.352396668951905 
2232	 0.352428208143674 
2233	 0.352439914202029 
2234	 0.35243903351754 
2235	 0.352420392481762 
2236	 0.352382400826692 
2237	 0.352329212668083 
2238	 0.352250424369728 
2239	 0.352174084892074 
2240	 0.352069866774684 
2241	 0.351986382425622 
2242	 0.351923280630072 
2243	 0.351841047797976 
2244	 0.35178384183576 
2245	 0.351680953570635 
2246	 0.351526396092087 
2247	 0.351354875827632 
2248	 0.351166307437655 
2249	 0.350919633851712 
2250	 0.350731500598933 
2251	 0.350554189663051 
2252	 0.350385596731002 
2253	 0.350248349244134 
2254	 0.350072159959335 
2255	 0.349880205902656 
2256	 0.349702841442941 
2257	 0.349491630486264 
2258	 0.349340714682364 
2259	 0.349221253616726 
2260	 0.349115696589517 
2261	 0.349036584846281 
2262	 0.348978072943553 
2263	 0.348942129400102 
2264	 0.348924545322547 
2265	 0.348945367865431 
2266	 0.348958515577069 
2267	 0.348993619398625 
2268	 0.349016076156858 
2269	 0.349024598547549 
2270	 0.349044888413833 
2271	 0.349111678186581 
2272	 0.349118826474974 
2273	 0.34910365680971 
2274	 0.349122121334935 
2275	 0.349126689618097 
2276	 0.34909362486624 
2277	 0.34910779422671 
2278	 0.349152643112114 
2279	 0.34919296806723 
2280	 0.349259715847627 
2281	 0.349279807636842 
2282	 0.34930003794398 
2283	 0.349295660541954 
2284	 0.349229572684516 
2285	 0.349214122794545 
2286	 0.349230482800196 
2287	 0.349202305005595 
2288	 0.349171981500819 
2289	 0.349126989652135 
2290	 0.349025202251528 
2291	 0.348973042684859 
2292	 0.348947199749311 
2293	 0.348920893748467 
2294	 0.348913071191196 
2295	 0.348896921465422 
2296	 0.348884835719331 
2297	 0.348878874566262 
2298	 0.348813358364618 
2299	 0.348753351410577 
2300	 0.348666843400936 
2301	 0.348530184562376 
2302	 0.348439786695303 
2303	 0.348336964438546 
2304	 0.348198366817051 
2305	 0.348050291708108 
2306	 0.347884082791985 
2307	 0.347671740156209 
2308	 0.347507138815608 
2309	 0.347367790466892 
2310	 0.347191600338251 
2311	 0.347037201520516 
2312	 0.346814109103505 
2313	 0.346526557456374 
2314	 0.346257969217133 
2315	 0.345947253248373 
2316	 0.345675558181868 
2317	 0.345433290953357 
2318	 0.345166009281849 
2319	 0.344889530643392 
2320	 0.3446241905041 
2321	 0.344334637851605 
2322	 0.344072925925334 
2323	 0.343854030284782 
2324	 0.343627155749342 
2325	 0.343420038446942 
2326	 0.343190719290466 
2327	 0.342966929849408 
2328	 0.342696183325052 
2329	 0.34241212466852 
2330	 0.342126171943455 
2331	 0.341832423695837 
2332	 0.341530378989283 
2333	 0.341223168682559 
2334	 0.340898914955274 
2335	 0.340599027655405 
2336	 0.340288629176041 
2337	 0.34002284805415 
2338	 0.339776552271633 
2339	 0.33945872332308 
2340	 0.339117892482233 
2341	 0.33872949640821 
2342	 0.338271181903128 
2343	 0.337848992746908 
2344	 0.337540700346376 
2345	 0.337212610633708 
2346	 0.336899920808164 
2347	 0.336617776415831 
2348	 0.336369711733701 
2349	 0.33610132740055 
2350	 0.33588078859134 
2351	 0.335605847257355 
2352	 0.335294850162479 
2353	 0.334999620932493 
2354	 0.334630357350468 
2355	 0.334381483859472 
2356	 0.334236174145787 
2357	 0.334009352301358 
2358	 0.333791133510425 
2359	 0.333601796804044 
2360	 0.333417671683555 
2361	 0.333181557739636 
2362	 0.332974235982462 
2363	 0.33273789562194 
2364	 0.332404591476927 
2365	 0.332090625609788 
2366	 0.331811104891694 
2367	 0.331504201332294 
2368	 0.331134523896238 
2369	 0.330820113802964 
2370	 0.330562195884236 
2371	 0.330251547881209 
2372	 0.329891184840422 
2373	 0.329483439173446 
2374	 0.329034258353038 
2375	 0.328598387189547 
2376	 0.328116805488225 
2377	 0.327656727970067 
2378	 0.32716719060578 
2379	 0.326590603117037 
2380	 0.326103826586777 
2381	 0.325663142930131 
2382	 0.32524063059161 
2383	 0.32483369809767 
2384	 0.324333567767524 
2385	 0.323820315963821 
2386	 0.323297646903531 
2387	 0.32275593142812 
2388	 0.322286277756284 
2389	 0.321854583238282 
2390	 0.321379197620711 
2391	 0.320953526341724 
2392	 0.320525922840962 
2393	 0.320090753892242 
2394	 0.319694519446466 
2395	 0.319193940528125 
2396	 0.318705260229296 
2397	 0.318184693972926 
2398	 0.317618382928382 
2399	 0.317054437727693 
2400	 0.316466461040382 
2401	 0.315936184515238 
2402	 0.315392221761178 
2403	 0.314933223376899 
2404	 0.31444619083291 
2405	 0.313773280606117 
2406	 0.313055949726927 
2407	 0.312306368693541 
2408	 0.311636230974325 
2409	 0.311027091913609 
2410	 0.310358374808477 
2411	 0.309728533273906 
2412	 0.309070887559839 
2413	 0.308346421006618 
2414	 0.307682132598718 
2415	 0.30702534218516 
2416	 0.306307184867092 
2417	 0.305497471058416 
2418	 0.304725989341859 
2419	 0.303920397155132 
2420	 0.303166184305253 
2421	 0.302431488995631 
2422	 0.301782510201182 
2423	 0.30125185561095 
2424	 0.300626201522762 
2425	 0.299970544617335 
2426	 0.299275245991342 
2427	 0.298526600271229 
2428	 0.297815086328356 
2429	 0.297113303277604 
2430	 0.296457618370882 
2431	 0.295817797047974 
2432	 0.295182784806097 
2433	 0.294594226631645 
2434	 0.293946459780907 
2435	 0.293300680785196 
2436	 0.292628434667829 
2437	 0.291885502430636 
2438	 0.291225294919112 
2439	 0.290590534963662 
2440	 0.289906414796632 
2441	 0.289187572536493 
2442	 0.288574879411723 
2443	 0.288011509099648 
2444	 0.287455712312833 
2445	 0.287041077334665 
2446	 0.286526585239176 
2447	 0.285937176194488 
2448	 0.285335994536369 
2449	 0.284688886678769 
2450	 0.284032190884106 
2451	 0.283344731597461 
2452	 0.282684193460407 
2453	 0.281999373671313 
2454	 0.281436475424024 
2455	 0.280941640054388 
2456	 0.280403402157363 
2457	 0.279931641550527 
2458	 0.27940760474429 
2459	 0.27889398530628 
2460	 0.278359452714945 
2461	 0.277779356435546 
2462	 0.277223760228743 
2463	 0.276576988748553 
2464	 0.275994897059771 
2465	 0.27552778031209 
2466	 0.274976293081572 
2467	 0.274412169971697 
2468	 0.27395043350674 
2469	 0.273469619768092 
2470	 0.273180224887455 
2471	 0.27265954295063 
2472	 0.271880232573932 
2473	 0.271378540576454 
2474	 0.270852829247474 
2475	 0.270242922142145 
2476	 0.269822586633532 
2477	 0.269194437671542 
2478	 0.268460334054914 
2479	 0.267934952835563 
2480	 0.267457662177884 
2481	 0.267013932214306 
2482	 0.266633140362525 
2483	 0.266249427970677 
2484	 0.265671893498299 
2485	 0.26487497546249 
2486	 0.264106331334792 
2487	 0.263511451394761 
2488	 0.263115969933181 
2489	 0.26294454420838 
2490	 0.262720966563208 
2491	 0.262254413276963 
2492	 0.261724006771499 
2493	 0.261083638406238 
2494	 0.260587949152554 
2495	 0.260286445904016 
2496	 0.259875254053805 
2497	 0.259634722215151 
2498	 0.259412995135616 
2499	 0.259092130609702 
2500	 0.258877573450452 
