Wavelength	LMW500004.asd
350	 7.36271527985164E-02 
351	 0.083813451661306 
352	 8.58441032658123E-02 
353	 7.41630189740713E-02 
354	 7.74620347300195E-02 
355	 7.85268512568064E-02 
356	 7.66999581321221E-02 
357	 7.54968807571723E-02 
358	 7.75938794725056E-02 
359	 7.90790344492749E-02 
360	 7.88319793433921E-02 
361	 0.077622326780188 
362	 7.41937176641282E-02 
363	 7.31405389976936E-02 
364	 7.59851736370524E-02 
365	 7.89300935358203E-02 
366	 7.91939186989792E-02 
367	 7.81748993232258E-02 
368	 7.85447400010679E-02 
369	 8.28291824143863E-02 
370	 8.47156555353085E-02 
371	 8.35751808267866E-02 
372	 8.30212439625567E-02 
373	 8.58982178638712E-02 
374	 8.76873006404554E-02 
375	 8.65786915730757E-02 
376	 8.69998322831844E-02 
377	 8.82710041075865E-02 
378	 8.97176473317688E-02 
379	 9.09964433024762E-02 
380	 9.41993255186039E-02 
381	 9.41495030622965E-02 
382	 9.29422957929346E-02 
383	 9.73965744180211E-02 
384	 9.95586317446549E-02 
385	 9.92235026816141E-02 
386	 9.82592144827106E-02 
387	 0.100075653250119 
388	 0.103503442917117 
389	 0.105679902662086 
390	 0.104755099069204 
391	 0.106002443180416 
392	 0.10797537197962 
393	 0.110133631258232 
394	 0.112865342577449 
395	 0.114329090038994 
396	 0.115407400725817 
397	 0.117108471604951 
398	 0.119855261344502 
399	 0.122578783535971 
400	 0.124513077862319 
401	 0.125314978111865 
402	 0.125820988041536 
403	 0.127505167222756 
404	 0.129724073607887 
405	 0.129884662158324 
406	 0.132003326905882 
407	 0.134680287729617 
408	 0.136081624038558 
409	 0.135808704813381 
410	 0.136986619150851 
411	 0.139002454478503 
412	 0.139846355324787 
413	 0.141656585321695 
414	 0.142704383047568 
415	 0.142727051028925 
416	 0.143708845173371 
417	 0.143985204138674 
418	 0.144357985154233 
419	 0.145586357320888 
420	 0.146478741520797 
421	 0.145970736283608 
422	 0.145084971132307 
423	 0.145870618646813 
424	 0.146095322794728 
425	 0.146219407686905 
426	 0.146517236611009 
427	 0.146288133014211 
428	 0.145780603855371 
429	 0.145350791343464 
430	 0.145260857068085 
431	 0.145109956195226 
432	 0.144850497266593 
433	 0.144747045255879 
434	 0.145292126272343 
435	 0.145517176270731 
436	 0.145660130998396 
437	 0.146040909688179 
438	 0.146538309219009 
439	 0.147067139608018 
440	 0.147918098499261 
441	 0.149389774441411 
442	 0.150246033031284 
443	 0.151067306089561 
444	 0.152178510171668 
445	 0.153230200426994 
446	 0.154455623474612 
447	 0.15572417766696 
448	 0.156862047504895 
449	 0.157957324496184 
450	 0.159135051348739 
451	 0.160322867923116 
452	 0.161301887068756 
453	 0.16236033974148 
454	 0.163556406228855 
455	 0.164795010530448 
456	 0.165717976729414 
457	 0.16656147353664 
458	 0.167449224176034 
459	 0.168397213047238 
460	 0.169017988674139 
461	 0.169668336985335 
462	 0.170500621964282 
463	 0.171291885235216 
464	 0.172020049931399 
465	 0.172749940803297 
466	 0.173514690975594 
467	 0.174106677745259 
468	 0.174574519918013 
469	 0.174976597116022 
470	 0.175386937229842 
471	 0.176094464949373 
472	 0.176753006220595 
473	 0.177126179114306 
474	 0.177437274616078 
475	 0.178054099512924 
476	 0.178754362033868 
477	 0.179114142890405 
478	 0.179409401743433 
479	 0.179914609441972 
480	 0.180633580325165 
481	 0.181210405473252 
482	 0.18169921502153 
483	 0.182213874296784 
484	 0.182818894312395 
485	 0.18329638819698 
486	 0.183637269417213 
487	 0.183973838405351 
488	 0.184521667876183 
489	 0.184891983808324 
490	 0.185336128231138 
491	 0.186024963946299 
492	 0.186706556241369 
493	 0.187036681498611 
494	 0.187268668748037 
495	 0.187864426021034 
496	 0.188390750672988 
497	 0.188937979077897 
498	 0.189507207718631 
499	 0.189887715642483 
500	 0.190387447553987 
501	 0.190948762415849 
502	 0.191445725835093 
503	 0.191973823046362 
504	 0.192467094906094 
505	 0.192957078380401 
506	 0.19355512101399 
507	 0.194017694273393 
508	 0.19440678225085 
509	 0.194831837331555 
510	 0.195373055020881 
511	 0.195847263506142 
512	 0.196309492170735 
513	 0.196907727988454 
514	 0.197360148365567 
515	 0.197845929236068 
516	 0.19840363915695 
517	 0.198731912766387 
518	 0.199164593877111 
519	 0.199656656213961 
520	 0.200083069092976 
521	 0.200597894669981 
522	 0.201129916860455 
523	 0.201600913967921 
524	 0.201943780972527 
525	 0.202413764341335 
526	 0.202895288662565 
527	 0.203286103410538 
528	 0.203816278197078 
529	 0.204303222580469 
530	 0.204748041592054 
531	 0.205258190898865 
532	 0.205636404647238 
533	 0.206081709365589 
534	 0.206679675558618 
535	 0.207171582104286 
536	 0.207642178772633 
537	 0.208100926118437 
538	 0.208537077548612 
539	 0.208960734269616 
540	 0.209427197407063 
541	 0.209926041301073 
542	 0.210354190817729 
543	 0.210893145536058 
544	 0.211431436234911 
545	 0.211848314315878 
546	 0.212326619860876 
547	 0.212787105873142 
548	 0.213247207514701 
549	 0.213804960155347 
550	 0.214371851963237 
551	 0.214919217365492 
552	 0.215459154265518 
553	 0.216085420006814 
554	 0.216670084055149 
555	 0.217234530325625 
556	 0.217862701266589 
557	 0.218428072006188 
558	 0.219039865170647 
559	 0.21972071350346 
560	 0.220296920516259 
561	 0.220864069771427 
562	 0.22142043786038 
563	 0.221960923867308 
564	 0.222637883460661 
565	 0.223276926498418 
566	 0.223863657289654 
567	 0.224580553309109 
568	 0.225273155219355 
569	 0.225992653028215 
570	 0.226799810008094 
571	 0.227635376723705 
572	 0.228441214459968 
573	 0.229200772119497 
574	 0.229922802258836 
575	 0.23051415373864 
576	 0.231183389881319 
577	 0.232015351473812 
578	 0.232724886819568 
579	 0.233465574184994 
580	 0.234233838878709 
581	 0.234986264392181 
582	 0.235857703397601 
583	 0.236739664529477 
584	 0.237586008091936 
585	 0.238476314713026 
586	 0.239278425431373 
587	 0.240049116675086 
588	 0.240866302519338 
589	 0.241643387669739 
590	 0.242396347319891 
591	 0.243146736326778 
592	 0.243917965762595 
593	 0.244688184292764 
594	 0.245431117477927 
595	 0.246165178234838 
596	 0.247039902244114 
597	 0.247908582361093 
598	 0.248756172471408 
599	 0.249628801071436 
600	 0.250407946752891 
601	 0.251133584922654 
602	 0.251834179964564 
603	 0.25248661417571 
604	 0.253069979617403 
605	 0.253677251901895 
606	 0.254397646487478 
607	 0.255068530107115 
608	 0.25568120339618 
609	 0.256303260662179 
610	 0.257073696807498 
611	 0.257769291506187 
612	 0.258405454760708 
613	 0.259034815993114 
614	 0.259631210223675 
615	 0.260199575002402 
616	 0.260755815534301 
617	 0.261316716225081 
618	 0.261844556349785 
619	 0.26230699109964 
620	 0.262719333161536 
621	 0.263192090204548 
622	 0.263676515669528 
623	 0.264124309376629 
624	 0.264513622235853 
625	 0.265013614277671 
626	 0.265506993862434 
627	 0.265930165128251 
628	 0.266320204980092 
629	 0.266775124442 
630	 0.267227301243493 
631	 0.267600859820199 
632	 0.267982322471191 
633	 0.268359302901229 
634	 0.268762713163744 
635	 0.269248555208258 
636	 0.269665871340042 
637	 0.270041055031004 
638	 0.270423901112342 
639	 0.270840542681905 
640	 0.271240875439297 
641	 0.271650323086522 
642	 0.272113871929024 
643	 0.272551797165912 
644	 0.272917773560216 
645	 0.273256979812456 
646	 0.273742213515906 
647	 0.274146279285686 
648	 0.274506623273097 
649	 0.274916097918852 
650	 0.275344286069644 
651	 0.275802825043655 
652	 0.276255613397815 
653	 0.276635110148237 
654	 0.277077235513872 
655	 0.277512159255017 
656	 0.277894405174953 
657	 0.278327316797849 
658	 0.278834793894612 
659	 0.279325598074191 
660	 0.279682647033942 
661	 0.280072556011005 
662	 0.280564254894389 
663	 0.28112966764433 
664	 0.281620441108414 
665	 0.282042012875228 
666	 0.282455163917721 
667	 0.282915920896468 
668	 0.283356683299562 
669	 0.28388620336228 
670	 0.284433777311401 
671	 0.28479691636115 
672	 0.28523959687731 
673	 0.285733472296363 
674	 0.286221099995943 
675	 0.286701049269394 
676	 0.28720940707788 
677	 0.287694424620231 
678	 0.288098183933633 
679	 0.288601919796852 
680	 0.289121928214479 
681	 0.289619369469815 
682	 0.290145963324219 
683	 0.290653932691643 
684	 0.291109516632533 
685	 0.291539797246005 
686	 0.292189309309006 
687	 0.292698090674693 
688	 0.293094285069633 
689	 0.29366699361249 
690	 0.294225766204444 
691	 0.294703134954515 
692	 0.295130961981369 
693	 0.295713142410975 
694	 0.296220846846931 
695	 0.29670116842588 
696	 0.297257365593238 
697	 0.297701367554893 
698	 0.298194983865595 
699	 0.298772130950317 
700	 0.299313139636038 
701	 0.29985136786627 
702	 0.300339366529224 
703	 0.300762794638889 
704	 0.30122855441629 
705	 0.301764872382708 
706	 0.302322672525908 
707	 0.302816793393004 
708	 0.303264095981397 
709	 0.303713831302614 
710	 0.304185532439897 
711	 0.3046498696891 
712	 0.305164687309715 
713	 0.30564378240484 
714	 0.306027805366353 
715	 0.306514618200594 
716	 0.306967795601013 
717	 0.307401658672417 
718	 0.307924938199881 
719	 0.308346636564882 
720	 0.308718786598084 
721	 0.309086157655804 
722	 0.309397427245347 
723	 0.309807409641403 
724	 0.310244524751687 
725	 0.310593154263532 
726	 0.310956001438313 
727	 0.311289612217116 
728	 0.311589922721633 
729	 0.311895307615182 
730	 0.312255613209792 
731	 0.312559987496398 
732	 0.31276598884968 
733	 0.313065832202134 
734	 0.313355357450912 
735	 0.313579779852201 
736	 0.313731859365075 
737	 0.313970870812396 
738	 0.314188590833872 
739	 0.314345245257501 
740	 0.314498068041548 
741	 0.314670499343549 
742	 0.314870155154472 
743	 0.315064244162967 
744	 0.315125591718926 
745	 0.31514903465038 
746	 0.315201070840948 
747	 0.315312286946024 
748	 0.315370670990002 
749	 0.315419620601604 
750	 0.31547023438038 
751	 0.315478688676666 
752	 0.315500767919389 
753	 0.315472713863068 
754	 0.315373125218086 
755	 0.31538495198216 
756	 0.315393508346196 
757	 0.315359587929039 
758	 0.315291859102489 
759	 0.315245439335312 
760	 0.315167232555573 
761	 0.315036687127817 
762	 0.31488703048349 
763	 0.314793366914107 
764	 0.314691193540578 
765	 0.314532756730074 
766	 0.314426468767708 
767	 0.314305145956421 
768	 0.314161507534411 
769	 0.314014715482355 
770	 0.313837492868263 
771	 0.313679499003474 
772	 0.313538434164536 
773	 0.313344921320041 
774	 0.313164113081128 
775	 0.313002962414121 
776	 0.312852276121824 
777	 0.312706636803164 
778	 0.312477025553625 
779	 0.312222418992523 
780	 0.312045267147952 
781	 0.311834848682081 
782	 0.311642629206094 
783	 0.311461962947928 
784	 0.311220094847333 
785	 0.311037562802696 
786	 0.310867394795187 
787	 0.310665461975972 
788	 0.310481738666413 
789	 0.31022116391792 
790	 0.309951357136284 
791	 0.309775962895885 
792	 0.309642595914997 
793	 0.309433824605942 
794	 0.309169669464607 
795	 0.308982280119607 
796	 0.308775823894744 
797	 0.308588174222534 
798	 0.308418425766116 
799	 0.308155345705957 
800	 0.307956039934154 
801	 0.307810495786874 
802	 0.307646374454951 
803	 0.307357473405301 
804	 0.307199832022945 
805	 0.307125706852519 
806	 0.306915585686303 
807	 0.306714262623214 
808	 0.306490562012375 
809	 0.306262374410047 
810	 0.306127622268126 
811	 0.305999330862805 
812	 0.305885546990211 
813	 0.305774758703844 
814	 0.305541537309698 
815	 0.305298740871017 
816	 0.305106726716254 
817	 0.304986340147838 
818	 0.304883962984 
819	 0.304772823857624 
820	 0.304647853314601 
821	 0.304518396430256 
822	 0.304327970599568 
823	 0.304181596855735 
824	 0.304107934877863 
825	 0.303974323403179 
826	 0.303831085478507 
827	 0.303715647012598 
828	 0.303628716614281 
829	 0.303463183412141 
830	 0.303271933154062 
831	 0.303115730788357 
832	 0.303041989845424 
833	 0.303003813346499 
834	 0.30294482427242 
835	 0.302870293642803 
836	 0.302832693369968 
837	 0.302678888157891 
838	 0.302551857871691 
839	 0.302520916957726 
840	 0.302449135491933 
841	 0.302368796467961 
842	 0.302267450270091 
843	 0.302149719808216 
844	 0.302100866017941 
845	 0.302053834146377 
846	 0.302023491015135 
847	 0.302041039096779 
848	 0.302005867695727 
849	 0.301946191506612 
850	 0.301899534575922 
851	 0.301889994258438 
852	 0.301784741093889 
853	 0.301715373727122 
854	 0.301727547126022 
855	 0.301690835202355 
856	 0.301746575582414 
857	 0.301771764103493 
858	 0.301689449380676 
859	 0.301697663084547 
860	 0.301690754263197 
861	 0.301662406655239 
862	 0.30165871161147 
863	 0.301805577059898 
864	 0.301856918779838 
865	 0.301824505164462 
866	 0.301857608340155 
867	 0.301767730747091 
868	 0.301795597814896 
869	 0.301959777727462 
870	 0.302024206713063 
871	 0.301990941187944 
872	 0.301983558958271 
873	 0.302084700966285 
874	 0.302270627986402 
875	 0.30239657209346 
876	 0.302441653518636 
877	 0.302443542954312 
878	 0.302476412889745 
879	 0.302642063181348 
880	 0.302768884484669 
881	 0.302708792541546 
882	 0.302833118331132 
883	 0.302985524025901 
884	 0.303109929377756 
885	 0.303215234500644 
886	 0.303295554015578 
887	 0.303427913984558 
888	 0.303555490165256 
889	 0.303547483689663 
890	 0.303743266586622 
891	 0.303962600416276 
892	 0.304110248440872 
893	 0.304282255072847 
894	 0.304445253313904 
895	 0.304559359111658 
896	 0.304661161764628 
897	 0.30491985212867 
898	 0.305178817094865 
899	 0.305372212886365 
900	 0.305505158535091 
901	 0.305699351315337 
902	 0.305834203523812 
903	 0.305984577531011 
904	 0.306242929773707 
905	 0.306509507054144 
906	 0.306781001439547 
907	 0.307036261026266 
908	 0.307249097987813 
909	 0.307399730042541 
910	 0.307542714772827 
911	 0.307738668058199 
912	 0.308030295298923 
913	 0.308374308414308 
914	 0.308636773176113 
915	 0.30883262191205 
916	 0.30909389733377 
917	 0.309253942408886 
918	 0.309497037076187 
919	 0.309869013342303 
920	 0.310208641041296 
921	 0.310499737616531 
922	 0.310748254162099 
923	 0.311002132561895 
924	 0.31134781894974 
925	 0.311639303907337 
926	 0.311984486160652 
927	 0.312399576764932 
928	 0.312640372090624 
929	 0.31308354333848 
930	 0.313494716326705 
931	 0.313705780105527 
932	 0.314067406130481 
933	 0.31439317870889 
934	 0.314690161455648 
935	 0.315019035717443 
936	 0.31543679747805 
937	 0.31580870456735 
938	 0.316129862830319 
939	 0.316458541655759 
940	 0.316889267461853 
941	 0.317323450205647 
942	 0.317743736820423 
943	 0.318165439750272 
944	 0.31857531906142 
945	 0.31908105273583 
946	 0.319557198015947 
947	 0.319854468433879 
948	 0.320214653150637 
949	 0.320603644111595 
950	 0.321007366121449 
951	 0.321429019294984 
952	 0.321893136955056 
953	 0.322384681028824 
954	 0.322820587311056 
955	 0.323161060190113 
956	 0.323778233972924 
957	 0.324300955685257 
958	 0.324692699336256 
959	 0.325127694508509 
960	 0.325523340361428 
961	 0.325951052875769 
962	 0.326424030741999 
963	 0.326908371356488 
964	 0.327375347937301 
965	 0.327926549872845 
966	 0.328539312937458 
967	 0.32910409429651 
968	 0.329566007002221 
969	 0.330049446743937 
970	 0.33056986352491 
971	 0.331073926994699 
972	 0.331659379313582 
973	 0.33221122313595 
974	 0.33279662252428 
975	 0.333537018712754 
976	 0.33407865754546 
977	 0.334564951982247 
978	 0.335142523329941 
979	 0.335846543960705 
980	 0.336271555816762 
981	 0.336678960379661 
982	 0.337211551827316 
983	 0.337869179705611 
984	 0.338531901883749 
985	 0.339128557071667 
986	 0.339631838461191 
987	 0.340075106412925 
988	 0.34061263982725 
989	 0.341206857354189 
990	 0.341823558860043 
991	 0.342447552443112 
992	 0.343147795279775 
993	 0.343628167751862 
994	 0.343999811603277 
995	 0.344503260787319 
996	 0.345023716144132 
997	 0.345659231363929 
998	 0.346382454369367 
999	 0.347082703118489 
1000	 0.347569167784927 
1001	 0.350266849528073 
1002	 0.350771382712741 
1003	 0.351221073339446 
1004	 0.351709475263369 
1005	 0.352255347703395 
1006	 0.352795449560276 
1007	 0.353339196516947 
1008	 0.353861106650616 
1009	 0.354371450708527 
1010	 0.354861598946269 
1011	 0.35529602095874 
1012	 0.35575913000415 
1013	 0.356310479472816 
1014	 0.356800991572745 
1015	 0.357221618328062 
1016	 0.357687768754028 
1017	 0.358151728896994 
1018	 0.358575917347037 
1019	 0.359026034401512 
1020	 0.359564372635165 
1021	 0.360038781692368 
1022	 0.360503731738464 
1023	 0.360988985559028 
1024	 0.361426533881485 
1025	 0.361875682707524 
1026	 0.362231055505876 
1027	 0.362503609850024 
1028	 0.362890286565714 
1029	 0.363352767819992 
1030	 0.363808196540663 
1031	 0.364218049870558 
1032	 0.364662029677729 
1033	 0.365037608080239 
1034	 0.365388147589698 
1035	 0.365774012349249 
1036	 0.36625224900686 
1037	 0.366747710358584 
1038	 0.367156796470484 
1039	 0.367575308645412 
1040	 0.367978019300896 
1041	 0.368334547606244 
1042	 0.368732460760511 
1043	 0.369152622385634 
1044	 0.369557597098312 
1045	 0.369972861900796 
1046	 0.370387275688795 
1047	 0.370823628945248 
1048	 0.371226871873101 
1049	 0.371590625206244 
1050	 0.372006016541493 
1051	 0.372371666725264 
1052	 0.372726277846594 
1053	 0.373206078077929 
1054	 0.373639018864458 
1055	 0.373999453094272 
1056	 0.374417291931177 
1057	 0.374784674758668 
1058	 0.375047518140025 
1059	 0.375404468727628 
1060	 0.37584698428784 
1061	 0.376162944802909 
1062	 0.37642923275034 
1063	 0.376738323435223 
1064	 0.377029046746003 
1065	 0.377323035621542 
1066	 0.377638801841629 
1067	 0.377949787939555 
1068	 0.378254932369532 
1069	 0.378546177590706 
1070	 0.378820822081433 
1071	 0.379137249654945 
1072	 0.379387456969614 
1073	 0.379541246433055 
1074	 0.379771205493927 
1075	 0.380020388057582 
1076	 0.380259152732711 
1077	 0.380535849895526 
1078	 0.380754255281423 
1079	 0.380930285644458 
1080	 0.381112114982357 
1081	 0.381271896797912 
1082	 0.381466310267528 
1083	 0.381678170267161 
1084	 0.381922504994256 
1085	 0.382145250132096 
1086	 0.382362683953597 
1087	 0.382584219907892 
1088	 0.382816378636634 
1089	 0.3830221105385 
1090	 0.383184001437311 
1091	 0.383402233746397 
1092	 0.383604770908823 
1093	 0.383805778717843 
1094	 0.384082848379258 
1095	 0.384343499742358 
1096	 0.384554443349898 
1097	 0.384753076684924 
1098	 0.384971612610732 
1099	 0.385168059386998 
1100	 0.385402424021688 
1101	 0.385657403322452 
1102	 0.3859396244388 
1103	 0.386253407667595 
1104	 0.386549268757628 
1105	 0.386878499816775 
1106	 0.38718270375686 
1107	 0.387428896711599 
1108	 0.387699846990263 
1109	 0.387997827115272 
1110	 0.388312870879432 
1111	 0.388632009115568 
1112	 0.388985880972999 
1113	 0.389318648347093 
1114	 0.389639241699902 
1115	 0.389969203740529 
1116	 0.390292607881136 
1117	 0.390652711644016 
1118	 0.391039344696578 
1119	 0.391403326527475 
1120	 0.391804275642561 
1121	 0.39218866650117 
1122	 0.392522086827517 
1123	 0.39285775941503 
1124	 0.393210423707668 
1125	 0.393558447027905 
1126	 0.393921651674519 
1127	 0.394311272684134 
1128	 0.394671391626677 
1129	 0.395024260697792 
1130	 0.395369280166389 
1131	 0.395716220285889 
1132	 0.396043927560363 
1133	 0.39634539344788 
1134	 0.396655911220681 
1135	 0.396967195991425 
1136	 0.397266992828357 
1137	 0.397515887396897 
1138	 0.397786804701867 
1139	 0.398066663668161 
1140	 0.398314579662315 
1141	 0.398598004850819 
1142	 0.398934434874194 
1143	 0.399236024078551 
1144	 0.399529014615369 
1145	 0.399806684818359 
1146	 0.400089013086509 
1147	 0.400342493570125 
1148	 0.400558367276326 
1149	 0.400795198591357 
1150	 0.401036694726958 
1151	 0.401255704255944 
1152	 0.401477965470284 
1153	 0.401705829380386 
1154	 0.401934986491383 
1155	 0.402154688836461 
1156	 0.402383214975603 
1157	 0.402638620402352 
1158	 0.402852889752996 
1159	 0.403039379630819 
1160	 0.403245021388124 
1161	 0.40342907604972 
1162	 0.403640370849602 
1163	 0.403887636970109 
1164	 0.404109203181914 
1165	 0.404335775646757 
1166	 0.404537934019076 
1167	 0.404756613578904 
1168	 0.404985873424873 
1169	 0.405193104625159 
1170	 0.405411012529881 
1171	 0.405610146870121 
1172	 0.40577336316183 
1173	 0.405960029254717 
1174	 0.406157798182904 
1175	 0.406347905738985 
1176	 0.406547204266091 
1177	 0.40672927091164 
1178	 0.406890747816491 
1179	 0.4070698976419 
1180	 0.407257719953738 
1181	 0.407428197462046 
1182	 0.407617531379045 
1183	 0.407776915378205 
1184	 0.40792096324272 
1185	 0.408021680149155 
1186	 0.408176879655312 
1187	 0.408344705475493 
1188	 0.408504407686732 
1189	 0.408698706973796 
1190	 0.408850822271798 
1191	 0.408959951872762 
1192	 0.409102787222993 
1193	 0.40925127603147 
1194	 0.409397486772873 
1195	 0.40954534399477 
1196	 0.40970764888623 
1197	 0.40988373836202 
1198	 0.410045615237394 
1199	 0.410207659594062 
1200	 0.410393510789153 
1201	 0.410535421399553 
1202	 0.410639917429331 
1203	 0.410773630518693 
1204	 0.410905566472346 
1205	 0.411035380388367 
1206	 0.411167769845618 
1207	 0.411308301090427 
1208	 0.411448262274036 
1209	 0.4115872798162 
1210	 0.411747700254136 
1211	 0.411886896697537 
1212	 0.412012876717371 
1213	 0.412133086696881 
1214	 0.412232879489305 
1215	 0.412346418654971 
1216	 0.41246242376855 
1217	 0.412570068084446 
1218	 0.41270060280286 
1219	 0.412856293986079 
1220	 0.412988062066034 
1221	 0.413124282946417 
1222	 0.413247831873365 
1223	 0.413360597391927 
1224	 0.413466055258514 
1225	 0.413561139072956 
1226	 0.413660325826206 
1227	 0.413750943377429 
1228	 0.413842705157287 
1229	 0.413935168301002 
1230	 0.414031168381485 
1231	 0.414125700244781 
1232	 0.414221088118379 
1233	 0.414318735739922 
1234	 0.414424385147639 
1235	 0.414522326937774 
1236	 0.414611032623375 
1237	 0.414716633612779 
1238	 0.414842799312225 
1239	 0.414934659671632 
1240	 0.415021261478998 
1241	 0.415102164234498 
1242	 0.415146603559111 
1243	 0.415217740930879 
1244	 0.415300157810591 
1245	 0.415387117135695 
1246	 0.415487191579054 
1247	 0.415581292099124 
1248	 0.415674553585848 
1249	 0.415779213526486 
1250	 0.415873446760938 
1251	 0.415965357179667 
1252	 0.416035766839753 
1253	 0.41608891579923 
1254	 0.416154239179069 
1255	 0.416199790716405 
1256	 0.416267903471628 
1257	 0.416357494971211 
1258	 0.416438714370351 
1259	 0.416526849937153 
1260	 0.41660470165812 
1261	 0.4166824312664 
1262	 0.416752037840681 
1263	 0.416815606748814 
1264	 0.41686930708973 
1265	 0.416902831490888 
1266	 0.416953409469492 
1267	 0.417005957633188 
1268	 0.417056016845144 
1269	 0.417114098537915 
1270	 0.417186009538998 
1271	 0.417252615652481 
1272	 0.417309107351743 
1273	 0.417388333739864 
1274	 0.417483776184907 
1275	 0.417574464354363 
1276	 0.417666957389754 
1277	 0.417775476950243 
1278	 0.417890969189983 
1279	 0.418010409854471 
1280	 0.418163987173905 
1281	 0.418285087308228 
1282	 0.418390433685979 
1283	 0.418492453817166 
1284	 0.41859479737786 
1285	 0.418664622112569 
1286	 0.418717081594904 
1287	 0.418784621314275 
1288	 0.418837481007092 
1289	 0.418877587995845 
1290	 0.418902973839992 
1291	 0.418920439206867 
1292	 0.418932481334334 
1293	 0.418929620912002 
1294	 0.418914629079643 
1295	 0.418903853252306 
1296	 0.418872284077324 
1297	 0.418796648871011 
1298	 0.418750887533158 
1299	 0.418735652251951 
1300	 0.418673531227823 
1301	 0.41859252779045 
1302	 0.41851167719807 
1303	 0.418408560521459 
1304	 0.418292002543426 
1305	 0.418173622803108 
1306	 0.41807334483181 
1307	 0.417943360358822 
1308	 0.41778675459927 
1309	 0.417657992831267 
1310	 0.417540076254231 
1311	 0.4174182947144 
1312	 0.417305440604866 
1313	 0.417187466289877 
1314	 0.417059766552212 
1315	 0.416942721553301 
1316	 0.416815720722011 
1317	 0.416724112855614 
1318	 0.416650733071107 
1319	 0.416588891845317 
1320	 0.416572527003815 
1321	 0.41652489944009 
1322	 0.416458263916582 
1323	 0.416410506793492 
1324	 0.41637664033492 
1325	 0.416330468523241 
1326	 0.416308690505582 
1327	 0.416291323564037 
1328	 0.416235518982009 
1329	 0.41617960524198 
1330	 0.416162515043238 
1331	 0.416151414480762 
1332	 0.416173314731893 
1333	 0.416241831501316 
1334	 0.416294256657813 
1335	 0.416358842160569 
1336	 0.416416365032296 
1337	 0.41647515066699 
1338	 0.416533945965376 
1339	 0.416583832916219 
1340	 0.416649178678901 
1341	 0.416726545826617 
1342	 0.416796692958598 
1343	 0.416882730926191 
1344	 0.416950970946297 
1345	 0.416984357481274 
1346	 0.417046033438843 
1347	 0.417107741192727 
1348	 0.41716032242147 
1349	 0.417220084015475 
1350	 0.417256130166803 
1351	 0.417302601495279 
1352	 0.417333999652884 
1353	 0.417383665544323 
1354	 0.417459549372212 
1355	 0.417500378151211 
1356	 0.417524213576045 
1357	 0.417557130468834 
1358	 0.417575812083105 
1359	 0.417606313678622 
1360	 0.417642466542246 
1361	 0.417681080075508 
1362	 0.417733381929853 
1363	 0.417766067153459 
1364	 0.417814165941382 
1365	 0.417829810981991 
1366	 0.417818615266487 
1367	 0.417791435250086 
1368	 0.41777348481237 
1369	 0.417711697134916 
1370	 0.41764820680708 
1371	 0.417572260860623 
1372	 0.41743203182618 
1373	 0.417286201337066 
1374	 0.417105962753716 
1375	 0.416899310717933 
1376	 0.416642461779645 
1377	 0.416367482170497 
1378	 0.416023160690194 
1379	 0.415616371079828 
1380	 0.415182617774521 
1381	 0.414713770149316 
1382	 0.41418718955389 
1383	 0.413630146826925 
1384	 0.412999952594116 
1385	 0.412358287465902 
1386	 0.411574723572719 
1387	 0.410704059840308 
1388	 0.409748650189322 
1389	 0.40869705163064 
1390	 0.407525674043678 
1391	 0.406299865012623 
1392	 0.404968594554864 
1393	 0.403508198453151 
1394	 0.401988619058561 
1395	 0.400366479465034 
1396	 0.398708275795072 
1397	 0.397064760691153 
1398	 0.395368009559342 
1399	 0.393718467957719 
1400	 0.392060481469283 
1401	 0.390477458808457 
1402	 0.388908311856625 
1403	 0.387417002752106 
1404	 0.385971489010337 
1405	 0.384621723322811 
1406	 0.383309737012425 
1407	 0.38212132624057 
1408	 0.380999583614931 
1409	 0.380033484386144 
1410	 0.379139980314267 
1411	 0.378448369241355 
1412	 0.377895447522175 
1413	 0.377535816998599 
1414	 0.377398417483541 
1415	 0.377405129487428 
1416	 0.377610066633644 
1417	 0.377942641903699 
1418	 0.378299870989011 
1419	 0.378685360102807 
1420	 0.379056439646978 
1421	 0.379403351487779 
1422	 0.379713896837418 
1423	 0.37998151829474 
1424	 0.380176579634522 
1425	 0.380301066549889 
1426	 0.38039879267311 
1427	 0.380425556508581 
1428	 0.380462822469612 
1429	 0.380469879795626 
1430	 0.380474921819474 
1431	 0.380472467315923 
1432	 0.380448103154483 
1433	 0.380394872808274 
1434	 0.380361049921017 
1435	 0.380313560081934 
1436	 0.380278177309181 
1437	 0.380257611399161 
1438	 0.380237330936387 
1439	 0.380216460070257 
1440	 0.38020528564842 
1441	 0.380182715178146 
1442	 0.380157773235797 
1443	 0.380125061159311 
1444	 0.380075405524774 
1445	 0.380047171953959 
1446	 0.380031776070898 
1447	 0.380021300250435 
1448	 0.380017655106699 
1449	 0.379995508496283 
1450	 0.379980995851384 
1451	 0.379970892371215 
1452	 0.379949755260449 
1453	 0.379953538423132 
1454	 0.379980333734535 
1455	 0.379992465612416 
1456	 0.3800151901354 
1457	 0.380021965886085 
1458	 0.38001317714362 
1459	 0.380018583824705 
1460	 0.38000665046053 
1461	 0.380035048906469 
1462	 0.380075254754067 
1463	 0.380141067543952 
1464	 0.380225535617473 
1465	 0.380346504563608 
1466	 0.380499373100426 
1467	 0.380677720028412 
1468	 0.380897821873622 
1469	 0.381126607941583 
1470	 0.381380992751193 
1471	 0.38163384745 
1472	 0.381901449314454 
1473	 0.382193071454097 
1474	 0.382478190262185 
1475	 0.382786068547439 
1476	 0.383114737753401 
1477	 0.383437261230353 
1478	 0.383803143916159 
1479	 0.384172725068096 
1480	 0.384536463266784 
1481	 0.384928323505265 
1482	 0.385279099588395 
1483	 0.385596634043362 
1484	 0.385943496899273 
1485	 0.38628057885914 
1486	 0.386632299591028 
1487	 0.387012972647752 
1488	 0.387373148514173 
1489	 0.387730514945784 
1490	 0.388072520196733 
1491	 0.388411824748906 
1492	 0.388735670380991 
1493	 0.389023790042336 
1494	 0.389348120185006 
1495	 0.389683861013194 
1496	 0.390011807696148 
1497	 0.390365697186094 
1498	 0.390693155903656 
1499	 0.391003107412149 
1500	 0.391307646347917 
1501	 0.391597216179815 
1502	 0.391890779821934 
1503	 0.392183802691976 
1504	 0.392461409200619 
1505	 0.392741503710704 
1506	 0.393025306771541 
1507	 0.393295133017948 
1508	 0.393560638682319 
1509	 0.393828990150915 
1510	 0.394091255808348 
1511	 0.394355257395042 
1512	 0.39462458750988 
1513	 0.394903426548923 
1514	 0.395181619941642 
1515	 0.395456458218948 
1516	 0.395721648822006 
1517	 0.395962660353732 
1518	 0.396176913092173 
1519	 0.396398258964378 
1520	 0.396599718045905 
1521	 0.39682304052883 
1522	 0.397057493646982 
1523	 0.397283964771543 
1524	 0.397519858389297 
1525	 0.39773697556391 
1526	 0.397934846412252 
1527	 0.39814969317849 
1528	 0.398366411634774 
1529	 0.39857755723041 
1530	 0.398791546887451 
1531	 0.399010243695634 
1532	 0.399231337391835 
1533	 0.39944254294608 
1534	 0.399663816148114 
1535	 0.399867748431502 
1536	 0.400042901007468 
1537	 0.400230043285171 
1538	 0.400422005090217 
1539	 0.400604711869101 
1540	 0.40078770679628 
1541	 0.400966101391448 
1542	 0.401148234751639 
1543	 0.40130871615147 
1544	 0.401455889561102 
1545	 0.40159295189652 
1546	 0.40170317002875 
1547	 0.401814776443544 
1548	 0.401946182572559 
1549	 0.402102690446689 
1550	 0.402268896522991 
1551	 0.402435076107248 
1552	 0.402597940670216 
1553	 0.402749454429154 
1554	 0.402909796804571 
1555	 0.403061291467232 
1556	 0.403198065162939 
1557	 0.403348103955326 
1558	 0.403471170264035 
1559	 0.403583436133899 
1560	 0.403712942442447 
1561	 0.403836092325145 
1562	 0.403969355059127 
1563	 0.404120914355579 
1564	 0.404269240311333 
1565	 0.404411918770305 
1566	 0.40456909318024 
1567	 0.404742934185061 
1568	 0.404900568630952 
1569	 0.405069191527502 
1570	 0.405206479551733 
1571	 0.405327163215517 
1572	 0.405440598866881 
1573	 0.405531706327884 
1574	 0.405623564617121 
1575	 0.405702605338311 
1576	 0.405791910667739 
1577	 0.405889101409482 
1578	 0.405968180800261 
1579	 0.406045354499156 
1580	 0.406117398849463 
1581	 0.406164318619978 
1582	 0.406227897294589 
1583	 0.406297919317558 
1584	 0.406372801814631 
1585	 0.406449917383565 
1586	 0.406533161169739 
1587	 0.406631625239367 
1588	 0.406722087225987 
1589	 0.406821549535858 
1590	 0.406901818297462 
1591	 0.406961299811047 
1592	 0.407030616446581 
1593	 0.407090402011576 
1594	 0.407158657831279 
1595	 0.407233149561533 
1596	 0.407316722759088 
1597	 0.407418830613657 
1598	 0.407499259635161 
1599	 0.407567903465291 
1600	 0.407650282112825 
1601	 0.407730118825269 
1602	 0.407802431637714 
1603	 0.40788818014344 
1604	 0.407965616855743 
1605	 0.408029537304001 
1606	 0.408085230041905 
1607	 0.408142091236358 
1608	 0.408191710308809 
1609	 0.408208265939238 
1610	 0.408233448071381 
1611	 0.408255279460041 
1612	 0.408286077329638 
1613	 0.40832728835988 
1614	 0.408364973694763 
1615	 0.408431598134953 
1616	 0.408470088087235 
1617	 0.408484956225333 
1618	 0.40853104745317 
1619	 0.408567610304074 
1620	 0.408599629115172 
1621	 0.408647155385593 
1622	 0.408727323623938 
1623	 0.408761925843707 
1624	 0.408770024028249 
1625	 0.408811806907344 
1626	 0.408849818577172 
1627	 0.40889086739343 
1628	 0.408962604690203 
1629	 0.408995721388655 
1630	 0.40900215706824 
1631	 0.409022363655945 
1632	 0.409034507281083 
1633	 0.409058376994995 
1634	 0.409093607177636 
1635	 0.409108920495234 
1636	 0.409123789358652 
1637	 0.409127599183993 
1638	 0.40911135086796 
1639	 0.409106972577499 
1640	 0.409102870433049 
1641	 0.409101116469149 
1642	 0.409091822270683 
1643	 0.409108651254766 
1644	 0.409146194636971 
1645	 0.409165642144772 
1646	 0.409190039670356 
1647	 0.409218871425349 
1648	 0.409239257472941 
1649	 0.409261768249165 
1650	 0.409297767118535 
1651	 0.409327829241742 
1652	 0.409363560138886 
1653	 0.409361772336542 
1654	 0.409345434323937 
1655	 0.409329544539724 
1656	 0.409264630842673 
1657	 0.409251138982843 
1658	 0.409272059557 
1659	 0.409281535380193 
1660	 0.40931297820164 
1661	 0.409313798746012 
1662	 0.409304210389304 
1663	 0.409287341522794 
1664	 0.409236896533784 
1665	 0.409223417452973 
1666	 0.409222902280329 
1667	 0.409223675455749 
1668	 0.409252224322672 
1669	 0.409252791999925 
1670	 0.409257946174891 
1671	 0.409221169079829 
1672	 0.409134100546315 
1673	 0.409092119362884 
1674	 0.409034575942695 
1675	 0.409003395271267 
1676	 0.409006520266025 
1677	 0.409014220803142 
1678	 0.409037966590195 
1679	 0.4090417837189 
1680	 0.409075548910796 
1681	 0.40905870605527 
1682	 0.408989894693817 
1683	 0.408944445692836 
1684	 0.408877307813541 
1685	 0.408837754486939 
1686	 0.408808489842172 
1687	 0.408796401133464 
1688	 0.408818207682501 
1689	 0.408809043138579 
1690	 0.408799019960525 
1691	 0.408784993324494 
1692	 0.40875178134092 
1693	 0.408726053376116 
1694	 0.40870984645319 
1695	 0.408683385870974 
1696	 0.408653261731301 
1697	 0.408609947026094 
1698	 0.40855270258176 
1699	 0.408509521643568 
1700	 0.408465460198988 
1701	 0.408413166815718 
1702	 0.408357527981888 
1703	 0.408317732924958 
1704	 0.408290074502714 
1705	 0.408231166979639 
1706	 0.408164713389168 
1707	 0.408114711859402 
1708	 0.408042539980229 
1709	 0.407980503349273 
1710	 0.407945190665914 
1711	 0.407905301810917 
1712	 0.407839006959012 
1713	 0.407808787140186 
1714	 0.407821125790556 
1715	 0.40780390395596 
1716	 0.407786585107263 
1717	 0.407763268545301 
1718	 0.407740753412648 
1719	 0.40768749139374 
1720	 0.407633589584141 
1721	 0.407535037922646 
1722	 0.407371935572313 
1723	 0.407261792715916 
1724	 0.407151197324175 
1725	 0.40704042986715 
1726	 0.406949545502889 
1727	 0.406857406945864 
1728	 0.406758930331955 
1729	 0.406656034744126 
1730	 0.40657960405666 
1731	 0.406457776128312 
1732	 0.406298948017975 
1733	 0.406153569932225 
1734	 0.405991915274192 
1735	 0.405841078318277 
1736	 0.405692466066371 
1737	 0.405543211170987 
1738	 0.40539386698073 
1739	 0.405253648643106 
1740	 0.405121413769425 
1741	 0.40498566484411 
1742	 0.404855626558229 
1743	 0.404713611464962 
1744	 0.404566812239506 
1745	 0.404413903326107 
1746	 0.40424251531811 
1747	 0.404114421075059 
1748	 0.403995707403919 
1749	 0.403892692795686 
1750	 0.403771362300408 
1751	 0.403642098869665 
1752	 0.403504601251138 
1753	 0.403343223919336 
1754	 0.403203912913143 
1755	 0.403077445368915 
1756	 0.402929636792205 
1757	 0.402797734380015 
1758	 0.402689104313149 
1759	 0.402572372227017 
1760	 0.402421845800132 
1761	 0.402259036263252 
1762	 0.402078047629807 
1763	 0.401856691896818 
1764	 0.401700509636146 
1765	 0.401604869814251 
1766	 0.401511294904432 
1767	 0.401444977361896 
1768	 0.401347286389945 
1769	 0.401194292728744 
1770	 0.401039616932851 
1771	 0.40090335756752 
1772	 0.400764582107092 
1773	 0.400613307986713 
1774	 0.400476401677718 
1775	 0.400329633986943 
1776	 0.400175394070556 
1777	 0.400070641277292 
1778	 0.399999172813731 
1779	 0.399939352309091 
1780	 0.399888030900658 
1781	 0.399839248734996 
1782	 0.399773959331361 
1783	 0.399695161939907 
1784	 0.399610377340703 
1785	 0.399493931804071 
1786	 0.399413423491556 
1787	 0.399352941037821 
1788	 0.399275692094474 
1789	 0.39920973280986 
1790	 0.399144081937198 
1791	 0.399055815911421 
1792	 0.399000217886317 
1793	 0.398978131188647 
1794	 0.398936937792498 
1795	 0.398906826395356 
1796	 0.398849703122867 
1797	 0.398758810124932 
1798	 0.398703918288948 
1799	 0.398644363717487 
1800	 0.398615122820082 
1801	 0.394159301690107 
1802	 0.39419009300911 
1803	 0.394247119231616 
1804	 0.394270421807192 
1805	 0.394337191486496 
1806	 0.394420884157036 
1807	 0.394505020087705 
1808	 0.394570291134701 
1809	 0.394633877672794 
1810	 0.394674943699832 
1811	 0.394706212201786 
1812	 0.394709253376133 
1813	 0.394724626450624 
1814	 0.39473104296508 
1815	 0.39469439821719 
1816	 0.394692317155404 
1817	 0.394671836998266 
1818	 0.394613281816288 
1819	 0.394585283413609 
1820	 0.394588205700382 
1821	 0.394548578786019 
1822	 0.394516608518963 
1823	 0.394506856188778 
1824	 0.394465784310063 
1825	 0.39439601887851 
1826	 0.394314538805152 
1827	 0.394227807346008 
1828	 0.394127395116986 
1829	 0.394011585281861 
1830	 0.393901522610274 
1831	 0.393799288104 
1832	 0.3936653874459 
1833	 0.393480264895329 
1834	 0.393317882165516 
1835	 0.393153626233265 
1836	 0.392948178520782 
1837	 0.392772822587596 
1838	 0.392621698467204 
1839	 0.392466876620822 
1840	 0.392307204284091 
1841	 0.392152376108482 
1842	 0.392013344144296 
1843	 0.391841391519756 
1844	 0.391623805320528 
1845	 0.39139876429397 
1846	 0.391161250485248 
1847	 0.39091719874744 
1848	 0.390664092459605 
1849	 0.390417866384427 
1850	 0.390187441289182 
1851	 0.389968429658001 
1852	 0.38974628185618 
1853	 0.389521670284362 
1854	 0.389279664313413 
1855	 0.389015417006005 
1856	 0.38870587967461 
1857	 0.388366322777308 
1858	 0.388010554814595 
1859	 0.38757875241022 
1860	 0.387097364271877 
1861	 0.386560904065481 
1862	 0.386007778477616 
1863	 0.385384700298436 
1864	 0.384718586045496 
1865	 0.384023696872503 
1866	 0.383238887790795 
1867	 0.382405587556336 
1868	 0.381503821584656 
1869	 0.380525492942522 
1870	 0.379474710140735 
1871	 0.378317464912359 
1872	 0.37706431888426 
1873	 0.375743619453259 
1874	 0.374316184208251 
1875	 0.372795416622276 
1876	 0.37121162586842 
1877	 0.369482434972466 
1878	 0.367604314919919 
1879	 0.365587874679441 
1880	 0.363391813047822 
1881	 0.360987120837511 
1882	 0.358492546085184 
1883	 0.355878308015645 
1884	 0.353055203436789 
1885	 0.350122150228419 
1886	 0.347063750903136 
1887	 0.343784464760132 
1888	 0.340410690226716 
1889	 0.336935652519531 
1890	 0.333336816304263 
1891	 0.329768527832807 
1892	 0.326080314917617 
1893	 0.322504162746542 
1894	 0.318932925990546 
1895	 0.315457720379068 
1896	 0.311973741040491 
1897	 0.308619141678904 
1898	 0.305355790631732 
1899	 0.302206854492018 
1900	 0.299268515673088 
1901	 0.296532004333682 
1902	 0.293964951613841 
1903	 0.291612469881695 
1904	 0.28938129205923 
1905	 0.287303012095749 
1906	 0.285411163565196 
1907	 0.283633206940496 
1908	 0.282009793610602 
1909	 0.280587526673137 
1910	 0.279228377658422 
1911	 0.278005612050274 
1912	 0.276905586622228 
1913	 0.275851812650115 
1914	 0.274862365965711 
1915	 0.273971392377972 
1916	 0.273170872498024 
1917	 0.272425597923542 
1918	 0.271771394026964 
1919	 0.271173010504452 
1920	 0.270635303906462 
1921	 0.270139434288946 
1922	 0.269722223027912 
1923	 0.269386932321135 
1924	 0.269083940586519 
1925	 0.26885178208245 
1926	 0.268652061656022 
1927	 0.268490061807018 
1928	 0.268356685321564 
1929	 0.268303482939812 
1930	 0.2683023605931 
1931	 0.268360108867812 
1932	 0.268461260217797 
1933	 0.268580759782945 
1934	 0.26875234326625 
1935	 0.268959194389747 
1936	 0.269203458508821 
1937	 0.269481631635887 
1938	 0.269805030123319 
1939	 0.270151306702727 
1940	 0.270526509860021 
1941	 0.270933673327963 
1942	 0.271373277812497 
1943	 0.271843273724229 
1944	 0.272333575384382 
1945	 0.272851190192444 
1946	 0.273376493597832 
1947	 0.273913784270534 
1948	 0.274476602768779 
1949	 0.275061030137212 
1950	 0.275656210967172 
1951	 0.276275361796915 
1952	 0.276904062618687 
1953	 0.277543147045864 
1954	 0.278188312704091 
1955	 0.278821535380956 
1956	 0.279471627404938 
1957	 0.280145053478531 
1958	 0.280820497371361 
1959	 0.281520603326843 
1960	 0.282264681579753 
1961	 0.282996556475235 
1962	 0.28373698801561 
1963	 0.284486415392567 
1964	 0.285243344627876 
1965	 0.285999478541947 
1966	 0.286778339689924 
1967	 0.28754122333518 
1968	 0.288323425183453 
1969	 0.289120079051549 
1970	 0.289909346201929 
1971	 0.290718760905389 
1972	 0.291507393170748 
1973	 0.292266803242941 
1974	 0.293056827419156 
1975	 0.293868543047573 
1976	 0.294647507911968 
1977	 0.295446987659936 
1978	 0.29625729537502 
1979	 0.297041739498304 
1980	 0.297859463533678 
1981	 0.29867259187736 
1982	 0.299506829859307 
1983	 0.300315479773105 
1984	 0.301120392980588 
1985	 0.301912097931182 
1986	 0.302671924093749 
1987	 0.303460179972564 
1988	 0.304249464394112 
1989	 0.305053990578112 
1990	 0.305878603793666 
1991	 0.306704190405636 
1992	 0.307522518209773 
1993	 0.308356778940067 
1994	 0.309156849490759 
1995	 0.309938332657671 
1996	 0.310715986033164 
1997	 0.311470874397249 
1998	 0.312230497593852 
1999	 0.312982814925787 
2000	 0.313743147599354 
2001	 0.314506732823253 
2002	 0.31526665117376 
2003	 0.316038546825706 
2004	 0.316794887763149 
2005	 0.317530523845341 
2006	 0.318244424805739 
2007	 0.318971046875422 
2008	 0.319674809398231 
2009	 0.320397437395012 
2010	 0.321151135722838 
2011	 0.321872603896522 
2012	 0.322579221410418 
2013	 0.323289434378774 
2014	 0.32400207859904 
2015	 0.324680731131767 
2016	 0.325367612831157 
2017	 0.326056975429603 
2018	 0.326738243212345 
2019	 0.327410609122194 
2020	 0.328077742045462 
2021	 0.328746106408429 
2022	 0.329403607044099 
2023	 0.330049201012915 
2024	 0.330691859017757 
2025	 0.331321634266394 
2026	 0.331957071648933 
2027	 0.332606934252858 
2028	 0.333224305718171 
2029	 0.333840087328711 
2030	 0.334457639300669 
2031	 0.335061404121021 
2032	 0.335649919814519 
2033	 0.336230194573676 
2034	 0.336791746898957 
2035	 0.337369558970481 
2036	 0.337961615234767 
2037	 0.33851910216774 
2038	 0.339080820865595 
2039	 0.339617209622646 
2040	 0.340120171973389 
2041	 0.340599132268511 
2042	 0.341071213350987 
2043	 0.341579844667538 
2044	 0.34205681400965 
2045	 0.342513447735525 
2046	 0.34298404101746 
2047	 0.343450961769102 
2048	 0.343917997355113 
2049	 0.34441102016944 
2050	 0.344863676450813 
2051	 0.345298619855134 
2052	 0.345722439438097 
2053	 0.346108557244755 
2054	 0.346504690629701 
2055	 0.346891111798853 
2056	 0.347286417423335 
2057	 0.347685948484833 
2058	 0.348097669414802 
2059	 0.348488220583096 
2060	 0.3488694412592 
2061	 0.349260505840517 
2062	 0.34964975857242 
2063	 0.350028074945889 
2064	 0.350416466083018 
2065	 0.350792266365049 
2066	 0.351148214959698 
2067	 0.351502382288378 
2068	 0.351870543108528 
2069	 0.352199826523939 
2070	 0.352544314675091 
2071	 0.352876927114393 
2072	 0.353222570976044 
2073	 0.353574828065705 
2074	 0.353926087806107 
2075	 0.354276551923268 
2076	 0.354630598867583 
2077	 0.354997641959627 
2078	 0.355347973295722 
2079	 0.355707807846845 
2080	 0.356038795096925 
2081	 0.356345763284378 
2082	 0.356647156683746 
2083	 0.356920939774297 
2084	 0.357204268274694 
2085	 0.357485068631744 
2086	 0.357763605258554 
2087	 0.358037409771363 
2088	 0.358300237584823 
2089	 0.358585043884713 
2090	 0.358887927219054 
2091	 0.359163000114188 
2092	 0.35943611536971 
2093	 0.359711823221745 
2094	 0.359965211097162 
2095	 0.360229020212235 
2096	 0.360521815096487 
2097	 0.360789682020905 
2098	 0.361042353728045 
2099	 0.361284623445065 
2100	 0.36152649835608 
2101	 0.361749862527764 
2102	 0.361998969887531 
2103	 0.362250570748378 
2104	 0.362515108173745 
2105	 0.362794030171206 
2106	 0.363080366173073 
2107	 0.363380048317445 
2108	 0.363676550240376 
2109	 0.363982277441779 
2110	 0.364288782095777 
2111	 0.364604965833602 
2112	 0.36490542934525 
2113	 0.365207901430104 
2114	 0.365499952560166 
2115	 0.36577723118046 
2116	 0.366020781988339 
2117	 0.366306263214634 
2118	 0.366586490428332 
2119	 0.366903185362749 
2120	 0.367260641003917 
2121	 0.36760588055457 
2122	 0.367979120865615 
2123	 0.368323398770222 
2124	 0.368681769235134 
2125	 0.36899044477411 
2126	 0.369280179508276 
2127	 0.36953202538321 
2128	 0.369720233463381 
2129	 0.369917118886541 
2130	 0.37007808478092 
2131	 0.370259964450584 
2132	 0.370427439965253 
2133	 0.370612896511707 
2134	 0.370740433687418 
2135	 0.370842790962 
2136	 0.370924331810982 
2137	 0.370961692287505 
2138	 0.371000689307822 
2139	 0.371044641276713 
2140	 0.371044193162367 
2141	 0.371009140761358 
2142	 0.370965450844156 
2143	 0.370877262070143 
2144	 0.370803599196685 
2145	 0.37073603918193 
2146	 0.370652276770798 
2147	 0.370594962493127 
2148	 0.370471191921667 
2149	 0.370333791306925 
2150	 0.370179918959097 
2151	 0.369981463366222 
2152	 0.369748497519142 
2153	 0.369480577539956 
2154	 0.369156184156695 
2155	 0.368845453502449 
2156	 0.368508931741201 
2157	 0.368168061787775 
2158	 0.36783739054313 
2159	 0.36747157543804 
2160	 0.367077182180174 
2161	 0.366671255588791 
2162	 0.366232254953901 
2163	 0.365802068527982 
2164	 0.365354520245688 
2165	 0.36491951497822 
2166	 0.364484754655352 
2167	 0.364072553024476 
2168	 0.363603711861128 
2169	 0.363127115204481 
2170	 0.362609198227322 
2171	 0.362060149496928 
2172	 0.361466217372313 
2173	 0.360839345484934 
2174	 0.360180072660336 
2175	 0.359462606853622 
2176	 0.358737336963778 
2177	 0.357980789474895 
2178	 0.357218784922095 
2179	 0.356447305625291 
2180	 0.355643217375113 
2181	 0.354824721794188 
2182	 0.353981466845937 
2183	 0.353103387852232 
2184	 0.352192975936905 
2185	 0.351288981009705 
2186	 0.350365498466607 
2187	 0.34944310119683 
2188	 0.348495156422947 
2189	 0.347595781210615 
2190	 0.346676063995272 
2191	 0.345846284265528 
2192	 0.345046443538497 
2193	 0.344330977660216 
2194	 0.343681283610424 
2195	 0.343095979697083 
2196	 0.342604218643168 
2197	 0.342138378836113 
2198	 0.341711776509743 
2199	 0.341359041556334 
2200	 0.341044283234045 
2201	 0.340812014296243 
2202	 0.34067749087263 
2203	 0.340578137472986 
2204	 0.340565715323865 
2205	 0.340626736410418 
2206	 0.340755548628184 
2207	 0.340952061594145 
2208	 0.341238841418599 
2209	 0.341599695491495 
2210	 0.342049012889015 
2211	 0.342632962858491 
2212	 0.343195212245544 
2213	 0.343854386092517 
2214	 0.344455859193041 
2215	 0.345062090615559 
2216	 0.345645262810296 
2217	 0.346238773622718 
2218	 0.346770295515598 
2219	 0.347265780013496 
2220	 0.347730889833001 
2221	 0.348133076003539 
2222	 0.348539162913641 
2223	 0.348911257000394 
2224	 0.349244607978291 
2225	 0.349542533894171 
2226	 0.349804181737057 
2227	 0.350016129684592 
2228	 0.350196922345725 
2229	 0.350320110378353 
2230	 0.350369711256085 
2231	 0.35042307128432 
2232	 0.350437072204243 
2233	 0.350436633722011 
2234	 0.35042126120026 
2235	 0.350384520705423 
2236	 0.350289513416442 
2237	 0.350235281372418 
2238	 0.350184481948134 
2239	 0.350134877278898 
2240	 0.350134487881968 
2241	 0.350080527589464 
2242	 0.349987421031331 
2243	 0.349897345803186 
2244	 0.349805336325156 
2245	 0.34966623215902 
2246	 0.349517878877023 
2247	 0.349359037106065 
2248	 0.349165661183873 
2249	 0.348911342089663 
2250	 0.34871183870511 
2251	 0.348510557918395 
2252	 0.348324587753703 
2253	 0.348154626093093 
2254	 0.348003005747634 
2255	 0.347874378920744 
2256	 0.347728440156345 
2257	 0.347571230613456 
2258	 0.347456533823667 
2259	 0.347349233046618 
2260	 0.347257646120142 
2261	 0.347214437934022 
2262	 0.347165191026396 
2263	 0.347088451674542 
2264	 0.347058830498247 
2265	 0.347100053706646 
2266	 0.347097932037167 
2267	 0.347100877379273 
2268	 0.34709245301603 
2269	 0.347048612469609 
2270	 0.346997052639327 
2271	 0.347024060962043 
2272	 0.347062684871694 
2273	 0.347100863002496 
2274	 0.347152827335541 
2275	 0.34717976525592 
2276	 0.347158172748548 
2277	 0.347209609061205 
2278	 0.347299249252066 
2279	 0.347362433151783 
2280	 0.347462298003128 
2281	 0.347523281946502 
2282	 0.347561302424857 
2283	 0.347579349651298 
2284	 0.347586630438979 
2285	 0.347572220687658 
2286	 0.347493101926341 
2287	 0.347464441216124 
2288	 0.3474632608003 
2289	 0.347439840338548 
2290	 0.347435592203962 
2291	 0.347413934338397 
2292	 0.347368647259968 
2293	 0.34732031441974 
2294	 0.347252572225492 
2295	 0.347202193412689 
2296	 0.347161421935168 
2297	 0.347103103651719 
2298	 0.347053753111201 
2299	 0.347019874595372 
2300	 0.346964235107062 
2301	 0.346884324978545 
2302	 0.346815525725449 
2303	 0.346717620589066 
2304	 0.346594883455089 
2305	 0.346471921780387 
2306	 0.346330475884209 
2307	 0.346167812758348 
2308	 0.346004137982572 
2309	 0.345818103590552 
2310	 0.345659271475865 
2311	 0.345521672562699 
2312	 0.345328808990381 
2313	 0.345145976739478 
2314	 0.344916951332641 
2315	 0.344617614955091 
2316	 0.344341957802442 
2317	 0.34403465672927 
2318	 0.343766074419623 
2319	 0.343522862593186 
2320	 0.343255133448573 
2321	 0.342975920180724 
2322	 0.34274023857795 
2323	 0.342527592403175 
2324	 0.342292844573991 
2325	 0.342123761244788 
2326	 0.341881928137082 
2327	 0.341579036740225 
2328	 0.341235331795741 
2329	 0.340941813052017 
2330	 0.340641508172389 
2331	 0.340364965880506 
2332	 0.340118550348948 
2333	 0.339885236623852 
2334	 0.33963115652583 
2335	 0.339341912443242 
2336	 0.339051428769277 
2337	 0.338739319435 
2338	 0.338395036794722 
2339	 0.338031404377388 
2340	 0.337713621469317 
2341	 0.337419183288129 
2342	 0.337098247846061 
2343	 0.336803658942578 
2344	 0.33649307787765 
2345	 0.336177796696801 
2346	 0.335799489826534 
2347	 0.335507883184601 
2348	 0.335279947677387 
2349	 0.335026565336415 
2350	 0.334814960164908 
2351	 0.33454715655245 
2352	 0.334227767823041 
2353	 0.333921768325353 
2354	 0.333583588353957 
2355	 0.333302579764636 
2356	 0.333061070346509 
2357	 0.332826560491383 
2358	 0.332604718713462 
2359	 0.332393340364597 
2360	 0.33221400040093 
2361	 0.33199708327235 
2362	 0.33181817508401 
2363	 0.331571685636479 
2364	 0.331234695053068 
2365	 0.330954658820589 
2366	 0.330674415155162 
2367	 0.330380664443134 
2368	 0.330120586801246 
2369	 0.329827527976701 
2370	 0.329532900592243 
2371	 0.329141611161552 
2372	 0.328777796797758 
2373	 0.328389205101489 
2374	 0.327963453926857 
2375	 0.327640904595019 
2376	 0.327232080739199 
2377	 0.326791569967283 
2378	 0.326400273303461 
2379	 0.325878865530037 
2380	 0.325392025151782 
2381	 0.324963943505113 
2382	 0.324448578991414 
2383	 0.323963258800511 
2384	 0.323538843863658 
2385	 0.323116272456464 
2386	 0.322648438878306 
2387	 0.322185124002784 
2388	 0.321760885539943 
2389	 0.321295527234958 
2390	 0.320859247988886 
2391	 0.32049402956228 
2392	 0.32012715574355 
2393	 0.319720785769483 
2394	 0.319294424457691 
2395	 0.318862846660216 
2396	 0.318360792441726 
2397	 0.317783215263917 
2398	 0.317165886526735 
2399	 0.316485047162178 
2400	 0.31582317513568 
2401	 0.31525810436561 
2402	 0.314703649194434 
2403	 0.314192478359608 
2404	 0.313680186833968 
2405	 0.313101322636367 
2406	 0.312553455154047 
2407	 0.312003832657674 
2408	 0.311478810711913 
2409	 0.310891705605533 
2410	 0.310201746080374 
2411	 0.30958031371403 
2412	 0.308986684201304 
2413	 0.308348038875576 
2414	 0.307692406149146 
2415	 0.30698919438037 
2416	 0.306283868895053 
2417	 0.305473772042129 
2418	 0.304790325458106 
2419	 0.304200383934246 
2420	 0.303541357578943 
2421	 0.302881232728328 
2422	 0.302102008694204 
2423	 0.301266880649938 
2424	 0.300489674361175 
2425	 0.29964552638687 
2426	 0.298901359487668 
2427	 0.298222056024406 
2428	 0.29751436760079 
2429	 0.296828795197848 
2430	 0.296175292991982 
2431	 0.29554721645141 
2432	 0.294913646347819 
2433	 0.294287790214589 
2434	 0.293649451319102 
2435	 0.293052706055109 
2436	 0.292424128847533 
2437	 0.291778031818404 
2438	 0.29112713100673 
2439	 0.290399542130767 
2440	 0.289698860484811 
2441	 0.288998177782327 
2442	 0.288369208682851 
2443	 0.287783928127208 
2444	 0.28727083719423 
2445	 0.286886110825925 
2446	 0.286371314326981 
2447	 0.285847437066321 
2448	 0.285351683877323 
2449	 0.284747314737684 
2450	 0.28423029334528 
2451	 0.283796580482014 
2452	 0.283312461024184 
2453	 0.282902503410483 
2454	 0.282374274702349 
2455	 0.281788477259032 
2456	 0.281206373971026 
2457	 0.280485592462241 
2458	 0.279872231070756 
2459	 0.279308460277026 
2460	 0.278724192392393 
2461	 0.278177468480046 
2462	 0.277623376164619 
2463	 0.277076758985261 
2464	 0.276584755890271 
2465	 0.276137762396049 
2466	 0.275589705155932 
2467	 0.275037463488931 
2468	 0.274475869779972 
2469	 0.273769801015116 
2470	 0.273287278924798 
2471	 0.272779479813023 
2472	 0.272249417319582 
2473	 0.27187804040167 
2474	 0.271533009434078 
2475	 0.27125365175531 
2476	 0.270768399884699 
2477	 0.270202539349606 
2478	 0.269658849689348 
2479	 0.26892673392137 
2480	 0.268437839211622 
2481	 0.268053509469488 
2482	 0.267494688758571 
2483	 0.266945421913686 
2484	 0.266317557731541 
2485	 0.265620691957534 
2486	 0.265041415232985 
2487	 0.264666588728844 
2488	 0.264385734452842 
2489	 0.264185404484987 
2490	 0.263991470115033 
2491	 0.263575802821311 
2492	 0.263162176816019 
2493	 0.262689468767458 
2494	 0.262032362740276 
2495	 0.261670587899458 
2496	 0.261446884710393 
2497	 0.260899118184459 
2498	 0.260436170311647 
2499	 0.260058637983209 
2500	 0.259493628415182 
