Wavelength	LMW500003.asd
350	 9.02887026882432E-02 
351	 8.98718507336344E-02 
352	 7.95540087751867E-02 
353	 7.09862727432661E-02 
354	 7.37148574699688E-02 
355	 7.51099871063263E-02 
356	 7.23000557335066E-02 
357	 6.83349565788729E-02 
358	 7.84806870631363E-02 
359	 7.71477969356382E-02 
360	 6.93900224527937E-02 
361	 7.75882019926408E-02 
362	 7.89111904417185E-02 
363	 7.85772934273476E-02 
364	 8.02265901239085E-02 
365	 7.95407802268049E-02 
366	 7.79389797980879E-02 
367	 7.88455833040612E-02 
368	 8.33143502872134E-02 
369	 8.10708233593179E-02 
370	 8.09464765857369E-02 
371	 8.35798824263287E-02 
372	 8.39175968838587E-02 
373	 0.083866079864918 
374	 8.48673659295461E-02 
375	 0.086850126347963 
376	 8.72483210971228E-02 
377	 8.82048941960761E-02 
378	 8.98890893196149E-02 
379	 0.091781181592516 
380	 0.093400235244207 
381	 9.46419740412366E-02 
382	 9.48317441685248E-02 
383	 9.33431951033753E-02 
384	 9.59644741714773E-02 
385	 9.76896519506287E-02 
386	 9.69852693000219E-02 
387	 0.102315244655093 
388	 0.103844673559518 
389	 0.102894855604341 
390	 0.103881809518653 
391	 0.107532343529787 
392	 0.109388519601524 
393	 0.109526744417938 
394	 0.111791356526535 
395	 0.11270901197085 
396	 0.114551931652629 
397	 0.118216815497601 
398	 0.119957427102879 
399	 0.120196838656358 
400	 0.121219927407544 
401	 0.124839094636226 
402	 0.125887516269531 
403	 0.127324169970527 
404	 0.129836239382029 
405	 0.131368324220721 
406	 0.132116429528745 
407	 0.133706041768356 
408	 0.136293621507822 
409	 0.13533838612089 
410	 0.135927789505505 
411	 0.138086325150859 
412	 0.139554046882391 
413	 0.140515157717941 
414	 0.141313060247557 
415	 0.14194266274389 
416	 0.141887226640693 
417	 0.142469112742097 
418	 0.143630021910114 
419	 0.144782679880289 
420	 0.144927011637865 
421	 0.144562296083936 
422	 0.144411618773933 
423	 0.145120196931807 
424	 0.145136235354258 
425	 0.145002422564672 
426	 0.145126945005255 
427	 0.14519117548656 
428	 0.145052625955236 
429	 0.144759955036673 
430	 0.144467037821497 
431	 0.144516032959557 
432	 0.143897276808881 
433	 0.143099663184087 
434	 0.143964199552287 
435	 0.144442327923888 
436	 0.144619265399478 
437	 0.144954647637644 
438	 0.145754112914637 
439	 0.146532865662402 
440	 0.147226755084547 
441	 0.148013193914235 
442	 0.149131093019502 
443	 0.15036047374638 
444	 0.151454626936902 
445	 0.152164669209127 
446	 0.153267220929297 
447	 0.154644951650193 
448	 0.155936896272845 
449	 0.156982550672577 
450	 0.158212047722182 
451	 0.159533312546346 
452	 0.160441477311589 
453	 0.16156668445779 
454	 0.162685265212148 
455	 0.163623589057141 
456	 0.164717829254224 
457	 0.165689266543589 
458	 0.16648487407621 
459	 0.16719217574381 
460	 0.168150562320022 
461	 0.168833709056945 
462	 0.169268925445315 
463	 0.170363577897055 
464	 0.171099871990164 
465	 0.171633487679635 
466	 0.172302158241751 
467	 0.172755423569326 
468	 0.173358471115038 
469	 0.17405021381938 
470	 0.174447959505003 
471	 0.174957126102264 
472	 0.175476960659985 
473	 0.175912793139508 
474	 0.176375868286956 
475	 0.17689491311884 
476	 0.177427752839285 
477	 0.177906650923649 
478	 0.178366104865624 
479	 0.178785913757087 
480	 0.179229641650155 
481	 0.179882299746463 
482	 0.180510847787249 
483	 0.181056096423304 
484	 0.181524245082888 
485	 0.181960487258847 
486	 0.182372950590818 
487	 0.182829018813916 
488	 0.183419412603399 
489	 0.183716018544459 
490	 0.184160784634404 
491	 0.184959332659086 
492	 0.185367741353516 
493	 0.185735669113927 
494	 0.186206527936519 
495	 0.186785534204481 
496	 0.187119401012674 
497	 0.187471362792936 
498	 0.188048894411645 
499	 0.188912323623908 
500	 0.189434485231595 
501	 0.189802799385302 
502	 0.19035225522071 
503	 0.190868439040018 
504	 0.191361614218635 
505	 0.1918197703225 
506	 0.19221126526376 
507	 0.192648100062195 
508	 0.19311447945686 
509	 0.193586132088409 
510	 0.194105327547333 
511	 0.194542556568277 
512	 0.194980386810351 
513	 0.195580525479666 
514	 0.196101790115883 
515	 0.196566501651085 
516	 0.197008426559654 
517	 0.197417976622252 
518	 0.197888141939094 
519	 0.19835802539451 
520	 0.198773270381078 
521	 0.199421125385393 
522	 0.199960271092092 
523	 0.200319808690459 
524	 0.2007428232693 
525	 0.201167849624629 
526	 0.201586632723705 
527	 0.202022074549438 
528	 0.202596160368634 
529	 0.203031518728055 
530	 0.203370612057068 
531	 0.203848499838256 
532	 0.204263586241799 
533	 0.204731420390956 
534	 0.205293096141081 
535	 0.205738534681372 
536	 0.206236139570102 
537	 0.206738673991741 
538	 0.207147444144773 
539	 0.207608441321255 
540	 0.208123940465303 
541	 0.208652064387251 
542	 0.209109645919331 
543	 0.209551230488695 
544	 0.210018788811643 
545	 0.210529045956597 
546	 0.211018891221361 
547	 0.211485720329777 
548	 0.211952244737356 
549	 0.212458077728901 
550	 0.212947218967251 
551	 0.213464060175371 
552	 0.214050349838418 
553	 0.214709060592845 
554	 0.215313227040621 
555	 0.21585684298095 
556	 0.216406758154095 
557	 0.217031217450461 
558	 0.217657712689007 
559	 0.218256613586079 
560	 0.218911895557697 
561	 0.219462920929165 
562	 0.219958196837537 
563	 0.220513541743917 
564	 0.221172754962489 
565	 0.221783132698592 
566	 0.222351730990397 
567	 0.223073567664946 
568	 0.223806550469217 
569	 0.224552679829047 
570	 0.225348423706511 
571	 0.226258123437864 
572	 0.227036566549703 
573	 0.227685969247749 
574	 0.228380076993321 
575	 0.229038727016886 
576	 0.229732570193472 
577	 0.230500627333944 
578	 0.231280329169466 
579	 0.231998776058567 
580	 0.232720172587476 
581	 0.233551949465375 
582	 0.23441630274539 
583	 0.235254964303045 
584	 0.236065852828915 
585	 0.236928203322729 
586	 0.237749337346266 
587	 0.238546033421117 
588	 0.239345551292489 
589	 0.240066452201691 
590	 0.240843008261423 
591	 0.24167036424429 
592	 0.24241792565473 
593	 0.243147107002562 
594	 0.243846273336271 
595	 0.244550884917784 
596	 0.245471016231085 
597	 0.246394920088188 
598	 0.247258783844597 
599	 0.248083259813777 
600	 0.24884094535546 
601	 0.249568031490698 
602	 0.250274551322591 
603	 0.250915291323709 
604	 0.251478163798381 
605	 0.252072517378249 
606	 0.252803811018285 
607	 0.253506676308691 
608	 0.254149388918775 
609	 0.254787785454689 
610	 0.255563642460697 
611	 0.256260836606951 
612	 0.256882424730141 
613	 0.257476439411015 
614	 0.258050652101178 
615	 0.258616847937073 
616	 0.259175678070542 
617	 0.259714404151622 
618	 0.260186816432773 
619	 0.26065289931421 
620	 0.261148165749139 
621	 0.26162058604139 
622	 0.262074306906889 
623	 0.262500982906974 
624	 0.262908026856094 
625	 0.26342550837344 
626	 0.263900306660012 
627	 0.264287986446647 
628	 0.264716007984138 
629	 0.265153421309392 
630	 0.265582409270781 
631	 0.265988744766524 
632	 0.266369663956713 
633	 0.266709505506286 
634	 0.267089954670346 
635	 0.26764702663588 
636	 0.268058334489298 
637	 0.26840728686295 
638	 0.268800289375389 
639	 0.269217663676994 
640	 0.26961947468732 
641	 0.270018176182479 
642	 0.270445833161841 
643	 0.270883298590572 
644	 0.271260609575703 
645	 0.271603706104145 
646	 0.272084320522857 
647	 0.27250309045985 
648	 0.272880626822426 
649	 0.273287942642889 
650	 0.273714352108477 
651	 0.27414899597084 
652	 0.274590373012852 
653	 0.275043142535651 
654	 0.275462951351884 
655	 0.275842307316325 
656	 0.276208483544942 
657	 0.276649840855185 
658	 0.277149119210424 
659	 0.27763353315159 
660	 0.278022221795174 
661	 0.278411346777324 
662	 0.278883613967802 
663	 0.279430204337484 
664	 0.279916869269404 
665	 0.280351362847625 
666	 0.280783971324182 
667	 0.281251025600557 
668	 0.281642002517806 
669	 0.282148510948465 
670	 0.282714770327162 
671	 0.283094416898072 
672	 0.283568705475489 
673	 0.284076957008021 
674	 0.284544615120184 
675	 0.284999315761423 
676	 0.285530415893196 
677	 0.28603986245542 
678	 0.286402585127865 
679	 0.2869396137652 
680	 0.287454566924497 
681	 0.287897906770478 
682	 0.288469684418352 
683	 0.288966975616725 
684	 0.289409430523633 
685	 0.289875341199691 
686	 0.290436497572459 
687	 0.290955765383468 
688	 0.291427937841142 
689	 0.291940690580793 
690	 0.29245694058007 
691	 0.292956509413943 
692	 0.29344977921974 
693	 0.294012211956078 
694	 0.294519407581251 
695	 0.295006302237595 
696	 0.295536931471365 
697	 0.295969333199979 
698	 0.296489531971839 
699	 0.297100338179373 
700	 0.297599799816352 
701	 0.298114667649727 
702	 0.298604997119041 
703	 0.299043215736549 
704	 0.2995241940913 
705	 0.300051354838166 
706	 0.300595122070787 
707	 0.301101881451559 
708	 0.301499474878895 
709	 0.301937402765822 
710	 0.302463191337583 
711	 0.302946138898721 
712	 0.303421016878472 
713	 0.303871976009629 
714	 0.304299302759545 
715	 0.304807396701199 
716	 0.305279623133618 
717	 0.305716886825718 
718	 0.306197423042169 
719	 0.306605188816255 
720	 0.30697322133834 
721	 0.307330587553029 
722	 0.307642832748858 
723	 0.308090403843088 
724	 0.308558738784388 
725	 0.308882883235439 
726	 0.309206405686773 
727	 0.309561772518312 
728	 0.309911548610751 
729	 0.310168167305501 
730	 0.310499410618506 
731	 0.310807243707093 
732	 0.311028704479386 
733	 0.311300768404443 
734	 0.311585611710336 
735	 0.311833732018474 
736	 0.312015365124639 
737	 0.312274103126921 
738	 0.312484708636898 
739	 0.312618184738464 
740	 0.312770758532273 
741	 0.312950918073564 
742	 0.313138249622036 
743	 0.313297664835706 
744	 0.313379017062112 
745	 0.313411404231865 
746	 0.313464973354955 
747	 0.313598453189937 
748	 0.313647996456835 
749	 0.313704783841767 
750	 0.31377994240869 
751	 0.313763627336379 
752	 0.31376590556233 
753	 0.313743518043875 
754	 0.313670859943103 
755	 0.313682141060779 
756	 0.313675526511734 
757	 0.313616498441418 
758	 0.313521150130595 
759	 0.313495050850052 
760	 0.313434669157089 
761	 0.313303306099845 
762	 0.313172541014116 
763	 0.313084043364009 
764	 0.312969858552324 
765	 0.312794206835128 
766	 0.31270180446579 
767	 0.312588459268299 
768	 0.312417307130887 
769	 0.312205556075663 
770	 0.312078785267392 
771	 0.311953903615557 
772	 0.311785897811556 
773	 0.311600373678681 
774	 0.311430013372539 
775	 0.31126565726474 
776	 0.311096708410909 
777	 0.310945051567961 
778	 0.310750742738667 
779	 0.310515155440845 
780	 0.310273463322907 
781	 0.310059234036698 
782	 0.309876847131598 
783	 0.30969422731805 
784	 0.309451997722263 
785	 0.309269814517995 
786	 0.309105771417071 
787	 0.308914334623689 
788	 0.30872507229114 
789	 0.308470740415039 
790	 0.308216679625677 
791	 0.308053597478492 
792	 0.307927654833912 
793	 0.307726918522684 
794	 0.307458926795883 
795	 0.30723546570592 
796	 0.307052726194418 
797	 0.306890997796542 
798	 0.306712560506269 
799	 0.306451966019908 
800	 0.306251675735473 
801	 0.306112153423067 
802	 0.305963203594323 
803	 0.305643676420581 
804	 0.305447600134121 
805	 0.305360298112908 
806	 0.30518005163934 
807	 0.304991623817064 
808	 0.30476602174807 
809	 0.304533562954182 
810	 0.304407265809798 
811	 0.304291374620819 
812	 0.304167170847922 
813	 0.304024527741687 
814	 0.303824759746948 
815	 0.303624272027557 
816	 0.303448176277934 
817	 0.303303436207576 
818	 0.303187025868081 
819	 0.303041828340576 
820	 0.302880756217636 
821	 0.302766859888993 
822	 0.302568893847798 
823	 0.302423887957861 
824	 0.302366582092217 
825	 0.302201308289514 
826	 0.302081597850213 
827	 0.302001883309757 
828	 0.301907054759591 
829	 0.301725359959274 
830	 0.30155232844144 
831	 0.301403975553571 
832	 0.301271479182308 
833	 0.301266833438237 
834	 0.301244410610196 
835	 0.301150874939699 
836	 0.301039124856187 
837	 0.300890696388324 
838	 0.300807294461628 
839	 0.300804315808037 
840	 0.300725297807143 
841	 0.30060806828357 
842	 0.300485217627065 
843	 0.300386793624673 
844	 0.300328250318823 
845	 0.300275520871331 
846	 0.300250451453131 
847	 0.300276040438876 
848	 0.300229819480244 
849	 0.300178784221896 
850	 0.300147731909482 
851	 0.300112085368697 
852	 0.300030486035849 
853	 0.299998412352867 
854	 0.300029262366516 
855	 0.299994220686675 
856	 0.300030112315282 
857	 0.300042926432545 
858	 0.299968279122804 
859	 0.299954063200039 
860	 0.299938623934125 
861	 0.299907824187448 
862	 0.299884868199407 
863	 0.299988250005783 
864	 0.300038357673022 
865	 0.30004818697217 
866	 0.300124134146148 
867	 0.300062431271651 
868	 0.300089086352774 
869	 0.300230257187298 
870	 0.300277033031592 
871	 0.300216846160118 
872	 0.300199882882435 
873	 0.300302863927687 
874	 0.300436734954692 
875	 0.300553950838474 
876	 0.300629873551022 
877	 0.300665986595611 
878	 0.300684908277229 
879	 0.30087129665763 
880	 0.301037546667158 
881	 0.300991968859342 
882	 0.301106698182824 
883	 0.301276477074857 
884	 0.301409726790962 
885	 0.301459986526775 
886	 0.301565592426143 
887	 0.30170820785638 
888	 0.301805262364336 
889	 0.301780553102261 
890	 0.302050724454932 
891	 0.30231264642469 
892	 0.302420079438558 
893	 0.302542223926824 
894	 0.302647263450827 
895	 0.30277348491313 
896	 0.302954295698946 
897	 0.303195606875971 
898	 0.303412153545607 
899	 0.303568265098779 
900	 0.303687593570764 
901	 0.303909513100377 
902	 0.304016066728325 
903	 0.304148017296437 
904	 0.304465341775077 
905	 0.304710985390663 
906	 0.305010127942079 
907	 0.305298385493861 
908	 0.305463252159685 
909	 0.305631361380209 
910	 0.305827597049456 
911	 0.306038186861074 
912	 0.306244550387415 
913	 0.30658245398337 
914	 0.306857373549795 
915	 0.307065770802967 
916	 0.307367131092729 
917	 0.307507129877179 
918	 0.307721737799588 
919	 0.308102725709443 
920	 0.308496040065983 
921	 0.308769726625184 
922	 0.30899845155305 
923	 0.309265641735679 
924	 0.309599386080951 
925	 0.309933882598897 
926	 0.310287798376322 
927	 0.3106522071037 
928	 0.310935869727043 
929	 0.311352315251571 
930	 0.311725735120709 
931	 0.311949331809565 
932	 0.312307530031535 
933	 0.312644658881208 
934	 0.312977233383854 
935	 0.313335782098239 
936	 0.313645764630543 
937	 0.31399136477095 
938	 0.31434959692079 
939	 0.31470183520352 
940	 0.315185122993447 
941	 0.315576596384552 
942	 0.31592781681564 
943	 0.316372657583753 
944	 0.31688634027603 
945	 0.317382113827657 
946	 0.317793767588923 
947	 0.318105178488514 
948	 0.318430282882149 
949	 0.318791962714175 
950	 0.319157044777185 
951	 0.319511733820138 
952	 0.320083620087651 
953	 0.320626148231606 
954	 0.320995432657972 
955	 0.321235181675152 
956	 0.32188576479906 
957	 0.322489644100122 
958	 0.322915217677001 
959	 0.32329794944828 
960	 0.323776341280659 
961	 0.324259907553383 
962	 0.324721342260924 
963	 0.325198508716046 
964	 0.325788728316914 
965	 0.326335275096177 
966	 0.326815376868392 
967	 0.3273102104892 
968	 0.327835204674725 
969	 0.32832829625806 
970	 0.328801900962441 
971	 0.329316100311168 
972	 0.32985819113477 
973	 0.330523284631989 
974	 0.331226428283561 
975	 0.3317964243555 
976	 0.332328380862983 
977	 0.332862355419301 
978	 0.333408357747418 
979	 0.333953301818348 
980	 0.334491699070915 
981	 0.334943444170167 
982	 0.335429011599317 
983	 0.336115503343187 
984	 0.336752390575279 
985	 0.337213727612768 
986	 0.33766200801911 
987	 0.338318860516824 
988	 0.338856806788418 
989	 0.339434946495213 
990	 0.340046126109875 
991	 0.340611076905121 
992	 0.341203755033698 
993	 0.341696168322164 
994	 0.342218726517817 
995	 0.342910076700613 
996	 0.343447651319981 
997	 0.344004038939234 
998	 0.344601003338059 
999	 0.345208331506576 
1000	 0.345860078282438 
1001	 0.348581937382684 
1002	 0.349047130650135 
1003	 0.349654767837359 
1004	 0.35019178346954 
1005	 0.350652034890837 
1006	 0.351186782718965 
1007	 0.351787278261635 
1008	 0.352305428324763 
1009	 0.352784989407259 
1010	 0.353242890398457 
1011	 0.353675814776203 
1012	 0.354096655455273 
1013	 0.354544902542845 
1014	 0.355068021990964 
1015	 0.355588582545816 
1016	 0.356032177115184 
1017	 0.35648531569974 
1018	 0.356930497979183 
1019	 0.357380142333021 
1020	 0.357823832240883 
1021	 0.358337952581068 
1022	 0.358842607868543 
1023	 0.359251455630529 
1024	 0.359670220968372 
1025	 0.360103552064028 
1026	 0.360512441825019 
1027	 0.360956012931619 
1028	 0.361376439634609 
1029	 0.361767460475809 
1030	 0.36219623444239 
1031	 0.362599845053659 
1032	 0.36300068548711 
1033	 0.363408133950907 
1034	 0.36382998799385 
1035	 0.364222321738618 
1036	 0.364661470116032 
1037	 0.365095846334571 
1038	 0.365488174415479 
1039	 0.365888773671964 
1040	 0.366273605384075 
1041	 0.366697098713151 
1042	 0.36713480452791 
1043	 0.367516334685177 
1044	 0.367895797494203 
1045	 0.368256228144656 
1046	 0.368623881485477 
1047	 0.369026040450437 
1048	 0.369488646966553 
1049	 0.369983721012893 
1050	 0.370439600926018 
1051	 0.370855793530035 
1052	 0.371247636548129 
1053	 0.37163671773024 
1054	 0.372042383482109 
1055	 0.372406561429094 
1056	 0.372776025386755 
1057	 0.373132416879788 
1058	 0.373434471712038 
1059	 0.373792785113556 
1060	 0.374204989264232 
1061	 0.374540494392986 
1062	 0.374861928985756 
1063	 0.375222887401678 
1064	 0.375490074193672 
1065	 0.375766934480002 
1066	 0.376119404100939 
1067	 0.37640633483355 
1068	 0.376647963352514 
1069	 0.376944427442864 
1070	 0.377211740543264 
1071	 0.377416408511714 
1072	 0.377682309052378 
1073	 0.37800904156733 
1074	 0.378258674230122 
1075	 0.378473797188006 
1076	 0.378727963247884 
1077	 0.378955965034086 
1078	 0.379159201877609 
1079	 0.379398765032202 
1080	 0.379629524092319 
1081	 0.37981161036216 
1082	 0.379995598653412 
1083	 0.38018946493806 
1084	 0.380381586308773 
1085	 0.380580498243159 
1086	 0.380784433178726 
1087	 0.380995103382735 
1088	 0.38122181323504 
1089	 0.381420055675296 
1090	 0.381628426143455 
1091	 0.381806847181251 
1092	 0.38196740102352 
1093	 0.382210305420346 
1094	 0.382505521337504 
1095	 0.382779825693902 
1096	 0.38304125621818 
1097	 0.383271162090792 
1098	 0.383501911614337 
1099	 0.383671644185196 
1100	 0.383918259199151 
1101	 0.384208430606478 
1102	 0.384477401163752 
1103	 0.384761284553699 
1104	 0.385037135262216 
1105	 0.385304066274242 
1106	 0.385614986943898 
1107	 0.385909766311126 
1108	 0.386206767741733 
1109	 0.386527804370517 
1110	 0.386828467779355 
1111	 0.387151962499158 
1112	 0.387511461551446 
1113	 0.387843571877462 
1114	 0.388149993382171 
1115	 0.388490336554445 
1116	 0.388858826460735 
1117	 0.389195893288844 
1118	 0.38951972515274 
1119	 0.389873180415784 
1120	 0.390222405025739 
1121	 0.390536974792382 
1122	 0.390903203915156 
1123	 0.391297591209414 
1124	 0.391649365299718 
1125	 0.391981175043896 
1126	 0.392331744706272 
1127	 0.392673132015307 
1128	 0.393011795270456 
1129	 0.393372314195886 
1130	 0.39370412885953 
1131	 0.394008822410119 
1132	 0.394323492234772 
1133	 0.394629944630976 
1134	 0.394942808266081 
1135	 0.395274546030512 
1136	 0.395577107961045 
1137	 0.395865455085846 
1138	 0.396139745918529 
1139	 0.396421461449494 
1140	 0.396685594859418 
1141	 0.396962928967318 
1142	 0.39726031210887 
1143	 0.397536398510482 
1144	 0.397805218133691 
1145	 0.398063567924325 
1146	 0.398307046671504 
1147	 0.398554729940278 
1148	 0.398783533403642 
1149	 0.399032930788224 
1150	 0.399309110786956 
1151	 0.399569543839143 
1152	 0.399795191291862 
1153	 0.400027729303191 
1154	 0.400251275014203 
1155	 0.4004414508036 
1156	 0.400657495654759 
1157	 0.400898323267365 
1158	 0.401113788356741 
1159	 0.40131125910976 
1160	 0.401522947259075 
1161	 0.401731841932145 
1162	 0.401944969528468 
1163	 0.402168324451202 
1164	 0.402386883335573 
1165	 0.402595384379061 
1166	 0.402825288978307 
1167	 0.403043856093401 
1168	 0.403267162630469 
1169	 0.403474837171256 
1170	 0.403681966862547 
1171	 0.4038667809053 
1172	 0.404034970862748 
1173	 0.404200892934755 
1174	 0.40433687448533 
1175	 0.404506224544633 
1176	 0.404690468403473 
1177	 0.404869554825329 
1178	 0.405074837965396 
1179	 0.405254837857104 
1180	 0.405407543313512 
1181	 0.405573915107327 
1182	 0.405744136877164 
1183	 0.405907546496841 
1184	 0.406066019119633 
1185	 0.406223738689966 
1186	 0.406391972911183 
1187	 0.406560466703248 
1188	 0.406719790731856 
1189	 0.406891526893656 
1190	 0.407047855701366 
1191	 0.40717930176123 
1192	 0.407325098371346 
1193	 0.407481857132938 
1194	 0.40762815957153 
1195	 0.40775129814734 
1196	 0.40790513921466 
1197	 0.408085554151329 
1198	 0.408247115310553 
1199	 0.40840865439967 
1200	 0.408590606567161 
1201	 0.408741587363648 
1202	 0.40886711424786 
1203	 0.408998318185898 
1204	 0.409121976964302 
1205	 0.409253880695709 
1206	 0.409375696683392 
1207	 0.409512832429253 
1208	 0.409661741565717 
1209	 0.409812408711038 
1210	 0.409981103015073 
1211	 0.410129914923729 
1212	 0.410282491017578 
1213	 0.410418289133634 
1214	 0.410530566966406 
1215	 0.410645020821796 
1216	 0.41075489688154 
1217	 0.410850805458568 
1218	 0.410967859361951 
1219	 0.41109529118345 
1220	 0.411210472432554 
1221	 0.411331649801635 
1222	 0.411447218115961 
1223	 0.41155423525703 
1224	 0.411659357928788 
1225	 0.411767774610557 
1226	 0.411870135058407 
1227	 0.411957764122757 
1228	 0.412054397844114 
1229	 0.412158225937566 
1230	 0.412256795687891 
1231	 0.41236024633816 
1232	 0.412454309582726 
1233	 0.412542721215218 
1234	 0.412620857905342 
1235	 0.41271142040827 
1236	 0.412796532745488 
1237	 0.41289502126706 
1238	 0.413011332438155 
1239	 0.413112772837159 
1240	 0.413212971970898 
1241	 0.413312238085893 
1242	 0.413413311064697 
1243	 0.413501123608954 
1244	 0.413581819562702 
1245	 0.413663225322471 
1246	 0.413729497449119 
1247	 0.413803135758634 
1248	 0.413872059769171 
1249	 0.413960647109423 
1250	 0.414056277382156 
1251	 0.414141010157538 
1252	 0.414223604285098 
1253	 0.414311235759563 
1254	 0.414387562422114 
1255	 0.414453264653126 
1256	 0.414520373891367 
1257	 0.414580945710811 
1258	 0.414648159853694 
1259	 0.4147104469563 
1260	 0.414781228479335 
1261	 0.414876380783796 
1262	 0.414943725599663 
1263	 0.414983488420975 
1264	 0.415048551710176 
1265	 0.415121137206946 
1266	 0.415181489310772 
1267	 0.4152498905994 
1268	 0.415326576600381 
1269	 0.415383823776576 
1270	 0.415412085454008 
1271	 0.415462077312104 
1272	 0.415509220812684 
1273	 0.415579563750206 
1274	 0.415657817444176 
1275	 0.415751939812009 
1276	 0.415875787414631 
1277	 0.415987619173907 
1278	 0.41610367681061 
1279	 0.416215631499782 
1280	 0.41632836657448 
1281	 0.416440569160983 
1282	 0.416553666511265 
1283	 0.41666155750022 
1284	 0.416774577719756 
1285	 0.416877242117755 
1286	 0.416946595558096 
1287	 0.417012913767132 
1288	 0.417066003895192 
1289	 0.417092370065604 
1290	 0.417123683814839 
1291	 0.417161793752362 
1292	 0.417178592039981 
1293	 0.41717902029834 
1294	 0.417171683850829 
1295	 0.417150145545147 
1296	 0.417122112112616 
1297	 0.417090644973843 
1298	 0.417042655849321 
1299	 0.416979779055086 
1300	 0.416911389446721 
1301	 0.416832390035063 
1302	 0.416743135184777 
1303	 0.41664310562411 
1304	 0.416537090225798 
1305	 0.416439912291036 
1306	 0.416331099099494 
1307	 0.416211812459302 
1308	 0.416108089028708 
1309	 0.415995125745061 
1310	 0.415865100373134 
1311	 0.415750490098384 
1312	 0.415643603494978 
1313	 0.415537288986858 
1314	 0.415433118512653 
1315	 0.415331727973017 
1316	 0.415226980354858 
1317	 0.415144834624066 
1318	 0.415074847250539 
1319	 0.415006048043549 
1320	 0.414949704885347 
1321	 0.414898833964249 
1322	 0.414847774085327 
1323	 0.414810727399265 
1324	 0.41477266707345 
1325	 0.414732252180677 
1326	 0.414687735428132 
1327	 0.414638106656363 
1328	 0.414605954550354 
1329	 0.414588371747407 
1330	 0.414579233110788 
1331	 0.41457519192251 
1332	 0.414597783051494 
1333	 0.414643538333244 
1334	 0.414683458846585 
1335	 0.414739479505504 
1336	 0.414793859094297 
1337	 0.414845006754696 
1338	 0.414903126401721 
1339	 0.414975026394642 
1340	 0.41503928542158 
1341	 0.415104050493486 
1342	 0.415162473000831 
1343	 0.415224308932628 
1344	 0.415272693699097 
1345	 0.415300764806782 
1346	 0.41534268825064 
1347	 0.415373562726603 
1348	 0.415421672538244 
1349	 0.415491558774247 
1350	 0.415532630448379 
1351	 0.415578575028436 
1352	 0.415619513447088 
1353	 0.415665783232206 
1354	 0.415712143131448 
1355	 0.415757175965582 
1356	 0.415808347524628 
1357	 0.415850732644822 
1358	 0.415884030379559 
1359	 0.415922864473322 
1360	 0.415963234141166 
1361	 0.415997881544412 
1362	 0.416037631004493 
1363	 0.416062744826992 
1364	 0.416093313845201 
1365	 0.41609510362681 
1366	 0.416070799486646 
1367	 0.416045614298605 
1368	 0.416029943566176 
1369	 0.415975574252473 
1370	 0.415898894630651 
1371	 0.415822898966491 
1372	 0.415685001896792 
1373	 0.415513012060652 
1374	 0.415329116808685 
1375	 0.415139211498537 
1376	 0.414881850018366 
1377	 0.414598307702175 
1378	 0.414257298555374 
1379	 0.413856644676359 
1380	 0.413429892524215 
1381	 0.412965439475449 
1382	 0.412452960634667 
1383	 0.41192567437715 
1384	 0.411307573719231 
1385	 0.4106647518706 
1386	 0.409905459089459 
1387	 0.409075826941768 
1388	 0.40813161622974 
1389	 0.407085939208758 
1390	 0.405942312396729 
1391	 0.404686661040708 
1392	 0.403332250994096 
1393	 0.401904446979218 
1394	 0.40039949935199 
1395	 0.398806491155037 
1396	 0.397190510945935 
1397	 0.395567277960749 
1398	 0.393868050006773 
1399	 0.392245705152547 
1400	 0.390620404418652 
1401	 0.389066348063148 
1402	 0.387543218229375 
1403	 0.386085500335173 
1404	 0.384663960345392 
1405	 0.383334618593448 
1406	 0.382048820132351 
1407	 0.380870853785412 
1408	 0.379737398533773 
1409	 0.378778674556611 
1410	 0.377888795257412 
1411	 0.377206109259689 
1412	 0.376673231504409 
1413	 0.376334203763587 
1414	 0.376216418208347 
1415	 0.376246909140622 
1416	 0.376431425719159 
1417	 0.376721890699979 
1418	 0.377068506353572 
1419	 0.37744331704007 
1420	 0.377833560111754 
1421	 0.378225892923331 
1422	 0.378546652549118 
1423	 0.378823595181713 
1424	 0.379035806301013 
1425	 0.379186943981409 
1426	 0.379299242895549 
1427	 0.379338568404915 
1428	 0.379382346974696 
1429	 0.379385962181915 
1430	 0.379386830658861 
1431	 0.379381252609892 
1432	 0.379351660614382 
1433	 0.379286687599066 
1434	 0.379246576484851 
1435	 0.379187718983963 
1436	 0.379150209120345 
1437	 0.37913461337626 
1438	 0.379117411396981 
1439	 0.37910893967654 
1440	 0.379105399380139 
1441	 0.379081213511293 
1442	 0.379036918873816 
1443	 0.37897891482877 
1444	 0.37893028831889 
1445	 0.37889572645071 
1446	 0.378883991093175 
1447	 0.378874025005456 
1448	 0.378851247560907 
1449	 0.378820962142824 
1450	 0.378791498899051 
1451	 0.378776263753059 
1452	 0.378758009834905 
1453	 0.378761114650981 
1454	 0.378788877532759 
1455	 0.378804486864885 
1456	 0.378831102120397 
1457	 0.378843902667768 
1458	 0.378838464943954 
1459	 0.37885816686818 
1460	 0.378873891834273 
1461	 0.378914231982818 
1462	 0.378972296148703 
1463	 0.379046881763268 
1464	 0.379132297725152 
1465	 0.379242169372177 
1466	 0.37936709424687 
1467	 0.379528538962889 
1468	 0.379718115250969 
1469	 0.379927793741603 
1470	 0.380177225830713 
1471	 0.380428961278095 
1472	 0.38068880288997 
1473	 0.380965920849242 
1474	 0.381234068725949 
1475	 0.381536287436781 
1476	 0.381864782739326 
1477	 0.382188519464319 
1478	 0.382557948702102 
1479	 0.38292713640537 
1480	 0.383283531874429 
1481	 0.383667019991489 
1482	 0.384013253621157 
1483	 0.384330493748471 
1484	 0.384671490760895 
1485	 0.385001288265652 
1486	 0.385346248651821 
1487	 0.385714332276487 
1488	 0.386067911325517 
1489	 0.38642766424834 
1490	 0.386764551587972 
1491	 0.387092137407247 
1492	 0.387412087873816 
1493	 0.38770188974016 
1494	 0.388012530906229 
1495	 0.388332029701452 
1496	 0.388648725596296 
1497	 0.388973470676694 
1498	 0.389291475856842 
1499	 0.389615783310655 
1500	 0.389916774446893 
1501	 0.390206242065557 
1502	 0.390490116562086 
1503	 0.390754155067119 
1504	 0.3910148255448 
1505	 0.391289898793626 
1506	 0.391559424901975 
1507	 0.391828481219176 
1508	 0.392092743814723 
1509	 0.392346826725877 
1510	 0.392601279204321 
1511	 0.392871480498705 
1512	 0.39314053373314 
1513	 0.393421325372841 
1514	 0.39370749447366 
1515	 0.393979248045306 
1516	 0.394249769596321 
1517	 0.394490185634191 
1518	 0.394706022993047 
1519	 0.394923282990107 
1520	 0.395107099943947 
1521	 0.395329675099217 
1522	 0.395571059966337 
1523	 0.39580161925311 
1524	 0.396047561415807 
1525	 0.396279319159068 
1526	 0.396504205970509 
1527	 0.396720912943436 
1528	 0.396936705679631 
1529	 0.39713754083344 
1530	 0.397310287449011 
1531	 0.397502766302747 
1532	 0.397696470142324 
1533	 0.397890509114035 
1534	 0.398102578438708 
1535	 0.398297942122981 
1536	 0.39848128430908 
1537	 0.398666933729791 
1538	 0.398852758732339 
1539	 0.399024048566883 
1540	 0.399183396035792 
1541	 0.399347731613436 
1542	 0.399510208056425 
1543	 0.399661167961852 
1544	 0.399807369599389 
1545	 0.399956142200183 
1546	 0.400093948974925 
1547	 0.400227966109588 
1548	 0.400386997144925 
1549	 0.400547375855694 
1550	 0.400709569462887 
1551	 0.400865875520681 
1552	 0.401025113349703 
1553	 0.401175791089171 
1554	 0.401311474420342 
1555	 0.401463852668688 
1556	 0.401619710918671 
1557	 0.401768729083088 
1558	 0.401903641623984 
1559	 0.402022397227313 
1560	 0.402135050212095 
1561	 0.402208472711902 
1562	 0.402331647698745 
1563	 0.402469569177588 
1564	 0.402622243988674 
1565	 0.4028073912042 
1566	 0.402972755600266 
1567	 0.403144899697837 
1568	 0.40330270606618 
1569	 0.403457118264784 
1570	 0.403590136105746 
1571	 0.403710360120776 
1572	 0.403824432207761 
1573	 0.403921617100773 
1574	 0.404015304711832 
1575	 0.404098289776497 
1576	 0.404185155619301 
1577	 0.404278234824964 
1578	 0.404345338672925 
1579	 0.404396810991481 
1580	 0.404459074621957 
1581	 0.404492901971351 
1582	 0.404553448105643 
1583	 0.404637578797267 
1584	 0.404718025735431 
1585	 0.40479715609721 
1586	 0.404892086546494 
1587	 0.405018376943215 
1588	 0.405112555590222 
1589	 0.405201549210819 
1590	 0.405284101355819 
1591	 0.405330943260953 
1592	 0.405403123934779 
1593	 0.405503589607844 
1594	 0.405576892348037 
1595	 0.405635737851474 
1596	 0.405705986456893 
1597	 0.405765632145389 
1598	 0.4058296748514 
1599	 0.405912454632537 
1600	 0.405984393295605 
1601	 0.406042811347871 
1602	 0.406106413091188 
1603	 0.406175429785758 
1604	 0.406238742746334 
1605	 0.406300539573667 
1606	 0.40635769476557 
1607	 0.406408794740649 
1608	 0.406456757177115 
1609	 0.406512761054914 
1610	 0.406572209667264 
1611	 0.406618692869047 
1612	 0.406647749138248 
1613	 0.406656872711714 
1614	 0.406673387964023 
1615	 0.406702482882059 
1616	 0.406736035911851 
1617	 0.406777130420489 
1618	 0.406813267828623 
1619	 0.406839827980289 
1620	 0.40686775876305 
1621	 0.406907828428876 
1622	 0.40695241528396 
1623	 0.406995836079097 
1624	 0.407048096095219 
1625	 0.407099483989901 
1626	 0.407151596725998 
1627	 0.407191012196112 
1628	 0.407230096045038 
1629	 0.407271920504666 
1630	 0.40730307395813 
1631	 0.407334506754599 
1632	 0.407379865462905 
1633	 0.40739959386672 
1634	 0.407398376044605 
1635	 0.40740600214264 
1636	 0.407405973079969 
1637	 0.407415443085852 
1638	 0.407427175229985 
1639	 0.407439842322792 
1640	 0.407458445686068 
1641	 0.407471637893527 
1642	 0.407484412033406 
1643	 0.40749238187603 
1644	 0.407491376835207 
1645	 0.407506682541211 
1646	 0.407524875524082 
1647	 0.407546776268646 
1648	 0.407590528597747 
1649	 0.407605091295443 
1650	 0.407596261633258 
1651	 0.407613209837682 
1652	 0.407645424666345 
1653	 0.407640465011271 
1654	 0.407637165026837 
1655	 0.407617033903998 
1656	 0.40754682145591 
1657	 0.407513610779108 
1658	 0.407491295084211 
1659	 0.407481571600762 
1660	 0.407486814926113 
1661	 0.407484919706971 
1662	 0.407497486247724 
1663	 0.40749849994308 
1664	 0.407481342589987 
1665	 0.407485740208288 
1666	 0.407505578449087 
1667	 0.407512498593947 
1668	 0.407534316563714 
1669	 0.407525697993135 
1670	 0.407493729574323 
1671	 0.40746519123344 
1672	 0.407417027115996 
1673	 0.407383824465516 
1674	 0.407351118337816 
1675	 0.407329035270682 
1676	 0.407307414591192 
1677	 0.407306991405382 
1678	 0.407338652784217 
1679	 0.407338154400629 
1680	 0.407346329648964 
1681	 0.407328355245326 
1682	 0.407275778768263 
1683	 0.407234038717604 
1684	 0.407182539177203 
1685	 0.407142660894374 
1686	 0.407088586763337 
1687	 0.407073604887302 
1688	 0.407087785833954 
1689	 0.407094446730458 
1690	 0.407137874908171 
1691	 0.407140476807504 
1692	 0.407129080315017 
1693	 0.407099048585922 
1694	 0.407041927877803 
1695	 0.406987996439563 
1696	 0.40691149190326 
1697	 0.406854287817526 
1698	 0.406796401864319 
1699	 0.406755290296557 
1700	 0.406736124264734 
1701	 0.406698927725248 
1702	 0.406665315706753 
1703	 0.406627497940448 
1704	 0.406582158784384 
1705	 0.406535978169163 
1706	 0.406492154810202 
1707	 0.406439298636601 
1708	 0.406375956427385 
1709	 0.406310667233701 
1710	 0.406231431531494 
1711	 0.406180090086709 
1712	 0.406125022010319 
1713	 0.406099958918123 
1714	 0.406129212446077 
1715	 0.406105274641382 
1716	 0.406069905119454 
1717	 0.406035696226193 
1718	 0.405986639553999 
1719	 0.405918139864536 
1720	 0.405850563277019 
1721	 0.405766221867463 
1722	 0.405647916513698 
1723	 0.405535447396195 
1724	 0.405418663101346 
1725	 0.405309542592889 
1726	 0.405179092392609 
1727	 0.405089847873175 
1728	 0.405042198765279 
1729	 0.404955089739116 
1730	 0.404883630115223 
1731	 0.404766941812143 
1732	 0.404608074868495 
1733	 0.404463792578007 
1734	 0.40430792886814 
1735	 0.404148482004278 
1736	 0.403974834401986 
1737	 0.403824511694095 
1738	 0.403663079405649 
1739	 0.403536897454744 
1740	 0.40346125226286 
1741	 0.403341101473322 
1742	 0.403233348941398 
1743	 0.403074291323968 
1744	 0.402865096314491 
1745	 0.402673320851494 
1746	 0.402444753330066 
1747	 0.402298857155302 
1748	 0.402176117408185 
1749	 0.402077316664073 
1750	 0.401973072621684 
1751	 0.40186366714049 
1752	 0.401754586719867 
1753	 0.40163354274705 
1754	 0.401501475571308 
1755	 0.401363263790103 
1756	 0.401207258466242 
1757	 0.401032657228714 
1758	 0.400886444795946 
1759	 0.400741539103816 
1760	 0.400569621989261 
1761	 0.400414849208326 
1762	 0.400244827544332 
1763	 0.400034225334639 
1764	 0.399874365906311 
1765	 0.399784456087178 
1766	 0.399719687186969 
1767	 0.399686960142455 
1768	 0.39963161019171 
1769	 0.399508081178408 
1770	 0.399362747262904 
1771	 0.39921954546621 
1772	 0.399054321991172 
1773	 0.39887288121829 
1774	 0.39871705748782 
1775	 0.398575658125752 
1776	 0.398437469762286 
1777	 0.398343211533533 
1778	 0.398276399615075 
1779	 0.398210062575069 
1780	 0.398163103739508 
1781	 0.398126032634532 
1782	 0.398061327506168 
1783	 0.397986683196314 
1784	 0.397904248603497 
1785	 0.397793173567564 
1786	 0.39770298591277 
1787	 0.397603579854567 
1788	 0.397518069208921 
1789	 0.397461078459742 
1790	 0.397406484519229 
1791	 0.397356275710217 
1792	 0.397309056626345 
1793	 0.397268054767472 
1794	 0.397233917857239 
1795	 0.397215351515173 
1796	 0.397171476314231 
1797	 0.397116259643877 
1798	 0.3970577052136 
1799	 0.396969714038067 
1800	 0.396932694393761 
1801	 0.39248843640016 
1802	 0.39249883263447 
1803	 0.392571022717422 
1804	 0.392608902471822 
1805	 0.39264393585492 
1806	 0.392741569269662 
1807	 0.392834763968735 
1808	 0.392907352156261 
1809	 0.392991816382508 
1810	 0.393050179702761 
1811	 0.39309752285743 
1812	 0.393118176351657 
1813	 0.393090289462769 
1814	 0.393075810438521 
1815	 0.393042243067417 
1816	 0.392990174931612 
1817	 0.392966671439546 
1818	 0.392972275408911 
1819	 0.392953996880632 
1820	 0.39294670064028 
1821	 0.392902408411111 
1822	 0.392851918449222 
1823	 0.392827787334405 
1824	 0.392767998998237 
1825	 0.392704240016268 
1826	 0.392672709645062 
1827	 0.39261021078284 
1828	 0.392518698124237 
1829	 0.392422502438847 
1830	 0.392313258431429 
1831	 0.392181623195418 
1832	 0.392002046502747 
1833	 0.391827102838713 
1834	 0.391674539027419 
1835	 0.39148784864485 
1836	 0.391318343427836 
1837	 0.391186088678156 
1838	 0.391020835950329 
1839	 0.390865137532339 
1840	 0.390718925378688 
1841	 0.390562481779149 
1842	 0.390372176561939 
1843	 0.390224301516128 
1844	 0.390069665426807 
1845	 0.389859446900796 
1846	 0.389637664595602 
1847	 0.389393009042938 
1848	 0.389131820686394 
1849	 0.38888496459148 
1850	 0.388644617834107 
1851	 0.38842969194553 
1852	 0.388195936168326 
1853	 0.387949983950575 
1854	 0.38770679916047 
1855	 0.387441367463222 
1856	 0.387162121774213 
1857	 0.386833677632777 
1858	 0.386439367696167 
1859	 0.386022999117683 
1860	 0.385558398645989 
1861	 0.385052435185592 
1862	 0.384481611396161 
1863	 0.383873375673037 
1864	 0.383213585503824 
1865	 0.382498095562783 
1866	 0.381726167930108 
1867	 0.380893602942966 
1868	 0.380005389827109 
1869	 0.379037184472518 
1870	 0.378000871124332 
1871	 0.376874808150334 
1872	 0.375685383727548 
1873	 0.374402980288299 
1874	 0.373027804436968 
1875	 0.371561682760438 
1876	 0.36999623440757 
1877	 0.368298897190232 
1878	 0.366473894854338 
1879	 0.364508215802913 
1880	 0.362370014624873 
1881	 0.360068871042475 
1882	 0.357641056329722 
1883	 0.355069071010185 
1884	 0.352287776257672 
1885	 0.349417176776807 
1886	 0.346417080119641 
1887	 0.343222969173225 
1888	 0.339933021271523 
1889	 0.336506039170757 
1890	 0.332964924396114 
1891	 0.329470200406465 
1892	 0.325869475063071 
1893	 0.322359984917404 
1894	 0.31887345969622 
1895	 0.315444177503522 
1896	 0.312000635171866 
1897	 0.308691499304766 
1898	 0.305459943676557 
1899	 0.302386732486898 
1900	 0.299537591073039 
1901	 0.296838028101507 
1902	 0.294319419994282 
1903	 0.292039087404961 
1904	 0.289862000310717 
1905	 0.287811062986683 
1906	 0.285955570157062 
1907	 0.284257751927276 
1908	 0.28263905934727 
1909	 0.281192249076561 
1910	 0.279850342750904 
1911	 0.278617187732055 
1912	 0.277517953029131 
1913	 0.276484608961198 
1914	 0.275564496422548 
1915	 0.274692885390522 
1916	 0.273898206015973 
1917	 0.273154300967731 
1918	 0.272498659338677 
1919	 0.27190291393942 
1920	 0.271377119141811 
1921	 0.270921116920589 
1922	 0.270502648877786 
1923	 0.270148562025069 
1924	 0.269846063483869 
1925	 0.269600899962894 
1926	 0.269403910375987 
1927	 0.269264314861083 
1928	 0.26916711655496 
1929	 0.269103992571985 
1930	 0.269098217268249 
1931	 0.269154675644754 
1932	 0.269244898827257 
1933	 0.269365395640555 
1934	 0.269535755994145 
1935	 0.269730148370173 
1936	 0.269933425729138 
1937	 0.270189148591074 
1938	 0.270496886271915 
1939	 0.270830608110996 
1940	 0.271194030189719 
1941	 0.271609435001041 
1942	 0.272034525546673 
1943	 0.272478399650868 
1944	 0.272962681850285 
1945	 0.273467077393137 
1946	 0.273982434514408 
1947	 0.274530860184503 
1948	 0.275080859682475 
1949	 0.27563236868623 
1950	 0.276204677161261 
1951	 0.276800555730994 
1952	 0.277401112803335 
1953	 0.278006079124518 
1954	 0.278631325814293 
1955	 0.279252551100225 
1956	 0.279890488807419 
1957	 0.280561060726614 
1958	 0.281262850983187 
1959	 0.281958802063324 
1960	 0.282692073778472 
1961	 0.283405273627618 
1962	 0.284101155056245 
1963	 0.284818145668259 
1964	 0.285532567429962 
1965	 0.286263785458812 
1966	 0.287046385742426 
1967	 0.287814804590003 
1968	 0.288589708473321 
1969	 0.289403986593554 
1970	 0.2901656543509 
1971	 0.290898071616628 
1972	 0.291644349982476 
1973	 0.292353678076426 
1974	 0.29310124493603 
1975	 0.293865258541218 
1976	 0.294642871945952 
1977	 0.29545034385876 
1978	 0.296252153874902 
1979	 0.297025713004842 
1980	 0.297819186270207 
1981	 0.29859685115812 
1982	 0.299341705942929 
1983	 0.300123298094535 
1984	 0.300930903973961 
1985	 0.301714076448872 
1986	 0.302498354252021 
1987	 0.3032827129254 
1988	 0.304053671913638 
1989	 0.304833695775995 
1990	 0.305614698164519 
1991	 0.306407638387114 
1992	 0.307200733246672 
1993	 0.30800441175136 
1994	 0.308789144097317 
1995	 0.309582216362249 
1996	 0.310345519071681 
1997	 0.311078676840203 
1998	 0.311823040941218 
1999	 0.312555180508599 
2000	 0.313290920377555 
2001	 0.314035610700876 
2002	 0.314757161644292 
2003	 0.315517724442401 
2004	 0.316269307209082 
2005	 0.316991810052807 
2006	 0.317711273037967 
2007	 0.318427932205239 
2008	 0.319095967520786 
2009	 0.319805290989953 
2010	 0.320551459413798 
2011	 0.321272739463549 
2012	 0.321997474235516 
2013	 0.322713765838957 
2014	 0.323439884384807 
2015	 0.3241235644973 
2016	 0.324795148478441 
2017	 0.325449331117088 
2018	 0.326133964530464 
2019	 0.326829559943441 
2020	 0.327502613377624 
2021	 0.328198851655126 
2022	 0.328860223416769 
2023	 0.329482363391953 
2024	 0.330104516079473 
2025	 0.330721127777432 
2026	 0.331331694522055 
2027	 0.331937413578507 
2028	 0.332515762308312 
2029	 0.333090455552439 
2030	 0.333654112255403 
2031	 0.334223281132285 
2032	 0.334777377161467 
2033	 0.335345814007739 
2034	 0.335927132461128 
2035	 0.33650030254614 
2036	 0.337080433596033 
2037	 0.337639725118113 
2038	 0.338207298856142 
2039	 0.338741513548252 
2040	 0.339246939199731 
2041	 0.339740674613659 
2042	 0.340214029598214 
2043	 0.340688319940645 
2044	 0.3411625173721 
2045	 0.341636134552864 
2046	 0.342104838554093 
2047	 0.34258078660672 
2048	 0.343030582740481 
2049	 0.343468294183709 
2050	 0.34389711074055 
2051	 0.344307415624755 
2052	 0.344711833744812 
2053	 0.345096627017623 
2054	 0.345493609794924 
2055	 0.345891265089763 
2056	 0.346280169770482 
2057	 0.346673802033591 
2058	 0.347081992605653 
2059	 0.347472185658725 
2060	 0.347851910341676 
2061	 0.34822870681401 
2062	 0.348580492960861 
2063	 0.348969710202082 
2064	 0.349383246226845 
2065	 0.349778330408234 
2066	 0.350214308878754 
2067	 0.350602516679245 
2068	 0.350964782040597 
2069	 0.351282605222834 
2070	 0.351631125046766 
2071	 0.351964002788517 
2072	 0.352313007844806 
2073	 0.352692027811296 
2074	 0.353027839263132 
2075	 0.353339651512773 
2076	 0.353663316876157 
2077	 0.353970882721893 
2078	 0.354283865434413 
2079	 0.354608930183916 
2080	 0.3549240906979 
2081	 0.355238017993095 
2082	 0.355535290409485 
2083	 0.355816557143894 
2084	 0.356103515795483 
2085	 0.35639410223699 
2086	 0.356676520555836 
2087	 0.356959498634475 
2088	 0.357257929394823 
2089	 0.357535243156759 
2090	 0.357790318423504 
2091	 0.35805584770313 
2092	 0.358330660985406 
2093	 0.358588160506236 
2094	 0.358830377811901 
2095	 0.359080476022623 
2096	 0.359325265486889 
2097	 0.359569077836841 
2098	 0.359820429255112 
2099	 0.360065201186225 
2100	 0.360306988918973 
2101	 0.36054060607711 
2102	 0.360771187699617 
2103	 0.360994357951199 
2104	 0.361234189083508 
2105	 0.36144775342868 
2106	 0.361724561184593 
2107	 0.362053780168272 
2108	 0.362361356361873 
2109	 0.362704291416525 
2110	 0.363029025962775 
2111	 0.363345576971096 
2112	 0.363649427936683 
2113	 0.363939860573276 
2114	 0.364244620279271 
2115	 0.364533512015087 
2116	 0.364790735270821 
2117	 0.365091504488987 
2118	 0.365411593267083 
2119	 0.365726549791553 
2120	 0.366060556107704 
2121	 0.366385259342829 
2122	 0.366710791650264 
2123	 0.367026822919587 
2124	 0.367371639948628 
2125	 0.367653985953219 
2126	 0.367898324133265 
2127	 0.368132770504826 
2128	 0.368305707751092 
2129	 0.368502643419945 
2130	 0.368712699253693 
2131	 0.368913422344707 
2132	 0.36909152893682 
2133	 0.369273557411507 
2134	 0.369416241048694 
2135	 0.369537563977354 
2136	 0.369619018970959 
2137	 0.369658359368288 
2138	 0.369698991719419 
2139	 0.369710587953249 
2140	 0.36970929318085 
2141	 0.369716046944694 
2142	 0.369680823821808 
2143	 0.369594579873564 
2144	 0.369515850200852 
2145	 0.369427783518249 
2146	 0.369316887434537 
2147	 0.369218194707958 
2148	 0.369074042873733 
2149	 0.368879572107434 
2150	 0.368629171765743 
2151	 0.368393042690437 
2152	 0.368106825658847 
2153	 0.367847213904136 
2154	 0.367599510908091 
2155	 0.367343000170892 
2156	 0.367116842899193 
2157	 0.366815315184432 
2158	 0.366485615133901 
2159	 0.366130301320725 
2160	 0.36568721405698 
2161	 0.365279640131043 
2162	 0.364882621930847 
2163	 0.364478402493601 
2164	 0.36408810431139 
2165	 0.36368023643648 
2166	 0.363229000439353 
2167	 0.362763160908824 
2168	 0.362256744331174 
2169	 0.361686085049964 
2170	 0.361147309485153 
2171	 0.360610256785218 
2172	 0.360037743608849 
2173	 0.359487265094124 
2174	 0.358853902628144 
2175	 0.35815655954879 
2176	 0.357443231602828 
2177	 0.356672397539003 
2178	 0.355895608470918 
2179	 0.35509012429965 
2180	 0.354281102953959 
2181	 0.353474582016581 
2182	 0.35262596021756 
2183	 0.351760270467468 
2184	 0.350857028918346 
2185	 0.349938698917196 
2186	 0.348961087404022 
2187	 0.348026167914765 
2188	 0.347071986128544 
2189	 0.346174376349931 
2190	 0.345279352704692 
2191	 0.344454652892694 
2192	 0.343665766960528 
2193	 0.342943958206977 
2194	 0.342256870871889 
2195	 0.341666889208154 
2196	 0.341166675944629 
2197	 0.340712710533287 
2198	 0.340337018319726 
2199	 0.340016319053873 
2200	 0.339747621123566 
2201	 0.339538295175197 
2202	 0.339384920537781 
2203	 0.339319588373421 
2204	 0.339297488183617 
2205	 0.339311447730494 
2206	 0.339445157723303 
2207	 0.33964751345698 
2208	 0.339965276112469 
2209	 0.340417874463684 
2210	 0.3408946130531 
2211	 0.341501824580399 
2212	 0.34206065521277 
2213	 0.342661308609887 
2214	 0.343237477603699 
2215	 0.343810317702558 
2216	 0.344375710772406 
2217	 0.34497534947394 
2218	 0.34550164412519 
2219	 0.346016037093273 
2220	 0.346458777884321 
2221	 0.346799687435913 
2222	 0.347150630993509 
2223	 0.347486922442524 
2224	 0.347810665630503 
2225	 0.34810582009312 
2226	 0.34841839034534 
2227	 0.348634932940793 
2228	 0.348787847699091 
2229	 0.348920020766366 
2230	 0.348989244023493 
2231	 0.349065624966671 
2232	 0.349134091110835 
2233	 0.34914991790224 
2234	 0.349125864661171 
2235	 0.349098007834937 
2236	 0.349017862642595 
2237	 0.348951824530414 
2238	 0.34887436459108 
2239	 0.348817099590163 
2240	 0.348788255868991 
2241	 0.348716512241258 
2242	 0.34864729833151 
2243	 0.348552806514155 
2244	 0.348419043221912 
2245	 0.34825972078259 
2246	 0.348117960913415 
2247	 0.347986076498808 
2248	 0.347812062613459 
2249	 0.347613990927948 
2250	 0.347419699058562 
2251	 0.347176953637145 
2252	 0.347007557297855 
2253	 0.346879381982364 
2254	 0.346729584300008 
2255	 0.346608838817322 
2256	 0.346468739909888 
2257	 0.346273839126574 
2258	 0.346162895802136 
2259	 0.346101138600741 
2260	 0.346034869132884 
2261	 0.346026802787347 
2262	 0.345983377828272 
2263	 0.345901369251548 
2264	 0.345857049288313 
2265	 0.345812693314271 
2266	 0.345802855472923 
2267	 0.34584948990474 
2268	 0.345875308603293 
2269	 0.345922031598344 
2270	 0.345947964311231 
2271	 0.345965385024877 
2272	 0.345936516167804 
2273	 0.34591442120422 
2274	 0.345920487230004 
2275	 0.345930041918381 
2276	 0.34594628891441 
2277	 0.345986119632884 
2278	 0.346051777161976 
2279	 0.346090703210754 
2280	 0.346134595827742 
2281	 0.34617625122781 
2282	 0.346217699779969 
2283	 0.346240268685114 
2284	 0.346267038881602 
2285	 0.346269872032057 
2286	 0.346230936508798 
2287	 0.346207122152056 
2288	 0.34617761763778 
2289	 0.346155736846685 
2290	 0.34614063625353 
2291	 0.346121821077126 
2292	 0.346117950900159 
2293	 0.34609014491755 
2294	 0.346043080002432 
2295	 0.34599410512192 
2296	 0.345911379334319 
2297	 0.34586156477767 
2298	 0.345848224129814 
2299	 0.345811465983072 
2300	 0.345792049516794 
2301	 0.345718444326136 
2302	 0.345568918732218 
2303	 0.345426812199683 
2304	 0.345308779362237 
2305	 0.345224961109084 
2306	 0.345097201397988 
2307	 0.344980854518272 
2308	 0.344853943510486 
2309	 0.34469688288178 
2310	 0.344523135457366 
2311	 0.344376522862213 
2312	 0.344178855640052 
2313	 0.34391233112617 
2314	 0.343649222475767 
2315	 0.343363922995792 
2316	 0.343099137654223 
2317	 0.342817507672102 
2318	 0.342555626648477 
2319	 0.342314663395849 
2320	 0.342077676161191 
2321	 0.341821629901301 
2322	 0.341616346343023 
2323	 0.341497794774367 
2324	 0.341295639518983 
2325	 0.341083835817972 
2326	 0.340842973946322 
2327	 0.340541371845016 
2328	 0.340223082611388 
2329	 0.339950160130382 
2330	 0.339724591180795 
2331	 0.339489370702532 
2332	 0.33924539622047 
2333	 0.339007997736788 
2334	 0.338732145091963 
2335	 0.338417972107837 
2336	 0.338154104420534 
2337	 0.337873990210111 
2338	 0.337570649065839 
2339	 0.337278869512064 
2340	 0.336904396036154 
2341	 0.336526425824514 
2342	 0.336166247055865 
2343	 0.335785367955991 
2344	 0.33546315544164 
2345	 0.335157088063681 
2346	 0.334852542428204 
2347	 0.334571484468983 
2348	 0.334352097703788 
2349	 0.334104125572716 
2350	 0.333853909496398 
2351	 0.333598899658314 
2352	 0.333350908622817 
2353	 0.333086675777271 
2354	 0.332776009451862 
2355	 0.332539741980233 
2356	 0.332363397553792 
2357	 0.332119554982612 
2358	 0.331869907731314 
2359	 0.331643067919926 
2360	 0.331374124317739 
2361	 0.331132633595407 
2362	 0.330982237521005 
2363	 0.330750701541181 
2364	 0.330440448815637 
2365	 0.330187797427198 
2366	 0.329957123520132 
2367	 0.329686054861902 
2368	 0.329446883013317 
2369	 0.329141056164541 
2370	 0.328796098112242 
2371	 0.328349728984591 
2372	 0.327940471528942 
2373	 0.327561021379303 
2374	 0.327138929718374 
2375	 0.326780700999941 
2376	 0.326424268111646 
2377	 0.326013578864189 
2378	 0.325637278795176 
2379	 0.325238113900452 
2380	 0.324798894092262 
2381	 0.324341621312134 
2382	 0.323845426446472 
2383	 0.32340509264347 
2384	 0.322973458023994 
2385	 0.322498484831262 
2386	 0.322046813936918 
2387	 0.32155683687243 
2388	 0.321061637424785 
2389	 0.32065126314688 
2390	 0.320287160974508 
2391	 0.319877283843874 
2392	 0.319454829905897 
2393	 0.319074991979165 
2394	 0.318618344604351 
2395	 0.318162088809861 
2396	 0.317719163809271 
2397	 0.317164916778808 
2398	 0.31657502400342 
2399	 0.315991065464908 
2400	 0.315495208294988 
2401	 0.314999517442688 
2402	 0.314448121567303 
2403	 0.313913420713827 
2404	 0.313284178237375 
2405	 0.312680999665297 
2406	 0.312104098595649 
2407	 0.311521890952057 
2408	 0.310978964591811 
2409	 0.310309831244038 
2410	 0.30963938935909 
2411	 0.308976652354076 
2412	 0.308277952613157 
2413	 0.307632617535016 
2414	 0.306974322158199 
2415	 0.306331210774316 
2416	 0.305659527006537 
2417	 0.304932751898934 
2418	 0.304287671861952 
2419	 0.303665328766537 
2420	 0.302992736602141 
2421	 0.302374808868646 
2422	 0.301709738821033 
2423	 0.300995979743319 
2424	 0.300273954532508 
2425	 0.299514110278757 
2426	 0.29879139843163 
2427	 0.298044392054846 
2428	 0.297378537951228 
2429	 0.296756794815104 
2430	 0.296159658497498 
2431	 0.295633812090095 
2432	 0.295016858168439 
2433	 0.29444929378693 
2434	 0.29376603959944 
2435	 0.29295376274848 
2436	 0.292265705796386 
2437	 0.291598901876531 
2438	 0.290908863130496 
2439	 0.2901783281779 
2440	 0.289478198549715 
2441	 0.288734078487997 
2442	 0.288120478469385 
2443	 0.287696235110507 
2444	 0.287235757097287 
2445	 0.286807266693634 
2446	 0.286342551912002 
2447	 0.285905138833403 
2448	 0.285283074972375 
2449	 0.28448747423217 
2450	 0.283883775348795 
2451	 0.283288061735049 
2452	 0.282675544977535 
2453	 0.28219589950824 
2454	 0.281627254686206 
2455	 0.280905926808697 
2456	 0.280316525486577 
2457	 0.279814672305554 
2458	 0.27938020836264 
2459	 0.278986087859642 
2460	 0.278563374323759 
2461	 0.278252789579672 
2462	 0.277819979251888 
2463	 0.277312147690379 
2464	 0.276810522644084 
2465	 0.276225419433597 
2466	 0.275691607735364 
2467	 0.275199132471702 
2468	 0.274638741727984 
2469	 0.274083558658364 
2470	 0.273580864580861 
2471	 0.273031705685661 
2472	 0.272549842551386 
2473	 0.271993113252241 
2474	 0.271462619619784 
2475	 0.270997311768106 
2476	 0.27045059436102 
2477	 0.270021123146874 
2478	 0.269638159861135 
2479	 0.269200989528627 
2480	 0.268820206708972 
2481	 0.268312198418201 
2482	 0.2677444347611 
2483	 0.267187186703542 
2484	 0.266653164386747 
2485	 0.26613928495492 
2486	 0.265568808438115 
2487	 0.265109201942209 
2488	 0.264679616405553 
2489	 0.264351200146387 
2490	 0.264188768610894 
2491	 0.263873084510276 
2492	 0.263381024575087 
2493	 0.2627614314325 
2494	 0.262001692408006 
2495	 0.261368249725718 
2496	 0.260914445389157 
2497	 0.260458607486263 
2498	 0.260188406381391 
2499	 0.260021624803673 
2500	 0.259776435679619 
