Wavelength	LMW500009.asd
350	 6.22526950632542E-02 
351	 7.07277555638284E-02 
352	 7.91446297605307E-02 
353	 7.76014952592153E-02 
354	 8.00992537279081E-02 
355	 8.23448714957553E-02 
356	 7.95178123987835E-02 
357	 7.16913547896273E-02 
358	 7.80096929333458E-02 
359	 7.99292797701917E-02 
360	 7.54380031802377E-02 
361	 7.37708330108047E-02 
362	 7.74444580863866E-02 
363	 7.87609027959133E-02 
364	 7.57481794511203E-02 
365	 0.077118176474949 
366	 7.86270361264241E-02 
367	 7.96351662002609E-02 
368	 8.03741415871351E-02 
369	 8.05954249418171E-02 
370	 0.083041914715601 
371	 8.62574680448701E-02 
372	 8.63276760014842E-02 
373	 8.65787149936275E-02 
374	 8.72361043871622E-02 
375	 8.80657839644165E-02 
376	 8.87558428482267E-02 
377	 9.02637158141006E-02 
378	 9.21001335089192E-02 
379	 9.35571698262425E-02 
380	 9.54449965392214E-02 
381	 9.52790403051745E-02 
382	 9.52245570125068E-02 
383	 0.100019636541557 
384	 9.97986780668889E-02 
385	 9.83483263479775E-02 
386	 0.099102347491449 
387	 0.100966587605884 
388	 0.103916488098654 
389	 0.106288152456962 
390	 0.10671642885025 
391	 0.107117250222531 
392	 0.109163613917746 
393	 0.112567776225655 
394	 0.115394984002803 
395	 0.116313174473627 
396	 0.117903775865259 
397	 0.121084934158028 
398	 0.121902845412281 
399	 0.122190362749892 
400	 0.123492435458368 
401	 0.126640920976703 
402	 0.12927658476785 
403	 0.130745687850403 
404	 0.131482261355895 
405	 0.132811055007356 
406	 0.134825010809574 
407	 0.136749687745575 
408	 0.137948932703571 
409	 0.138529392840978 
410	 0.13923276997148 
411	 0.140576256668907 
412	 0.142682473614279 
413	 0.144157213978804 
414	 0.144568396551703 
415	 0.144558838577574 
416	 0.145950643830538 
417	 0.146819829268876 
418	 0.147376521597385 
419	 0.148071815535377 
420	 0.148294299867205 
421	 0.148448830805581 
422	 0.148980453843414 
423	 0.150138665054738 
424	 0.149925597927747 
425	 0.149391539598795 
426	 0.149248420720935 
427	 0.148838857268827 
428	 0.148673521182168 
429	 0.148518274229995 
430	 0.14811483024677 
431	 0.148372799977452 
432	 0.148222579660971 
433	 0.147764458590061 
434	 0.148229254442665 
435	 0.14856335550647 
436	 0.148778934274899 
437	 0.149099084286286 
438	 0.149746548641003 
439	 0.150411537622367 
440	 0.151237713028194 
441	 0.152487757035026 
442	 0.153394271673162 
443	 0.154526832143207 
444	 0.155990700496366 
445	 0.156994218228282 
446	 0.158050595131297 
447	 0.159278886398112 
448	 0.160568139773127 
449	 0.161268538993623 
450	 0.162455177477724 
451	 0.16408370705136 
452	 0.165166660599973 
453	 0.166228335737861 
454	 0.167301832644135 
455	 0.1683437227907 
456	 0.169317645907488 
457	 0.170283750455746 
458	 0.171157297925035 
459	 0.171870625172482 
460	 0.173038706058215 
461	 0.173966693928634 
462	 0.174504950729332 
463	 0.175421649117661 
464	 0.176147664372612 
465	 0.176695970267257 
466	 0.177224716041023 
467	 0.177783602215597 
468	 0.17846644517688 
469	 0.17907260384027 
470	 0.17923383972729 
471	 0.179830105551958 
472	 0.180471135946462 
473	 0.180854109658979 
474	 0.18139667283837 
475	 0.181978524769493 
476	 0.182517279378359 
477	 0.182979462201437 
478	 0.183629999626732 
479	 0.184215861425309 
480	 0.184637128321303 
481	 0.185059563633409 
482	 0.185566390024788 
483	 0.186231211498265 
484	 0.186994879979586 
485	 0.187335064543902 
486	 0.187679822949736 
487	 0.188195183708454 
488	 0.188790450099557 
489	 0.189198859694061 
490	 0.189616513579804 
491	 0.190164620327986 
492	 0.190563627986073 
493	 0.190964725252781 
494	 0.191460520192193 
495	 0.192095091102843 
496	 0.19278462181469 
497	 0.193275570447951 
498	 0.19357630553907 
499	 0.194088899219743 
500	 0.194712809633894 
501	 0.195271981150041 
502	 0.195660110330666 
503	 0.196202701009734 
504	 0.196767343542345 
505	 0.197321961935225 
506	 0.197931224746627 
507	 0.198374216735005 
508	 0.198764760985158 
509	 0.199227548975128 
510	 0.199747112753031 
511	 0.200190936728739 
512	 0.200640132147501 
513	 0.201247175135423 
514	 0.201661199514412 
515	 0.202091251286628 
516	 0.202647677989542 
517	 0.203176983747293 
518	 0.203589219124304 
519	 0.203979455481866 
520	 0.204482137971245 
521	 0.205069351080421 
522	 0.205582383467355 
523	 0.206003799400716 
524	 0.206468255465883 
525	 0.206891613846712 
526	 0.207332063579026 
527	 0.207826677977905 
528	 0.208248390711863 
529	 0.208700850902733 
530	 0.209193917904384 
531	 0.20967683243635 
532	 0.210155357133181 
533	 0.21071236340495 
534	 0.211318895375645 
535	 0.211660209308607 
536	 0.212185427413292 
537	 0.212771893018342 
538	 0.213134169690443 
539	 0.213539913237416 
540	 0.214036274314185 
541	 0.21457638027333 
542	 0.215013125994545 
543	 0.215536926983645 
544	 0.21608332909539 
545	 0.216560511079009 
546	 0.217072031742971 
547	 0.217515455566286 
548	 0.217938195497825 
549	 0.218508139501256 
550	 0.219115452436033 
551	 0.219661268571403 
552	 0.220131791957857 
553	 0.2207168698518 
554	 0.221362851000782 
555	 0.222021558430655 
556	 0.222644020567051 
557	 0.223187790362918 
558	 0.22379653857939 
559	 0.224503930208534 
560	 0.225119950521789 
561	 0.225709130900366 
562	 0.226275923191158 
563	 0.226824889952913 
564	 0.227445275093076 
565	 0.228070321083508 
566	 0.228683330810885 
567	 0.229335153160572 
568	 0.230066710174236 
569	 0.230881020622491 
570	 0.231744792322679 
571	 0.232556393134676 
572	 0.233359819100468 
573	 0.234131220686935 
574	 0.234806629026811 
575	 0.235473844595934 
576	 0.236182860102802 
577	 0.236942554687498 
578	 0.237698684501861 
579	 0.238397310685994 
580	 0.239104486956016 
581	 0.239928042880902 
582	 0.240844079187619 
583	 0.241726588454792 
584	 0.242537983721813 
585	 0.243379989367198 
586	 0.244253371567172 
587	 0.245090954963849 
588	 0.245845492329223 
589	 0.24666564908182 
590	 0.247439670568486 
591	 0.248146363515359 
592	 0.248858185294493 
593	 0.249639292117505 
594	 0.250435118017188 
595	 0.251207087833281 
596	 0.252024648915392 
597	 0.252955455782604 
598	 0.253907390582728 
599	 0.254719464773503 
600	 0.255458517002531 
601	 0.256199261445304 
602	 0.256952131819958 
603	 0.257616776134175 
604	 0.258198293980059 
605	 0.25878374963823 
606	 0.259459447866752 
607	 0.260113777066462 
608	 0.260776205602437 
609	 0.261467850229158 
610	 0.262191351532051 
611	 0.262884907089553 
612	 0.263566676922317 
613	 0.26424742554067 
614	 0.264849989244874 
615	 0.265419945656081 
616	 0.265982873508607 
617	 0.266543802356592 
618	 0.267079376038443 
619	 0.267533382548089 
620	 0.267925813884332 
621	 0.268450315203219 
622	 0.268974613404748 
623	 0.269440623792605 
624	 0.269840229697875 
625	 0.270299013508339 
626	 0.270774416775951 
627	 0.271219885593216 
628	 0.271602617975036 
629	 0.272030422807426 
630	 0.272513360041428 
631	 0.273004697464551 
632	 0.273362815583446 
633	 0.273675625026355 
634	 0.274060855685537 
635	 0.274628323779747 
636	 0.275021354965358 
637	 0.275379414509056 
638	 0.275822050020323 
639	 0.276194272626806 
640	 0.276561254128903 
641	 0.276973293510896 
642	 0.277454517566548 
643	 0.27787527905005 
644	 0.278290345048034 
645	 0.278723559445883 
646	 0.279125899193089 
647	 0.279547515342267 
648	 0.279968076599411 
649	 0.280368828784596 
650	 0.28082169391413 
651	 0.28132358088867 
652	 0.281808575919898 
653	 0.282173787813726 
654	 0.282619698609432 
655	 0.283041547713323 
656	 0.283376938183441 
657	 0.283804792279922 
658	 0.284290669724895 
659	 0.284783652468586 
660	 0.285223569108152 
661	 0.285592533134826 
662	 0.286031816097026 
663	 0.286575064250514 
664	 0.287083245634285 
665	 0.287501910694834 
666	 0.287947980543755 
667	 0.288508251050226 
668	 0.288902575230275 
669	 0.289357577917095 
670	 0.289872201583716 
671	 0.290258541216899 
672	 0.290698752574063 
673	 0.291220120953981 
674	 0.291778445376265 
675	 0.292217938381612 
676	 0.292742126492912 
677	 0.293273235492385 
678	 0.293660150748601 
679	 0.294160356631733 
680	 0.294681157837605 
681	 0.295186973379302 
682	 0.29575834315084 
683	 0.296233069103217 
684	 0.296664575492815 
685	 0.297148638890854 
686	 0.297718340788981 
687	 0.298237195872797 
688	 0.298709860121591 
689	 0.299238268514775 
690	 0.29977538493649 
691	 0.300254214390428 
692	 0.300698207498933 
693	 0.301333583472785 
694	 0.301846368827105 
695	 0.302305340660869 
696	 0.302867542683711 
697	 0.303324899669836 
698	 0.303865360133552 
699	 0.304477532117409 
700	 0.304927765637114 
701	 0.305401735712795 
702	 0.305905971222692 
703	 0.306413200211728 
704	 0.306909511977341 
705	 0.307418409141148 
706	 0.30794707766439 
707	 0.308479160848648 
708	 0.308890789698463 
709	 0.309324505333809 
710	 0.309835793293759 
711	 0.310314797649832 
712	 0.310823811836337 
713	 0.311302947978295 
714	 0.311705297561989 
715	 0.312147310754639 
716	 0.312634951125301 
717	 0.313117245590904 
718	 0.313514690496661 
719	 0.313926138561209 
720	 0.314344019977725 
721	 0.31473745094751 
722	 0.315050999879683 
723	 0.315465085496295 
724	 0.315901186251077 
725	 0.316233881375741 
726	 0.316599407013295 
727	 0.31694692066001 
728	 0.317260606221336 
729	 0.317565032390206 
730	 0.317889664571722 
731	 0.318185720031999 
732	 0.318426719899257 
733	 0.318668237559106 
734	 0.318953006507719 
735	 0.319217362829242 
736	 0.319384337580808 
737	 0.319599769896741 
738	 0.319832331788137 
739	 0.320036732745807 
740	 0.320171099365784 
741	 0.320320844555123 
742	 0.32050903134789 
743	 0.320705458091339 
744	 0.320777140255633 
745	 0.320828793521438 
746	 0.320885587370581 
747	 0.320936984883059 
748	 0.321004267714042 
749	 0.321089835265502 
750	 0.321154523414678 
751	 0.321115979377921 
752	 0.321170651830545 
753	 0.321171471926028 
754	 0.321029403266033 
755	 0.321069850141186 
756	 0.321078049247524 
757	 0.321028227519437 
758	 0.320983485247218 
759	 0.320889616845152 
760	 0.320797218763962 
761	 0.320711486060957 
762	 0.320571156271395 
763	 0.320489841753525 
764	 0.320381291792338 
765	 0.320185689128027 
766	 0.320062214927212 
767	 0.319927816225752 
768	 0.31978029891694 
769	 0.319647237028762 
770	 0.319462274293863 
771	 0.319289587788292 
772	 0.319149895571939 
773	 0.318998431342674 
774	 0.318839116630853 
775	 0.318699048218843 
776	 0.318579214880424 
777	 0.318397562970337 
778	 0.318174662382001 
779	 0.317922451905288 
780	 0.317661370334516 
781	 0.317470100141981 
782	 0.317289595593685 
783	 0.317078148024872 
784	 0.31683110682286 
785	 0.316664059721195 
786	 0.316503987730762 
787	 0.316290404827572 
788	 0.316089998084591 
789	 0.315816687956587 
790	 0.315559908622344 
791	 0.3154282937535 
792	 0.315270940596487 
793	 0.31506165615904 
794	 0.314820750095228 
795	 0.314604629609571 
796	 0.314445371621829 
797	 0.31427883187826 
798	 0.314053665061512 
799	 0.313765225606946 
800	 0.31356860331452 
801	 0.313447400009006 
802	 0.313309946860002 
803	 0.312999532826655 
804	 0.312859644503263 
805	 0.312822544241792 
806	 0.312587135483405 
807	 0.312333264603466 
808	 0.312073339750842 
809	 0.311844707704641 
810	 0.311730752534212 
811	 0.311636781057652 
812	 0.311535034766155 
813	 0.311401110720709 
814	 0.311170107400565 
815	 0.310926267641073 
816	 0.31074416677122 
817	 0.310655990621496 
818	 0.310511681679811 
819	 0.310375434077588 
820	 0.310261294334354 
821	 0.310129731722457 
822	 0.309954683269462 
823	 0.309807146664237 
824	 0.309704551458217 
825	 0.309553520501118 
826	 0.309418330104457 
827	 0.309328675735318 
828	 0.309265552697844 
829	 0.30909117520324 
830	 0.308885971917564 
831	 0.308709868866065 
832	 0.308605420402156 
833	 0.308585795884726 
834	 0.308544083476396 
835	 0.308463756611763 
836	 0.308410884186565 
837	 0.308219867868563 
838	 0.308108859493548 
839	 0.308141950189731 
840	 0.308020509555672 
841	 0.307919362630418 
842	 0.307811146438288 
843	 0.307668662016386 
844	 0.307633300787399 
845	 0.307603813264041 
846	 0.30759013795461 
847	 0.307628426294232 
848	 0.307598676065047 
849	 0.307523425958502 
850	 0.307468762928208 
851	 0.307504885109224 
852	 0.307428445223678 
853	 0.307353071931945 
854	 0.307348045554821 
855	 0.307350831177841 
856	 0.307385004505215 
857	 0.307373902276147 
858	 0.307293685408684 
859	 0.307308259468755 
860	 0.307327499853572 
861	 0.307302451294966 
862	 0.307243423393608 
863	 0.307349791744616 
864	 0.307410880138343 
865	 0.307413007716189 
866	 0.307452347371951 
867	 0.307387515443776 
868	 0.307427926297841 
869	 0.307594369812192 
870	 0.307684914405569 
871	 0.307598692516752 
872	 0.307496842932795 
873	 0.307546094217692 
874	 0.307834626855302 
875	 0.307962260481743 
876	 0.307985399208599 
877	 0.308033399143777 
878	 0.308080084374615 
879	 0.308225718573167 
880	 0.308350465161742 
881	 0.308334358997265 
882	 0.308383212142835 
883	 0.308556242823834 
884	 0.308747961175488 
885	 0.308803668421296 
886	 0.308873877446093 
887	 0.309001392797521 
888	 0.309123670736151 
889	 0.309133373868553 
890	 0.309330827612279 
891	 0.3095307030602 
892	 0.309664492094767 
893	 0.309878917327645 
894	 0.309999112744348 
895	 0.310067717629193 
896	 0.310187440444136 
897	 0.31048297962974 
898	 0.310729461357256 
899	 0.310906295564394 
900	 0.311051732302401 
901	 0.311191586913033 
902	 0.311364401322315 
903	 0.31155499569273 
904	 0.311760273219981 
905	 0.312109155093446 
906	 0.3124386147127 
907	 0.312669215867865 
908	 0.312799624729346 
909	 0.312936246220356 
910	 0.313149823643801 
911	 0.313392411201147 
912	 0.313574389081478 
913	 0.313906329808489 
914	 0.314145045945177 
915	 0.314327398045105 
916	 0.314714083936584 
917	 0.314892574673614 
918	 0.31509615327287 
919	 0.315450049387475 
920	 0.315844842397703 
921	 0.316109335384789 
922	 0.316287880918573 
923	 0.316516327474201 
924	 0.316974574652348 
925	 0.31732739867343 
926	 0.317662406254046 
927	 0.318041873684561 
928	 0.318309876863078 
929	 0.318746493689484 
930	 0.319156144760613 
931	 0.319384009395898 
932	 0.319655583504175 
933	 0.319939078527912 
934	 0.320245470525499 
935	 0.320589404653322 
936	 0.320972388003255 
937	 0.321431242371778 
938	 0.321833896576044 
939	 0.322097409065855 
940	 0.322487753340012 
941	 0.322939721685811 
942	 0.323393599442407 
943	 0.32381577517888 
944	 0.324274930617832 
945	 0.324720405888208 
946	 0.325103429109317 
947	 0.325423140148179 
948	 0.325867545411264 
949	 0.326233584218595 
950	 0.326573091528828 
951	 0.32704440605138 
952	 0.327601686395942 
953	 0.328101096676405 
954	 0.32846547073463 
955	 0.328728656966171 
956	 0.329188175767499 
957	 0.329755278192688 
958	 0.3302831663213 
959	 0.330673796379929 
960	 0.331199054270635 
961	 0.331671200279447 
962	 0.332085771678672 
963	 0.332563428407557 
964	 0.33309474522299 
965	 0.333599445242823 
966	 0.334138070476255 
967	 0.334795717787673 
968	 0.335182740061328 
969	 0.335669707687142 
970	 0.33628359425089 
971	 0.336809691567559 
972	 0.337356085929774 
973	 0.337915100053744 
974	 0.338518309225645 
975	 0.339187555484173 
976	 0.339727114244918 
977	 0.340225842468618 
978	 0.340803109202877 
979	 0.341498155192875 
980	 0.341919669832786 
981	 0.342316648929745 
982	 0.34284030653467 
983	 0.343496054390164 
984	 0.344066206595729 
985	 0.344709394887839 
986	 0.34532647823818 
987	 0.345758320016359 
988	 0.346363097310971 
989	 0.346904102522449 
990	 0.347387330937678 
991	 0.347942758184858 
992	 0.348584081558215 
993	 0.34912132310295 
994	 0.349621485154275 
995	 0.350231463401836 
996	 0.350883198247863 
997	 0.351484179738364 
998	 0.352003908964385 
999	 0.352525340172044 
1000	 0.353410615507049 
1001	 0.355801598544281 
1002	 0.356327283907811 
1003	 0.35684101161839 
1004	 0.35734304881606 
1005	 0.357791017766566 
1006	 0.358307842012812 
1007	 0.35886494742371 
1008	 0.359397594918791 
1009	 0.359954873861988 
1010	 0.36042619363433 
1011	 0.360888139658532 
1012	 0.361387238303185 
1013	 0.361803726554311 
1014	 0.362193428812543 
1015	 0.362675334708362 
1016	 0.363157958208169 
1017	 0.363630264463302 
1018	 0.364103962881742 
1019	 0.364654761636782 
1020	 0.365166867282299 
1021	 0.365594817632695 
1022	 0.366016152307357 
1023	 0.366439964294687 
1024	 0.366841897949661 
1025	 0.367268710374541 
1026	 0.367692184296873 
1027	 0.368094496299883 
1028	 0.368502649220806 
1029	 0.368876232325576 
1030	 0.369262786854498 
1031	 0.369678332158957 
1032	 0.370114769566637 
1033	 0.370564366111726 
1034	 0.371027293403796 
1035	 0.371499504167081 
1036	 0.371979147529058 
1037	 0.372382566818706 
1038	 0.372756448746965 
1039	 0.373108143202347 
1040	 0.373437862201102 
1041	 0.373828745178594 
1042	 0.374237840593821 
1043	 0.374685735379463 
1044	 0.375126853314431 
1045	 0.37559214504689 
1046	 0.37602496998469 
1047	 0.376475078056829 
1048	 0.37687451514418 
1049	 0.377296583660984 
1050	 0.377706022673075 
1051	 0.378070614230315 
1052	 0.378497840710007 
1053	 0.378900896985548 
1054	 0.379287845807903 
1055	 0.379664203175467 
1056	 0.380050971469667 
1057	 0.380410546808189 
1058	 0.380712459136228 
1059	 0.381074309346825 
1060	 0.381476429525888 
1061	 0.38180890912331 
1062	 0.382193872720006 
1063	 0.382578622755818 
1064	 0.382869839323632 
1065	 0.383170110331333 
1066	 0.383450700996018 
1067	 0.383732425158904 
1068	 0.384035506551513 
1069	 0.384358419583731 
1070	 0.384648501898401 
1071	 0.384924947722995 
1072	 0.385176796258314 
1073	 0.385412763167449 
1074	 0.385618377809685 
1075	 0.3857753984754 
1076	 0.385976061127989 
1077	 0.386187033745964 
1078	 0.386363262945206 
1079	 0.38654203504592 
1080	 0.386719143896286 
1081	 0.386888889721965 
1082	 0.387094288027253 
1083	 0.387290086027981 
1084	 0.387527462619006 
1085	 0.387711657399985 
1086	 0.387838067600672 
1087	 0.388019571904694 
1088	 0.38821993964644 
1089	 0.388392637025093 
1090	 0.38859991367393 
1091	 0.388835742546232 
1092	 0.389021942043962 
1093	 0.389246070640977 
1094	 0.389508895680614 
1095	 0.389713347101627 
1096	 0.389916468896906 
1097	 0.390146800289052 
1098	 0.390383129279341 
1099	 0.39061238714812 
1100	 0.39087317509872 
1101	 0.391155483835205 
1102	 0.391447111712984 
1103	 0.391776815113424 
1104	 0.392066256446162 
1105	 0.392336538370107 
1106	 0.39261275096818 
1107	 0.392852780782487 
1108	 0.393137131575786 
1109	 0.393465392544728 
1110	 0.393791458880675 
1111	 0.394132982981167 
1112	 0.394503757972639 
1113	 0.394850009197391 
1114	 0.395184231566429 
1115	 0.395545703209208 
1116	 0.395930018049253 
1117	 0.396289710406048 
1118	 0.396653499515908 
1119	 0.397006234164038 
1120	 0.39736543562179 
1121	 0.397701687285115 
1122	 0.398069532907056 
1123	 0.398467234947219 
1124	 0.39884358668923 
1125	 0.399216427713667 
1126	 0.399591798063366 
1127	 0.399959588906614 
1128	 0.400334530370742 
1129	 0.400724594582312 
1130	 0.40109313298936 
1131	 0.401472002335168 
1132	 0.401816485914983 
1133	 0.402132328571716 
1134	 0.402447810359711 
1135	 0.402742333072994 
1136	 0.403029238207464 
1137	 0.403342341530693 
1138	 0.403625399713177 
1139	 0.403917706518661 
1140	 0.404220171731344 
1141	 0.404502029789174 
1142	 0.404769974917483 
1143	 0.405037933379449 
1144	 0.405299211796436 
1145	 0.405552844613621 
1146	 0.40579113224595 
1147	 0.406048082050963 
1148	 0.406304644606914 
1149	 0.406559417104416 
1150	 0.40682461630655 
1151	 0.407099811164043 
1152	 0.407340916667678 
1153	 0.407588557551442 
1154	 0.407831499189747 
1155	 0.40806667177766 
1156	 0.408301771020754 
1157	 0.408546658881981 
1158	 0.408768281537012 
1159	 0.408970484440989 
1160	 0.409185360792657 
1161	 0.409384140150523 
1162	 0.409601243472568 
1163	 0.409834311573274 
1164	 0.410064692207035 
1165	 0.410305161003627 
1166	 0.410542228890643 
1167	 0.410769933819689 
1168	 0.411000173584275 
1169	 0.411204907594419 
1170	 0.411397592060446 
1171	 0.411576686522738 
1172	 0.411726114235358 
1173	 0.411895284056956 
1174	 0.412056806098034 
1175	 0.412229797746894 
1176	 0.412415979748994 
1177	 0.412601393613611 
1178	 0.412798888606151 
1179	 0.412979603500419 
1180	 0.413148317471971 
1181	 0.413325213281341 
1182	 0.413497393831476 
1183	 0.413673187595314 
1184	 0.413839933628699 
1185	 0.414014867808139 
1186	 0.414176317852364 
1187	 0.414321098940052 
1188	 0.414471548815278 
1189	 0.414617208200263 
1190	 0.41477352625268 
1191	 0.414934996676205 
1192	 0.415091184359554 
1193	 0.415261752347054 
1194	 0.415414222241799 
1195	 0.415537893535495 
1196	 0.415684763717749 
1197	 0.415842276115713 
1198	 0.415993298691182 
1199	 0.416146603345578 
1200	 0.41631445785581 
1201	 0.416465008082172 
1202	 0.416603464916674 
1203	 0.416745915448624 
1204	 0.416885989283139 
1205	 0.417028229453785 
1206	 0.417172105831686 
1207	 0.417309912245176 
1208	 0.417434304635252 
1209	 0.417581916213049 
1210	 0.417746197152655 
1211	 0.417894447259878 
1212	 0.418071796021496 
1213	 0.418211023262662 
1214	 0.418307307527209 
1215	 0.418414257741808 
1216	 0.418515800469124 
1217	 0.418594215370564 
1218	 0.418707718773105 
1219	 0.418843930050954 
1220	 0.418958376471756 
1221	 0.419073328928146 
1222	 0.419195318359174 
1223	 0.419322423940802 
1224	 0.419425907647965 
1225	 0.419518878322585 
1226	 0.4196275073663 
1227	 0.419726451322329 
1228	 0.419821495922466 
1229	 0.419933055996003 
1230	 0.420039890860275 
1231	 0.420122042084657 
1232	 0.420216809124862 
1233	 0.420319177125757 
1234	 0.420445082469613 
1235	 0.420540640719969 
1236	 0.420623949155723 
1237	 0.420715336409537 
1238	 0.420792506211139 
1239	 0.420887145077785 
1240	 0.421001398762153 
1241	 0.421099330361809 
1242	 0.421202379289556 
1243	 0.421291128594902 
1244	 0.421360322629099 
1245	 0.421438639968129 
1246	 0.421511237797723 
1247	 0.421588418144103 
1248	 0.421669779585769 
1249	 0.421756122491186 
1250	 0.421835251523496 
1251	 0.421921715814784 
1252	 0.421999754409761 
1253	 0.422081900331672 
1254	 0.422144896854942 
1255	 0.422188116665687 
1256	 0.422250435707898 
1257	 0.422303299116673 
1258	 0.422371218800005 
1259	 0.422459631692076 
1260	 0.422541741106068 
1261	 0.422642421956855 
1262	 0.422712645252739 
1263	 0.422756411225686 
1264	 0.422818110855899 
1265	 0.422879110401588 
1266	 0.422925702715141 
1267	 0.422967152672648 
1268	 0.4230256474861 
1269	 0.423079138286207 
1270	 0.423108762545476 
1271	 0.423167032189507 
1272	 0.423243750567334 
1273	 0.423328977696322 
1274	 0.423425715219376 
1275	 0.423517317655103 
1276	 0.423619862579987 
1277	 0.423725642459333 
1278	 0.423818514660845 
1279	 0.423933927986336 
1280	 0.424087189607927 
1281	 0.424212448882788 
1282	 0.424326224599452 
1283	 0.424444515952227 
1284	 0.424560126417916 
1285	 0.424671078254675 
1286	 0.424763901750837 
1287	 0.424857809423619 
1288	 0.424912243242943 
1289	 0.424928327971691 
1290	 0.42494436034472 
1291	 0.424939834813643 
1292	 0.424939451390744 
1293	 0.424928614049969 
1294	 0.424910612164758 
1295	 0.424902106459481 
1296	 0.424858693547401 
1297	 0.424787998060494 
1298	 0.424719177532714 
1299	 0.424626373995948 
1300	 0.424539124088499 
1301	 0.424462138101583 
1302	 0.424364126708757 
1303	 0.424257569225679 
1304	 0.424137212143732 
1305	 0.424006647568815 
1306	 0.423866278118108 
1307	 0.42370636517329 
1308	 0.423544325120258 
1309	 0.423402018966398 
1310	 0.42326432189481 
1311	 0.42312393488439 
1312	 0.423001427161361 
1313	 0.422865867922708 
1314	 0.422711545985846 
1315	 0.42257052792057 
1316	 0.422418926637087 
1317	 0.42230842746388 
1318	 0.422223528831255 
1319	 0.42213467006157 
1320	 0.422079746984325 
1321	 0.422010650892146 
1322	 0.421928767772312 
1323	 0.421846278543907 
1324	 0.421793629085454 
1325	 0.421746839149942 
1326	 0.421710284146952 
1327	 0.421701429477105 
1328	 0.421667909816778 
1329	 0.421627633545992 
1330	 0.421606132385008 
1331	 0.421566419142475 
1332	 0.421577617479315 
1333	 0.421618033287018 
1334	 0.4216778404175 
1335	 0.421786128009009 
1336	 0.421865798326699 
1337	 0.421951606088136 
1338	 0.422029909134445 
1339	 0.422093821912918 
1340	 0.422165797593025 
1341	 0.42224697907935 
1342	 0.422320409075422 
1343	 0.422395964565119 
1344	 0.422453555927285 
1345	 0.422519047230416 
1346	 0.422603133661506 
1347	 0.422689160180385 
1348	 0.42277407870906 
1349	 0.422827872636542 
1350	 0.422868198524156 
1351	 0.422925603429829 
1352	 0.422972559929626 
1353	 0.423035176858364 
1354	 0.423133094554629 
1355	 0.423185332924253 
1356	 0.423212786910796 
1357	 0.423248962581062 
1358	 0.42326620179358 
1359	 0.423297150951853 
1360	 0.423329697621714 
1361	 0.423377198301796 
1362	 0.423446763672262 
1363	 0.423492437265139 
1364	 0.423563970388462 
1365	 0.423588933912642 
1366	 0.423577236759235 
1367	 0.423548339330778 
1368	 0.423521824903407 
1369	 0.423470539185153 
1370	 0.423404874765731 
1371	 0.423317746793661 
1372	 0.423176948804254 
1373	 0.423007773376343 
1374	 0.422811074498419 
1375	 0.422592572754047 
1376	 0.422322883499843 
1377	 0.422032132060723 
1378	 0.421667116485009 
1379	 0.421250202004865 
1380	 0.420779207401792 
1381	 0.420242710666708 
1382	 0.419666989427005 
1383	 0.419071021553463 
1384	 0.418379346175219 
1385	 0.41766606850992 
1386	 0.416823488169887 
1387	 0.415877882325319 
1388	 0.414847715221198 
1389	 0.413739701780088 
1390	 0.412506611093214 
1391	 0.411176096525076 
1392	 0.409745342535618 
1393	 0.408189189398779 
1394	 0.40655089080811 
1395	 0.404808009769008 
1396	 0.403051811856428 
1397	 0.401310921972277 
1398	 0.39951051622376 
1399	 0.397777141851511 
1400	 0.396056923224037 
1401	 0.39439725363715 
1402	 0.392754920084869 
1403	 0.391186051394212 
1404	 0.389656520404495 
1405	 0.388231513977958 
1406	 0.386849901365451 
1407	 0.3855829062298 
1408	 0.384376391833474 
1409	 0.383337708913221 
1410	 0.382364180070698 
1411	 0.381608886057199 
1412	 0.381010775597836 
1413	 0.380607529457938 
1414	 0.380422264202085 
1415	 0.380390285948056 
1416	 0.38053704433722 
1417	 0.380788732948507 
1418	 0.381114980015054 
1419	 0.381475438199926 
1420	 0.381814380253363 
1421	 0.382157684712996 
1422	 0.382428922006496 
1423	 0.382650600838259 
1424	 0.382824268367353 
1425	 0.382945011209274 
1426	 0.383038411559684 
1427	 0.383077900926044 
1428	 0.383107583332327 
1429	 0.383110612454242 
1430	 0.383097453361198 
1431	 0.383047911579259 
1432	 0.383002567632764 
1433	 0.382937662271923 
1434	 0.382883877338752 
1435	 0.382826347704236 
1436	 0.382779915658005 
1437	 0.382736602953213 
1438	 0.38270031089633 
1439	 0.382673979594301 
1440	 0.382649144579466 
1441	 0.382618917939323 
1442	 0.382585481670883 
1443	 0.382536877206813 
1444	 0.382490785010256 
1445	 0.382481068535507 
1446	 0.382475946613917 
1447	 0.382467317298615 
1448	 0.382479309176927 
1449	 0.382474655949581 
1450	 0.382460024008536 
1451	 0.382450198835801 
1452	 0.382430676052319 
1453	 0.38244615153149 
1454	 0.382476389104124 
1455	 0.382503927311536 
1456	 0.382570695457502 
1457	 0.382602737208926 
1458	 0.38259708482995 
1459	 0.382627771863719 
1460	 0.382658716111506 
1461	 0.38271126661005 
1462	 0.382776020855756 
1463	 0.382870738663636 
1464	 0.382976069515907 
1465	 0.383115319364633 
1466	 0.383295034566046 
1467	 0.383486773477299 
1468	 0.383694356030291 
1469	 0.383934620361945 
1470	 0.384207572326445 
1471	 0.38448851917704 
1472	 0.38478316246732 
1473	 0.385116202616412 
1474	 0.385433543344411 
1475	 0.385770061624934 
1476	 0.386145792180159 
1477	 0.386524161918583 
1478	 0.386951541149036 
1479	 0.387368143371331 
1480	 0.387773979364331 
1481	 0.388202948767221 
1482	 0.388601957527169 
1483	 0.388978703699812 
1484	 0.389367913887275 
1485	 0.389750617817442 
1486	 0.390138323172477 
1487	 0.390530333012226 
1488	 0.390916299279732 
1489	 0.391312260320076 
1490	 0.391679752082887 
1491	 0.392030085177222 
1492	 0.3923860528494 
1493	 0.392708870426557 
1494	 0.393066372365923 
1495	 0.393456610370609 
1496	 0.393826500239029 
1497	 0.394211840331374 
1498	 0.394575512191912 
1499	 0.394919124683682 
1500	 0.395253952942333 
1501	 0.395573279246585 
1502	 0.395896865625654 
1503	 0.396217386971469 
1504	 0.396524308245876 
1505	 0.396840981898592 
1506	 0.39715803668673 
1507	 0.397458271729056 
1508	 0.397765756169352 
1509	 0.398059996895648 
1510	 0.398347804181547 
1511	 0.39863409770728 
1512	 0.398905056520924 
1513	 0.399184645948578 
1514	 0.399472767780233 
1515	 0.399769660669013 
1516	 0.400068215793298 
1517	 0.400341280128866 
1518	 0.400599347584005 
1519	 0.400859512988537 
1520	 0.401099185610698 
1521	 0.401353055578826 
1522	 0.401619708019429 
1523	 0.401880098820503 
1524	 0.40214294222046 
1525	 0.402388421587846 
1526	 0.402624031643038 
1527	 0.402859922346515 
1528	 0.403078019885938 
1529	 0.403309204859922 
1530	 0.403555087080912 
1531	 0.403789534828182 
1532	 0.404017929820307 
1533	 0.404247045945699 
1534	 0.404483589080923 
1535	 0.404699786324032 
1536	 0.404905641789894 
1537	 0.40510668197317 
1538	 0.405287184062287 
1539	 0.405470626487892 
1540	 0.405654997488293 
1541	 0.405839035269245 
1542	 0.406018352638376 
1543	 0.406199388953774 
1544	 0.4063926508897 
1545	 0.406564243471056 
1546	 0.406717606444099 
1547	 0.406876000711439 
1548	 0.40703001371387 
1549	 0.407199089180315 
1550	 0.40740405481113 
1551	 0.407605660232777 
1552	 0.407814951397183 
1553	 0.407997772780517 
1554	 0.408155107135953 
1555	 0.408317151910363 
1556	 0.408471147770223 
1557	 0.408618846032581 
1558	 0.408743832297522 
1559	 0.408859051178875 
1560	 0.408974947682348 
1561	 0.409057097705938 
1562	 0.409192125454607 
1563	 0.409349911440206 
1564	 0.409513201872252 
1565	 0.409707600146536 
1566	 0.409882378390289 
1567	 0.410061587341265 
1568	 0.410228992415285 
1569	 0.410388447155846 
1570	 0.410538414245816 
1571	 0.410686763457905 
1572	 0.410818670617754 
1573	 0.410948166015584 
1574	 0.411045345411485 
1575	 0.411094166524748 
1576	 0.411186236884562 
1577	 0.411290048105269 
1578	 0.411370169529941 
1579	 0.411460600085222 
1580	 0.41154513182629 
1581	 0.41159145422142 
1582	 0.41166430445913 
1583	 0.411759501087292 
1584	 0.411856919301778 
1585	 0.411961269948444 
1586	 0.412057717335892 
1587	 0.412167531933954 
1588	 0.412264534474978 
1589	 0.412350798697955 
1590	 0.412428086548472 
1591	 0.412484668233694 
1592	 0.412563210168891 
1593	 0.412645166337088 
1594	 0.412725731593773 
1595	 0.412825449678825 
1596	 0.412915998448501 
1597	 0.412998583046546 
1598	 0.413076920279257 
1599	 0.413162412460492 
1600	 0.413234832598595 
1601	 0.413287071773656 
1602	 0.413342985578246 
1603	 0.413391215430872 
1604	 0.413443974275678 
1605	 0.413498646792833 
1606	 0.413557311395979 
1607	 0.413629871691937 
1608	 0.413680261433733 
1609	 0.413738373508564 
1610	 0.41380291614773 
1611	 0.413844887594115 
1612	 0.41388021464838 
1613	 0.41389744004343 
1614	 0.413900886315723 
1615	 0.413934621508436 
1616	 0.41396868590502 
1617	 0.414010311670832 
1618	 0.41407940798403 
1619	 0.414114873198619 
1620	 0.414143002331804 
1621	 0.414189464878309 
1622	 0.414236916301545 
1623	 0.414292822421505 
1624	 0.414369821091415 
1625	 0.414421377035265 
1626	 0.41446676907631 
1627	 0.414505988867919 
1628	 0.414529605136071 
1629	 0.414568239269986 
1630	 0.414615552290381 
1631	 0.41464129880341 
1632	 0.414659046991546 
1633	 0.41468501648258 
1634	 0.414702874749419 
1635	 0.414719932934733 
1636	 0.41475234680943 
1637	 0.414757746824047 
1638	 0.414729522814554 
1639	 0.414738642453875 
1640	 0.414758104464906 
1641	 0.41477302797692 
1642	 0.414804451233667 
1643	 0.41482469377746 
1644	 0.414829253276777 
1645	 0.414850896757666 
1646	 0.41488461599672 
1647	 0.414911796909711 
1648	 0.414944533207377 
1649	 0.414966167442576 
1650	 0.414983529753477 
1651	 0.414996444634433 
1652	 0.41500511775571 
1653	 0.415004490772116 
1654	 0.41499584659738 
1655	 0.414987252365832 
1656	 0.414970797424553 
1657	 0.414954243303876 
1658	 0.414925891759395 
1659	 0.414923947554846 
1660	 0.4149389050069 
1661	 0.414935803678328 
1662	 0.414949566970767 
1663	 0.414940703369676 
1664	 0.41489159879837 
1665	 0.414882076879449 
1666	 0.414897535638227 
1667	 0.414888819992355 
1668	 0.414883228999664 
1669	 0.414874635429655 
1670	 0.414850591089209 
1671	 0.414829398995535 
1672	 0.414813697079725 
1673	 0.414797444558095 
1674	 0.414764492640229 
1675	 0.414754949598223 
1676	 0.414768128013785 
1677	 0.414767365874305 
1678	 0.414775643398578 
1679	 0.414767607133826 
1680	 0.414754866570357 
1681	 0.414723514198014 
1682	 0.414669973162288 
1683	 0.414627969020421 
1684	 0.414571507278477 
1685	 0.414529353843254 
1686	 0.41448301513541 
1687	 0.414474586292241 
1688	 0.414503370927556 
1689	 0.414499723817912 
1690	 0.414516644057124 
1691	 0.41450704237251 
1692	 0.414452595565061 
1693	 0.414426185012494 
1694	 0.414419092866305 
1695	 0.414394133297059 
1696	 0.414366061752943 
1697	 0.414330463077669 
1698	 0.414285568649264 
1699	 0.414234568655603 
1700	 0.414164755346597 
1701	 0.414120917695227 
1702	 0.414090277064599 
1703	 0.414045026508868 
1704	 0.414022127572897 
1705	 0.413961658453991 
1706	 0.413857488490815 
1707	 0.413784307604986 
1708	 0.413714291958318 
1709	 0.41364113672155 
1710	 0.413559077819246 
1711	 0.413512756743593 
1712	 0.413479095840959 
1713	 0.413450269424729 
1714	 0.413470476289191 
1715	 0.413448418822475 
1716	 0.413396117036513 
1717	 0.413356360925628 
1718	 0.413321828511651 
1719	 0.413261022488444 
1720	 0.413200311541932 
1721	 0.413110267940785 
1722	 0.412983233373611 
1723	 0.412869752632735 
1724	 0.4127373280356 
1725	 0.412628361845571 
1726	 0.412530845365678 
1727	 0.412425927883884 
1728	 0.412330626063479 
1729	 0.412226248942149 
1730	 0.412123361784698 
1731	 0.412003703770697 
1732	 0.411879882347846 
1733	 0.41173770198805 
1734	 0.411560248961151 
1735	 0.411414410832294 
1736	 0.411278301891912 
1737	 0.411130770416153 
1738	 0.410990393387462 
1739	 0.410851763802677 
1740	 0.410696335105136 
1741	 0.410562897044052 
1742	 0.410457879683396 
1743	 0.410325913642811 
1744	 0.410191402280306 
1745	 0.410043273341041 
1746	 0.409874026986091 
1747	 0.409717702016742 
1748	 0.409573346650419 
1749	 0.409449759387662 
1750	 0.409308807897816 
1751	 0.409158817763412 
1752	 0.409003355892634 
1753	 0.40880868406166 
1754	 0.408623867892931 
1755	 0.408500905850719 
1756	 0.40835926302649 
1757	 0.408197679185329 
1758	 0.40807017975677 
1759	 0.407903499330567 
1760	 0.407706862286902 
1761	 0.407543300591815 
1762	 0.407366446029653 
1763	 0.40715870893866 
1764	 0.406995084381212 
1765	 0.406881435566389 
1766	 0.406798580097568 
1767	 0.406752331563224 
1768	 0.406668688702877 
1769	 0.406562633804471 
1770	 0.40643227799118 
1771	 0.406264368295152 
1772	 0.406135404894533 
1773	 0.405987674161348 
1774	 0.405823362425946 
1775	 0.405691993975319 
1776	 0.405541730294397 
1777	 0.405405060977741 
1778	 0.405320455212611 
1779	 0.405258425108658 
1780	 0.405210236820265 
1781	 0.405152554984092 
1782	 0.405083150238429 
1783	 0.405003888215735 
1784	 0.404912131460605 
1785	 0.404812698323937 
1786	 0.404721018957497 
1787	 0.404599721511048 
1788	 0.404515103869754 
1789	 0.404477807214361 
1790	 0.404414423112476 
1791	 0.404335787457986 
1792	 0.404286482820654 
1793	 0.404258473042817 
1794	 0.404192863664302 
1795	 0.404134791085206 
1796	 0.40407448430243 
1797	 0.403961169042772 
1798	 0.403897472479995 
1799	 0.403858667815372 
1800	 0.403832034844275 
1801	 0.399570872251194 
1802	 0.399610327312197 
1803	 0.399612662713725 
1804	 0.399662920966908 
1805	 0.399723469280906 
1806	 0.399738540733471 
1807	 0.399789519009919 
1808	 0.399845415965251 
1809	 0.399935816367205 
1810	 0.39997843995604 
1811	 0.400022202016737 
1812	 0.400040422816484 
1813	 0.400011788562918 
1814	 0.399982502818553 
1815	 0.39995463192543 
1816	 0.3999212260338 
1817	 0.399884605361361 
1818	 0.399826198115148 
1819	 0.399794497300233 
1820	 0.399770914516396 
1821	 0.399760708774269 
1822	 0.399738542839067 
1823	 0.39971079497171 
1824	 0.399637583236185 
1825	 0.399523700566061 
1826	 0.399429080590852 
1827	 0.39933444631029 
1828	 0.399235160450843 
1829	 0.399152832218059 
1830	 0.399045681739025 
1831	 0.398929065383041 
1832	 0.398791618143355 
1833	 0.398626199354773 
1834	 0.398456748332893 
1835	 0.398280127169825 
1836	 0.398110769473735 
1837	 0.397957189580393 
1838	 0.397799899744603 
1839	 0.397645258280873 
1840	 0.397500791998125 
1841	 0.397332922162911 
1842	 0.397156756803913 
1843	 0.396967001096341 
1844	 0.396727625454202 
1845	 0.396474159498249 
1846	 0.396197928078285 
1847	 0.395924351086651 
1848	 0.395658723392147 
1849	 0.395391263235308 
1850	 0.395134489864483 
1851	 0.394901601092577 
1852	 0.394637081016641 
1853	 0.394368553631877 
1854	 0.394087747761388 
1855	 0.393766151375137 
1856	 0.393434846327223 
1857	 0.393041823809596 
1858	 0.392605889164591 
1859	 0.392130263338339 
1860	 0.391584683485884 
1861	 0.390970748075336 
1862	 0.390322784837088 
1863	 0.389626629376616 
1864	 0.38887608547058 
1865	 0.388095490610426 
1866	 0.387224744844242 
1867	 0.386251022298849 
1868	 0.385204858676306 
1869	 0.384084508084588 
1870	 0.382882659444441 
1871	 0.38158392169587 
1872	 0.380217103494575 
1873	 0.378766779088578 
1874	 0.377203124031443 
1875	 0.375538128478156 
1876	 0.37376556641926 
1877	 0.371847538987907 
1878	 0.369742350818004 
1879	 0.367469451511519 
1880	 0.365028984405931 
1881	 0.362391462073093 
1882	 0.359630989471058 
1883	 0.356727493786817 
1884	 0.353621358790166 
1885	 0.350408136030503 
1886	 0.347070099884592 
1887	 0.34351790907001 
1888	 0.33985543141126 
1889	 0.336067200631151 
1890	 0.332167632032505 
1891	 0.328312311610583 
1892	 0.324351814694679 
1893	 0.320498715542283 
1894	 0.316660156889123 
1895	 0.312899183910498 
1896	 0.309152841478529 
1897	 0.305582162594383 
1898	 0.302127546041388 
1899	 0.298803866264485 
1900	 0.295684462024288 
1901	 0.292753921552313 
1902	 0.290015771715159 
1903	 0.287498582762497 
1904	 0.285130786664328 
1905	 0.282938899761192 
1906	 0.280940475432919 
1907	 0.279095167149126 
1908	 0.277372064445001 
1909	 0.275818730860468 
1910	 0.274375031161954 
1911	 0.273054513968799 
1912	 0.27185166817513 
1913	 0.270741844423186 
1914	 0.269765657200725 
1915	 0.268841602629494 
1916	 0.268006676168377 
1917	 0.26723675571271 
1918	 0.266544457360968 
1919	 0.265894945011287 
1920	 0.2653266653251 
1921	 0.264832868039918 
1922	 0.26439319550359 
1923	 0.26402472119628 
1924	 0.263704161477936 
1925	 0.263429243643904 
1926	 0.263228258942392 
1927	 0.263093498930142 
1928	 0.263009681783335 
1929	 0.26297835005355 
1930	 0.263036756444055 
1931	 0.263113361399887 
1932	 0.263228531284236 
1933	 0.263432189379813 
1934	 0.263645984831283 
1935	 0.26390061236035 
1936	 0.264212947874692 
1937	 0.264544318889674 
1938	 0.264886960133253 
1939	 0.265283503206741 
1940	 0.265729205129727 
1941	 0.2661953734575 
1942	 0.266697402795653 
1943	 0.26725273255967 
1944	 0.267811303248905 
1945	 0.268385514694953 
1946	 0.268974656622759 
1947	 0.269571148978857 
1948	 0.270190496452033 
1949	 0.270842769106315 
1950	 0.271490183435457 
1951	 0.272142784011846 
1952	 0.272812826815709 
1953	 0.273503198576668 
1954	 0.274219895891374 
1955	 0.274946645482182 
1956	 0.275685934228557 
1957	 0.276427064068888 
1958	 0.277147030368343 
1959	 0.277911808872915 
1960	 0.278713437304759 
1961	 0.279513171659222 
1962	 0.280349002631225 
1963	 0.281169352944788 
1964	 0.28198034237912 
1965	 0.282793399731199 
1966	 0.283643939456871 
1967	 0.284467730366407 
1968	 0.285313923626621 
1969	 0.286196474477412 
1970	 0.287038446720964 
1971	 0.287856753444212 
1972	 0.28870231388327 
1973	 0.289537843351625 
1974	 0.290390009610637 
1975	 0.291256169018359 
1976	 0.292142663367672 
1977	 0.29303802950457 
1978	 0.293904466677113 
1979	 0.294771786400907 
1980	 0.295652464995291 
1981	 0.296530807937819 
1982	 0.297401604666688 
1983	 0.298282383531113 
1984	 0.299176637128595 
1985	 0.300061740949982 
1986	 0.300950449136779 
1987	 0.301822617941755 
1988	 0.30268032217657 
1989	 0.303550217354034 
1990	 0.304405236140512 
1991	 0.305277319260192 
1992	 0.306164196323105 
1993	 0.307092266220282 
1994	 0.307973561990097 
1995	 0.308860464624323 
1996	 0.309704632342166 
1997	 0.310497792074132 
1998	 0.311313970654402 
1999	 0.312119658260812 
2000	 0.312923743409893 
2001	 0.313735238858712 
2002	 0.314533570603027 
2003	 0.315339367886108 
2004	 0.316137788237921 
2005	 0.316933387303596 
2006	 0.317749848831018 
2007	 0.318530450941297 
2008	 0.319265943480704 
2009	 0.3200410278657 
2010	 0.320834508911921 
2011	 0.321601292436891 
2012	 0.322380250985017 
2013	 0.323144667807396 
2014	 0.323884117237147 
2015	 0.324605639348233 
2016	 0.325360324226255 
2017	 0.326113159648003 
2018	 0.326859631214937 
2019	 0.327619983852433 
2020	 0.328347260454952 
2021	 0.329051984697173 
2022	 0.329760019981191 
2023	 0.330456844919864 
2024	 0.33114678826231 
2025	 0.331843123637373 
2026	 0.332515483740667 
2027	 0.333170427152839 
2028	 0.333805544934914 
2029	 0.334441934616792 
2030	 0.335063115832529 
2031	 0.335694689928389 
2032	 0.336320917923459 
2033	 0.336955236168526 
2034	 0.337608879404345 
2035	 0.338230923447655 
2036	 0.338850448269635 
2037	 0.339452907856094 
2038	 0.340030486858669 
2039	 0.340600508922987 
2040	 0.341156880568335 
2041	 0.341711121273336 
2042	 0.342251600667494 
2043	 0.342791579333917 
2044	 0.343320845161054 
2045	 0.343848031699159 
2046	 0.344363397814415 
2047	 0.344871146960424 
2048	 0.345363032263851 
2049	 0.345841453241457 
2050	 0.346315437317564 
2051	 0.346767387388189 
2052	 0.347226886430018 
2053	 0.347693613400112 
2054	 0.348147128387076 
2055	 0.348592008219558 
2056	 0.349037533757138 
2057	 0.349471365170989 
2058	 0.349887176372909 
2059	 0.350320962674398 
2060	 0.350759129419544 
2061	 0.351188034074229 
2062	 0.351626727677837 
2063	 0.352048369769458 
2064	 0.352461326456605 
2065	 0.352863238468534 
2066	 0.353243613165164 
2067	 0.353636392540537 
2068	 0.354026695084974 
2069	 0.354407474328165 
2070	 0.354807183758334 
2071	 0.355232457541655 
2072	 0.355623462167206 
2073	 0.356012396039779 
2074	 0.356383085832031 
2075	 0.356724395974379 
2076	 0.357078560685265 
2077	 0.357426614999595 
2078	 0.357779914804213 
2079	 0.35814360563504 
2080	 0.358493070729858 
2081	 0.358844206400686 
2082	 0.359178818068432 
2083	 0.359496261190626 
2084	 0.359811789390753 
2085	 0.360119486918389 
2086	 0.360421106487181 
2087	 0.360711644698633 
2088	 0.360972967710759 
2089	 0.361278443765855 
2090	 0.361601975357127 
2091	 0.361907093613561 
2092	 0.362249111886139 
2093	 0.362549256277221 
2094	 0.36279065770538 
2095	 0.363069446628192 
2096	 0.363359633115365 
2097	 0.363644394996768 
2098	 0.363937896240369 
2099	 0.364239694292704 
2100	 0.364517747854966 
2101	 0.364777261937809 
2102	 0.365042643068352 
2103	 0.365296743654437 
2104	 0.365565414341796 
2105	 0.365815008690539 
2106	 0.366118411258679 
2107	 0.366460485165332 
2108	 0.366790540290237 
2109	 0.36718361460894 
2110	 0.36751368045307 
2111	 0.367793550802685 
2112	 0.368088849246016 
2113	 0.368369861379624 
2114	 0.368638460827268 
2115	 0.368922664917603 
2116	 0.369211955702588 
2117	 0.369520217058368 
2118	 0.369833553439878 
2119	 0.370156104603385 
2120	 0.370496741700749 
2121	 0.370847138631556 
2122	 0.371218530762235 
2123	 0.371564725836335 
2124	 0.371939832972581 
2125	 0.372265105362641 
2126	 0.372560674416044 
2127	 0.372829627329593 
2128	 0.373057814520063 
2129	 0.373282203337012 
2130	 0.373477865729458 
2131	 0.373670846825972 
2132	 0.373850462077139 
2133	 0.374035308863982 
2134	 0.374175965372262 
2135	 0.37428440914768 
2136	 0.374390832446433 
2137	 0.374482359929132 
2138	 0.374543224349326 
2139	 0.374595392689536 
2140	 0.374613701093955 
2141	 0.374580086812596 
2142	 0.374552677924691 
2143	 0.374526718201195 
2144	 0.374465951072358 
2145	 0.374383514984615 
2146	 0.374286462832285 
2147	 0.374189393178563 
2148	 0.37401737240921 
2149	 0.373846547358275 
2150	 0.373661261426578 
2151	 0.373445864795479 
2152	 0.373185706890607 
2153	 0.372938368233014 
2154	 0.372690994160557 
2155	 0.37240981153132 
2156	 0.372118505095535 
2157	 0.371800047483852 
2158	 0.371448808252012 
2159	 0.371081257372193 
2160	 0.37068820598606 
2161	 0.370289443446043 
2162	 0.369862407872917 
2163	 0.369437644671412 
2164	 0.369011378611949 
2165	 0.36858219774462 
2166	 0.368128591328256 
2167	 0.3676635926909 
2168	 0.367186085993478 
2169	 0.366688257898548 
2170	 0.366183109840673 
2171	 0.365695785948241 
2172	 0.365133594207753 
2173	 0.3645307258071 
2174	 0.363909571014463 
2175	 0.363243872903871 
2176	 0.362549785058206 
2177	 0.361845587534796 
2178	 0.361093606484533 
2179	 0.36028642817749 
2180	 0.35945780797724 
2181	 0.358582370770289 
2182	 0.357703858221506 
2183	 0.356797138427436 
2184	 0.355878998038231 
2185	 0.354952740885922 
2186	 0.354004745779256 
2187	 0.353082561256273 
2188	 0.352140968839593 
2189	 0.351248121200712 
2190	 0.350363758311442 
2191	 0.349543366162549 
2192	 0.348736322707785 
2193	 0.3480162277891 
2194	 0.347358151252279 
2195	 0.3467693290475 
2196	 0.346264762175972 
2197	 0.345797484715529 
2198	 0.345380561131777 
2199	 0.345032674603879 
2200	 0.344735415916929 
2201	 0.344504920089774 
2202	 0.344351901217742 
2203	 0.344250855828617 
2204	 0.344234658263074 
2205	 0.344286050491955 
2206	 0.344411251948904 
2207	 0.344607626770087 
2208	 0.344904171194182 
2209	 0.345288823397032 
2210	 0.345733482467809 
2211	 0.346305224051847 
2212	 0.346869316701877 
2213	 0.347509775510145 
2214	 0.348111310374146 
2215	 0.348759909204791 
2216	 0.349347244738471 
2217	 0.349910887081551 
2218	 0.350437834914028 
2219	 0.350917144675887 
2220	 0.351385862946261 
2221	 0.351821316456177 
2222	 0.352256086519399 
2223	 0.352636603123343 
2224	 0.353026103839675 
2225	 0.353329634285781 
2226	 0.353587277132702 
2227	 0.353769848986666 
2228	 0.353871826088525 
2229	 0.353970356743248 
2230	 0.354003246574298 
2231	 0.35404063652709 
2232	 0.35407258388443 
2233	 0.354067861678299 
2234	 0.354016452676722 
2235	 0.353974134809649 
2236	 0.353912448615922 
2237	 0.353849692775559 
2238	 0.353775794303105 
2239	 0.353708055440083 
2240	 0.353639164702159 
2241	 0.353563425332264 
2242	 0.353501088303688 
2243	 0.353419115506536 
2244	 0.353337466653117 
2245	 0.353221392435211 
2246	 0.353081250742612 
2247	 0.352902347909654 
2248	 0.352727714826553 
2249	 0.352521658571918 
2250	 0.352328205782984 
2251	 0.352132779918073 
2252	 0.351943162941822 
2253	 0.35173784919575 
2254	 0.351560313693601 
2255	 0.351401871213667 
2256	 0.351249420465932 
2257	 0.351098379345931 
2258	 0.350979483462054 
2259	 0.350887208714277 
2260	 0.350787800250303 
2261	 0.350695605399012 
2262	 0.350629088365799 
2263	 0.350569626278626 
2264	 0.350529988914677 
2265	 0.350530867461778 
2266	 0.350526060393896 
2267	 0.350532367324401 
2268	 0.350530276583478 
2269	 0.350537065143559 
2270	 0.350537186614871 
2271	 0.350509447490469 
2272	 0.350473395941429 
2273	 0.350441255889917 
2274	 0.350429999703868 
2275	 0.350419977022246 
2276	 0.350423957969605 
2277	 0.35043591600595 
2278	 0.350445343119689 
2279	 0.350474202533416 
2280	 0.350539040511644 
2281	 0.350573862340087 
2282	 0.350626618818273 
2283	 0.350628216656679 
2284	 0.350590312972274 
2285	 0.35055746645761 
2286	 0.3504871138761 
2287	 0.350432962111015 
2288	 0.350359007318358 
2289	 0.350334552555996 
2290	 0.350362461490366 
2291	 0.350345730739813 
2292	 0.350344418504501 
2293	 0.350334201955183 
2294	 0.35027860686334 
2295	 0.350231567644198 
2296	 0.350191810667769 
2297	 0.350173168583437 
2298	 0.350117555735589 
2299	 0.350063023265273 
2300	 0.349997498956876 
2301	 0.349889121313935 
2302	 0.349782259655938 
2303	 0.349668121501783 
2304	 0.349534943720881 
2305	 0.349402230823551 
2306	 0.349268700377337 
2307	 0.349131002626103 
2308	 0.348953753035579 
2309	 0.348776478674107 
2310	 0.348575096943479 
2311	 0.348326356045723 
2312	 0.348077564080386 
2313	 0.347831871805498 
2314	 0.34754298170831 
2315	 0.347176409110716 
2316	 0.346899961252038 
2317	 0.346668937183186 
2318	 0.346394829300434 
2319	 0.34615088877562 
2320	 0.345875243114481 
2321	 0.345523155121736 
2322	 0.345230966041005 
2323	 0.344987352188203 
2324	 0.344718615727395 
2325	 0.34445775537198 
2326	 0.344183999659926 
2327	 0.343891857170768 
2328	 0.343605532970198 
2329	 0.343327661309987 
2330	 0.343044829020976 
2331	 0.342732233586985 
2332	 0.342418816623054 
2333	 0.342114074890249 
2334	 0.341785421644593 
2335	 0.341496158276611 
2336	 0.341218960329249 
2337	 0.340897667480148 
2338	 0.34060100597809 
2339	 0.340260372486195 
2340	 0.339828894075178 
2341	 0.339470833882017 
2342	 0.339103110874952 
2343	 0.338683807062723 
2344	 0.338362512977665 
2345	 0.338001432616746 
2346	 0.337575505890778 
2347	 0.337229839430386 
2348	 0.336947969759936 
2349	 0.33663468625365 
2350	 0.336368073512005 
2351	 0.336064665812921 
2352	 0.335707333767698 
2353	 0.335374347444033 
2354	 0.335001800535854 
2355	 0.334708496645437 
2356	 0.334488408046716 
2357	 0.334258244067518 
2358	 0.334077580438561 
2359	 0.333887113227223 
2360	 0.33369510841456 
2361	 0.33346686581993 
2362	 0.333267514830969 
2363	 0.33301462582159 
2364	 0.332673588399456 
2365	 0.332378930520721 
2366	 0.332100845199165 
2367	 0.331764495573038 
2368	 0.331414317042806 
2369	 0.331071271514873 
2370	 0.330690103574645 
2371	 0.330328794968714 
2372	 0.329958365033617 
2373	 0.329554361879968 
2374	 0.329128052110617 
2375	 0.328650753625257 
2376	 0.328215167073357 
2377	 0.327788729375166 
2378	 0.32736733497347 
2379	 0.326944497469268 
2380	 0.326498778628276 
2381	 0.325963256226783 
2382	 0.325434954784764 
2383	 0.325069798118866 
2384	 0.324689408617208 
2385	 0.324287239295416 
2386	 0.323822597190867 
2387	 0.323188083558618 
2388	 0.322521755955769 
2389	 0.321939416466277 
2390	 0.321421574561322 
2391	 0.3209276615621 
2392	 0.320476118852944 
2393	 0.320058882605336 
2394	 0.319640430490433 
2395	 0.319199073581149 
2396	 0.318735684969313 
2397	 0.318246743840901 
2398	 0.317672995864235 
2399	 0.317096263359699 
2400	 0.316536756766652 
2401	 0.315902644476945 
2402	 0.315343057475371 
2403	 0.314782052897031 
2404	 0.314099239564048 
2405	 0.313463627681858 
2406	 0.312816748529017 
2407	 0.31212084103457 
2408	 0.311550636284641 
2409	 0.311017906704781 
2410	 0.310434383924735 
2411	 0.309868579665633 
2412	 0.309262260712531 
2413	 0.308553263653641 
2414	 0.307742684010892 
2415	 0.30692118384327 
2416	 0.306112883437838 
2417	 0.305212275334068 
2418	 0.304439052377693 
2419	 0.303786891687117 
2420	 0.303059052206326 
2421	 0.30236563609464 
2422	 0.301630354029787 
2423	 0.300806142237384 
2424	 0.300059610133694 
2425	 0.299342517745174 
2426	 0.298601821777948 
2427	 0.297919506822995 
2428	 0.297216132568486 
2429	 0.296462266686531 
2430	 0.295764639815836 
2431	 0.295061289868428 
2432	 0.294425129884484 
2433	 0.293888569126287 
2434	 0.293264216467571 
2435	 0.29269635858354 
2436	 0.292029635886948 
2437	 0.291200444098025 
2438	 0.290482234147168 
2439	 0.289767681992866 
2440	 0.289073666775146 
2441	 0.288415050403227 
2442	 0.287774574875121 
2443	 0.287210484893273 
2444	 0.286596891440958 
2445	 0.285959941250156 
2446	 0.285412463182426 
2447	 0.284835465079972 
2448	 0.284236026247839 
2449	 0.283754176016617 
2450	 0.283129127283804 
2451	 0.282425388541913 
2452	 0.281804012340316 
2453	 0.281143569715637 
2454	 0.28055790197128 
2455	 0.279988052123885 
2456	 0.279382814271272 
2457	 0.278808286790503 
2458	 0.278176686129772 
2459	 0.277564023294649 
2460	 0.276927846925596 
2461	 0.276221712026192 
2462	 0.275600213963132 
2463	 0.274901934251217 
2464	 0.274351295841034 
2465	 0.274088850024792 
2466	 0.273558601467803 
2467	 0.272875904318704 
2468	 0.272423446882313 
2469	 0.271923439366713 
2470	 0.271572785748485 
2471	 0.271254763253791 
2472	 0.270608589557005 
2473	 0.269777014292534 
2474	 0.269068723862005 
2475	 0.268603386671209 
2476	 0.268255531591209 
2477	 0.267807156428806 
2478	 0.267217011516444 
2479	 0.266509211434942 
2480	 0.265822086394337 
2481	 0.265235933464593 
2482	 0.264693982136498 
2483	 0.264103509916458 
2484	 0.263491683724482 
2485	 0.262971175345774 
2486	 0.262584912130624 
2487	 0.262326935216016 
2488	 0.262000087352158 
2489	 0.261727726653435 
2490	 0.261432005516359 
2491	 0.260879017069027 
2492	 0.260381455856315 
2493	 0.259883811167391 
2494	 0.259262011866095 
2495	 0.258740154438651 
2496	 0.258316050926128 
2497	 0.257843310145485 
2498	 0.257296530784853 
2499	 0.256876087788734 
2500	 0.256546840595102 
