Wavelength	LMW500007.asd
350	 7.91465892840923E-02 
351	 7.47637105071164E-02 
352	 6.99664594835048E-02 
353	 0.070678718284979 
354	 7.58610055437349E-02 
355	 8.05117777553009E-02 
356	 8.09858530780334E-02 
357	 7.75493856748804E-02 
358	 8.40841614933801E-02 
359	 8.19291466094882E-02 
360	 0.07526160809825 
361	 8.09334804411501E-02 
362	 7.87055000349921E-02 
363	 7.55731329075869E-02 
364	 7.56407878352996E-02 
365	 7.29571135525735E-02 
366	 7.70340228738392E-02 
367	 8.31780343350797E-02 
368	 8.49104085554628E-02 
369	 8.55906522520428E-02 
370	 8.37666197092717E-02 
371	 8.25789807296893E-02 
372	 8.72316577912074E-02 
373	 8.91647263543617E-02 
374	 8.86340981046525E-02 
375	 8.75853561875465E-02 
376	 0.088614455170165 
377	 9.01875461148867E-02 
378	 0.091495674797189 
379	 9.22217697258225E-02 
380	 9.35796438180364E-02 
381	 9.30185718900396E-02 
382	 9.30080897006795E-02 
383	 9.87736175127579E-02 
384	 9.97307711420834E-02 
385	 9.89535907196518E-02 
386	 9.98004141670197E-02 
387	 0.102382334265549 
388	 0.10425097705972 
389	 0.105415904766797 
390	 0.106611231839035 
391	 0.107248701819077 
392	 0.110032541760026 
393	 0.114084698387893 
394	 0.115601592867825 
395	 0.115089087431959 
396	 0.115578818941403 
397	 0.118368752552954 
398	 0.120301000194195 
399	 0.122635257623406 
400	 0.124854780292232 
401	 0.126209934091588 
402	 0.128131188306957 
403	 0.12968720046652 
404	 0.130906736833372 
405	 0.132855624184573 
406	 0.134043334893858 
407	 0.135574491460349 
408	 0.137864789307513 
409	 0.138221095840817 
410	 0.138829810586365 
411	 0.140302807074876 
412	 0.142288276645031 
413	 0.143549977144416 
414	 0.144107800023615 
415	 0.14435795759808 
416	 0.144959448899916 
417	 0.145832716863388 
418	 0.146548185608736 
419	 0.146823720345478 
420	 0.147200422535957 
421	 0.147214153383806 
422	 0.147355077287484 
423	 0.148465287139089 
424	 0.148011780970292 
425	 0.147648851235582 
426	 0.148183044874783 
427	 0.147946136938285 
428	 0.147533979473042 
429	 0.147172608288428 
430	 0.146980754608799 
431	 0.147057102891924 
432	 0.146865545181694 
433	 0.146587123487741 
434	 0.147055199426951 
435	 0.147399050206662 
436	 0.147632299516056 
437	 0.147924100893591 
438	 0.14832552784143 
439	 0.149130037352395 
440	 0.150232407009127 
441	 0.151327030167662 
442	 0.152332238567258 
443	 0.153397039771174 
444	 0.154493878265997 
445	 0.155257036789561 
446	 0.156585569021481 
447	 0.158039792364378 
448	 0.159031413657584 
449	 0.160081452623823 
450	 0.161452843884466 
451	 0.162865432834715 
452	 0.16365778745646 
453	 0.164748786196873 
454	 0.166048524115673 
455	 0.167288928595189 
456	 0.168225309691102 
457	 0.169077283449347 
458	 0.169915756316036 
459	 0.170743341642377 
460	 0.171607887808536 
461	 0.172326572257948 
462	 0.17293671493533 
463	 0.173810186584519 
464	 0.174441969995716 
465	 0.175074483611982 
466	 0.175966761204288 
467	 0.176593042704912 
468	 0.177104079695441 
469	 0.177617619075452 
470	 0.178192964533689 
471	 0.17855943583964 
472	 0.178990841065358 
473	 0.179634628741878 
474	 0.180131300686392 
475	 0.180591757264315 
476	 0.181074690209074 
477	 0.181604624153079 
478	 0.182066779609969 
479	 0.182579761789684 
480	 0.183120662802583 
481	 0.183434450947731 
482	 0.18412293894933 
483	 0.184940203901359 
484	 0.185484337920779 
485	 0.18573252416902 
486	 0.18619316467659 
487	 0.18682787330546 
488	 0.187162846612935 
489	 0.187527830642626 
490	 0.18808801827913 
491	 0.188791026722998 
492	 0.189116251496884 
493	 0.189485364877478 
494	 0.18998627451926 
495	 0.190546295311028 
496	 0.191158528546484 
497	 0.191647534491065 
498	 0.192023874463438 
499	 0.192584416841101 
500	 0.193273265748701 
501	 0.193816720435638 
502	 0.194059392127524 
503	 0.194655724654916 
504	 0.195259218865295 
505	 0.195724584882375 
506	 0.196131623956256 
507	 0.196681070066991 
508	 0.197256175873711 
509	 0.197734857875287 
510	 0.198152471223126 
511	 0.198610017289466 
512	 0.199115876429257 
513	 0.199625678798247 
514	 0.200133838703557 
515	 0.200587093794862 
516	 0.201007448423201 
517	 0.201555169949584 
518	 0.202060094005271 
519	 0.202505894175742 
520	 0.2029500213059 
521	 0.203563819989914 
522	 0.204047914700419 
523	 0.204363305489233 
524	 0.204764733548235 
525	 0.205178729484382 
526	 0.205647514233098 
527	 0.206190595355258 
528	 0.206704145289305 
529	 0.20717833621955 
530	 0.20762331075007 
531	 0.208064463148508 
532	 0.208511433062019 
533	 0.209014146701134 
534	 0.209567968440839 
535	 0.210050025251749 
536	 0.210490261854114 
537	 0.210924474290084 
538	 0.211391457949783 
539	 0.21190516097087 
540	 0.21241728142647 
541	 0.212908664060316 
542	 0.213405261216691 
543	 0.213855243107283 
544	 0.21430996606111 
545	 0.214829312842667 
546	 0.215416901137289 
547	 0.215821691196092 
548	 0.216153730810728 
549	 0.216802655440871 
550	 0.217325642075945 
551	 0.21780688766899 
552	 0.218377102420919 
553	 0.219042227040777 
554	 0.219652483823175 
555	 0.220235041393887 
556	 0.220891540237966 
557	 0.221455097436895 
558	 0.222044239359255 
559	 0.222710259265593 
560	 0.223337314329429 
561	 0.223913156474654 
562	 0.224440468774846 
563	 0.224960974052557 
564	 0.225664281979471 
565	 0.226329277310431 
566	 0.226912553359809 
567	 0.227594809170663 
568	 0.228331221320089 
569	 0.229099794249376 
570	 0.229892925324261 
571	 0.230760825006478 
572	 0.231582582861173 
573	 0.232316548523981 
574	 0.232986164070421 
575	 0.2336574673751 
576	 0.234379396615972 
577	 0.235154091909975 
578	 0.235900377755529 
579	 0.236607526875951 
580	 0.237339494136261 
581	 0.238176371717442 
582	 0.239032685198314 
583	 0.239895615094368 
584	 0.240769050013514 
585	 0.241678085849577 
586	 0.242497866997441 
587	 0.243265343933351 
588	 0.244045830375408 
589	 0.244785989925083 
590	 0.245584578100147 
591	 0.246397266052758 
592	 0.247062922389605 
593	 0.247839136808318 
594	 0.248623307262688 
595	 0.249339122435692 
596	 0.250169800805623 
597	 0.251126599871321 
598	 0.252104796238767 
599	 0.252944326890511 
600	 0.253615961927791 
601	 0.254294289726093 
602	 0.255057685708614 
603	 0.255784159106959 
604	 0.256375184770022 
605	 0.256962008905308 
606	 0.25769565165254 
607	 0.258320056055438 
608	 0.25889099737144 
609	 0.25951541414749 
610	 0.260331322522899 
611	 0.26104572334001 
612	 0.261700423635611 
613	 0.262371926646458 
614	 0.262962368473032 
615	 0.263514510051337 
616	 0.264070307094965 
617	 0.264657500544463 
618	 0.265174320882148 
619	 0.265629211088206 
620	 0.266068232775325 
621	 0.266582307534438 
622	 0.267075048210282 
623	 0.267524034419018 
624	 0.267945187494862 
625	 0.268393695337042 
626	 0.268826998791644 
627	 0.269244162272032 
628	 0.269710063271263 
629	 0.270161409221371 
630	 0.270609769667357 
631	 0.271059817083998 
632	 0.271399751504526 
633	 0.271754937064314 
634	 0.272188420368017 
635	 0.272694509392094 
636	 0.273089636670175 
637	 0.273455305903116 
638	 0.273867996272896 
639	 0.274268176458377 
640	 0.274673260730349 
641	 0.275096605297072 
642	 0.275544048570461 
643	 0.275984592919625 
644	 0.276377178959998 
645	 0.276738289491123 
646	 0.277166632575587 
647	 0.277591363740416 
648	 0.277999061593864 
649	 0.278401146921943 
650	 0.278833422335689 
651	 0.27933130482825 
652	 0.279818123673194 
653	 0.280142068300559 
654	 0.280593258896324 
655	 0.281034836835647 
656	 0.281374947740363 
657	 0.281834669001338 
658	 0.282298207853738 
659	 0.282747379816765 
660	 0.283199122331581 
661	 0.283581763805262 
662	 0.284070817134445 
663	 0.284677153252799 
664	 0.285145241306661 
665	 0.285538176956092 
666	 0.285941890655471 
667	 0.286418179617471 
668	 0.286868467757451 
669	 0.287368106111017 
670	 0.287885210785414 
671	 0.28830434212698 
672	 0.288739734298669 
673	 0.289245090112688 
674	 0.289803084755238 
675	 0.290251877228803 
676	 0.290749550267335 
677	 0.291253342378158 
678	 0.291669973170736 
679	 0.292205400634621 
680	 0.292706687410224 
681	 0.293146686114455 
682	 0.293701759082604 
683	 0.294203157357712 
684	 0.29465096274908 
685	 0.295110518389797 
686	 0.295724932314796 
687	 0.296248969723404 
688	 0.296689496918252 
689	 0.297228115292031 
690	 0.297791517368556 
691	 0.29829427276336 
692	 0.298735530318607 
693	 0.299292358390759 
694	 0.299811341049779 
695	 0.300317426893519 
696	 0.300862233140116 
697	 0.301254985244236 
698	 0.301763893470926 
699	 0.302393357549623 
700	 0.302854807796391 
701	 0.303373139834481 
702	 0.303881590319525 
703	 0.304325680839522 
704	 0.304857520660415 
705	 0.305391454362805 
706	 0.305902629842103 
707	 0.306394941112965 
708	 0.30683620902954 
709	 0.307290081108861 
710	 0.307779959990139 
711	 0.308257365971208 
712	 0.308779046026161 
713	 0.309271188682674 
714	 0.309674343739217 
715	 0.310117475826347 
716	 0.310562024274539 
717	 0.31101387925243 
718	 0.311500868672645 
719	 0.311895700859684 
720	 0.312272821964098 
721	 0.312677223134167 
722	 0.313034163313824 
723	 0.313429694952233 
724	 0.313855157564089 
725	 0.314260971282315 
726	 0.314575495660421 
727	 0.314876521253272 
728	 0.315193760294008 
729	 0.315504236663038 
730	 0.315823065194154 
731	 0.316118475409223 
732	 0.31637215597639 
733	 0.31660886838224 
734	 0.316900521228571 
735	 0.317188774595103 
736	 0.317383538873234 
737	 0.317575075612803 
738	 0.317773235610979 
739	 0.31796870497961 
740	 0.31813798745287 
741	 0.318276169681872 
742	 0.318442795907804 
743	 0.318644684204867 
744	 0.318707299516964 
745	 0.318753158974819 
746	 0.318814278326721 
747	 0.318880726961486 
748	 0.318972825921186 
749	 0.319053609945687 
750	 0.319092672437576 
751	 0.319075669456143 
752	 0.31910731715984 
753	 0.319096212014117 
754	 0.318997034364043 
755	 0.319046062552084 
756	 0.319035932641371 
757	 0.318960879917916 
758	 0.31890796839014 
759	 0.318806751209898 
760	 0.318720430782934 
761	 0.3186505920763 
762	 0.318510115475599 
763	 0.318448429557671 
764	 0.318340121468 
765	 0.318112461327133 
766	 0.318047320838866 
767	 0.317917675712161 
768	 0.317743515409435 
769	 0.317642464582904 
770	 0.317463387149281 
771	 0.317272479868318 
772	 0.3171045214295 
773	 0.316933235444268 
774	 0.316758368247241 
775	 0.31661522085653 
776	 0.316505847600273 
777	 0.316324943137083 
778	 0.316099963457192 
779	 0.315854077259429 
780	 0.315611076646343 
781	 0.3153855073041 
782	 0.315206905165428 
783	 0.315031289143198 
784	 0.31474991090934 
785	 0.314570125918138 
786	 0.314439163151798 
787	 0.314275042249227 
788	 0.314058374504324 
789	 0.313764920318087 
790	 0.313507752968437 
791	 0.313396062081589 
792	 0.313238012754379 
793	 0.313027580273345 
794	 0.312783003413783 
795	 0.312541195438383 
796	 0.312381350058747 
797	 0.312233197663593 
798	 0.312029816742403 
799	 0.311752311933468 
800	 0.311541777367732 
801	 0.311389261753667 
802	 0.311223925689833 
803	 0.310930191349718 
804	 0.310786567747916 
805	 0.310734024735972 
806	 0.310523544669965 
807	 0.310318804785041 
808	 0.310069463253525 
809	 0.309807371508604 
810	 0.30968923045987 
811	 0.309599449363698 
812	 0.309503222157394 
813	 0.30937006985331 
814	 0.30912447408529 
815	 0.308883376720367 
816	 0.308704718520965 
817	 0.308596147903736 
818	 0.308458831669714 
819	 0.308348027023747 
820	 0.308262068845537 
821	 0.308142622734014 
822	 0.307942260040023 
823	 0.307774640158565 
824	 0.307682050771732 
825	 0.307551106882212 
826	 0.307406398200068 
827	 0.307297158863816 
828	 0.307233112390362 
829	 0.307077426465387 
830	 0.306869436105602 
831	 0.306678028253019 
832	 0.306576323826062 
833	 0.306568856712806 
834	 0.30653083262187 
835	 0.306444102490474 
836	 0.306389289816605 
837	 0.306205099088053 
838	 0.306096436262423 
839	 0.306124231635119 
840	 0.306008499681318 
841	 0.305929780746013 
842	 0.305824154224917 
843	 0.305646716490729 
844	 0.305617157855054 
845	 0.305587117629597 
846	 0.30556847671876 
847	 0.305613873673737 
848	 0.305562064642167 
849	 0.305484254453373 
850	 0.30544583517426 
851	 0.305471203360769 
852	 0.305347626034959 
853	 0.305261067118988 
854	 0.305287474200193 
855	 0.305262608089453 
856	 0.305287415013138 
857	 0.305297819580507 
858	 0.30525150459972 
859	 0.305254586930444 
860	 0.305270342175684 
861	 0.305243814845013 
862	 0.305173454487513 
863	 0.305320642651446 
864	 0.305388054153497 
865	 0.305368369799018 
866	 0.305416183624296 
867	 0.305353444871764 
868	 0.30537667552273 
869	 0.305525096176984 
870	 0.305639087538672 
871	 0.305572833419395 
872	 0.305481993058635 
873	 0.305528702705801 
874	 0.305787898292911 
875	 0.305893331554158 
876	 0.305927499554454 
877	 0.306014479184549 
878	 0.306049937713436 
879	 0.306205616441316 
880	 0.306330212192089 
881	 0.306272390824746 
882	 0.30636464145619 
883	 0.306516288483875 
884	 0.306652807448639 
885	 0.30673705711755 
886	 0.306874858429198 
887	 0.307013393611073 
888	 0.307109023921377 
889	 0.307157874905864 
890	 0.307344062590538 
891	 0.307538927835095 
892	 0.307686417414719 
893	 0.307868989675327 
894	 0.307988090649619 
895	 0.308061180470769 
896	 0.308166373057491 
897	 0.308440600330399 
898	 0.308704513802063 
899	 0.308910827984198 
900	 0.309064383425676 
901	 0.309197699930203 
902	 0.309330621534631 
903	 0.309529386671458 
904	 0.309826173877997 
905	 0.31008674787272 
906	 0.310374182879106 
907	 0.310624793711467 
908	 0.310759288753966 
909	 0.310925664587245 
910	 0.31114520239301 
911	 0.311352406080825 
912	 0.311483706883788 
913	 0.311883848283253 
914	 0.312164916893274 
915	 0.312310163130339 
916	 0.312640900483035 
917	 0.312827924918598 
918	 0.313095685849501 
919	 0.313493021701833 
920	 0.313800942758734 
921	 0.314117691752657 
922	 0.314353984353232 
923	 0.314548977248176 
924	 0.314947401223888 
925	 0.31529477400318 
926	 0.315626183699166 
927	 0.315978774500507 
928	 0.31627764521585 
929	 0.316734636423431 
930	 0.317149291949038 
931	 0.31738328485735 
932	 0.317691375690374 
933	 0.317934654038105 
934	 0.318207231085259 
935	 0.318603084042022 
936	 0.31903685479619 
937	 0.319398957000689 
938	 0.319710112068142 
939	 0.320049343741848 
940	 0.320506564353651 
941	 0.320918865535032 
942	 0.321340408097291 
943	 0.321846795527254 
944	 0.322221750741161 
945	 0.322693814702148 
946	 0.323146290805241 
947	 0.323404703051306 
948	 0.323792526845752 
949	 0.324172610336106 
950	 0.324552617833048 
951	 0.325005449651309 
952	 0.325501805261857 
953	 0.326033464952487 
954	 0.326447098610514 
955	 0.32664423992205 
956	 0.327202584576554 
957	 0.327764125012934 
958	 0.328238336209365 
959	 0.328725129548358 
960	 0.329190144635113 
961	 0.329568449405928 
962	 0.329965920864255 
963	 0.330532960868846 
964	 0.331013640829887 
965	 0.331499640153195 
966	 0.33205858283093 
967	 0.332689445114742 
968	 0.333199403237796 
969	 0.333737664989752 
970	 0.334287558484356 
971	 0.334747178486523 
972	 0.33532724852885 
973	 0.335940328964032 
974	 0.336550913234401 
975	 0.337159769738757 
976	 0.337667793088214 
977	 0.338191800300333 
978	 0.33878626630426 
979	 0.339418368762762 
980	 0.339924270753507 
981	 0.340290840875748 
982	 0.340766472483675 
983	 0.341592462127318 
984	 0.342192977324398 
985	 0.342711813678036 
986	 0.343249431208662 
987	 0.343830323925906 
988	 0.344356521719253 
989	 0.34493213756968 
990	 0.345511872941955 
991	 0.346015830827177 
992	 0.34661017974933 
993	 0.347074970534816 
994	 0.347602960349739 
995	 0.348388412609807 
996	 0.348829859394208 
997	 0.349445921821609 
998	 0.350195354282488 
999	 0.35084903161793 
1000	 0.351429649275803 
1001	 0.353661829475789 
1002	 0.354151209779239 
1003	 0.354630037954954 
1004	 0.355154215570837 
1005	 0.355748955722069 
1006	 0.356289683074278 
1007	 0.356815482287049 
1008	 0.357383864740161 
1009	 0.357880239633417 
1010	 0.35834720120832 
1011	 0.358847041182978 
1012	 0.359339669663428 
1013	 0.359869772498107 
1014	 0.36039622475836 
1015	 0.360846056127183 
1016	 0.361271746305735 
1017	 0.361704907784047 
1018	 0.362102853984218 
1019	 0.362498375318479 
1020	 0.36295168964454 
1021	 0.363444134892174 
1022	 0.363939148675349 
1023	 0.364392390399242 
1024	 0.36484179260081 
1025	 0.365286521153961 
1026	 0.365713291695515 
1027	 0.366127408955426 
1028	 0.366526200769656 
1029	 0.366911929965124 
1030	 0.367245437046317 
1031	 0.367631657802075 
1032	 0.368038464809212 
1033	 0.368515962109718 
1034	 0.368991509329152 
1035	 0.369446543568268 
1036	 0.369923666071164 
1037	 0.370352900579933 
1038	 0.370664586390067 
1039	 0.371047530206178 
1040	 0.371445385870113 
1041	 0.371789435400548 
1042	 0.372233793816254 
1043	 0.372700965658549 
1044	 0.373138811928821 
1045	 0.373560702393948 
1046	 0.374007335139341 
1047	 0.374408417263145 
1048	 0.374781850035794 
1049	 0.375162328207555 
1050	 0.375583746322987 
1051	 0.376040875823375 
1052	 0.376425598072087 
1053	 0.376855483124666 
1054	 0.377294688587186 
1055	 0.377624224294954 
1056	 0.377995504487899 
1057	 0.378358433482914 
1058	 0.378659523141067 
1059	 0.37899617883885 
1060	 0.379370824935618 
1061	 0.379736989771859 
1062	 0.380044178233552 
1063	 0.380334747829693 
1064	 0.380648619964431 
1065	 0.380972155482397 
1066	 0.381303105625589 
1067	 0.381589555249139 
1068	 0.381837353151124 
1069	 0.382093350520219 
1070	 0.382362282887629 
1071	 0.382655614050302 
1072	 0.382939594035364 
1073	 0.383247656153518 
1074	 0.383497761805588 
1075	 0.383717837602654 
1076	 0.383908304285828 
1077	 0.384130855318017 
1078	 0.384333459254929 
1079	 0.384561509556363 
1080	 0.384778495824871 
1081	 0.384905850481151 
1082	 0.38504014698888 
1083	 0.385203297583275 
1084	 0.385358400619583 
1085	 0.38554219811802 
1086	 0.385753517923449 
1087	 0.385966664071661 
1088	 0.386196265682671 
1089	 0.386411120448959 
1090	 0.386600263467982 
1091	 0.386800181138135 
1092	 0.387003890424738 
1093	 0.387213625658106 
1094	 0.387442638771818 
1095	 0.387652873247175 
1096	 0.387862658567802 
1097	 0.388078011127708 
1098	 0.388319232788487 
1099	 0.388597848579314 
1100	 0.388878270792128 
1101	 0.389171573733027 
1102	 0.389454664466546 
1103	 0.389755488085025 
1104	 0.390031389819145 
1105	 0.390268786651045 
1106	 0.39054516592897 
1107	 0.390812732625393 
1108	 0.391086262826112 
1109	 0.391400178167981 
1110	 0.391705459622906 
1111	 0.392034918923486 
1112	 0.392379983162314 
1113	 0.392734238103892 
1114	 0.393123114989844 
1115	 0.393480113304305 
1116	 0.39381799402148 
1117	 0.394177263684379 
1118	 0.394527005179357 
1119	 0.394891173287973 
1120	 0.395311316941987 
1121	 0.39570852207375 
1122	 0.396060671939306 
1123	 0.39639870337297 
1124	 0.396754769581703 
1125	 0.397075475846532 
1126	 0.397446549928191 
1127	 0.397877537456851 
1128	 0.398259409061834 
1129	 0.398634314892158 
1130	 0.398991156574525 
1131	 0.399319409016306 
1132	 0.399660489899304 
1133	 0.400022300148413 
1134	 0.400344016739352 
1135	 0.400654398510581 
1136	 0.400938223416638 
1137	 0.401194857827057 
1138	 0.401459794509593 
1139	 0.401754398206931 
1140	 0.402087300000564 
1141	 0.402373301027553 
1142	 0.402658230092264 
1143	 0.402935143808722 
1144	 0.403182698924501 
1145	 0.403439631031686 
1146	 0.403701836891161 
1147	 0.403960771966386 
1148	 0.404208186749635 
1149	 0.404464193410155 
1150	 0.40473414158732 
1151	 0.405003670054986 
1152	 0.40523590280529 
1153	 0.405459689257879 
1154	 0.40567999695495 
1155	 0.405863942101539 
1156	 0.406088087929786 
1157	 0.406337723059423 
1158	 0.406568640469615 
1159	 0.406812863613347 
1160	 0.407037242212642 
1161	 0.407244060081047 
1162	 0.407453638598 
1163	 0.407646683651001 
1164	 0.407855486874164 
1165	 0.408072171409757 
1166	 0.408286744157902 
1167	 0.4085098268787 
1168	 0.408754511823216 
1169	 0.408976089049622 
1170	 0.409207344429958 
1171	 0.409399423449921 
1172	 0.409558908447514 
1173	 0.409735711606434 
1174	 0.409894974332472 
1175	 0.410066747157394 
1176	 0.41025474734028 
1177	 0.410432776298122 
1178	 0.410587213683065 
1179	 0.410770592191358 
1180	 0.410994699615019 
1181	 0.41118054675529 
1182	 0.411357972036051 
1183	 0.411542544367914 
1184	 0.411703277115643 
1185	 0.411819397786653 
1186	 0.411976405960064 
1187	 0.412150461206047 
1188	 0.412313304465248 
1189	 0.412485181414238 
1190	 0.412644026379731 
1191	 0.41279163904383 
1192	 0.412943384401501 
1193	 0.413092243970045 
1194	 0.413241114258423 
1195	 0.413390184313142 
1196	 0.413539359532545 
1197	 0.413692684294826 
1198	 0.413836882442257 
1199	 0.413976987523494 
1200	 0.414113510217801 
1201	 0.414251641556219 
1202	 0.41437984277319 
1203	 0.414522906387843 
1204	 0.414671580019886 
1205	 0.414825994912229 
1206	 0.414990076634677 
1207	 0.415150110037974 
1208	 0.415328082271812 
1209	 0.415478280495962 
1210	 0.415610928937556 
1211	 0.415747490372917 
1212	 0.415868424319277 
1213	 0.415993692621801 
1214	 0.416137880040429 
1215	 0.416258904708075 
1216	 0.416368223120922 
1217	 0.416457885756263 
1218	 0.41656868355536 
1219	 0.416676464994451 
1220	 0.416781276254822 
1221	 0.416889444077664 
1222	 0.417008926063568 
1223	 0.417131724800677 
1224	 0.417243768458845 
1225	 0.417366550975217 
1226	 0.417484535161205 
1227	 0.417585940258651 
1228	 0.417690369814531 
1229	 0.417808382661523 
1230	 0.417915844466873 
1231	 0.418015001100518 
1232	 0.418106378396322 
1233	 0.418192242756741 
1234	 0.418269926535182 
1235	 0.41835957032845 
1236	 0.418440004630579 
1237	 0.418540484382537 
1238	 0.418667865776217 
1239	 0.41876932589441 
1240	 0.418871977561823 
1241	 0.418961119531541 
1242	 0.419027610098079 
1243	 0.419106975368591 
1244	 0.419185255552307 
1245	 0.419265471043344 
1246	 0.419341664958589 
1247	 0.419430389338284 
1248	 0.41952613299898 
1249	 0.419629431885722 
1250	 0.419713161347992 
1251	 0.419819301611474 
1252	 0.419899951594108 
1253	 0.419959296494183 
1254	 0.420028831132378 
1255	 0.4200954198709 
1256	 0.420165379296547 
1257	 0.420240601750541 
1258	 0.420305248234441 
1259	 0.420361533483912 
1260	 0.420428837870731 
1261	 0.420498845741452 
1262	 0.420560946669981 
1263	 0.420624701307295 
1264	 0.420690367640105 
1265	 0.420752517123223 
1266	 0.42080989153994 
1267	 0.420871647003284 
1268	 0.420934125036038 
1269	 0.420980786081563 
1270	 0.421004880536877 
1271	 0.421050951126298 
1272	 0.421087708595673 
1273	 0.421159938072308 
1274	 0.421253416265064 
1275	 0.421351484426735 
1276	 0.421479899887298 
1277	 0.421588697599277 
1278	 0.421692837309278 
1279	 0.421802041851955 
1280	 0.421912295022812 
1281	 0.422021255541461 
1282	 0.422121867396955 
1283	 0.422239998615933 
1284	 0.422386652223608 
1285	 0.422503074835147 
1286	 0.422597988951747 
1287	 0.422692043272755 
1288	 0.422745465737795 
1289	 0.422748877461176 
1290	 0.422759461989944 
1291	 0.422751636378316 
1292	 0.422752171905752 
1293	 0.422743003474325 
1294	 0.422727390707767 
1295	 0.42273027141291 
1296	 0.42269280860146 
1297	 0.422613116862187 
1298	 0.42255460560104 
1299	 0.422494865539785 
1300	 0.422418529206018 
1301	 0.42234829009567 
1302	 0.422258331533596 
1303	 0.422140356771212 
1304	 0.422023922618908 
1305	 0.421906834469081 
1306	 0.421785297693579 
1307	 0.421646761073641 
1308	 0.421475034767084 
1309	 0.421327213035191 
1310	 0.421171548503023 
1311	 0.421030006516896 
1312	 0.420904080483674 
1313	 0.420775602012779 
1314	 0.420638677328513 
1315	 0.42051331582829 
1316	 0.420392186473653 
1317	 0.420290919715727 
1318	 0.420202974129635 
1319	 0.420123490395186 
1320	 0.420067130378392 
1321	 0.420005034646814 
1322	 0.419948063656709 
1323	 0.419878856238886 
1324	 0.419848996069264 
1325	 0.41980516031816 
1326	 0.419770863783136 
1327	 0.419777451018927 
1328	 0.419731249550203 
1329	 0.419684361477618 
1330	 0.419665667012831 
1331	 0.419632673623545 
1332	 0.41964755525876 
1333	 0.419712642345346 
1334	 0.419760790140035 
1335	 0.419822544181443 
1336	 0.419888524608518 
1337	 0.419962887081101 
1338	 0.420028662989321 
1339	 0.420096552414205 
1340	 0.420166021283016 
1341	 0.420225412864647 
1342	 0.42029565169201 
1343	 0.420380691570473 
1344	 0.420455143672716 
1345	 0.420542340373859 
1346	 0.420625973302741 
1347	 0.420702114520236 
1348	 0.42080909580475 
1349	 0.420892144054382 
1350	 0.420932005168157 
1351	 0.420973076101518 
1352	 0.420982221387143 
1353	 0.421025790507674 
1354	 0.421075142450141 
1355	 0.421129358652286 
1356	 0.421210672824239 
1357	 0.421259977429578 
1358	 0.421290400548759 
1359	 0.42133384040483 
1360	 0.421368151826705 
1361	 0.42140802644209 
1362	 0.421466160225449 
1363	 0.421501444369191 
1364	 0.421538199103295 
1365	 0.421556783466886 
1366	 0.421566226207795 
1367	 0.421546595485126 
1368	 0.421531864987508 
1369	 0.42147897200248 
1370	 0.421404356989628 
1371	 0.421326804254512 
1372	 0.421202028893909 
1373	 0.421038419313407 
1374	 0.42084088745766 
1375	 0.420605619217853 
1376	 0.420342528226046 
1377	 0.420066903907294 
1378	 0.419708015066248 
1379	 0.419299328327015 
1380	 0.418844516316513 
1381	 0.418320255347709 
1382	 0.417762916018449 
1383	 0.41720452023035 
1384	 0.416543841618637 
1385	 0.415848375271167 
1386	 0.415029459741402 
1387	 0.414120263662187 
1388	 0.413117771366094 
1389	 0.412026105413671 
1390	 0.410826565621249 
1391	 0.409529727816797 
1392	 0.408105637174235 
1393	 0.406582103448609 
1394	 0.405008518051782 
1395	 0.403341299599631 
1396	 0.40165046397461 
1397	 0.399953029513269 
1398	 0.398182118822718 
1399	 0.39647584449234 
1400	 0.394760050312729 
1401	 0.393127185499225 
1402	 0.391516037943815 
1403	 0.389982511784194 
1404	 0.388502439047804 
1405	 0.387106550707862 
1406	 0.385749618994812 
1407	 0.38450962066374 
1408	 0.383322438931076 
1409	 0.382300121979592 
1410	 0.381341354170991 
1411	 0.380603097428889 
1412	 0.38002054571082 
1413	 0.379620959115997 
1414	 0.379454203536495 
1415	 0.379453613550074 
1416	 0.379600691688228 
1417	 0.379874785745728 
1418	 0.380200322379967 
1419	 0.380540242701307 
1420	 0.38090971178854 
1421	 0.381272485592704 
1422	 0.381568138120435 
1423	 0.38183098873607 
1424	 0.38202055415839 
1425	 0.382126737427762 
1426	 0.382225931437865 
1427	 0.38227264659279 
1428	 0.382315013100573 
1429	 0.38233912778667 
1430	 0.382336379347392 
1431	 0.38230070013654 
1432	 0.382262949582974 
1433	 0.382197169408056 
1434	 0.382140861291928 
1435	 0.382067301968916 
1436	 0.382021113913971 
1437	 0.381995652727013 
1438	 0.381955730431234 
1439	 0.381919446460596 
1440	 0.381895160141598 
1441	 0.381853468701241 
1442	 0.381800607196594 
1443	 0.381759634575159 
1444	 0.381727750008065 
1445	 0.381702974319439 
1446	 0.381685267743069 
1447	 0.381684234324738 
1448	 0.3816753861125 
1449	 0.381653675929042 
1450	 0.381649408031272 
1451	 0.381652830065394 
1452	 0.381658667003051 
1453	 0.381683384556138 
1454	 0.381727171144534 
1455	 0.381764928002241 
1456	 0.38182306106961 
1457	 0.381853188999715 
1458	 0.381872883581241 
1459	 0.381891305155592 
1460	 0.381868932421806 
1461	 0.38190305611095 
1462	 0.381951920494543 
1463	 0.382028239823534 
1464	 0.382135629112399 
1465	 0.382268440338658 
1466	 0.382420263727131 
1467	 0.382605625260742 
1468	 0.382837114349876 
1469	 0.383072112343877 
1470	 0.383334979475838 
1471	 0.38359301096786 
1472	 0.383855958169991 
1473	 0.384153970340749 
1474	 0.384484369704302 
1475	 0.384842678504194 
1476	 0.385202182394795 
1477	 0.385560069503418 
1478	 0.385942991624787 
1479	 0.386320015064653 
1480	 0.386721545533242 
1481	 0.387150002329695 
1482	 0.387535509937645 
1483	 0.387895830838987 
1484	 0.388265912899737 
1485	 0.388617996204977 
1486	 0.388984646394484 
1487	 0.389363047555215 
1488	 0.38973160974825 
1489	 0.390105772098054 
1490	 0.390456549884012 
1491	 0.390791401838344 
1492	 0.391135921945446 
1493	 0.39145381626048 
1494	 0.39180770230584 
1495	 0.392201663205128 
1496	 0.39256102556553 
1497	 0.392929087829803 
1498	 0.393275127922814 
1499	 0.393592464742713 
1500	 0.3939081760575 
1501	 0.394210144104171 
1502	 0.394516044120715 
1503	 0.394816636539962 
1504	 0.395112483049542 
1505	 0.395415902052805 
1506	 0.39572990844811 
1507	 0.396033456973283 
1508	 0.396330141577703 
1509	 0.396612225085642 
1510	 0.39687954450658 
1511	 0.397151519187971 
1512	 0.397422640837196 
1513	 0.397709339318278 
1514	 0.398006817444405 
1515	 0.398302909163409 
1516	 0.398592140827912 
1517	 0.398859349043596 
1518	 0.399107546541401 
1519	 0.399364783918661 
1520	 0.399610818648975 
1521	 0.399853335586973 
1522	 0.400096869283861 
1523	 0.400336432649405 
1524	 0.400563225120097 
1525	 0.40080009653933 
1526	 0.401049705648604 
1527	 0.401280349387901 
1528	 0.401502727839856 
1529	 0.401720673888155 
1530	 0.401926535418856 
1531	 0.402139798250174 
1532	 0.402347988193507 
1533	 0.402564708793259 
1534	 0.402789639539468 
1535	 0.403009275912172 
1536	 0.403246863494925 
1537	 0.403450772706235 
1538	 0.403626918595299 
1539	 0.403812986117199 
1540	 0.403988376435296 
1541	 0.404161433496254 
1542	 0.404343773944573 
1543	 0.404514262398749 
1544	 0.404660918989393 
1545	 0.404816023409709 
1546	 0.404971280979373 
1547	 0.405125412734278 
1548	 0.405292159405972 
1549	 0.405487171866574 
1550	 0.40567779126157 
1551	 0.405878907604032 
1552	 0.406077565626253 
1553	 0.406229755765717 
1554	 0.406364130009901 
1555	 0.406505216603156 
1556	 0.406630819555956 
1557	 0.40676064452475 
1558	 0.406898449865095 
1559	 0.407022410668497 
1560	 0.40715400714825 
1561	 0.407274026186036 
1562	 0.40741366708081 
1563	 0.40756439828269 
1564	 0.40772559593582 
1565	 0.407903262028189 
1566	 0.408074307814542 
1567	 0.408257050941466 
1568	 0.408419528761533 
1569	 0.408576591272378 
1570	 0.408710230839365 
1571	 0.408830234546854 
1572	 0.408949508841063 
1573	 0.409055612888801 
1574	 0.40914967529009 
1575	 0.409224867982818 
1576	 0.409318002061958 
1577	 0.409408362170506 
1578	 0.409495312852806 
1579	 0.40960309709015 
1580	 0.409685664122334 
1581	 0.409742637084875 
1582	 0.409810460892913 
1583	 0.409863312216452 
1584	 0.409942983429177 
1585	 0.410033200015666 
1586	 0.410125178130103 
1587	 0.410240486482728 
1588	 0.410347867425838 
1589	 0.410467706299714 
1590	 0.410558542020549 
1591	 0.41063565810922 
1592	 0.410707702469329 
1593	 0.410744667569094 
1594	 0.4108026997326 
1595	 0.410866532251423 
1596	 0.410940691758124 
1597	 0.411028823133522 
1598	 0.41111358402281 
1599	 0.411214730047897 
1600	 0.411295500817136 
1601	 0.411362912988888 
1602	 0.411430439533832 
1603	 0.411493661163512 
1604	 0.411547009680865 
1605	 0.411580951957541 
1606	 0.411634539296817 
1607	 0.411691441982252 
1608	 0.411748518149219 
1609	 0.411815995182735 
1610	 0.411870062401962 
1611	 0.41189597393965 
1612	 0.411916508979719 
1613	 0.411922516363453 
1614	 0.411931519372713 
1615	 0.411954483870112 
1616	 0.411964241796562 
1617	 0.412005552678569 
1618	 0.41207074432049 
1619	 0.412107752533605 
1620	 0.412145754179397 
1621	 0.412184554918394 
1622	 0.412208839068296 
1623	 0.412250726525552 
1624	 0.412307575821994 
1625	 0.412353549969172 
1626	 0.412394992297598 
1627	 0.412447620275824 
1628	 0.412508192039595 
1629	 0.412556267200802 
1630	 0.412610528283949 
1631	 0.4126475134293 
1632	 0.412666511575357 
1633	 0.412693695347578 
1634	 0.412725264846119 
1635	 0.4127317337068 
1636	 0.412722068618976 
1637	 0.412728286331583 
1638	 0.412716776182048 
1639	 0.4127310495203 
1640	 0.412770494537909 
1641	 0.412797752603674 
1642	 0.412829767902708 
1643	 0.41285241010647 
1644	 0.412870769361481 
1645	 0.412891789267169 
1646	 0.412907695724981 
1647	 0.412925906123863 
1648	 0.412951790947393 
1649	 0.412966487975412 
1650	 0.412968609316132 
1651	 0.41298438593942 
1652	 0.413016668307834 
1653	 0.413013031182713 
1654	 0.412995986868718 
1655	 0.412983558717071 
1656	 0.412933246630345 
1657	 0.412927528739086 
1658	 0.412955670022632 
1659	 0.412968712388927 
1660	 0.413002091012119 
1661	 0.413002658817301 
1662	 0.412983827780758 
1663	 0.412969384075975 
1664	 0.412930016042211 
1665	 0.41291808468995 
1666	 0.412923792435603 
1667	 0.412920887005366 
1668	 0.412930544897179 
1669	 0.412923112597975 
1670	 0.412907434378513 
1671	 0.412885386091549 
1672	 0.412853421433973 
1673	 0.412821249144982 
1674	 0.412769810001035 
1675	 0.412748223903401 
1676	 0.412734205750779 
1677	 0.412732001055339 
1678	 0.412766633570892 
1679	 0.41276789131719 
1680	 0.412766595867441 
1681	 0.412747373713696 
1682	 0.412703577267437 
1683	 0.412665513250156 
1684	 0.412608619500516 
1685	 0.412577385867361 
1686	 0.412548869355494 
1687	 0.412538165603981 
1688	 0.412552612783626 
1689	 0.412561630044539 
1690	 0.412590448552043 
1691	 0.412591918530532 
1692	 0.412587538343799 
1693	 0.412568530809838 
1694	 0.412526397080948 
1695	 0.412490136866244 
1696	 0.412451386178571 
1697	 0.412403255587364 
1698	 0.41234162761229 
1699	 0.412293485662467 
1700	 0.412250117070227 
1701	 0.41219516887969 
1702	 0.412141749814155 
1703	 0.412085011191953 
1704	 0.412018387048992 
1705	 0.411949742075918 
1706	 0.411883842909391 
1707	 0.411816933424515 
1708	 0.411738372749224 
1709	 0.411664641011558 
1710	 0.411587082807718 
1711	 0.411531609605039 
1712	 0.411478214473328 
1713	 0.411445200910667 
1714	 0.411450878353158 
1715	 0.411425620364165 
1716	 0.41140594769666 
1717	 0.411358835827152 
1718	 0.411289521255154 
1719	 0.411218048452257 
1720	 0.411128331990119 
1721	 0.411041694808204 
1722	 0.410954117533418 
1723	 0.410856209812367 
1724	 0.410746825815907 
1725	 0.410647474188477 
1726	 0.410537366556138 
1727	 0.410446186324197 
1728	 0.410379309746402 
1729	 0.410285189610097 
1730	 0.410200535854724 
1731	 0.410081740851389 
1732	 0.409928458981132 
1733	 0.409784278818445 
1734	 0.409618407358704 
1735	 0.409475153144211 
1736	 0.40934336220381 
1737	 0.409206324812299 
1738	 0.409067152517742 
1739	 0.40894645574221 
1740	 0.408844676107382 
1741	 0.408712839247527 
1742	 0.408590666800551 
1743	 0.408441076675868 
1744	 0.40825169590826 
1745	 0.408079466156991 
1746	 0.407894431053242 
1747	 0.407756228380193 
1748	 0.407627956420075 
1749	 0.407522175502995 
1750	 0.407417915618562 
1751	 0.407259855507983 
1752	 0.407104849646242 
1753	 0.406934297275992 
1754	 0.406735310772682 
1755	 0.406604885861487 
1756	 0.40646907935242 
1757	 0.406312901008393 
1758	 0.4062019019925 
1759	 0.406062506598189 
1760	 0.405872680648754 
1761	 0.405690128485649 
1762	 0.405529466655849 
1763	 0.405334295316839 
1764	 0.405157721344777 
1765	 0.40503335377251 
1766	 0.404910628763173 
1767	 0.404832116324163 
1768	 0.404774253425924 
1769	 0.404693944484113 
1770	 0.404584738871512 
1771	 0.404451648125811 
1772	 0.404324124552047 
1773	 0.404184134942279 
1774	 0.404058553638736 
1775	 0.403930165762243 
1776	 0.403764498068898 
1777	 0.403629030847284 
1778	 0.403511029419588 
1779	 0.403421707665206 
1780	 0.403372521797231 
1781	 0.403308333125378 
1782	 0.403246677045345 
1783	 0.403157966007035 
1784	 0.403068974877281 
1785	 0.402963640196835 
1786	 0.402873505945576 
1787	 0.402792344101261 
1788	 0.402713147483256 
1789	 0.402650471259622 
1790	 0.402584953872401 
1791	 0.402490712282637 
1792	 0.402437379010212 
1793	 0.402423431337545 
1794	 0.402390855926621 
1795	 0.402401857810761 
1796	 0.402353211996506 
1797	 0.402230349893872 
1798	 0.402157900963371 
1799	 0.402073894506904 
1800	 0.402044186513823 
1801	 0.397678716411765 
1802	 0.397704483061129 
1803	 0.397743948817731 
1804	 0.39782894647225 
1805	 0.39789346050499 
1806	 0.397923986026266 
1807	 0.397956091505762 
1808	 0.398000594398934 
1809	 0.398081518878018 
1810	 0.398112365197936 
1811	 0.398134582506626 
1812	 0.398134216035877 
1813	 0.398097361846202 
1814	 0.398048501664507 
1815	 0.398007658874853 
1816	 0.397958003657795 
1817	 0.39792850689175 
1818	 0.39791528777884 
1819	 0.397889251987226 
1820	 0.397862420925727 
1821	 0.39785496828189 
1822	 0.39783164836717 
1823	 0.397768448623026 
1824	 0.397689824697176 
1825	 0.397616270693122 
1826	 0.397545835506613 
1827	 0.39747069738857 
1828	 0.397376484576762 
1829	 0.397291197982586 
1830	 0.397170903585717 
1831	 0.397013278326532 
1832	 0.39685442012352 
1833	 0.396702990358035 
1834	 0.396549759756319 
1835	 0.396417980597917 
1836	 0.396289087963623 
1837	 0.396118215539113 
1838	 0.395951310409532 
1839	 0.395802122936107 
1840	 0.3956628398733 
1841	 0.395489264762229 
1842	 0.395322258780485 
1843	 0.3951438926365 
1844	 0.394918796173473 
1845	 0.394679466739393 
1846	 0.394427513126801 
1847	 0.394172357920008 
1848	 0.393892102262215 
1849	 0.393611658524178 
1850	 0.393358079581747 
1851	 0.393130908981847 
1852	 0.392905476097267 
1853	 0.392671516684958 
1854	 0.392406499036599 
1855	 0.392111288590784 
1856	 0.391783027465976 
1857	 0.391410470274012 
1858	 0.390996666892373 
1859	 0.390537432603653 
1860	 0.390029064466796 
1861	 0.3894726748465 
1862	 0.388857090229364 
1863	 0.38817961286309 
1864	 0.387454345291308 
1865	 0.386693392990844 
1866	 0.385857474447704 
1867	 0.384951457386516 
1868	 0.383974384179866 
1869	 0.382877175211951 
1870	 0.381708306859615 
1871	 0.380449381113815 
1872	 0.379120608113689 
1873	 0.377704665845854 
1874	 0.376196952396987 
1875	 0.374576743870587 
1876	 0.372868714249954 
1877	 0.371028723700932 
1878	 0.369022030444632 
1879	 0.366856455509841 
1880	 0.364511298894446 
1881	 0.361957569261833 
1882	 0.359305173276237 
1883	 0.356522526612062 
1884	 0.353524884343832 
1885	 0.350425917316505 
1886	 0.347163597233569 
1887	 0.343676129607215 
1888	 0.340101339906284 
1889	 0.336427087557738 
1890	 0.332657454551475 
1891	 0.328911967433325 
1892	 0.325070588077656 
1893	 0.32131879465379 
1894	 0.31757007136929 
1895	 0.313864006703202 
1896	 0.310193871842164 
1897	 0.306686587643737 
1898	 0.303276187932974 
1899	 0.300048728891485 
1900	 0.297018319792113 
1901	 0.294151054948195 
1902	 0.291483623496157 
1903	 0.289041319364311 
1904	 0.286731981562679 
1905	 0.284594019931474 
1906	 0.282637974403268 
1907	 0.280833466513421 
1908	 0.279143638477781 
1909	 0.277608048843304 
1910	 0.276182436344301 
1911	 0.274874222471188 
1912	 0.273687559025655 
1913	 0.272587927836294 
1914	 0.27161741593482 
1915	 0.270701186984117 
1916	 0.269873750669364 
1917	 0.269108355031032 
1918	 0.268410505288227 
1919	 0.267784679278887 
1920	 0.26723594147416 
1921	 0.266746912938703 
1922	 0.266330332064607 
1923	 0.265955526917977 
1924	 0.265631006221232 
1925	 0.26535185041028 
1926	 0.265143138949802 
1927	 0.264981219059382 
1928	 0.264895405938691 
1929	 0.264868817080394 
1930	 0.264880191123494 
1931	 0.264940232069014 
1932	 0.265029777768017 
1933	 0.265169511137774 
1934	 0.265361300662935 
1935	 0.265592402211712 
1936	 0.265868530944349 
1937	 0.266181695311665 
1938	 0.266540327356819 
1939	 0.266930445514909 
1940	 0.267355436380916 
1941	 0.267822991177419 
1942	 0.268316376364015 
1943	 0.268837119629634 
1944	 0.269376928467367 
1945	 0.269921859826495 
1946	 0.270484813129678 
1947	 0.271053418864946 
1948	 0.271658290085562 
1949	 0.272299104530914 
1950	 0.272938146716029 
1951	 0.273597114769118 
1952	 0.274273422141865 
1953	 0.274937894714298 
1954	 0.275602939233807 
1955	 0.27629174113879 
1956	 0.277013952840381 
1957	 0.277744616579888 
1958	 0.278495771046891 
1959	 0.279253838441973 
1960	 0.280033338371992 
1961	 0.280808404775185 
1962	 0.281608525847216 
1963	 0.282390405966444 
1964	 0.28316284427567 
1965	 0.283923847959414 
1966	 0.284708932706976 
1967	 0.285516306991459 
1968	 0.286340628179711 
1969	 0.287212739127803 
1970	 0.288047220019411 
1971	 0.288886430596068 
1972	 0.289713366802043 
1973	 0.290513086358208 
1974	 0.291334941015527 
1975	 0.292169623558355 
1976	 0.292979027235206 
1977	 0.293822439731486 
1978	 0.294706817201001 
1979	 0.295566672338902 
1980	 0.296434432725735 
1981	 0.297291093995344 
1982	 0.298125457247652 
1983	 0.298975885140898 
1984	 0.299840814612563 
1985	 0.300689709269309 
1986	 0.30152583596331 
1987	 0.302374783002731 
1988	 0.303216965163583 
1989	 0.304074323671401 
1990	 0.304933428633187 
1991	 0.305822114139569 
1992	 0.30669142397855 
1993	 0.307570394163005 
1994	 0.308416408950691 
1995	 0.309254521295293 
1996	 0.310069489018193 
1997	 0.310841225686523 
1998	 0.311640978498079 
1999	 0.31243951093601 
2000	 0.313233864774567 
2001	 0.314032334011379 
2002	 0.314835652368318 
2003	 0.315638576065168 
2004	 0.316438488681563 
2005	 0.317215104653235 
2006	 0.317988586647371 
2007	 0.318752697378376 
2008	 0.319473444991368 
2009	 0.320230575685164 
2010	 0.321017645617684 
2011	 0.321775668132509 
2012	 0.322545653821335 
2013	 0.323288760478026 
2014	 0.323999154533163 
2015	 0.324712754958513 
2016	 0.325419857023478 
2017	 0.326112367171472 
2018	 0.326816494102719 
2019	 0.327525125103305 
2020	 0.328229906990019 
2021	 0.32894846194496 
2022	 0.329638891887796 
2023	 0.330314074325256 
2024	 0.330988849745807 
2025	 0.331649829639875 
2026	 0.332302691068646 
2027	 0.33295516886245 
2028	 0.333595235061851 
2029	 0.334235831640542 
2030	 0.334866967594313 
2031	 0.335494510901474 
2032	 0.336129061078889 
2033	 0.336745744020754 
2034	 0.337336747347976 
2035	 0.337939023100415 
2036	 0.338544033460662 
2037	 0.339138884578266 
2038	 0.339759712356322 
2039	 0.340328870387711 
2040	 0.340861332737907 
2041	 0.341388071113349 
2042	 0.34187900518147 
2043	 0.342379556183676 
2044	 0.342898213025499 
2045	 0.343447509281127 
2046	 0.343957728121961 
2047	 0.344468415655952 
2048	 0.344958374200431 
2049	 0.345418537711785 
2050	 0.345883421412991 
2051	 0.346344396769807 
2052	 0.346794849273517 
2053	 0.347231674653247 
2054	 0.347670431581578 
2055	 0.348103631948519 
2056	 0.348540434503265 
2057	 0.348954732732126 
2058	 0.349353514627865 
2059	 0.349762687267837 
2060	 0.350158152334573 
2061	 0.350562784345101 
2062	 0.350990851850803 
2063	 0.351392787813788 
2064	 0.351770785708278 
2065	 0.352161672888685 
2066	 0.352566216345211 
2067	 0.352943538059523 
2068	 0.353309107274419 
2069	 0.353666452132091 
2070	 0.354039974838807 
2071	 0.354396816017354 
2072	 0.354768593122011 
2073	 0.355173291356913 
2074	 0.355548293181411 
2075	 0.355906557111214 
2076	 0.356264169921542 
2077	 0.356617934678315 
2078	 0.356966816723555 
2079	 0.357306045589898 
2080	 0.357645124255405 
2081	 0.357998200001332 
2082	 0.358320791401026 
2083	 0.35860729914507 
2084	 0.358919135509634 
2085	 0.359221851190067 
2086	 0.359509493686314 
2087	 0.359801868662128 
2088	 0.360102875847384 
2089	 0.360397418794634 
2090	 0.360685213495047 
2091	 0.360964805803652 
2092	 0.361243178976019 
2093	 0.361523293975532 
2094	 0.361783397111226 
2095	 0.362060178908793 
2096	 0.362359983531346 
2097	 0.362644339334338 
2098	 0.362929101876139 
2099	 0.363209068657301 
2100	 0.363471273366219 
2101	 0.363715312487988 
2102	 0.363970417963078 
2103	 0.364206077236655 
2104	 0.364473796174244 
2105	 0.364747258923325 
2106	 0.365047265913056 
2107	 0.365376788470621 
2108	 0.365702085712614 
2109	 0.366065564322037 
2110	 0.366395124396465 
2111	 0.366708450602465 
2112	 0.367021819950236 
2113	 0.367338800486276 
2114	 0.367618473963776 
2115	 0.367905055394776 
2116	 0.368179161740239 
2117	 0.368479155199165 
2118	 0.368764693632184 
2119	 0.369092404938951 
2120	 0.369464511954146 
2121	 0.369817576620008 
2122	 0.370210617245676 
2123	 0.37054225243385 
2124	 0.37085220065992 
2125	 0.371143284352082 
2126	 0.371401158423078 
2127	 0.371637913964988 
2128	 0.371842512190463 
2129	 0.372052275774802 
2130	 0.372236614124973 
2131	 0.372420326305149 
2132	 0.372607138808401 
2133	 0.372821986954633 
2134	 0.372973857508616 
2135	 0.373104974852633 
2136	 0.373208650581894 
2137	 0.373276961704708 
2138	 0.373323020076064 
2139	 0.373335917603417 
2140	 0.373346476555647 
2141	 0.373335912325893 
2142	 0.37330868690303 
2143	 0.373281666454963 
2144	 0.373224634161497 
2145	 0.373139015616777 
2146	 0.373031613330889 
2147	 0.372906703028844 
2148	 0.372755931801102 
2149	 0.372577103525127 
2150	 0.372368744213989 
2151	 0.372143305042772 
2152	 0.37188603470396 
2153	 0.371622098294916 
2154	 0.371336241566639 
2155	 0.371047520921581 
2156	 0.37075653857125 
2157	 0.370438000158103 
2158	 0.370107244631849 
2159	 0.369752302602315 
2160	 0.369362125696748 
2161	 0.36897111715683 
2162	 0.368568576374507 
2163	 0.36815421781908 
2164	 0.367727927857565 
2165	 0.367289287665721 
2166	 0.366850433245593 
2167	 0.36641871356101 
2168	 0.365927040592799 
2169	 0.365418058060731 
2170	 0.364881750050797 
2171	 0.364290873322151 
2172	 0.363701882679586 
2173	 0.363112360439449 
2174	 0.362484926345546 
2175	 0.361839528935311 
2176	 0.361149943340165 
2177	 0.360443971303031 
2178	 0.359677222815078 
2179	 0.358834248614377 
2180	 0.357990202826878 
2181	 0.357091152985187 
2182	 0.356200344945706 
2183	 0.35531110424685 
2184	 0.354399042697823 
2185	 0.353482228829886 
2186	 0.352539136366004 
2187	 0.351627419906745 
2188	 0.350699992294902 
2189	 0.349826665130966 
2190	 0.348967703088371 
2191	 0.348168655057233 
2192	 0.347402193430497 
2193	 0.346687777123397 
2194	 0.346005846919516 
2195	 0.345406841804364 
2196	 0.344874536553056 
2197	 0.344392639763566 
2198	 0.343981802022046 
2199	 0.343630407482805 
2200	 0.343304125522791 
2201	 0.343076464473504 
2202	 0.34295245652165 
2203	 0.342867826759831 
2204	 0.342873378989236 
2205	 0.342974765471119 
2206	 0.343110213762665 
2207	 0.34328568805727 
2208	 0.343586104112308 
2209	 0.343968007375411 
2210	 0.344429787070288 
2211	 0.345049278118948 
2212	 0.345627273126838 
2213	 0.346276557841391 
2214	 0.34687782376978 
2215	 0.347507581094671 
2216	 0.348074271034353 
2217	 0.348597256096713 
2218	 0.349108544964788 
2219	 0.349580382712652 
2220	 0.350040985628644 
2221	 0.35048319647557 
2222	 0.350930777800337 
2223	 0.351328379288119 
2224	 0.351679634149166 
2225	 0.351988828142136 
2226	 0.35226681365933 
2227	 0.352461603335988 
2228	 0.352586329806051 
2229	 0.352692378861933 
2230	 0.352724243025696 
2231	 0.3527603461651 
2232	 0.352786055666684 
2233	 0.35277705910967 
2234	 0.352712234234254 
2235	 0.352671859409367 
2236	 0.352615094843186 
2237	 0.352559668906855 
2238	 0.352509497074452 
2239	 0.352457126834822 
2240	 0.3524159227881 
2241	 0.352347270521637 
2242	 0.3522839962695 
2243	 0.352183036525471 
2244	 0.35203544692235 
2245	 0.351880328010019 
2246	 0.351740216796701 
2247	 0.351577786961464 
2248	 0.351394212712418 
2249	 0.351199380628566 
2250	 0.350997986970482 
2251	 0.350748956977869 
2252	 0.350559568366387 
2253	 0.350407392512837 
2254	 0.350228987260657 
2255	 0.350057937708042 
2256	 0.349889626821009 
2257	 0.34968996987318 
2258	 0.349540116014027 
2259	 0.349418463816569 
2260	 0.349309706610824 
2261	 0.349211988872075 
2262	 0.349157537047122 
2263	 0.34914235179733 
2264	 0.349132590375291 
2265	 0.349180528535564 
2266	 0.34919154456665 
2267	 0.349184152006305 
2268	 0.34919020038921 
2269	 0.349182118418673 
2270	 0.349190144031132 
2271	 0.349242126656598 
2272	 0.349260534935947 
2273	 0.349263515045848 
2274	 0.349277656343174 
2275	 0.349273750363129 
2276	 0.349230704384219 
2277	 0.349236820867634 
2278	 0.34926380444103 
2279	 0.349284253730289 
2280	 0.349332682078952 
2281	 0.349358559148923 
2282	 0.349373364932595 
2283	 0.349382762309655 
2284	 0.349393169499545 
2285	 0.349377348965966 
2286	 0.349339172619634 
2287	 0.349302294456839 
2288	 0.349231382914668 
2289	 0.349196427147622 
2290	 0.349189170996886 
2291	 0.349169043386755 
2292	 0.349162936855065 
2293	 0.349145387050293 
2294	 0.349116975182828 
2295	 0.349076596829117 
2296	 0.349029842622027 
2297	 0.348978100231411 
2298	 0.348930333152027 
2299	 0.348856537300574 
2300	 0.348781122499578 
2301	 0.34871283797112 
2302	 0.348546958346216 
2303	 0.348364290246912 
2304	 0.348184966611997 
2305	 0.347968314588507 
2306	 0.347793453685532 
2307	 0.347654519119293 
2308	 0.347505599181417 
2309	 0.347377002140672 
2310	 0.347205029905436 
2311	 0.347029974843997 
2312	 0.346824385509025 
2313	 0.34658207739578 
2314	 0.346325933419924 
2315	 0.346040799997389 
2316	 0.345761827829166 
2317	 0.345451201256819 
2318	 0.345171193683947 
2319	 0.34492115429291 
2320	 0.344641164050225 
2321	 0.344330671352938 
2322	 0.344060999625022 
2323	 0.343834547227521 
2324	 0.343573842934307 
2325	 0.34331684159713 
2326	 0.343045008151467 
2327	 0.342762005659189 
2328	 0.342390001789217 
2329	 0.342115061242375 
2330	 0.341870752614121 
2331	 0.341624773643795 
2332	 0.341446349688992 
2333	 0.341147121188807 
2334	 0.340837657430751 
2335	 0.340495015154712 
2336	 0.340039194635975 
2337	 0.33968314643052 
2338	 0.339406333595332 
2339	 0.339107956098974 
2340	 0.338784034691324 
2341	 0.338447234989227 
2342	 0.338038287144825 
2343	 0.337586015289911 
2344	 0.337218642743148 
2345	 0.336862123336783 
2346	 0.336510232609565 
2347	 0.336173310976312 
2348	 0.335859882674133 
2349	 0.335585646853536 
2350	 0.335345880915714 
2351	 0.33508158676415 
2352	 0.334866685756851 
2353	 0.334619994734526 
2354	 0.334291246923629 
2355	 0.334046088008382 
2356	 0.333864867763866 
2357	 0.333677722622304 
2358	 0.333539459538321 
2359	 0.333369973023623 
2360	 0.333172048995165 
2361	 0.332971625836188 
2362	 0.332790194204671 
2363	 0.332560393553621 
2364	 0.332330060440991 
2365	 0.332072320122914 
2366	 0.331768224256479 
2367	 0.331427711483574 
2368	 0.331036183016971 
2369	 0.330669997794355 
2370	 0.330315579640036 
2371	 0.329867320999118 
2372	 0.329463010485077 
2373	 0.32903020023993 
2374	 0.328558836820702 
2375	 0.328131304247771 
2376	 0.327766176314217 
2377	 0.327399485366333 
2378	 0.327012608768028 
2379	 0.326588081828138 
2380	 0.326110274987431 
2381	 0.325609817068605 
2382	 0.325035831576389 
2383	 0.324523142672192 
2384	 0.324085530173247 
2385	 0.323606510273214 
2386	 0.323186069989575 
2387	 0.322772636217451 
2388	 0.322300097591583 
2389	 0.321815609320136 
2390	 0.321286231555424 
2391	 0.320829823098944 
2392	 0.320413787251721 
2393	 0.319955508417437 
2394	 0.319495195346637 
2395	 0.318992832021275 
2396	 0.318499546398662 
2397	 0.317978777727069 
2398	 0.317430987617852 
2399	 0.316846230360986 
2400	 0.316230201817745 
2401	 0.31560842032563 
2402	 0.314955152572395 
2403	 0.314398693339856 
2404	 0.313839200466727 
2405	 0.313247768748647 
2406	 0.312683445471401 
2407	 0.312074015640276 
2408	 0.31146840362455 
2409	 0.310803003932388 
2410	 0.310084298970111 
2411	 0.30940284140503 
2412	 0.308735561691805 
2413	 0.308052133396695 
2414	 0.3073564687845 
2415	 0.306638655693325 
2416	 0.305877516945072 
2417	 0.304991717051825 
2418	 0.304213916583773 
2419	 0.303455425574041 
2420	 0.302739713831878 
2421	 0.302084683007144 
2422	 0.301416425638928 
2423	 0.300789972614265 
2424	 0.300123772007136 
2425	 0.299445122767658 
2426	 0.298741051700865 
2427	 0.298025883966669 
2428	 0.297307338224483 
2429	 0.296517354270183 
2430	 0.295831886819891 
2431	 0.295196406142504 
2432	 0.294570170596246 
2433	 0.294029528649892 
2434	 0.293462428995365 
2435	 0.292967196357975 
2436	 0.292272437352539 
2437	 0.291398466793381 
2438	 0.290635438903854 
2439	 0.289790527079867 
2440	 0.289053313722929 
2441	 0.288429903311313 
2442	 0.287896112156653 
2443	 0.287420230780373 
2444	 0.286871888013031 
2445	 0.286446407444079 
2446	 0.285915127297006 
2447	 0.28529076621414 
2448	 0.284637057777915 
2449	 0.283939271833749 
2450	 0.283291436182242 
2451	 0.282522716259731 
2452	 0.28192342643149 
2453	 0.281497263516924 
2454	 0.280952229944598 
2455	 0.280416634745978 
2456	 0.279889177203449 
2457	 0.279340337054684 
2458	 0.278834583337294 
2459	 0.278401119786094 
2460	 0.277868887200097 
2461	 0.277251505263222 
2462	 0.276677702397046 
2463	 0.276111557445062 
2464	 0.275537596727261 
2465	 0.274975752318884 
2466	 0.27441192023115 
2467	 0.273734008056015 
2468	 0.273173826526384 
2469	 0.272853469276449 
2470	 0.272293705370071 
2471	 0.271668732984976 
2472	 0.271140123974139 
2473	 0.270454510222465 
2474	 0.269829377112291 
2475	 0.269396947486783 
2476	 0.268901824985321 
2477	 0.268357456968253 
2478	 0.267816089573885 
2479	 0.267217874448102 
2480	 0.266663211736411 
2481	 0.266084849766041 
2482	 0.265652951417992 
2483	 0.265247102917303 
2484	 0.264665023992017 
2485	 0.264249041506449 
2486	 0.263691864668578 
2487	 0.26310332573164 
2488	 0.262657245448367 
2489	 0.262115683212077 
2490	 0.261754146018302 
2491	 0.261411433160989 
2492	 0.261041870056139 
2493	 0.260688726466271 
2494	 0.26016002308415 
2495	 0.259580547650538 
2496	 0.259080738694385 
2497	 0.258659045208167 
2498	 0.258097500728074 
2499	 0.257686091493221 
2500	 0.257511259569278 
