Wavelength	LMW500001.asd
350	 0.07550593295585 
351	 7.72901141483913E-02 
352	 7.42760739608935E-02 
353	 6.73759571761835E-02 
354	 7.10414819541732E-02 
355	 7.61667984679926E-02 
356	 8.25148967931334E-02 
357	 8.83974129020344E-02 
358	 7.88569691491314E-02 
359	 7.44532167308415E-02 
360	 7.76026204472532E-02 
361	 7.84331275898888E-02 
362	 7.29837702751425E-02 
363	 7.31646100281072E-02 
364	 8.09019119668836E-02 
365	 7.98130741433164E-02 
366	 7.88030589441892E-02 
367	 0.079937345839829 
368	 8.22502470477604E-02 
369	 0.079942723447222 
370	 8.06809648954164E-02 
371	 8.36137211692261E-02 
372	 8.25052484707483E-02 
373	 8.28208134763955E-02 
374	 8.48286577880685E-02 
375	 0.087274010748458 
376	 8.76808048044291E-02 
377	 8.58975941695251E-02 
378	 0.085625257974105 
379	 8.95047778424217E-02 
380	 9.10194921274188E-02 
381	 9.07141614796821E-02 
382	 0.090733913844954 
383	 9.37116609803407E-02 
384	 9.48680881531209E-02 
385	 0.094644320638358 
386	 9.51409194020873E-02 
387	 0.100533381412292 
388	 0.102504522318864 
389	 0.101750059057279 
390	 0.101685688166735 
391	 0.10265466731899 
392	 0.105545559021372 
393	 0.109026877418979 
394	 0.110171426093919 
395	 0.110679191260688 
396	 0.111886172706268 
397	 0.114072602486373 
398	 0.115483822099174 
399	 0.117277164823125 
400	 0.119221858280763 
401	 0.120794596977239 
402	 0.122768681604967 
403	 0.124697577325627 
404	 0.126221511593968 
405	 0.127170725332906 
406	 0.127971297200265 
407	 0.129617325539845 
408	 0.131942568204884 
409	 0.131469658129231 
410	 0.132001105669364 
411	 0.133896311619705 
412	 0.135793965082671 
413	 0.137004158863089 
414	 0.137401956793057 
415	 0.137407732222352 
416	 0.137990806555849 
417	 0.138625079577076 
418	 0.139303260754599 
419	 0.140027961478329 
420	 0.140499130758251 
421	 0.140415635921921 
422	 0.140390819751318 
423	 0.141385865006286 
424	 0.141458218458788 
425	 0.141188222870263 
426	 0.141005595980094 
427	 0.140407195085853 
428	 0.139924510851929 
429	 0.139963825003048 
430	 0.140534604491238 
431	 0.140013880429252 
432	 0.139653970493641 
433	 0.139843307032776 
434	 0.14001591545165 
435	 0.140208170296172 
436	 0.140528142488247 
437	 0.140990019811739 
438	 0.141263113329597 
439	 0.141838764989128 
440	 0.142802837966746 
441	 0.143978937220509 
442	 0.144936217992863 
443	 0.145955461082327 
444	 0.147015490920546 
445	 0.147479860643408 
446	 0.148728971640198 
447	 0.15033931139702 
448	 0.151514183523157 
449	 0.152285669744108 
450	 0.153263947541519 
451	 0.154544564457501 
452	 0.155752997541329 
453	 0.156516136150687 
454	 0.157317725435553 
455	 0.15846917854754 
456	 0.159488310453756 
457	 0.160505235919725 
458	 0.16140022430952 
459	 0.162024372235448 
460	 0.162828999367966 
461	 0.16358850272071 
462	 0.164205643542477 
463	 0.164848890049714 
464	 0.165399519129018 
465	 0.166035932157105 
466	 0.166855713215921 
467	 0.167316678196177 
468	 0.167814581378386 
469	 0.168343577179552 
470	 0.168601238990614 
471	 0.169219206010876 
472	 0.169941184090541 
473	 0.170433286899461 
474	 0.170464351081847 
475	 0.170900958780967 
476	 0.171559644421606 
477	 0.171891824338133 
478	 0.172491791011912 
479	 0.173057336597322 
480	 0.173475780728094 
481	 0.173996100449203 
482	 0.174549012655198 
483	 0.175040278317118 
484	 0.17542311907645 
485	 0.17589127879936 
486	 0.176263710900941 
487	 0.176584716368441 
488	 0.177080003788212 
489	 0.17763436876205 
490	 0.178271743712073 
491	 0.178916638990475 
492	 0.179164518429232 
493	 0.179500750782145 
494	 0.179997301864948 
495	 0.180505398816322 
496	 0.180817193450582 
497	 0.181190843425418 
498	 0.181758111104614 
499	 0.182412997267065 
500	 0.182850215735203 
501	 0.183178214378983 
502	 0.183620209926395 
503	 0.184286124098358 
504	 0.18484584442263 
505	 0.185268984109146 
506	 0.185801025913184 
507	 0.186277634041062 
508	 0.186709727735213 
509	 0.18712686324555 
510	 0.187513724024263 
511	 0.187936364752409 
512	 0.188382477717551 
513	 0.188808604453701 
514	 0.189308170932678 
515	 0.189781774536116 
516	 0.190186987958649 
517	 0.190609692519575 
518	 0.191041477003932 
519	 0.191432271693319 
520	 0.191770715250443 
521	 0.192328837644995 
522	 0.192864413740083 
523	 0.193291148286178 
524	 0.193714976125842 
525	 0.194063171564025 
526	 0.194419004607245 
527	 0.194846901928739 
528	 0.19524436623468 
529	 0.195681202149123 
530	 0.196158094749478 
531	 0.196627508798948 
532	 0.197035724298013 
533	 0.197498445784294 
534	 0.198035028130414 
535	 0.198400734535368 
536	 0.198836983675305 
537	 0.199335942867849 
538	 0.199789208731091 
539	 0.200116186059066 
540	 0.200535117739984 
541	 0.201078942128679 
542	 0.201507958432618 
543	 0.201926542652101 
544	 0.202412904647506 
545	 0.202978741625518 
546	 0.203402699023962 
547	 0.203764685776628 
548	 0.204178845823748 
549	 0.204760799930404 
550	 0.205192467046661 
551	 0.205649117129074 
552	 0.206253418740379 
553	 0.206743201992669 
554	 0.207281380514853 
555	 0.207857149197947 
556	 0.208379865635751 
557	 0.20890311534569 
558	 0.209462329495009 
559	 0.21008046543885 
560	 0.210779720241044 
561	 0.211330331788124 
562	 0.21180915339813 
563	 0.21237431570763 
564	 0.212960434488868 
565	 0.213516537855058 
566	 0.214074143670055 
567	 0.214753845166962 
568	 0.215396805099171 
569	 0.216066303649745 
570	 0.216839911984293 
571	 0.217678921592394 
572	 0.218448711694843 
573	 0.219113306800148 
574	 0.219719097320282 
575	 0.22037539243501 
576	 0.221084835000258 
577	 0.221814839374329 
578	 0.222502063851224 
579	 0.223173608707067 
580	 0.223871838160317 
581	 0.224639517730507 
582	 0.225458875103997 
583	 0.226240986714158 
584	 0.226978998889779 
585	 0.227794909068344 
586	 0.228559893322586 
587	 0.229308194836958 
588	 0.230092725441252 
589	 0.230834797269471 
590	 0.231565125058925 
591	 0.232283534772197 
592	 0.232965722973939 
593	 0.233733953440527 
594	 0.234466651673402 
595	 0.235109300024381 
596	 0.235917950535103 
597	 0.236789078755264 
598	 0.237634352668026 
599	 0.238382687718344 
600	 0.239045278424111 
601	 0.239719135909841 
602	 0.240431533218948 
603	 0.241078049724782 
604	 0.241603708458526 
605	 0.242166536107991 
606	 0.242920764830784 
607	 0.24353799748859 
608	 0.244117941260738 
609	 0.244738857577414 
610	 0.245423854681206 
611	 0.246059039711183 
612	 0.246649933573378 
613	 0.247224935776596 
614	 0.247786614006383 
615	 0.248318293508608 
616	 0.248837692134352 
617	 0.249379766665519 
618	 0.249917723840713 
619	 0.250340224586203 
620	 0.250647216754128 
621	 0.25109637071753 
622	 0.25158103399724 
623	 0.252025291964248 
624	 0.252390828666052 
625	 0.252855174428336 
626	 0.253282933000136 
627	 0.253639587390132 
628	 0.254055526003005 
629	 0.254484029904672 
630	 0.254905456095005 
631	 0.255300880367595 
632	 0.255624845202737 
633	 0.255983440124872 
634	 0.256408276278712 
635	 0.256858656675382 
636	 0.257195344839339 
637	 0.257547209663515 
638	 0.257987492750735 
639	 0.258331963493042 
640	 0.258669576588609 
641	 0.259037367542495 
642	 0.259449859071637 
643	 0.259939884883912 
644	 0.260306856277024 
645	 0.26055056488691 
646	 0.260989151079036 
647	 0.261385152181075 
648	 0.261753676153042 
649	 0.262156149419474 
650	 0.26253128835845 
651	 0.262922267772226 
652	 0.263339576295378 
653	 0.263762250085625 
654	 0.264177760209116 
655	 0.264552979100432 
656	 0.264898267793316 
657	 0.265336229335082 
658	 0.265803069013975 
659	 0.26623533639788 
660	 0.266590156765773 
661	 0.267000034394113 
662	 0.267434157943589 
663	 0.267877315398415 
664	 0.268362975859194 
665	 0.268791886757189 
666	 0.269214403005177 
667	 0.269680303501179 
668	 0.270025683335081 
669	 0.270462890933736 
670	 0.270987561425601 
671	 0.271414138449516 
672	 0.27183517038573 
673	 0.272291365729996 
674	 0.272782094969302 
675	 0.273229317968076 
676	 0.273674618955057 
677	 0.274118414520918 
678	 0.27455066708672 
679	 0.275006470988025 
680	 0.275474114026731 
681	 0.275955920342567 
682	 0.276479926107196 
683	 0.276949531790017 
684	 0.277377090030585 
685	 0.277811436701431 
686	 0.278315378071042 
687	 0.278809137644724 
688	 0.279288114336041 
689	 0.279796172359785 
690	 0.280254541163032 
691	 0.280688070197148 
692	 0.281141961546551 
693	 0.281676200588 
694	 0.2822090869282 
695	 0.282701098188734 
696	 0.283139632938152 
697	 0.283541043534391 
698	 0.28405165238333 
699	 0.284640325441417 
700	 0.285091636457426 
701	 0.285557423013281 
702	 0.286041437638475 
703	 0.286519239209319 
704	 0.286968313573354 
705	 0.287466876923355 
706	 0.287993332213994 
707	 0.288472923041048 
708	 0.288878836894821 
709	 0.289301116374771 
710	 0.289772417943027 
711	 0.290224974613922 
712	 0.290709362492894 
713	 0.291159227812441 
714	 0.291530955307721 
715	 0.291988097524405 
716	 0.292412929906418 
717	 0.292808213291068 
718	 0.293259082872808 
719	 0.293691779318246 
720	 0.294075269997157 
721	 0.294406324944798 
722	 0.294710636411261 
723	 0.295104803167034 
724	 0.29553860382228 
725	 0.29591410644382 
726	 0.296235028350245 
727	 0.296537029071413 
728	 0.296846142689799 
729	 0.297172166558397 
730	 0.29746155456367 
731	 0.297695374336155 
732	 0.297906309747605 
733	 0.298242161415168 
734	 0.298512079991354 
735	 0.298720380411413 
736	 0.298938303271615 
737	 0.299098993284132 
738	 0.299259935421245 
739	 0.299441556811166 
740	 0.299614019658819 
741	 0.299750403809083 
742	 0.299904721982946 
743	 0.300092051035853 
744	 0.300172808271859 
745	 0.300224634142084 
746	 0.300305186395438 
747	 0.300440597623856 
748	 0.300516639396189 
749	 0.300536268345277 
750	 0.300523328041702 
751	 0.300512233175533 
752	 0.300549626652844 
753	 0.300533785707281 
754	 0.300427459628573 
755	 0.300493752663813 
756	 0.300509609654685 
757	 0.30043795800202 
758	 0.300347376168185 
759	 0.300301310716118 
760	 0.300255267501489 
761	 0.30017283335001 
762	 0.300043953448159 
763	 0.299960116641986 
764	 0.299868783716569 
765	 0.299727823231947 
766	 0.299632271289064 
767	 0.299548973393603 
768	 0.299394634109187 
769	 0.299109775833337 
770	 0.298974912653103 
771	 0.298896519768133 
772	 0.298781246662909 
773	 0.298584562895127 
774	 0.298426283957194 
775	 0.298278307179147 
776	 0.298105675251841 
777	 0.297960615270832 
778	 0.297743701214911 
779	 0.297491082708112 
780	 0.297293767723099 
781	 0.297147401349269 
782	 0.296990948575257 
783	 0.296797316952415 
784	 0.296583924701896 
785	 0.296386373084516 
786	 0.296228001030178 
787	 0.29608813337628 
788	 0.295853065988945 
789	 0.295571461593744 
790	 0.295317111686719 
791	 0.295156942940797 
792	 0.295066186658958 
793	 0.294924752094784 
794	 0.294700535809393 
795	 0.294451133357011 
796	 0.294263171883794 
797	 0.294129870187972 
798	 0.293985778019979 
799	 0.293685892764715 
800	 0.293507544832531 
801	 0.293405915051678 
802	 0.293248975248752 
803	 0.292983213529788 
804	 0.292820816696682 
805	 0.292725607487371 
806	 0.292522553810196 
807	 0.292350758593733 
808	 0.292144787398805 
809	 0.291918392621532 
810	 0.291807542620648 
811	 0.291674886091688 
812	 0.291556487288803 
813	 0.291470568539314 
814	 0.291282891778868 
815	 0.29104865907046 
816	 0.290819953753188 
817	 0.29065326859264 
818	 0.290624217393874 
819	 0.290561020242994 
820	 0.290406670915664 
821	 0.290222433765057 
822	 0.290055168977784 
823	 0.289950872076391 
824	 0.289890309689329 
825	 0.289757406552275 
826	 0.289555880116012 
827	 0.289450802087933 
828	 0.28951066376355 
829	 0.289362388949235 
830	 0.289166199762045 
831	 0.288973829706284 
832	 0.288803190621612 
833	 0.288793220549342 
834	 0.288794512588075 
835	 0.288738964411117 
836	 0.28865544315201 
837	 0.288479746672046 
838	 0.288364212472908 
839	 0.288353352910042 
840	 0.288252943394768 
841	 0.2881818916447 
842	 0.288099804838958 
843	 0.28797694038057 
844	 0.287948313386941 
845	 0.287939967074636 
846	 0.287934844893557 
847	 0.287933416243711 
848	 0.287877888678931 
849	 0.28783237322502 
850	 0.287798775210894 
851	 0.287726238827233 
852	 0.287658532071855 
853	 0.287657448431387 
854	 0.287707310767204 
855	 0.287683531854597 
856	 0.287709075281738 
857	 0.287694202610021 
858	 0.287597026239041 
859	 0.287623633828535 
860	 0.287645042361142 
861	 0.287617120951151 
862	 0.287568931292446 
863	 0.287708943223183 
864	 0.287773444536072 
865	 0.287768387224534 
866	 0.287839688806262 
867	 0.28775260276934 
868	 0.287805833533439 
869	 0.28799394569916 
870	 0.287978120372437 
871	 0.28786979991457 
872	 0.287832642703557 
873	 0.287942123715446 
874	 0.2881140238166 
875	 0.28823635710917 
876	 0.288297045428652 
877	 0.288330348010977 
878	 0.288395247686568 
879	 0.288546811157003 
880	 0.288667032298829 
881	 0.28864982467198 
882	 0.288694993306429 
883	 0.28885565125918 
884	 0.289045661737288 
885	 0.289131179994764 
886	 0.289205726446541 
887	 0.289331887414852 
888	 0.289453056064003 
889	 0.289449825838978 
890	 0.289591556269713 
891	 0.289810637652156 
892	 0.290019479112078 
893	 0.290169102663456 
894	 0.290249760176567 
895	 0.290326319847209 
896	 0.290454193694081 
897	 0.290640896048026 
898	 0.290839818833858 
899	 0.291024864387972 
900	 0.291187372613933 
901	 0.291340033777843 
902	 0.291516326395456 
903	 0.291746781056458 
904	 0.292018799774952 
905	 0.292170747060454 
906	 0.292454622554166 
907	 0.292756148758094 
908	 0.292865509911671 
909	 0.293066281781655 
910	 0.293273978658865 
911	 0.293466033130339 
912	 0.293682103463873 
913	 0.294029924219987 
914	 0.294255044221637 
915	 0.294387790027986 
916	 0.294695080756535 
917	 0.294896722554556 
918	 0.295124759636622 
919	 0.295431609513 
920	 0.295719477405919 
921	 0.29598156954262 
922	 0.296227965096827 
923	 0.296507238356095 
924	 0.296902403944954 
925	 0.297141345067003 
926	 0.297422030602914 
927	 0.297846535652761 
928	 0.298156311989407 
929	 0.298533949380055 
930	 0.298889812609681 
931	 0.299146570819929 
932	 0.299409792532537 
933	 0.299707945100847 
934	 0.300034239020538 
935	 0.300367714753646 
936	 0.300692788790393 
937	 0.301004904593128 
938	 0.301354492003061 
939	 0.301779609989238 
940	 0.302224250833013 
941	 0.302606975026762 
942	 0.302960794330579 
943	 0.30335743825445 
944	 0.303804547790418 
945	 0.304267396792419 
946	 0.30466044108187 
947	 0.30493862226205 
948	 0.305317743219008 
949	 0.305627963877585 
950	 0.30594756695523 
951	 0.30643693388423 
952	 0.306970751415903 
953	 0.307496064004255 
954	 0.30789229841667 
955	 0.308106574982975 
956	 0.308581061328883 
957	 0.309056855275603 
958	 0.309473673026518 
959	 0.309918487606391 
960	 0.310406998644796 
961	 0.310876655011208 
962	 0.311364011363393 
963	 0.311924521574026 
964	 0.312312780124312 
965	 0.312782104176833 
966	 0.313323524112579 
967	 0.313760899582733 
968	 0.31418943019967 
969	 0.314672451640423 
970	 0.315168379582599 
971	 0.315610236340595 
972	 0.316231188905419 
973	 0.316885185328075 
974	 0.317467616987816 
975	 0.317947525844289 
976	 0.318374937971968 
977	 0.318918198997832 
978	 0.319615946539823 
979	 0.320348197416715 
980	 0.320731903097052 
981	 0.32102758274625 
982	 0.321469826046768 
983	 0.322152309023152 
984	 0.32277242219024 
985	 0.323323638745873 
986	 0.323829477838466 
987	 0.324326228081743 
988	 0.324844541626412 
989	 0.325352980358667 
990	 0.325868672900017 
991	 0.326426011059146 
992	 0.327033112979547 
993	 0.327451613692495 
994	 0.327815476227284 
995	 0.328367807327941 
996	 0.329025185551696 
997	 0.329606161558351 
998	 0.330167727653551 
999	 0.330799509771894 
1000	 0.331327810736039 
1001	 0.333763159182864 
1002	 0.334312472472809 
1003	 0.334867054359999 
1004	 0.335393634091221 
1005	 0.335903802428084 
1006	 0.336386698800402 
1007	 0.336831414057272 
1008	 0.337308980451931 
1009	 0.33777672487774 
1010	 0.338259540947835 
1011	 0.338761114812912 
1012	 0.339188120452588 
1013	 0.33966623623025 
1014	 0.340125294709761 
1015	 0.340492442293997 
1016	 0.340952718142789 
1017	 0.341419735630032 
1018	 0.341892989113593 
1019	 0.342299753923985 
1020	 0.342755405722801 
1021	 0.343212038507452 
1022	 0.343678503661701 
1023	 0.344119738148335 
1024	 0.344528876096539 
1025	 0.344931353559598 
1026	 0.345227538152148 
1027	 0.345497093398443 
1028	 0.345853282956708 
1029	 0.346290488091445 
1030	 0.346742326106528 
1031	 0.34716811053008 
1032	 0.347617450234738 
1033	 0.348068807364295 
1034	 0.348479003125252 
1035	 0.348847848474549 
1036	 0.349194922283646 
1037	 0.349556803993257 
1038	 0.349916618112941 
1039	 0.350280272486269 
1040	 0.350695811508062 
1041	 0.351086372522169 
1042	 0.35145301210241 
1043	 0.351871972849871 
1044	 0.352258632153305 
1045	 0.352649963369365 
1046	 0.353020523498293 
1047	 0.353399939762428 
1048	 0.353732624206105 
1049	 0.354065218757241 
1050	 0.354448178913071 
1051	 0.354836278112114 
1052	 0.355228427009442 
1053	 0.355629911980039 
1054	 0.355991246080877 
1055	 0.356347333480505 
1056	 0.356715054693333 
1057	 0.357043926355264 
1058	 0.357356426182182 
1059	 0.357678810657815 
1060	 0.357993342661524 
1061	 0.358239143786099 
1062	 0.358543799683492 
1063	 0.358887232237359 
1064	 0.359229733226753 
1065	 0.359570260624061 
1066	 0.359855882661737 
1067	 0.360073527682355 
1068	 0.360324505079035 
1069	 0.360603349589962 
1070	 0.360873821389178 
1071	 0.361208264361397 
1072	 0.361494124111822 
1073	 0.36171518725242 
1074	 0.361969409241992 
1075	 0.362243642889277 
1076	 0.362481527634798 
1077	 0.362734363829317 
1078	 0.362978993764896 
1079	 0.363199522067505 
1080	 0.363393295375215 
1081	 0.363568173082214 
1082	 0.363813807874936 
1083	 0.364037173518822 
1084	 0.364268587302351 
1085	 0.364487371590438 
1086	 0.36469423384134 
1087	 0.364894832726833 
1088	 0.365083702815748 
1089	 0.365283221349148 
1090	 0.365490781427224 
1091	 0.365696420350195 
1092	 0.365874940861625 
1093	 0.366097504886359 
1094	 0.366334274614494 
1095	 0.366565854338616 
1096	 0.366821610253105 
1097	 0.367067379983319 
1098	 0.367318644009318 
1099	 0.367578200698743 
1100	 0.367827216553135 
1101	 0.368068585965502 
1102	 0.368315399559025 
1103	 0.368558281718306 
1104	 0.368790425083094 
1105	 0.36904624379058 
1106	 0.369337924444954 
1107	 0.369657072468272 
1108	 0.369972496359043 
1109	 0.370250823571441 
1110	 0.37054012392767 
1111	 0.370844452619784 
1112	 0.371134653943555 
1113	 0.371442229101393 
1114	 0.371784693795631 
1115	 0.372107804160135 
1116	 0.372409279399079 
1117	 0.372735091970979 
1118	 0.373059740643913 
1119	 0.373425953804234 
1120	 0.373803408188258 
1121	 0.374126115945736 
1122	 0.374453133218909 
1123	 0.374763865424151 
1124	 0.375097792683355 
1125	 0.375451809354305 
1126	 0.37577586699201 
1127	 0.376097152684842 
1128	 0.376406664034612 
1129	 0.3766709885235 
1130	 0.376970692364129 
1131	 0.377313684016546 
1132	 0.377619301546921 
1133	 0.377922847203166 
1134	 0.378204289875296 
1135	 0.378457972746881 
1136	 0.378691003570887 
1137	 0.378952924437803 
1138	 0.37921864258825 
1139	 0.379485843927437 
1140	 0.379771854947154 
1141	 0.380035166754374 
1142	 0.380287013786789 
1143	 0.380543693693777 
1144	 0.38080164621773 
1145	 0.381045165503073 
1146	 0.381290882704851 
1147	 0.381515455577474 
1148	 0.381698286211364 
1149	 0.381918619075478 
1150	 0.382149678906747 
1151	 0.382378975997286 
1152	 0.38263148083342 
1153	 0.382876740080078 
1154	 0.383106674101067 
1155	 0.383318438265839 
1156	 0.38354027944072 
1157	 0.38376242058499 
1158	 0.383975678616315 
1159	 0.384194294572218 
1160	 0.384397734679198 
1161	 0.384578539988197 
1162	 0.384775126199442 
1163	 0.38497127509958 
1164	 0.385167775756904 
1165	 0.385371070528732 
1166	 0.385575922511904 
1167	 0.385786291635129 
1168	 0.385974992946343 
1169	 0.386157558820191 
1170	 0.386332370861668 
1171	 0.386510902702915 
1172	 0.38667369769981 
1173	 0.386851499370695 
1174	 0.387048836118281 
1175	 0.387225000892518 
1176	 0.387387498420167 
1177	 0.387561697163242 
1178	 0.387727965349038 
1179	 0.387903064315529 
1180	 0.388106021103171 
1181	 0.388282690321646 
1182	 0.388438917258129 
1183	 0.388606222900105 
1184	 0.388774844836536 
1185	 0.388935533666476 
1186	 0.389099904217906 
1187	 0.389281154238142 
1188	 0.389439658220124 
1189	 0.389579871426065 
1190	 0.389727348696754 
1191	 0.389872600855431 
1192	 0.390017026495902 
1193	 0.390161322810138 
1194	 0.390303642199869 
1195	 0.390437094677725 
1196	 0.390580527559665 
1197	 0.390734701232187 
1198	 0.390879811498211 
1199	 0.391023359401372 
1200	 0.391171679945977 
1201	 0.391310160205092 
1202	 0.391436080764567 
1203	 0.391572195143941 
1204	 0.391712323574485 
1205	 0.391847805855342 
1206	 0.391973955201739 
1207	 0.392119297846898 
1208	 0.392284241615807 
1209	 0.392425683352849 
1210	 0.392572933762434 
1211	 0.392708838342812 
1212	 0.392818973346971 
1213	 0.392935470644344 
1214	 0.393043872489565 
1215	 0.393167808507568 
1216	 0.393297790047864 
1217	 0.393433710818833 
1218	 0.393560102763794 
1219	 0.393706100271452 
1220	 0.393817380142514 
1221	 0.393895933919782 
1222	 0.393997393616324 
1223	 0.394101142613803 
1224	 0.394194816320693 
1225	 0.394289838971231 
1226	 0.394384842452891 
1227	 0.39446893347961 
1228	 0.394555381174098 
1229	 0.394639502024517 
1230	 0.394736178296805 
1231	 0.39485510397164 
1232	 0.394945861330349 
1233	 0.395028413873661 
1234	 0.395114810438383 
1235	 0.395188924086428 
1236	 0.395217703109924 
1237	 0.395304613435959 
1238	 0.39542484686092 
1239	 0.395529594000954 
1240	 0.395658634236319 
1241	 0.39576561710933 
1242	 0.39586380905743 
1243	 0.395950177241594 
1244	 0.396017835832966 
1245	 0.396098067571081 
1246	 0.396176705740362 
1247	 0.396250331685037 
1248	 0.396330457597348 
1249	 0.396405339089238 
1250	 0.396474088446474 
1251	 0.396537497085175 
1252	 0.396615306672326 
1253	 0.396712262303131 
1254	 0.396782251218315 
1255	 0.396847591142545 
1256	 0.396909840475914 
1257	 0.3969458898278 
1258	 0.397008269336066 
1259	 0.397091009403346 
1260	 0.397158058653681 
1261	 0.397237914896284 
1262	 0.397296782209563 
1263	 0.397328125733803 
1264	 0.397370867706788 
1265	 0.397401122372104 
1266	 0.397447451686531 
1267	 0.397510703863902 
1268	 0.397572981117742 
1269	 0.397626995917397 
1270	 0.397683453560022 
1271	 0.397736837217347 
1272	 0.397777406716888 
1273	 0.397835921813853 
1274	 0.397892679780741 
1275	 0.397972356624568 
1276	 0.398063871295597 
1277	 0.39816825954104 
1278	 0.398301581691339 
1279	 0.398425728891625 
1280	 0.398566414635111 
1281	 0.398683238962026 
1282	 0.398791489010626 
1283	 0.398896548992658 
1284	 0.39899025934233 
1285	 0.399079677322983 
1286	 0.399156965641936 
1287	 0.399223041616101 
1288	 0.399271258743721 
1289	 0.399289964260733 
1290	 0.399328646972273 
1291	 0.399365266479139 
1292	 0.399390805061486 
1293	 0.399424635223772 
1294	 0.399432367436723 
1295	 0.399417714880014 
1296	 0.39940964762601 
1297	 0.399396264400116 
1298	 0.399371883090114 
1299	 0.399349288442134 
1300	 0.399304884770861 
1301	 0.399232595631247 
1302	 0.399167189315317 
1303	 0.399086623762203 
1304	 0.3990168053248 
1305	 0.398953389642869 
1306	 0.398898876690046 
1307	 0.398847963588747 
1308	 0.398786929090344 
1309	 0.398711249094248 
1310	 0.398614935205852 
1311	 0.398540690976386 
1312	 0.39846025982353 
1313	 0.398390080266858 
1314	 0.398347967849051 
1315	 0.398280553648842 
1316	 0.398187321227834 
1317	 0.398124014298413 
1318	 0.398066025135993 
1319	 0.3980126328326 
1320	 0.397984112671186 
1321	 0.397943681305602 
1322	 0.397898224632353 
1323	 0.397846602321562 
1324	 0.397810765016711 
1325	 0.397788442189952 
1326	 0.397766950490118 
1327	 0.397739052736904 
1328	 0.397697882578995 
1329	 0.397667794680579 
1330	 0.397661051354545 
1331	 0.3976527066364 
1332	 0.397694202554522 
1333	 0.397788733553652 
1334	 0.397846843040943 
1335	 0.397934364008206 
1336	 0.397986839120007 
1337	 0.39799273553937 
1338	 0.398034027791322 
1339	 0.398079502532946 
1340	 0.39813012525799 
1341	 0.398217538081244 
1342	 0.39826886628542 
1343	 0.398304458894129 
1344	 0.398335552818227 
1345	 0.398348330089161 
1346	 0.398345878221053 
1347	 0.398371181266463 
1348	 0.398386931189237 
1349	 0.398404881033366 
1350	 0.398433177598183 
1351	 0.398452937860994 
1352	 0.398465477132553 
1353	 0.398495655131179 
1354	 0.398530693615284 
1355	 0.398560237636041 
1356	 0.398605796925906 
1357	 0.398626443406455 
1358	 0.398636142889123 
1359	 0.398645209697741 
1360	 0.398635052072051 
1361	 0.39863727127381 
1362	 0.398638784185324 
1363	 0.398641327130739 
1364	 0.398668149036377 
1365	 0.398669086465315 
1366	 0.398657262742157 
1367	 0.398640347471002 
1368	 0.398620098812532 
1369	 0.398566657611224 
1370	 0.398496423364173 
1371	 0.398414945446282 
1372	 0.398317640582539 
1373	 0.39817551667485 
1374	 0.398009011410118 
1375	 0.397835006875112 
1376	 0.397607019961651 
1377	 0.397339148007351 
1378	 0.397027664094911 
1379	 0.396670161592864 
1380	 0.39628340391888 
1381	 0.395862013890718 
1382	 0.395394294639402 
1383	 0.394910511033317 
1384	 0.394355711814055 
1385	 0.393780699583884 
1386	 0.393093454673629 
1387	 0.392341730609353 
1388	 0.391498535918204 
1389	 0.39057062649329 
1390	 0.389535977032902 
1391	 0.388429163091808 
1392	 0.387222249492544 
1393	 0.385898287148993 
1394	 0.384525034846401 
1395	 0.383072604221545 
1396	 0.381586713782889 
1397	 0.380119354023113 
1398	 0.378611229821656 
1399	 0.377145945375327 
1400	 0.375682888629362 
1401	 0.374272241883925 
1402	 0.372869528207938 
1403	 0.371538540754073 
1404	 0.370243135685612 
1405	 0.369026586691928 
1406	 0.367835397394792 
1407	 0.366770182785451 
1408	 0.365761691708068 
1409	 0.364900733920454 
1410	 0.364107434757739 
1411	 0.36351837718788 
1412	 0.363071119712956 
1413	 0.362789031741822 
1414	 0.362719453499317 
1415	 0.362807502545494 
1416	 0.363046152635957 
1417	 0.363389771983675 
1418	 0.363784511696788 
1419	 0.364205240959845 
1420	 0.364614018654305 
1421	 0.364997880542313 
1422	 0.365320215599556 
1423	 0.365600593785611 
1424	 0.365827541457426 
1425	 0.365995546860955 
1426	 0.366123430613866 
1427	 0.366190275995329 
1428	 0.366260189976268 
1429	 0.366286898982159 
1430	 0.366313209496292 
1431	 0.366339923165421 
1432	 0.366337642096929 
1433	 0.366298600007948 
1434	 0.366270483644292 
1435	 0.366220857241034 
1436	 0.366190478308351 
1437	 0.366173296349461 
1438	 0.366148972971323 
1439	 0.36612857232186 
1440	 0.366113034353667 
1441	 0.366071649146766 
1442	 0.366025583856862 
1443	 0.365982975439109 
1444	 0.365940533447943 
1445	 0.365920103714472 
1446	 0.365919240074008 
1447	 0.365917940708188 
1448	 0.365912224755108 
1449	 0.365902385890851 
1450	 0.36588815218171 
1451	 0.365884163260411 
1452	 0.365886347228106 
1453	 0.365885131788052 
1454	 0.365889904259329 
1455	 0.365889995882194 
1456	 0.365886022856841 
1457	 0.365881994563264 
1458	 0.365874801678154 
1459	 0.365873274899 
1460	 0.365859794036367 
1461	 0.365875247118854 
1462	 0.365903634130192 
1463	 0.365945224485698 
1464	 0.365994031733079 
1465	 0.36607581604975 
1466	 0.366178193056842 
1467	 0.366300994502832 
1468	 0.366450675830491 
1469	 0.366618863390881 
1470	 0.366805395022335 
1471	 0.36701246461695 
1472	 0.367223415402498 
1473	 0.367484958597767 
1474	 0.367755313515331 
1475	 0.368027000605936 
1476	 0.368333625477135 
1477	 0.368630068797485 
1478	 0.368935447963317 
1479	 0.369250863110721 
1480	 0.369553265720155 
1481	 0.369864588210341 
1482	 0.370167216683417 
1483	 0.370454745169938 
1484	 0.370764552197176 
1485	 0.371090484535486 
1486	 0.371396957573971 
1487	 0.371708314110994 
1488	 0.372007457597648 
1489	 0.372288548926337 
1490	 0.372571975024442 
1491	 0.372859430945669 
1492	 0.37314130674682 
1493	 0.373400609138964 
1494	 0.373681864656704 
1495	 0.373983110751303 
1496	 0.374265109851475 
1497	 0.37455831552974 
1498	 0.374836904202346 
1499	 0.375090700072347 
1500	 0.37534741769862 
1501	 0.375604903392272 
1502	 0.375849158807184 
1503	 0.376080515074027 
1504	 0.376320624191494 
1505	 0.376547691554774 
1506	 0.376775001343494 
1507	 0.376996141245116 
1508	 0.377219978374239 
1509	 0.377448139483916 
1510	 0.377668242055317 
1511	 0.377884688594783 
1512	 0.378112828035063 
1513	 0.378370094524167 
1514	 0.378627754257255 
1515	 0.378901484559268 
1516	 0.379173574555521 
1517	 0.379396354411566 
1518	 0.379575510841644 
1519	 0.379767569514445 
1520	 0.379929483436557 
1521	 0.380114330303076 
1522	 0.380306754129372 
1523	 0.38050324245945 
1524	 0.380708039942687 
1525	 0.380901332747618 
1526	 0.381094040162387 
1527	 0.381287956182576 
1528	 0.381477600413761 
1529	 0.381665183987188 
1530	 0.381862786078619 
1531	 0.382039962965692 
1532	 0.382194521022008 
1533	 0.38236303598708 
1534	 0.382534645893328 
1535	 0.382698357046049 
1536	 0.382861957079594 
1537	 0.383027144551612 
1538	 0.383188184950738 
1539	 0.383342149743461 
1540	 0.383502191574235 
1541	 0.383645881929503 
1542	 0.383774931953709 
1543	 0.38390046394404 
1544	 0.384015249042832 
1545	 0.384131880441286 
1546	 0.384244607525376 
1547	 0.384345846841258 
1548	 0.384463762029541 
1549	 0.384607106554345 
1550	 0.384765809578477 
1551	 0.384933522533269 
1552	 0.385096517664034 
1553	 0.385229562472402 
1554	 0.385359627279056 
1555	 0.385488768526481 
1556	 0.385601258279355 
1557	 0.38572384022758 
1558	 0.385849240091549 
1559	 0.385978030759371 
1560	 0.386086650853516 
1561	 0.386186240551143 
1562	 0.386299277577857 
1563	 0.386390890794794 
1564	 0.386515607463409 
1565	 0.386679332298577 
1566	 0.386812445384132 
1567	 0.386944130955252 
1568	 0.387065485650251 
1569	 0.38717168788054 
1570	 0.387283163053249 
1571	 0.387400079334511 
1572	 0.387499652255031 
1573	 0.387598776472671 
1574	 0.387675987326806 
1575	 0.387722316640195 
1576	 0.387788746106736 
1577	 0.387856150485303 
1578	 0.387909168690879 
1579	 0.387953387166562 
1580	 0.388015465987156 
1581	 0.388070407865672 
1582	 0.388135480834756 
1583	 0.388226373432193 
1584	 0.388308461327927 
1585	 0.388374083765019 
1586	 0.388460850405681 
1587	 0.388561956043857 
1588	 0.388665437554943 
1589	 0.38880638878748 
1590	 0.388894660904262 
1591	 0.388964577138652 
1592	 0.389020731930321 
1593	 0.389015737078158 
1594	 0.389051513841136 
1595	 0.389094822735349 
1596	 0.389154586940544 
1597	 0.389250701899309 
1598	 0.389324348938675 
1599	 0.389403430538343 
1600	 0.389468420545612 
1601	 0.389506051448112 
1602	 0.389559580141243 
1603	 0.389617658098773 
1604	 0.38967455237513 
1605	 0.389745427711784 
1606	 0.389801420357601 
1607	 0.38984202724892 
1608	 0.389888973136936 
1609	 0.389940820610242 
1610	 0.389974207583872 
1611	 0.389999095825048 
1612	 0.390032164596655 
1613	 0.390048205975501 
1614	 0.390050979994844 
1615	 0.390064393130917 
1616	 0.390061772359502 
1617	 0.39006695934701 
1618	 0.390095406475106 
1619	 0.390117678250021 
1620	 0.390158178801253 
1621	 0.39020280699808 
1622	 0.390257804673296 
1623	 0.390296955820499 
1624	 0.390341425992336 
1625	 0.390378016274499 
1626	 0.390402848138459 
1627	 0.390424304359033 
1628	 0.390438426392015 
1629	 0.390476377117634 
1630	 0.390521290579269 
1631	 0.390545437057041 
1632	 0.390587163467436 
1633	 0.390602539768863 
1634	 0.390576528511223 
1635	 0.390583142399827 
1636	 0.390603285872524 
1637	 0.390615699684033 
1638	 0.390626456382822 
1639	 0.390643865206827 
1640	 0.390668616796513 
1641	 0.390682232616364 
1642	 0.390698897250803 
1643	 0.390705089844398 
1644	 0.390685511041321 
1645	 0.390704106416413 
1646	 0.390743948223862 
1647	 0.390764374403074 
1648	 0.390796303045548 
1649	 0.390821057730604 
1650	 0.390833409530759 
1651	 0.390838818018113 
1652	 0.39085322733039 
1653	 0.390848593438757 
1654	 0.390812595540367 
1655	 0.390798743549618 
1656	 0.390792853758089 
1657	 0.390779693170124 
1658	 0.39076931933022 
1659	 0.390753067801412 
1660	 0.390732539053705 
1661	 0.390707521883951 
1662	 0.39067003500847 
1663	 0.390652181551478 
1664	 0.390635304239232 
1665	 0.390628394038194 
1666	 0.390640454276272 
1667	 0.390646934582822 
1668	 0.39065712770363 
1669	 0.390661454657079 
1670	 0.390672278582309 
1671	 0.390667973263581 
1672	 0.390652457256237 
1673	 0.390635170924623 
1674	 0.390604364422445 
1675	 0.390585484727135 
1676	 0.390561636358724 
1677	 0.39055517761337 
1678	 0.390572136315501 
1679	 0.390566255964004 
1680	 0.390577103564534 
1681	 0.390543145003905 
1682	 0.390455448488268 
1683	 0.390412995401043 
1684	 0.390363006056014 
1685	 0.39033034895033 
1686	 0.390335061110388 
1687	 0.390320717399249 
1688	 0.390296693634951 
1689	 0.390278498603367 
1690	 0.390255767399211 
1691	 0.390252858070999 
1692	 0.390275535808324 
1693	 0.390262625291136 
1694	 0.39026017967247 
1695	 0.390223643225183 
1696	 0.390125471950158 
1697	 0.390078309547168 
1698	 0.390038280821568 
1699	 0.390006480057805 
1700	 0.390010922731049 
1701	 0.389983207847324 
1702	 0.389938124333917 
1703	 0.389904945934516 
1704	 0.389876249483307 
1705	 0.389827630300456 
1706	 0.389767462363219 
1707	 0.389723315252686 
1708	 0.389670093107472 
1709	 0.389617656404081 
1710	 0.389579330370886 
1711	 0.389535597226846 
1712	 0.389472792522651 
1713	 0.389435849409345 
1714	 0.389428341257015 
1715	 0.389395402766718 
1716	 0.389367609630105 
1717	 0.389314766097349 
1718	 0.389239554440056 
1719	 0.389164157132669 
1720	 0.389073557449629 
1721	 0.388987878585767 
1722	 0.388904654955037 
1723	 0.388808150253728 
1724	 0.388688359232463 
1725	 0.388606798332913 
1726	 0.388537706219603 
1727	 0.38846067569632 
1728	 0.388424101675845 
1729	 0.388333444818816 
1730	 0.38821081258744 
1731	 0.388076419202246 
1732	 0.387909224124913 
1733	 0.387759684920911 
1734	 0.387592286634027 
1735	 0.387455215415906 
1736	 0.387339646622523 
1737	 0.387224357539945 
1738	 0.387121841683889 
1739	 0.38701101845917 
1740	 0.386908361078597 
1741	 0.386782488597742 
1742	 0.38665333483135 
1743	 0.386501376771364 
1744	 0.386321046920023 
1745	 0.386159922276329 
1746	 0.385975543001028 
1747	 0.385835593050463 
1748	 0.385731449979672 
1749	 0.385606621279136 
1750	 0.385517597185265 
1751	 0.385425624397662 
1752	 0.385279316606467 
1753	 0.385131532913655 
1754	 0.384994317556883 
1755	 0.384877210284326 
1756	 0.384771381187366 
1757	 0.384661324805927 
1758	 0.384548603212537 
1759	 0.384417748283365 
1760	 0.384273160786249 
1761	 0.384137513903416 
1762	 0.384001613087393 
1763	 0.383827399028656 
1764	 0.383670277485299 
1765	 0.383567975390317 
1766	 0.383464487890535 
1767	 0.383383054755916 
1768	 0.383304577486229 
1769	 0.383177627117453 
1770	 0.383055926648222 
1771	 0.3829532418952 
1772	 0.382837852906042 
1773	 0.382709833963014 
1774	 0.382582135511505 
1775	 0.382463784619469 
1776	 0.382345857978513 
1777	 0.382215523120457 
1778	 0.382109609201067 
1779	 0.382035401240046 
1780	 0.381962111342137 
1781	 0.381911337021472 
1782	 0.381871075515616 
1783	 0.38179427908983 
1784	 0.381698507549081 
1785	 0.381581910794768 
1786	 0.381493192975569 
1787	 0.381389862355459 
1788	 0.381309682729261 
1789	 0.381257104342844 
1790	 0.381224267924008 
1791	 0.381217444153427 
1792	 0.381179435636544 
1793	 0.381166176998688 
1794	 0.381118682465493 
1795	 0.381016581410098 
1796	 0.380943774496376 
1797	 0.380863480247815 
1798	 0.380815183955851 
1799	 0.380786288022769 
1800	 0.380759939782647 
1801	 0.375799777348733 
1802	 0.375829295698711 
1803	 0.375876183281603 
1804	 0.375911390321126 
1805	 0.375953607801284 
1806	 0.376010248739774 
1807	 0.376060088604169 
1808	 0.376103150863357 
1809	 0.376147578012148 
1810	 0.37618477044735 
1811	 0.376221087917038 
1812	 0.376238187662088 
1813	 0.376256929728033 
1814	 0.376259813365122 
1815	 0.376220272046736 
1816	 0.376199073991263 
1817	 0.37617601218983 
1818	 0.376121442528118 
1819	 0.376106353542981 
1820	 0.37612914514551 
1821	 0.376117781132988 
1822	 0.376105018675033 
1823	 0.376093239461397 
1824	 0.376040655073119 
1825	 0.375987798617251 
1826	 0.375913012765219 
1827	 0.375815237288296 
1828	 0.375698384906784 
1829	 0.375534305863571 
1830	 0.375399681184394 
1831	 0.375262770393055 
1832	 0.375122405830154 
1833	 0.375000423653729 
1834	 0.374888707875802 
1835	 0.374747817212153 
1836	 0.374616073576261 
1837	 0.374476451535614 
1838	 0.374323756867925 
1839	 0.374182439788517 
1840	 0.374048680760108 
1841	 0.373901294436452 
1842	 0.373771046183928 
1843	 0.373653768413416 
1844	 0.37352966545099 
1845	 0.37338499922624 
1846	 0.373190128683435 
1847	 0.372985242851912 
1848	 0.372751310037544 
1849	 0.372512560416562 
1850	 0.372304128304706 
1851	 0.372120845679577 
1852	 0.371935825969118 
1853	 0.371765050424391 
1854	 0.37156421547596 
1855	 0.371352843890186 
1856	 0.371124308130422 
1857	 0.370838506710473 
1858	 0.370544387468511 
1859	 0.370202195516301 
1860	 0.369794716420888 
1861	 0.369320722958741 
1862	 0.368810229225439 
1863	 0.368260784256985 
1864	 0.367671396987477 
1865	 0.367069079281253 
1866	 0.366413963800857 
1867	 0.365691875358876 
1868	 0.364916379623916 
1869	 0.364060492835059 
1870	 0.363162673650754 
1871	 0.362187284128365 
1872	 0.361154002347994 
1873	 0.360047699052805 
1874	 0.358892113244451 
1875	 0.357643045154784 
1876	 0.356308318651009 
1877	 0.354867290527479 
1878	 0.353285441143216 
1879	 0.351589348002846 
1880	 0.349745627973634 
1881	 0.347750137387034 
1882	 0.345655421062869 
1883	 0.343454665302789 
1884	 0.341052033158007 
1885	 0.338564650948214 
1886	 0.335968835416529 
1887	 0.333191956201553 
1888	 0.33031766181579 
1889	 0.32731032250536 
1890	 0.324221027738864 
1891	 0.321141753374156 
1892	 0.317942007837316 
1893	 0.314827884143547 
1894	 0.311728080533849 
1895	 0.308651215860543 
1896	 0.305573426386189 
1897	 0.302636951090496 
1898	 0.299788097835493 
1899	 0.29705742925812 
1900	 0.294501712739791 
1901	 0.29210639632334 
1902	 0.28986459450107 
1903	 0.287801694353296 
1904	 0.285867227039456 
1905	 0.284088114559223 
1906	 0.282446418030722 
1907	 0.280919900346099 
1908	 0.279501311088319 
1909	 0.278210815597386 
1910	 0.27701989502774 
1911	 0.275921962222319 
1912	 0.274926550803484 
1913	 0.273987557030917 
1914	 0.273119855394662 
1915	 0.272311099711282 
1916	 0.271572239626181 
1917	 0.270898958640603 
1918	 0.270296500816163 
1919	 0.26974531026594 
1920	 0.269256230224812 
1921	 0.26882201625955 
1922	 0.26841710967986 
1923	 0.268080853551643 
1924	 0.267783332325529 
1925	 0.267534010157304 
1926	 0.267330064759072 
1927	 0.267168151511374 
1928	 0.267051523580424 
1929	 0.267011852391137 
1930	 0.267014836090087 
1931	 0.267048174369133 
1932	 0.267137513097468 
1933	 0.26723401839053 
1934	 0.267348026005112 
1935	 0.267493727163336 
1936	 0.267654844557779 
1937	 0.267861932538863 
1938	 0.268109235776524 
1939	 0.268380730667033 
1940	 0.268683632591456 
1941	 0.269033527107982 
1942	 0.269400550321396 
1943	 0.269787633550778 
1944	 0.270187173438748 
1945	 0.270611940561366 
1946	 0.271049558835779 
1947	 0.271493100276356 
1948	 0.271957297892438 
1949	 0.272468105441771 
1950	 0.272955131408749 
1951	 0.273446566666779 
1952	 0.273919803019312 
1953	 0.274410168937099 
1954	 0.274920575718057 
1955	 0.275452284329812 
1956	 0.276013769956023 
1957	 0.276581642768293 
1958	 0.277163658084809 
1959	 0.277755586198054 
1960	 0.278366053850664 
1961	 0.278985180738815 
1962	 0.27962230399702 
1963	 0.280259409487229 
1964	 0.280905780904231 
1965	 0.281549911695325 
1966	 0.282194758813377 
1967	 0.282854108313331 
1968	 0.283523153481769 
1969	 0.28420829359218 
1970	 0.284876981692161 
1971	 0.285547545334732 
1972	 0.286224695101473 
1973	 0.286900533010106 
1974	 0.28757394477978 
1975	 0.288258245104169 
1976	 0.288930119673866 
1977	 0.289623123917543 
1978	 0.290287073246871 
1979	 0.290947967700745 
1980	 0.291675361176798 
1981	 0.292377284397994 
1982	 0.293074535070931 
1983	 0.293772662828697 
1984	 0.294479391223876 
1985	 0.295173192398871 
1986	 0.295860249078921 
1987	 0.296548924324876 
1988	 0.297230736542721 
1989	 0.297918202062541 
1990	 0.298631789957142 
1991	 0.29933094047383 
1992	 0.30003548252306 
1993	 0.300764233650013 
1994	 0.301473473220461 
1995	 0.302176305783741 
1996	 0.302857113022434 
1997	 0.30352581406435 
1998	 0.304189338568895 
1999	 0.304820686625301 
2000	 0.305473150906991 
2001	 0.306138512712946 
2002	 0.306794328857908 
2003	 0.307471459502408 
2004	 0.308132780240827 
2005	 0.308779863338536 
2006	 0.309424510217525 
2007	 0.310058980001176 
2008	 0.310660405568816 
2009	 0.311288596509728 
2010	 0.311924011581007 
2011	 0.312556922913896 
2012	 0.313212603079988 
2013	 0.313841524862304 
2014	 0.314455482758539 
2015	 0.315071569345241 
2016	 0.31565946800402 
2017	 0.316247603252847 
2018	 0.316844669708458 
2019	 0.31745179277099 
2020	 0.318037261551785 
2021	 0.318623184411739 
2022	 0.319197889306191 
2023	 0.31975791942026 
2024	 0.320311236414176 
2025	 0.320854873296818 
2026	 0.32139716232487 
2027	 0.32193089406028 
2028	 0.322453108331199 
2029	 0.322985865286194 
2030	 0.323525972567867 
2031	 0.324059941682402 
2032	 0.324594158674367 
2033	 0.325121543740254 
2034	 0.325650038310749 
2035	 0.326165150399444 
2036	 0.32668614571962 
2037	 0.327176153097696 
2038	 0.327643991489215 
2039	 0.328103609491558 
2040	 0.328541520817393 
2041	 0.328957876999651 
2042	 0.329402930778301 
2043	 0.329859441038577 
2044	 0.33029504537668 
2045	 0.33074190954503 
2046	 0.331163377535496 
2047	 0.331560581307391 
2048	 0.331953985438183 
2049	 0.332338149050497 
2050	 0.332715220585134 
2051	 0.333067316525392 
2052	 0.333434642230802 
2053	 0.333814910226119 
2054	 0.334180365161303 
2055	 0.334541737102637 
2056	 0.334904102895421 
2057	 0.33525544111232 
2058	 0.335595952895765 
2059	 0.335922691553677 
2060	 0.336230959150344 
2061	 0.336560971206899 
2062	 0.336879904985572 
2063	 0.337215646181696 
2064	 0.337574982614518 
2065	 0.337926789496305 
2066	 0.338296146582117 
2067	 0.338637728862886 
2068	 0.338974631883249 
2069	 0.339294404559971 
2070	 0.339609636953349 
2071	 0.33989876303181 
2072	 0.340201115956473 
2073	 0.340523279363396 
2074	 0.340802745019077 
2075	 0.341047724745182 
2076	 0.341314725416035 
2077	 0.341557655736202 
2078	 0.341825213581811 
2079	 0.342130837304839 
2080	 0.342409290813132 
2081	 0.342684886959259 
2082	 0.342947248564923 
2083	 0.343180274672212 
2084	 0.343438254545006 
2085	 0.343679545735417 
2086	 0.343908442246892 
2087	 0.344149105193195 
2088	 0.344395729529466 
2089	 0.344629348388412 
2090	 0.344870545577104 
2091	 0.345091444208359 
2092	 0.345283969460114 
2093	 0.345496176424086 
2094	 0.345688443199293 
2095	 0.345914185641602 
2096	 0.346189325303062 
2097	 0.346429309903155 
2098	 0.346675176499627 
2099	 0.346914619886174 
2100	 0.347117421874807 
2101	 0.347266894735962 
2102	 0.347464174657089 
2103	 0.347645267622815 
2104	 0.347871298754039 
2105	 0.348124506377179 
2106	 0.348396223038391 
2107	 0.348713026846915 
2108	 0.349004539323071 
2109	 0.349313494275841 
2110	 0.349608038357649 
2111	 0.349886751573558 
2112	 0.350161707609506 
2113	 0.35044365038836 
2114	 0.350707322643858 
2115	 0.350955492900365 
2116	 0.351171750713753 
2117	 0.351434364972937 
2118	 0.351688820763131 
2119	 0.351980761761994 
2120	 0.352328741045217 
2121	 0.352639164018389 
2122	 0.352962299432051 
2123	 0.353256409422595 
2124	 0.353540675113094 
2125	 0.353799986828249 
2126	 0.35404123766114 
2127	 0.35426100358149 
2128	 0.354466094465374 
2129	 0.354636810471206 
2130	 0.3547558078259 
2131	 0.354886742901332 
2132	 0.355016932211714 
2133	 0.355133125659097 
2134	 0.35523321501384 
2135	 0.355348724866455 
2136	 0.355423117952436 
2137	 0.355451245180523 
2138	 0.355491366014907 
2139	 0.355537879198007 
2140	 0.355546811971064 
2141	 0.355539927242353 
2142	 0.355507269750681 
2143	 0.355437449847522 
2144	 0.355363503483647 
2145	 0.355281016151524 
2146	 0.35517223437162 
2147	 0.355065177156733 
2148	 0.35491344493426 
2149	 0.354710951809207 
2150	 0.354456247187812 
2151	 0.354204963151462 
2152	 0.353895705452588 
2153	 0.353617095174616 
2154	 0.353349841229422 
2155	 0.353067343664413 
2156	 0.35279525131819 
2157	 0.352481582441759 
2158	 0.352142811625275 
2159	 0.351795777162752 
2160	 0.351422478438309 
2161	 0.351037015244807 
2162	 0.350633099572512 
2163	 0.350234585369374 
2164	 0.349832378777057 
2165	 0.349402626415046 
2166	 0.348983808206987 
2167	 0.348579263230736 
2168	 0.34814446553395 
2169	 0.347712550026203 
2170	 0.3472212334104 
2171	 0.346716184237544 
2172	 0.346145505108876 
2173	 0.345501071209447 
2174	 0.344856335895003 
2175	 0.344171032269686 
2176	 0.3434751538805 
2177	 0.342754709411743 
2178	 0.342027817853061 
2179	 0.341278669937162 
2180	 0.340520121006372 
2181	 0.339775442708937 
2182	 0.338986099186695 
2183	 0.338176375780063 
2184	 0.337328753332028 
2185	 0.3364429170548 
2186	 0.335484864165975 
2187	 0.334581332210426 
2188	 0.333635524346163 
2189	 0.332774448865599 
2190	 0.331952730297312 
2191	 0.331166570378384 
2192	 0.330392446167423 
2193	 0.32971196129634 
2194	 0.329089223435321 
2195	 0.328524251085103 
2196	 0.328043177341541 
2197	 0.327606468146516 
2198	 0.327210665881954 
2199	 0.326882700220348 
2200	 0.326621276814549 
2201	 0.326415230687999 
2202	 0.326268967435475 
2203	 0.326184089111011 
2204	 0.32615768849612 
2205	 0.326192931232604 
2206	 0.32629546705406 
2207	 0.326437100897782 
2208	 0.326707147921047 
2209	 0.327071955917276 
2210	 0.327511076599881 
2211	 0.328116322515875 
2212	 0.328653850284327 
2213	 0.329243983618888 
2214	 0.329802638740249 
2215	 0.330339387382436 
2216	 0.330890327496329 
2217	 0.331492768900367 
2218	 0.3320163457525 
2219	 0.332521008886475 
2220	 0.33297938611347 
2221	 0.333357899079192 
2222	 0.333733814297691 
2223	 0.334117576829705 
2224	 0.334469713695768 
2225	 0.334769025225226 
2226	 0.335051751864779 
2227	 0.335263468427401 
2228	 0.33540303849745 
2229	 0.33552991739839 
2230	 0.335609246883664 
2231	 0.335679743110341 
2232	 0.335717140809003 
2233	 0.335741031557775 
2234	 0.335745816391459 
2235	 0.33573452443073 
2236	 0.335694211743795 
2237	 0.335655838428126 
2238	 0.33560703783004 
2239	 0.335546483717849 
2240	 0.335480311959546 
2241	 0.335397745304906 
2242	 0.335313486415537 
2243	 0.335195890019545 
2244	 0.335039225865403 
2245	 0.334893029525544 
2246	 0.3347266162926 
2247	 0.334531614006252 
2248	 0.334367461209896 
2249	 0.334219573880221 
2250	 0.334047511791188 
2251	 0.333875773065441 
2252	 0.333702059147539 
2253	 0.333491445161213 
2254	 0.333347048107975 
2255	 0.333241877665553 
2256	 0.33311785683586 
2257	 0.333026353837808 
2258	 0.332920849875911 
2259	 0.332795135548082 
2260	 0.332675963548767 
2261	 0.33253542246754 
2262	 0.332453934380338 
2263	 0.332372226383451 
2264	 0.332353508971404 
2265	 0.332432009366414 
2266	 0.332482727736855 
2267	 0.332574632326129 
2268	 0.3326317089616 
2269	 0.332683085151597 
2270	 0.332703929888542 
2271	 0.332701058325816 
2272	 0.332717998769989 
2273	 0.332716697055213 
2274	 0.332721264700633 
2275	 0.332726239414869 
2276	 0.332726450473908 
2277	 0.332738337597207 
2278	 0.332741482648464 
2279	 0.332782422915785 
2280	 0.332854041084799 
2281	 0.332917093218186 
2282	 0.333022702816577 
2283	 0.333077629090619 
2284	 0.33309799216124 
2285	 0.333131972410897 
2286	 0.333141966102945 
2287	 0.3331742585841 
2288	 0.333247685898456 
2289	 0.333271362816248 
2290	 0.33326688775274 
2291	 0.333266482433969 
2292	 0.333230749817233 
2293	 0.333213530373205 
2294	 0.333244587479915 
2295	 0.33322204206495 
2296	 0.333142511689948 
2297	 0.333110596691739 
2298	 0.33307500140406 
2299	 0.33300436666944 
2300	 0.332964547467932 
2301	 0.332908826789717 
2302	 0.332827697075805 
2303	 0.332754011840586 
2304	 0.332711676846164 
2305	 0.332620682100537 
2306	 0.332513881399702 
2307	 0.332377522556335 
2308	 0.33225528574936 
2309	 0.332134468743595 
2310	 0.331977194879896 
2311	 0.331816787429751 
2312	 0.331613711745438 
2313	 0.331349789344159 
2314	 0.331099523975644 
2315	 0.330803433193296 
2316	 0.330580835090611 
2317	 0.330378654969486 
2318	 0.330198432373621 
2319	 0.330124436859542 
2320	 0.329945049282081 
2321	 0.329720313345175 
2322	 0.32948430000951 
2323	 0.329156967866966 
2324	 0.328904547995852 
2325	 0.328681466563854 
2326	 0.328462437004219 
2327	 0.32828895845499 
2328	 0.32809656272192 
2329	 0.327873340300567 
2330	 0.327641796634736 
2331	 0.327378762463666 
2332	 0.3271409964399 
2333	 0.326875031595745 
2334	 0.326637732430809 
2335	 0.326468692167341 
2336	 0.32622983457102 
2337	 0.326006610330693 
2338	 0.325773371286734 
2339	 0.325422629412703 
2340	 0.32506038845431 
2341	 0.324722376717574 
2342	 0.324388401357033 
2343	 0.324038714494503 
2344	 0.323712183768193 
2345	 0.323439102537028 
2346	 0.323172063918121 
2347	 0.322920305238934 
2348	 0.322769295987457 
2349	 0.322548632878083 
2350	 0.322282962853319 
2351	 0.322041272476262 
2352	 0.321799682906624 
2353	 0.321543451126861 
2354	 0.321249201024945 
2355	 0.321027381361791 
2356	 0.320850312481595 
2357	 0.320668901116008 
2358	 0.320523015080313 
2359	 0.32037065009497 
2360	 0.320241029959977 
2361	 0.320052037289426 
2362	 0.319841707513051 
2363	 0.319639690585539 
2364	 0.319385635611195 
2365	 0.319134361171166 
2366	 0.318937064806364 
2367	 0.318683882810254 
2368	 0.318340621956968 
2369	 0.318086257868044 
2370	 0.317875802053752 
2371	 0.317616007047085 
2372	 0.317379091976844 
2373	 0.317067824101444 
2374	 0.316720500379356 
2375	 0.316317862506415 
2376	 0.315941390831126 
2377	 0.31560522576823 
2378	 0.315174255633003 
2379	 0.314748525289797 
2380	 0.314288040684816 
2381	 0.313818625222058 
2382	 0.313425085964861 
2383	 0.313041235719984 
2384	 0.312666946559632 
2385	 0.312286191222684 
2386	 0.311882001016538 
2387	 0.311471009309611 
2388	 0.31114941920751 
2389	 0.310833564951908 
2390	 0.310496713670464 
2391	 0.310205316107072 
2392	 0.309782910528239 
2393	 0.309350830974998 
2394	 0.308978390924376 
2395	 0.308536368860605 
2396	 0.308075087638354 
2397	 0.307577370997488 
2398	 0.306976702692436 
2399	 0.306375605254977 
2400	 0.305889724080718 
2401	 0.30541599612149 
2402	 0.305011702333487 
2403	 0.304637916565418 
2404	 0.304135839863055 
2405	 0.303698031342075 
2406	 0.30321111804893 
2407	 0.302634215450063 
2408	 0.302092828364412 
2409	 0.301470486688112 
2410	 0.300827621090138 
2411	 0.300147180816955 
2412	 0.299469480567011 
2413	 0.298832677164648 
2414	 0.298256852753794 
2415	 0.297751710101717 
2416	 0.297157208258212 
2417	 0.296535750847111 
2418	 0.295906696051468 
2419	 0.29517252696074 
2420	 0.294569677532537 
2421	 0.29410342971931 
2422	 0.293497750928309 
2423	 0.292882817787867 
2424	 0.292285438967283 
2425	 0.291574244678645 
2426	 0.290916670890617 
2427	 0.290331616176426 
2428	 0.289669271899546 
2429	 0.288936105073763 
2430	 0.288327885223741 
2431	 0.287784623745043 
2432	 0.28723616493359 
2433	 0.286756052075262 
2434	 0.28620530757936 
2435	 0.285629346135379 
2436	 0.285064661115493 
2437	 0.284478849455026 
2438	 0.283868327004476 
2439	 0.283260994566839 
2440	 0.282645000301921 
2441	 0.281870617397106 
2442	 0.281332161516568 
2443	 0.281035596798764 
2444	 0.280549313328192 
2445	 0.280157491207714 
2446	 0.279686190889823 
2447	 0.278959088096032 
2448	 0.278354650326299 
2449	 0.277809108679012 
2450	 0.277294424660195 
2451	 0.276818406172825 
2452	 0.276331513831544 
2453	 0.275941744269705 
2454	 0.275498779043231 
2455	 0.274969814227023 
2456	 0.27451035949261 
2457	 0.2740313889222 
2458	 0.273572417230689 
2459	 0.273219158773712 
2460	 0.272831290732128 
2461	 0.272496938972011 
2462	 0.271952286543301 
2463	 0.271170864493446 
2464	 0.270615053448225 
2465	 0.270045932864058 
2466	 0.269619350195413 
2467	 0.269461501836505 
2468	 0.269133430615345 
2469	 0.268793423396776 
2470	 0.268313317512903 
2471	 0.267782629296623 
2472	 0.267212403805153 
2473	 0.266609154340278 
2474	 0.26610933638543 
2475	 0.265562296373423 
2476	 0.265092642645845 
2477	 0.264807307436485 
2478	 0.264401295430177 
2479	 0.263984888441118 
2480	 0.263706277306735 
2481	 0.263320982649435 
2482	 0.262981104203313 
2483	 0.26269223323986 
2484	 0.262282201234242 
2485	 0.26184502671459 
2486	 0.261248086447558 
2487	 0.260758668170585 
2488	 0.260399900674886 
2489	 0.259857041461069 
2490	 0.259511577689002 
2491	 0.259288212394669 
2492	 0.258949737715827 
2493	 0.258772662086932 
2494	 0.258663944361165 
2495	 0.258460727413788 
2496	 0.258308635233686 
2497	 0.257957432570827 
2498	 0.257273128030073 
2499	 0.256832966171281 
2500	 0.256525359466843 
