Wavelength	LMW600004.asd
350	 0.114107169864062 
351	 0.111854816769947 
352	 0.112329090473625 
353	 0.110035011628771 
354	 0.105292530018336 
355	 0.1051601033699 
356	 0.110022615369275 
357	 0.11643284298349 
358	 0.115364035074134 
359	 0.112954112002106 
360	 0.112439705319206 
361	 0.114323597137656 
362	 0.11361774152628 
363	 0.113856391913614 
364	 0.1151261901546 
365	 0.110058443777129 
366	 0.110205866985923 
367	 0.112835328834978 
368	 0.112753054787476 
369	 0.111270861370498 
370	 0.114454315419076 
371	 0.118260569850621 
372	 0.113392313360805 
373	 0.11463397134178 
374	 0.117488153624951 
375	 0.117761807658967 
376	 0.116222597761452 
377	 0.114786781174808 
378	 0.115352475901287 
379	 0.118359498687798 
380	 0.119086630586765 
381	 0.119398849523865 
382	 0.120249190094187 
383	 0.121591966679731 
384	 0.122288987359974 
385	 0.12107705302371 
386	 0.119036455027906 
387	 0.121742317461341 
388	 0.124002253132886 
389	 0.124545287775981 
390	 0.123996341052593 
391	 0.125358562734505 
392	 0.12521255464753 
393	 0.124247329250463 
394	 0.12644584068764 
395	 0.127179808403173 
396	 0.127270757504002 
397	 0.127743179717073 
398	 0.12808338602785 
399	 0.128361746443622 
400	 0.128915523825832 
401	 0.129979121463866 
402	 0.130711550795954 
403	 0.131107888281256 
404	 0.131607689100441 
405	 0.132953250416678 
406	 0.133186572948378 
407	 0.133424673504503 
408	 0.134503741381969 
409	 0.134971810408505 
410	 0.135419775948837 
411	 0.136098926540898 
412	 0.1370327109649 
413	 0.13785920452145 
414	 0.138301541096799 
415	 0.13862116450593 
416	 0.13972603949177 
417	 0.1405725165641 
418	 0.141176323010414 
419	 0.141764958461586 
420	 0.142346233429842 
421	 0.142682511625311 
422	 0.143150317606658 
423	 0.144347056471301 
424	 0.144773128085809 
425	 0.144840607004682 
426	 0.145029044967019 
427	 0.145456661168009 
428	 0.146107991771907 
429	 0.146586726662782 
430	 0.146629829006314 
431	 0.147224454662101 
432	 0.147899812079585 
433	 0.148520194232203 
434	 0.149318359361572 
435	 0.149520584016024 
436	 0.149620170567075 
437	 0.15005798143572 
438	 0.150472930635389 
439	 0.150946850407993 
440	 0.151397579895949 
441	 0.151706761923762 
442	 0.152147586018286 
443	 0.152454621238971 
444	 0.152586097813745 
445	 0.152900723178767 
446	 0.153311799090591 
447	 0.153680627546622 
448	 0.153932879666265 
449	 0.154315056997247 
450	 0.155050780552982 
451	 0.155829688988517 
452	 0.155956380774598 
453	 0.156129121488272 
454	 0.156377422367014 
455	 0.156674590879684 
456	 0.157201526758494 
457	 0.157501759981093 
458	 0.157652843875956 
459	 0.157956112521011 
460	 0.158343964018057 
461	 0.158647622666594 
462	 0.158874349027643 
463	 0.159287017119161 
464	 0.159735416367723 
465	 0.160042874815203 
466	 0.160190934113496 
467	 0.160825222266362 
468	 0.161336004331093 
469	 0.161573452879434 
470	 0.161795021575281 
471	 0.162138846800942 
472	 0.162455007446416 
473	 0.162647309506563 
474	 0.162856020300045 
475	 0.163163839438926 
476	 0.16351104668036 
477	 0.163791886668494 
478	 0.164112666804004 
479	 0.164492532552621 
480	 0.164903185095441 
481	 0.165266931021766 
482	 0.165474759303426 
483	 0.165739161318227 
484	 0.166237618232884 
485	 0.166657811371367 
486	 0.166892900825596 
487	 0.167002377948072 
488	 0.167180987408374 
489	 0.16752955210193 
490	 0.167938099095712 
491	 0.168316299402672 
492	 0.168754324312641 
493	 0.168954837852036 
494	 0.169080421461214 
495	 0.169472323126235 
496	 0.170010184742759 
497	 0.17039959298512 
498	 0.17057515773767 
499	 0.170827893035792 
500	 0.170979182963604 
501	 0.171149815576117 
502	 0.171462350836264 
503	 0.171662500125455 
504	 0.171954512724618 
505	 0.17230052291396 
506	 0.172451998076274 
507	 0.172808773516976 
508	 0.173195731477288 
509	 0.173441800431207 
510	 0.173695606448685 
511	 0.173894533180913 
512	 0.174105237767977 
513	 0.174423613657938 
514	 0.174545676908253 
515	 0.174720583947659 
516	 0.175056577910867 
517	 0.17532558521553 
518	 0.175556001242188 
519	 0.175780242060981 
520	 0.176026442425136 
521	 0.176253159208873 
522	 0.176493181592375 
523	 0.176740251744924 
524	 0.176944762793457 
525	 0.177114167792361 
526	 0.177296857657005 
527	 0.177524057301424 
528	 0.177741825465882 
529	 0.178005323700662 
530	 0.178248568663336 
531	 0.178349792487416 
532	 0.178515609728127 
533	 0.178749059439381 
534	 0.179003510017775 
535	 0.179191542398202 
536	 0.179405222867434 
537	 0.179631681387444 
538	 0.179824301345573 
539	 0.180003499450219 
540	 0.180217196353996 
541	 0.18043642296807 
542	 0.180525362791509 
543	 0.180729787572477 
544	 0.180961620428492 
545	 0.181107300533976 
546	 0.181358075289636 
547	 0.181528397745539 
548	 0.181643757600663 
549	 0.181901153715154 
550	 0.182077392973442 
551	 0.182205184752407 
552	 0.182361769307036 
553	 0.182625098881133 
554	 0.182831073197708 
555	 0.18299315171042 
556	 0.183207214022799 
557	 0.183377772252472 
558	 0.183579958880507 
559	 0.183819004502176 
560	 0.183946973970422 
561	 0.18402090559217 
562	 0.184091890553354 
563	 0.184213951866325 
564	 0.184454299706814 
565	 0.184621574427301 
566	 0.184684513762905 
567	 0.184805626285629 
568	 0.185074111652065 
569	 0.185374669175574 
570	 0.185592854306029 
571	 0.185819809796619 
572	 0.185959047436097 
573	 0.186029521261194 
574	 0.186132042334809 
575	 0.186286289442837 
576	 0.186407679532323 
577	 0.186467687563734 
578	 0.186604237454419 
579	 0.186711799366761 
580	 0.1867459766944 
581	 0.18671782476797 
582	 0.186831615693134 
583	 0.186943682313743 
584	 0.187022381335607 
585	 0.187243278541659 
586	 0.187450715117639 
587	 0.187623760863808 
588	 0.187769033303218 
589	 0.187827739023122 
590	 0.18788967128849 
591	 0.188002182516671 
592	 0.188162695763596 
593	 0.188259129954285 
594	 0.188304761037002 
595	 0.18833788367787 
596	 0.188388599851624 
597	 0.188419214701398 
598	 0.188425236295592 
599	 0.188425460117944 
600	 0.188464034501829 
601	 0.188546794145817 
602	 0.18863390774625 
603	 0.1886075253955 
604	 0.188613122575981 
605	 0.188680315457967 
606	 0.188793786779112 
607	 0.188952094819463 
608	 0.189030427186252 
609	 0.189062787652873 
610	 0.189265040729278 
611	 0.189447273003842 
612	 0.189576350349845 
613	 0.189658566185543 
614	 0.189693210469838 
615	 0.189744286012323 
616	 0.189826525309104 
617	 0.189913894263006 
618	 0.189952951599962 
619	 0.189997952695496 
620	 0.1900743719851 
621	 0.190105427994634 
622	 0.190162771325573 
623	 0.19021930273377 
624	 0.190233311627832 
625	 0.190349871383977 
626	 0.190435220191166 
627	 0.190448834134542 
628	 0.190500822902707 
629	 0.190560927095 
630	 0.190627300674212 
631	 0.190695387599622 
632	 0.190729731683265 
633	 0.190754611234868 
634	 0.190807748187427 
635	 0.190924556161803 
636	 0.190932345448317 
637	 0.190972052085201 
638	 0.191117940221896 
639	 0.191145620933064 
640	 0.19114648402746 
641	 0.191199493144658 
642	 0.191351062133511 
643	 0.191415547590507 
644	 0.191471434022732 
645	 0.191550714007161 
646	 0.191578939526003 
647	 0.191627845036993 
648	 0.191689945633445 
649	 0.191752468904654 
650	 0.191892413998342 
651	 0.191980123395061 
652	 0.192001665424386 
653	 0.192047432454754 
654	 0.192113720231594 
655	 0.192156570366418 
656	 0.192164025763349 
657	 0.192221238485525 
658	 0.192326021958271 
659	 0.192421014290865 
660	 0.192442762799651 
661	 0.192522364218391 
662	 0.192607598071587 
663	 0.192673651378419 
664	 0.192762651868491 
665	 0.192805374421522 
666	 0.192843913494667 
667	 0.192917444714135 
668	 0.192899658789345 
669	 0.192976042001662 
670	 0.193111139557965 
671	 0.193097112127437 
672	 0.193147440226915 
673	 0.193226872113161 
674	 0.19328612141685 
675	 0.193345470695249 
676	 0.193420231432499 
677	 0.19346178551074 
678	 0.193422586410826 
679	 0.193465819731258 
680	 0.193529140208648 
681	 0.193582350240874 
682	 0.193663794292448 
683	 0.193726755149217 
684	 0.193764482978594 
685	 0.19379554949767 
686	 0.193894207354154 
687	 0.193929057373376 
688	 0.193914966649635 
689	 0.193966043035313 
690	 0.194031000427547 
691	 0.194044611779417 
692	 0.194009795913931 
693	 0.194071537484354 
694	 0.194122053134578 
695	 0.194145620626397 
696	 0.194157112204857 
697	 0.194143344007063 
698	 0.194179185230889 
699	 0.19426185449377 
700	 0.194304221559074 
701	 0.194306581172872 
702	 0.194318028220201 
703	 0.19436213936738 
704	 0.194355625274101 
705	 0.194356392757043 
706	 0.194373170261713 
707	 0.194387993589346 
708	 0.194393780030576 
709	 0.194381051541014 
710	 0.194374436894158 
711	 0.194449634782256 
712	 0.194436608895842 
713	 0.194392217925437 
714	 0.1944028950351 
715	 0.194404187597515 
716	 0.194392708719694 
717	 0.194403067986956 
718	 0.194480721428023 
719	 0.194466663417652 
720	 0.194398274708108 
721	 0.194328065676627 
722	 0.194272108680287 
723	 0.194279513786843 
724	 0.194310625517906 
725	 0.194307105404216 
726	 0.194298933130024 
727	 0.194283235988577 
728	 0.194246261834708 
729	 0.194170390625111 
730	 0.194136876467656 
731	 0.194117350624155 
732	 0.194088099203195 
733	 0.194093888391717 
734	 0.194066644065403 
735	 0.193998026704329 
736	 0.193917597307937 
737	 0.193911624619569 
738	 0.193875248747397 
739	 0.193802082978841 
740	 0.193802432879556 
741	 0.193689301959061 
742	 0.193621640706765 
743	 0.193691805070451 
744	 0.193609805599407 
745	 0.193517893041668 
746	 0.193459016631262 
747	 0.193419369768783 
748	 0.193322976033865 
749	 0.193257665687433 
750	 0.193223942647323 
751	 0.193103269032962 
752	 0.193046190416131 
753	 0.192991918319874 
754	 0.192888709326125 
755	 0.192858369911749 
756	 0.192851724769965 
757	 0.192826962897647 
758	 0.192755471203244 
759	 0.192685312385422 
760	 0.19257511219762 
761	 0.192450216750464 
762	 0.19242467770605 
763	 0.192382003344515 
764	 0.192285238865529 
765	 0.192156844037958 
766	 0.192135181211429 
767	 0.192085021828433 
768	 0.191992245855074 
769	 0.19190584499027 
770	 0.191838310892276 
771	 0.19176658432025 
772	 0.191686522820726 
773	 0.191620095512931 
774	 0.191527483007291 
775	 0.191446117222115 
776	 0.191398251524669 
777	 0.191318624683989 
778	 0.191227185930719 
779	 0.191128863553761 
780	 0.191023718741531 
781	 0.190910199375099 
782	 0.190854834252632 
783	 0.190825187431763 
784	 0.190690727686143 
785	 0.190622548455875 
786	 0.190590477389418 
787	 0.190528562708555 
788	 0.190375163610229 
789	 0.190256877852514 
790	 0.190173579163301 
791	 0.190085997694076 
792	 0.190041102772709 
793	 0.189954879021902 
794	 0.18981063521001 
795	 0.189660323245753 
796	 0.189561512797301 
797	 0.189503390515187 
798	 0.189444271908062 
799	 0.189308259483157 
800	 0.189236565516505 
801	 0.189175359034416 
802	 0.189043007628336 
803	 0.18888859904313 
804	 0.188820716154736 
805	 0.188805249053066 
806	 0.188722186151077 
807	 0.18858463109638 
808	 0.188418099072174 
809	 0.188279460823764 
810	 0.188254196363921 
811	 0.188184471062506 
812	 0.188085651279883 
813	 0.187993447343003 
814	 0.187885592077112 
815	 0.187734402267645 
816	 0.187584655576367 
817	 0.187496058827323 
818	 0.187430791290418 
819	 0.187342280672541 
820	 0.187228708279028 
821	 0.18712536625161 
822	 0.18700938926726 
823	 0.186906598497565 
824	 0.18681892513618 
825	 0.186699104715648 
826	 0.186586291324449 
827	 0.186505153918545 
828	 0.186451158920607 
829	 0.186351800798425 
830	 0.186172367848429 
831	 0.185987325327812 
832	 0.185903386682431 
833	 0.185860807493951 
834	 0.185809442383309 
835	 0.185733436082603 
836	 0.185647129538669 
837	 0.185488540733653 
838	 0.185372763696371 
839	 0.185325400249219 
840	 0.18517371266234 
841	 0.185062385468034 
842	 0.184926408168023 
843	 0.184733300795968 
844	 0.1847375697011 
845	 0.184730217626019 
846	 0.184651439101657 
847	 0.184524356220938 
848	 0.184378157158473 
849	 0.184301361606086 
850	 0.184262758972942 
851	 0.184140584177875 
852	 0.184021547400751 
853	 0.183920542996193 
854	 0.183818236405883 
855	 0.183663265218803 
856	 0.183635098840375 
857	 0.1836064977076 
858	 0.183470677612606 
859	 0.18336086638961 
860	 0.183281627719272 
861	 0.183203654559462 
862	 0.183097683436303 
863	 0.183008326102066 
864	 0.182942935037194 
865	 0.182866018447675 
866	 0.182728900154154 
867	 0.182569904907496 
868	 0.182507403001168 
869	 0.182518955563493 
870	 0.182442286617604 
871	 0.182305815133994 
872	 0.18220921716762 
873	 0.182174663401797 
874	 0.182081775623884 
875	 0.182034295104709 
876	 0.18196212910721 
877	 0.181826531528324 
878	 0.181778679605514 
879	 0.181772726897789 
880	 0.181704967079484 
881	 0.181519398167964 
882	 0.181432462316378 
883	 0.18139088656541 
884	 0.181338693300279 
885	 0.181240405335019 
886	 0.181173287318884 
887	 0.18113970891178 
888	 0.181104602991835 
889	 0.181016239603823 
890	 0.1809338676743 
891	 0.180815785912661 
892	 0.180710703479349 
893	 0.180771445349292 
894	 0.180671151653693 
895	 0.18055060236225 
896	 0.180527297571794 
897	 0.180506713548416 
898	 0.1804391258205 
899	 0.180347470752167 
900	 0.180276870374358 
901	 0.180268333972004 
902	 0.180264247872811 
903	 0.180220079547295 
904	 0.180130904658628 
905	 0.180110735564227 
906	 0.180064548939172 
907	 0.180010199451694 
908	 0.17999550669034 
909	 0.179917011647802 
910	 0.179847498487995 
911	 0.179816033401353 
912	 0.179804683905878 
913	 0.179749909174145 
914	 0.179629560648395 
915	 0.179514487133109 
916	 0.179522431783808 
917	 0.179464352555944 
918	 0.179454401142066 
919	 0.179517015722495 
920	 0.179532234630342 
921	 0.179464322906323 
922	 0.179363974021894 
923	 0.179279224986101 
924	 0.179224355844374 
925	 0.179205687626062 
926	 0.179260743108318 
927	 0.179327056019112 
928	 0.179162938262274 
929	 0.179168294896283 
930	 0.179234460970462 
931	 0.179208539955998 
932	 0.179154200346525 
933	 0.179126124043582 
934	 0.179101930916224 
935	 0.179058967799883 
936	 0.179052602691289 
937	 0.179029481675013 
938	 0.178964512169189 
939	 0.178878734970079 
940	 0.178906833549983 
941	 0.178890218084289 
942	 0.178906309956137 
943	 0.179043295723071 
944	 0.179056702189455 
945	 0.178987046712004 
946	 0.178922583050269 
947	 0.178924483365426 
948	 0.178831318731935 
949	 0.178833277293983 
950	 0.178867154046579 
951	 0.178795353747937 
952	 0.178829043657244 
953	 0.178882611676302 
954	 0.178893300272443 
955	 0.178853987972511 
956	 0.178922215119707 
957	 0.178941078630828 
958	 0.178859240838757 
959	 0.178744618885947 
960	 0.17883777697028 
961	 0.178887954753524 
962	 0.178885246444391 
963	 0.178953694091119 
964	 0.178881329713615 
965	 0.178801686093586 
966	 0.17880465160868 
967	 0.178894920389323 
968	 0.178900805493955 
969	 0.17893044697373 
970	 0.178923967386765 
971	 0.17877782326009 
972	 0.178907097557633 
973	 0.178959493076192 
974	 0.178955109027001 
975	 0.179122506660965 
976	 0.179122720613641 
977	 0.179065987440685 
978	 0.179022218228856 
979	 0.179021939533692 
980	 0.179175732200322 
981	 0.179138357491535 
982	 0.17897668092041 
983	 0.178982449956034 
984	 0.179063289136735 
985	 0.179070784932694 
986	 0.179022057115564 
987	 0.179036452798529 
988	 0.179190376931027 
989	 0.179288304268328 
990	 0.179211000721235 
991	 0.179011586225827 
992	 0.179203180266459 
993	 0.179245440887115 
994	 0.179198743515358 
995	 0.179320127716223 
996	 0.179367620819413 
997	 0.179466381543729 
998	 0.179513157545008 
999	 0.179430517823117 
1000	 0.179543601650197 
1001	 0.180956895531498 
1002	 0.180912140028704 
1003	 0.180859036635184 
1004	 0.180846162451109 
1005	 0.180805223461147 
1006	 0.1808352340554 
1007	 0.18094717482384 
1008	 0.181024690409868 
1009	 0.181082173048847 
1010	 0.181194944031596 
1011	 0.181212985034259 
1012	 0.181154480289917 
1013	 0.181127309358748 
1014	 0.181065993949067 
1015	 0.181030673837833 
1016	 0.181096488456668 
1017	 0.181142735185711 
1018	 0.181207090845001 
1019	 0.181244933302444 
1020	 0.181305642263896 
1021	 0.181348606068662 
1022	 0.181365630687072 
1023	 0.181380377212117 
1024	 0.181360640179275 
1025	 0.181306780088269 
1026	 0.181244256400836 
1027	 0.181178877527168 
1028	 0.18115088379389 
1029	 0.181160087329621 
1030	 0.181179212926426 
1031	 0.181192276491791 
1032	 0.181222260061659 
1033	 0.181244897865685 
1034	 0.18124725181037 
1035	 0.181215556606465 
1036	 0.181233106341517 
1037	 0.181268223864479 
1038	 0.181242041903526 
1039	 0.181246884386125 
1040	 0.181281945485852 
1041	 0.181280893640523 
1042	 0.181314535137724 
1043	 0.181389274805465 
1044	 0.181414564671629 
1045	 0.181402318642198 
1046	 0.181388312400747 
1047	 0.181401248755165 
1048	 0.181430512242174 
1049	 0.18149421064542 
1050	 0.181574485845056 
1051	 0.181691208757438 
1052	 0.181770524728089 
1053	 0.181803048701489 
1054	 0.18188002486731 
1055	 0.181944301883134 
1056	 0.181977564907 
1057	 0.182039158427854 
1058	 0.182158148201966 
1059	 0.182230682635103 
1060	 0.182279213233816 
1061	 0.182323121783425 
1062	 0.182393614300106 
1063	 0.182426923888495 
1064	 0.182498829511923 
1065	 0.18261843468779 
1066	 0.182686640773083 
1067	 0.182738879844647 
1068	 0.182794948575532 
1069	 0.182845300369496 
1070	 0.182870823658289 
1071	 0.182863647531267 
1072	 0.182918949002027 
1073	 0.182987922564599 
1074	 0.183028534806763 
1075	 0.183098963000972 
1076	 0.183186165500202 
1077	 0.183165555017371 
1078	 0.183165944000787 
1079	 0.183228917430403 
1080	 0.183231183803394 
1081	 0.18319982988077 
1082	 0.183181319523191 
1083	 0.183168900550492 
1084	 0.183131213144992 
1085	 0.183106470925883 
1086	 0.183113893754825 
1087	 0.18310325758908 
1088	 0.183077967211554 
1089	 0.183030970647901 
1090	 0.183014973174974 
1091	 0.182998266991281 
1092	 0.182948737244822 
1093	 0.182947519907896 
1094	 0.182982823908602 
1095	 0.182970345371801 
1096	 0.182935534874959 
1097	 0.182884702752098 
1098	 0.182852223023692 
1099	 0.182801048307498 
1100	 0.182771533484283 
1101	 0.18276441691726 
1102	 0.182762865962932 
1103	 0.182774002176525 
1104	 0.182759007960399 
1105	 0.182752730837482 
1106	 0.182739906179813 
1107	 0.182694044810766 
1108	 0.18266448523216 
1109	 0.182671437319541 
1110	 0.182704712872079 
1111	 0.182728945106402 
1112	 0.182785790828077 
1113	 0.18279908159689 
1114	 0.182772609676678 
1115	 0.182779073646755 
1116	 0.182790613093281 
1117	 0.182799431273596 
1118	 0.182806037747907 
1119	 0.182843758491434 
1120	 0.182892652058753 
1121	 0.18292663005074 
1122	 0.182967812901857 
1123	 0.182997491558121 
1124	 0.183013179462823 
1125	 0.182990006556984 
1126	 0.183000583958679 
1127	 0.18302080444586 
1128	 0.183043588877006 
1129	 0.18306746983291 
1130	 0.183104618664278 
1131	 0.183168127669721 
1132	 0.183204733082908 
1133	 0.183237825755287 
1134	 0.18326430617827 
1135	 0.183272330062329 
1136	 0.183277084191862 
1137	 0.183289574826882 
1138	 0.18331433446505 
1139	 0.183335220566765 
1140	 0.183353974010194 
1141	 0.183374649530446 
1142	 0.183412350292775 
1143	 0.183420286257241 
1144	 0.183412878634689 
1145	 0.183410691093533 
1146	 0.18337506252785 
1147	 0.183376036495957 
1148	 0.183413894757108 
1149	 0.183426215130512 
1150	 0.183446429318882 
1151	 0.183456451422333 
1152	 0.183446452021088 
1153	 0.183434668891156 
1154	 0.183413536771952 
1155	 0.183382918607482 
1156	 0.183364201408535 
1157	 0.183342075988511 
1158	 0.183315270608871 
1159	 0.183292046384806 
1160	 0.183272357730664 
1161	 0.183236915782006 
1162	 0.183221240931944 
1163	 0.183229924155663 
1164	 0.183226830150159 
1165	 0.18322463968771 
1166	 0.183220908700917 
1167	 0.18321556719814 
1168	 0.183215078950522 
1169	 0.183204832437915 
1170	 0.183192358448774 
1171	 0.183180570871298 
1172	 0.183158507144108 
1173	 0.183145864624605 
1174	 0.183138364996823 
1175	 0.183132379342707 
1176	 0.183136744364317 
1177	 0.183127019835347 
1178	 0.18309426520262 
1179	 0.183095542822012 
1180	 0.183114998717854 
1181	 0.183121279886997 
1182	 0.183148650841425 
1183	 0.183168710676404 
1184	 0.183172301761468 
1185	 0.183144316960057 
1186	 0.183146813035688 
1187	 0.183156364940925 
1188	 0.18316869889436 
1189	 0.183187072966323 
1190	 0.183209874594189 
1191	 0.183246582629585 
1192	 0.183265098026474 
1193	 0.183283012108837 
1194	 0.183295848780727 
1195	 0.183284779593702 
1196	 0.183292028049635 
1197	 0.183306722600877 
1198	 0.183324386345844 
1199	 0.183347172233621 
1200	 0.18338220623263 
1201	 0.183403431567792 
1202	 0.183422038482991 
1203	 0.183442098440117 
1204	 0.183451857254597 
1205	 0.183477277227071 
1206	 0.183516400611364 
1207	 0.18354421928168 
1208	 0.18357199975435 
1209	 0.183601939835878 
1210	 0.183631858993176 
1211	 0.183655303245407 
1212	 0.183689496282973 
1213	 0.183705415686549 
1214	 0.183693919596313 
1215	 0.183696451428166 
1216	 0.183700121020373 
1217	 0.183699337772991 
1218	 0.183703997653531 
1219	 0.18371797111122 
1220	 0.183727080410202 
1221	 0.183729784561689 
1222	 0.18374150798436 
1223	 0.183760371330851 
1224	 0.183776438352757 
1225	 0.183797419989737 
1226	 0.18381273487338 
1227	 0.183823033902403 
1228	 0.183836630756231 
1229	 0.183847879712534 
1230	 0.183862348665925 
1231	 0.183887332092428 
1232	 0.183901540035267 
1233	 0.183911385836059 
1234	 0.183916733478467 
1235	 0.183924550663059 
1236	 0.183919245123124 
1237	 0.1839360262629 
1238	 0.183968465013651 
1239	 0.183991348964946 
1240	 0.184027959228874 
1241	 0.18404587127955 
1242	 0.184047025857752 
1243	 0.184056234415808 
1244	 0.184053816699259 
1245	 0.184065849827778 
1246	 0.184092506641469 
1247	 0.184112101921462 
1248	 0.184133543317054 
1249	 0.184161063953591 
1250	 0.184168793097493 
1251	 0.18417528585221 
1252	 0.184181883620904 
1253	 0.184179346730467 
1254	 0.184189582809778 
1255	 0.18420653622676 
1256	 0.184220469623162 
1257	 0.184249800623136 
1258	 0.184252160195203 
1259	 0.184230821765495 
1260	 0.18422963249744 
1261	 0.184223695088353 
1262	 0.184220520458293 
1263	 0.184231741924599 
1264	 0.184237976661973 
1265	 0.184249754659789 
1266	 0.184241587593555 
1267	 0.184214894595539 
1268	 0.1842050215728 
1269	 0.184187886512996 
1270	 0.18414113384482 
1271	 0.184143852004627 
1272	 0.184177868248946 
1273	 0.184197219049012 
1274	 0.184228489489281 
1275	 0.184260143064155 
1276	 0.184278195092976 
1277	 0.184326138486745 
1278	 0.184402893485822 
1279	 0.184467035223538 
1280	 0.184538604491659 
1281	 0.184612123297637 
1282	 0.184670215995832 
1283	 0.184752819258789 
1284	 0.184862268216362 
1285	 0.184964671319606 
1286	 0.185060928591995 
1287	 0.185157321467175 
1288	 0.185252473760001 
1289	 0.185334701364415 
1290	 0.185430516195013 
1291	 0.185551739936261 
1292	 0.185629093430492 
1293	 0.185676772060516 
1294	 0.185746377099954 
1295	 0.185805906029323 
1296	 0.185867075509517 
1297	 0.185953539553454 
1298	 0.186013591691046 
1299	 0.186052343198288 
1300	 0.186086350032843 
1301	 0.186115100877855 
1302	 0.18613191413824 
1303	 0.186134944596629 
1304	 0.186132024349575 
1305	 0.186124415902404 
1306	 0.186116736466347 
1307	 0.186089005987119 
1308	 0.18605886084208 
1309	 0.186026326805071 
1310	 0.185980646395101 
1311	 0.185944902777877 
1312	 0.185911004971802 
1313	 0.185877413629541 
1314	 0.185851575942189 
1315	 0.185811259802325 
1316	 0.185761001306451 
1317	 0.185724279464116 
1318	 0.185683542913338 
1319	 0.185642365064303 
1320	 0.185620101800654 
1321	 0.185580819216955 
1322	 0.185520189231113 
1323	 0.185474145899785 
1324	 0.185438756566146 
1325	 0.185392587650543 
1326	 0.185363213026464 
1327	 0.185359973396488 
1328	 0.185346461899436 
1329	 0.185317870710858 
1330	 0.185295938283265 
1331	 0.185265137953935 
1332	 0.18524921543123 
1333	 0.185233130826167 
1334	 0.185241341786079 
1335	 0.185270325360297 
1336	 0.185293840072236 
1337	 0.185328085477254 
1338	 0.185362827094477 
1339	 0.185404729164108 
1340	 0.185431906932597 
1341	 0.185459928438734 
1342	 0.185483928828715 
1343	 0.185487823657628 
1344	 0.185502659028121 
1345	 0.185540539642607 
1346	 0.18558156003663 
1347	 0.185635124547793 
1348	 0.185705650645171 
1349	 0.185777939852134 
1350	 0.185844789738277 
1351	 0.185886630271266 
1352	 0.185908495527283 
1353	 0.185944680627428 
1354	 0.185959097310022 
1355	 0.185997161871487 
1356	 0.18606499557842 
1357	 0.186111404639461 
1358	 0.186147510911136 
1359	 0.186193170694487 
1360	 0.186239775604991 
1361	 0.186286323985637 
1362	 0.186334232333106 
1363	 0.186383579477077 
1364	 0.186438502591949 
1365	 0.186483379190564 
1366	 0.186519005936954 
1367	 0.186573359807729 
1368	 0.186620183030008 
1369	 0.186630385130456 
1370	 0.18665638874403 
1371	 0.186680383198274 
1372	 0.186684972419041 
1373	 0.186721563448386 
1374	 0.186737419670551 
1375	 0.186750824229333 
1376	 0.186746965014272 
1377	 0.186727347939982 
1378	 0.186712791938773 
1379	 0.186688905504057 
1380	 0.186674054098414 
1381	 0.186665459450941 
1382	 0.186649601101921 
1383	 0.186621091205297 
1384	 0.186611647761362 
1385	 0.186619999763451 
1386	 0.186614052562999 
1387	 0.186619045579377 
1388	 0.186609546711003 
1389	 0.186581540963894 
1390	 0.186547315688844 
1391	 0.186544398760387 
1392	 0.186522412156281 
1393	 0.186474915613613 
1394	 0.186440396090586 
1395	 0.186385826009124 
1396	 0.186317259537459 
1397	 0.186269962706395 
1398	 0.186238512391198 
1399	 0.186201871275358 
1400	 0.186175275591837 
1401	 0.186135639870046 
1402	 0.18609015301465 
1403	 0.186041690505514 
1404	 0.18598433715452 
1405	 0.185928827584318 
1406	 0.185870984239119 
1407	 0.185822377625775 
1408	 0.185778497778623 
1409	 0.18572993128966 
1410	 0.18568521311483 
1411	 0.185636772140816 
1412	 0.185581697542101 
1413	 0.185523730721549 
1414	 0.185490559690602 
1415	 0.185466879475111 
1416	 0.185446610349848 
1417	 0.18544507016391 
1418	 0.185422741085435 
1419	 0.185401430195329 
1420	 0.185381796780382 
1421	 0.185352401578943 
1422	 0.1853380666688 
1423	 0.185318141194963 
1424	 0.185302223362964 
1425	 0.185292598025803 
1426	 0.185277994548123 
1427	 0.185263458517405 
1428	 0.185246336185896 
1429	 0.185223636177061 
1430	 0.185209729441094 
1431	 0.185199932175568 
1432	 0.185185316276116 
1433	 0.185166929061899 
1434	 0.185159731022824 
1435	 0.185143715709718 
1436	 0.185149361536616 
1437	 0.185187338096693 
1438	 0.18520679733569 
1439	 0.185227454002462 
1440	 0.18524922814401 
1441	 0.18525276434633 
1442	 0.185250527606318 
1443	 0.185260443581602 
1444	 0.185276153996535 
1445	 0.185291374694155 
1446	 0.185322508234371 
1447	 0.185361507352088 
1448	 0.185381139950612 
1449	 0.185396317118301 
1450	 0.185405738197471 
1451	 0.185416789686831 
1452	 0.185415032982719 
1453	 0.185427139589536 
1454	 0.185449508056999 
1455	 0.185468391256229 
1456	 0.185496691578582 
1457	 0.185505164728446 
1458	 0.185497684853942 
1459	 0.185506542283838 
1460	 0.185512637404015 
1461	 0.185515162363777 
1462	 0.185531264057821 
1463	 0.185538775056067 
1464	 0.185523677778185 
1465	 0.185528145988275 
1466	 0.185552002686888 
1467	 0.18556120367794 
1468	 0.185571698065625 
1469	 0.185577493887723 
1470	 0.185575683058971 
1471	 0.185570673155747 
1472	 0.185559139441792 
1473	 0.185556062194142 
1474	 0.18555825972209 
1475	 0.185553421342436 
1476	 0.185552329906996 
1477	 0.185542747741629 
1478	 0.185527600662558 
1479	 0.185511792444678 
1480	 0.185498406188099 
1481	 0.18549967492938 
1482	 0.185492920894076 
1483	 0.185479726666426 
1484	 0.185480259524724 
1485	 0.185487280878021 
1486	 0.185491508978668 
1487	 0.185508228542077 
1488	 0.185511681734586 
1489	 0.185503288299839 
1490	 0.185502308746626 
1491	 0.185497093954071 
1492	 0.185501410995231 
1493	 0.185508176659509 
1494	 0.185525427140282 
1495	 0.185575901552765 
1496	 0.185577274039032 
1497	 0.18555014972701 
1498	 0.185543451041978 
1499	 0.185511710790685 
1500	 0.185495143281863 
1501	 0.185508088268476 
1502	 0.185509020948992 
1503	 0.185496188351733 
1504	 0.185490567805059 
1505	 0.185502917995087 
1506	 0.185504664084067 
1507	 0.185499146663432 
1508	 0.185489709874745 
1509	 0.185471675334432 
1510	 0.185459507897176 
1511	 0.18545052833485 
1512	 0.185449447258766 
1513	 0.185456746568633 
1514	 0.18545803975655 
1515	 0.185464810467749 
1516	 0.185473896437103 
1517	 0.185471394258567 
1518	 0.185455875637855 
1519	 0.185456354217856 
1520	 0.185459274537362 
1521	 0.185456954948632 
1522	 0.185460466906562 
1523	 0.185465194813475 
1524	 0.185461576723197 
1525	 0.18546717694412 
1526	 0.185487645121702 
1527	 0.185492499705597 
1528	 0.185485316387958 
1529	 0.185493150677812 
1530	 0.18550021268511 
1531	 0.1855148706164 
1532	 0.185552042159171 
1533	 0.18556482624538 
1534	 0.185569371022662 
1535	 0.185571166136207 
1536	 0.18555110101703 
1537	 0.185551018707836 
1538	 0.185564383296972 
1539	 0.185567038771184 
1540	 0.18557112644888 
1541	 0.185576584279804 
1542	 0.185578088292378 
1543	 0.1855772861865 
1544	 0.185586036218021 
1545	 0.185584390986251 
1546	 0.185569203570876 
1547	 0.185554577999441 
1548	 0.185550354973052 
1549	 0.185536262965779 
1550	 0.185539151758128 
1551	 0.185547456672862 
1552	 0.185557950913691 
1553	 0.185572487047721 
1554	 0.185570320915854 
1555	 0.185567414403261 
1556	 0.185563399762352 
1557	 0.18556376002783 
1558	 0.185566685198643 
1559	 0.185563130502724 
1560	 0.18556784669632 
1561	 0.185568600756785 
1562	 0.185579607807853 
1563	 0.185609259461405 
1564	 0.185615849639652 
1565	 0.185608244212681 
1566	 0.185616588438459 
1567	 0.185623176833019 
1568	 0.185631245007715 
1569	 0.185662979739559 
1570	 0.18565782739591 
1571	 0.185628079118684 
1572	 0.185609573512617 
1573	 0.185575453698118 
1574	 0.185553804594641 
1575	 0.185539821696596 
1576	 0.185524383367611 
1577	 0.185514490029462 
1578	 0.185495645178209 
1579	 0.185475313456424 
1580	 0.185454971364483 
1581	 0.185426171483215 
1582	 0.185401988227129 
1583	 0.185378340584093 
1584	 0.185360599566772 
1585	 0.185341918865867 
1586	 0.185331506222847 
1587	 0.185334533761127 
1588	 0.185331881655407 
1589	 0.185338451473402 
1590	 0.185328784224347 
1591	 0.185300539710944 
1592	 0.185287303042561 
1593	 0.185270137082944 
1594	 0.185259218599763 
1595	 0.185267504192436 
1596	 0.18526574703809 
1597	 0.185259528551091 
1598	 0.185250357983293 
1599	 0.185232412486098 
1600	 0.185222844117876 
1601	 0.185213355215921 
1602	 0.185206801256141 
1603	 0.18521587889177 
1604	 0.185211671873261 
1605	 0.185193440242258 
1606	 0.185186004384823 
1607	 0.185182851194414 
1608	 0.185170464468081 
1609	 0.185169561879203 
1610	 0.185165900324687 
1611	 0.185136728119814 
1612	 0.185110952929345 
1613	 0.185095499474692 
1614	 0.185073064864715 
1615	 0.185055840488277 
1616	 0.18504152689439 
1617	 0.185033877644999 
1618	 0.185040052297804 
1619	 0.18503854970775 
1620	 0.185046154139122 
1621	 0.185044572906024 
1622	 0.185030775247682 
1623	 0.185016655552554 
1624	 0.185006371171877 
1625	 0.184987993163577 
1626	 0.18495542383935 
1627	 0.184935840410463 
1628	 0.184920872037442 
1629	 0.184909139302566 
1630	 0.184900489780596 
1631	 0.184890072829408 
1632	 0.184886589983084 
1633	 0.184872349442463 
1634	 0.184847187261352 
1635	 0.184838316897862 
1636	 0.184827368050773 
1637	 0.184829450644662 
1638	 0.184857730889342 
1639	 0.184853602445947 
1640	 0.184839679851069 
1641	 0.184826382716308 
1642	 0.184791297180781 
1643	 0.18477871254475 
1644	 0.184776208393588 
1645	 0.184779938006646 
1646	 0.184800211435248 
1647	 0.184798304589779 
1648	 0.184790376443424 
1649	 0.184790679358139 
1650	 0.184783602567609 
1651	 0.184775458329939 
1652	 0.184784124266068 
1653	 0.184767213764543 
1654	 0.184726167316857 
1655	 0.184696620369929 
1656	 0.184653769324245 
1657	 0.184637006468589 
1658	 0.184635164385342 
1659	 0.184628627442669 
1660	 0.184641855180817 
1661	 0.18463497982865 
1662	 0.184612028759032 
1663	 0.184599780392099 
1664	 0.184581928338033 
1665	 0.184576846161155 
1666	 0.184584147560661 
1667	 0.18458431213929 
1668	 0.184595934157228 
1669	 0.184586678828876 
1670	 0.184561679464908 
1671	 0.184543503977638 
1672	 0.184513194419112 
1673	 0.184495375984319 
1674	 0.184481154014939 
1675	 0.184477370788614 
1676	 0.184484540428923 
1677	 0.184488171645047 
1678	 0.184515340644203 
1679	 0.184503949477474 
1680	 0.184463174225146 
1681	 0.184440448178356 
1682	 0.184394434079072 
1683	 0.184380052560343 
1684	 0.184396574723899 
1685	 0.184397626460473 
1686	 0.184407455009476 
1687	 0.184404204804511 
1688	 0.184392806881595 
1689	 0.184381076146635 
1690	 0.184361540244935 
1691	 0.184346609336203 
1692	 0.184336327896814 
1693	 0.184315613288577 
1694	 0.184285969373619 
1695	 0.184264658218794 
1696	 0.18422900880061 
1697	 0.184222773517006 
1698	 0.184244200751742 
1699	 0.184249755135779 
1700	 0.184262573410317 
1701	 0.184273035223444 
1702	 0.184279714292152 
1703	 0.184281401835578 
1704	 0.184291494460251 
1705	 0.184283818651124 
1706	 0.184250308769975 
1707	 0.184236482293408 
1708	 0.184232817769682 
1709	 0.184211588599667 
1710	 0.18418346881253 
1711	 0.184167333110363 
1712	 0.184133407382391 
1713	 0.184131095539356 
1714	 0.184161515675898 
1715	 0.184175853242051 
1716	 0.184206505244885 
1717	 0.184202840417583 
1718	 0.184178316975162 
1719	 0.184161246586405 
1720	 0.184125673903114 
1721	 0.184103788748989 
1722	 0.184086872635945 
1723	 0.184081078135886 
1724	 0.184089585422149 
1725	 0.184072546961501 
1726	 0.184059099750668 
1727	 0.184030239399854 
1728	 0.183965979995064 
1729	 0.183934777947944 
1730	 0.183924860931115 
1731	 0.183896709026673 
1732	 0.183870911846312 
1733	 0.183829522901047 
1734	 0.183768205864311 
1735	 0.183722408738636 
1736	 0.183678606057197 
1737	 0.183635659028802 
1738	 0.183587535668249 
1739	 0.183561894893156 
1740	 0.183549363629934 
1741	 0.183531753517558 
1742	 0.183542423963522 
1743	 0.183517442606199 
1744	 0.183458958174491 
1745	 0.183420345966969 
1746	 0.183371044688977 
1747	 0.183356255144993 
1748	 0.183372267799262 
1749	 0.183369472581153 
1750	 0.183344443089394 
1751	 0.183303073737995 
1752	 0.183253615674011 
1753	 0.183216022994059 
1754	 0.183179164812457 
1755	 0.183157724680306 
1756	 0.183143745767874 
1757	 0.183110203262911 
1758	 0.183090691165583 
1759	 0.183075423098535 
1760	 0.183030045867116 
1761	 0.183006587315287 
1762	 0.18300453178849 
1763	 0.182987146800652 
1764	 0.18297269943179 
1765	 0.182969417164583 
1766	 0.182955156209636 
1767	 0.182924045455346 
1768	 0.182897452749455 
1769	 0.18287414040846 
1770	 0.182836942526048 
1771	 0.182796715852632 
1772	 0.182782487521841 
1773	 0.182770748816938 
1774	 0.182757327246426 
1775	 0.182750504898977 
1776	 0.1827292386479 
1777	 0.182721713725086 
1778	 0.182716262493758 
1779	 0.182703515021452 
1780	 0.182701693788532 
1781	 0.182685698528006 
1782	 0.182672195738365 
1783	 0.182702372295669 
1784	 0.182699415267542 
1785	 0.182683705705387 
1786	 0.182664615780552 
1787	 0.182608638710897 
1788	 0.182586408924552 
1789	 0.182588966852445 
1790	 0.182567727735768 
1791	 0.182549851138653 
1792	 0.182533513209176 
1793	 0.182495002400156 
1794	 0.182490036329707 
1795	 0.182527566448452 
1796	 0.182519375707745 
1797	 0.182483675658255 
1798	 0.182478143319822 
1799	 0.182459950019631 
1800	 0.182462759105315 
1801	 0.181368397078061 
1802	 0.181401262704533 
1803	 0.181462626385734 
1804	 0.18150432029526 
1805	 0.181547853141431 
1806	 0.181590525991941 
1807	 0.181626207706712 
1808	 0.181654481886817 
1809	 0.181689897132683 
1810	 0.181710086112197 
1811	 0.181719071706852 
1812	 0.18171246096608 
1813	 0.18171181832487 
1814	 0.181718230380655 
1815	 0.181717852046959 
1816	 0.181715714255256 
1817	 0.181719313617163 
1818	 0.181732136557714 
1819	 0.181730350329716 
1820	 0.181727499394219 
1821	 0.181715088625061 
1822	 0.181707721447006 
1823	 0.181705319871202 
1824	 0.18170744904433 
1825	 0.181722800851105 
1826	 0.181735915885851 
1827	 0.181725197531188 
1828	 0.181714733412944 
1829	 0.181700824772574 
1830	 0.181690882783206 
1831	 0.181677247588939 
1832	 0.181656296095164 
1833	 0.181644072613357 
1834	 0.181636768408801 
1835	 0.181593408130858 
1836	 0.181572846816473 
1837	 0.181577470601842 
1838	 0.181561182081616 
1839	 0.181562424896193 
1840	 0.181582449592239 
1841	 0.18160995776019 
1842	 0.181615815136042 
1843	 0.181624402444492 
1844	 0.18164036608139 
1845	 0.181612692496982 
1846	 0.181553642071348 
1847	 0.181528334305832 
1848	 0.181482096218629 
1849	 0.181425586899711 
1850	 0.181407508718758 
1851	 0.181426390360068 
1852	 0.181433605487736 
1853	 0.181442504852971 
1854	 0.181467683712537 
1855	 0.181465366578363 
1856	 0.181439066542039 
1857	 0.181416761510031 
1858	 0.181387736630942 
1859	 0.18134897255378 
1860	 0.181311393064087 
1861	 0.181276507506067 
1862	 0.181214585166625 
1863	 0.181152173264461 
1864	 0.181120042092032 
1865	 0.181083428841081 
1866	 0.181049752183575 
1867	 0.181019194039197 
1868	 0.180968743867025 
1869	 0.180915991934943 
1870	 0.180860360088661 
1871	 0.180805941565468 
1872	 0.180748236482138 
1873	 0.180711781909348 
1874	 0.180675384417357 
1875	 0.180644321823908 
1876	 0.180627378141947 
1877	 0.180579014488275 
1878	 0.180506930979439 
1879	 0.180440308972468 
1880	 0.180368825452577 
1881	 0.180298426735464 
1882	 0.180212124426905 
1883	 0.180125902947621 
1884	 0.180007511840312 
1885	 0.17987791583929 
1886	 0.179743047590145 
1887	 0.179621341623918 
1888	 0.179510801238435 
1889	 0.179368861077661 
1890	 0.179213672978706 
1891	 0.179053691360173 
1892	 0.178863048745728 
1893	 0.178681349842261 
1894	 0.178499009833447 
1895	 0.178326557989484 
1896	 0.178159983976805 
1897	 0.177960004958265 
1898	 0.177753055625187 
1899	 0.17756004171498 
1900	 0.177329023169513 
1901	 0.177114488381307 
1902	 0.176914167668261 
1903	 0.176733117271517 
1904	 0.176539113721358 
1905	 0.176349755423569 
1906	 0.176165981098323 
1907	 0.175981437567206 
1908	 0.175771602906183 
1909	 0.175558853075379 
1910	 0.175334151346333 
1911	 0.175070859115803 
1912	 0.174811057375749 
1913	 0.174567323488294 
1914	 0.174327832073352 
1915	 0.174084680235354 
1916	 0.173853092645817 
1917	 0.173619716249046 
1918	 0.173379111328589 
1919	 0.17314915033484 
1920	 0.172908104890743 
1921	 0.172671914242922 
1922	 0.172431630559077 
1923	 0.172186594994035 
1924	 0.171958204088147 
1925	 0.171742516413425 
1926	 0.171534575679451 
1927	 0.171340166955564 
1928	 0.171139257685478 
1929	 0.170948166323369 
1930	 0.170781249593989 
1931	 0.170607761539949 
1932	 0.170440995985465 
1933	 0.170296962933259 
1934	 0.170152137945722 
1935	 0.170012396300911 
1936	 0.169867557810819 
1937	 0.169760421319733 
1938	 0.169670156186768 
1939	 0.169588475871725 
1940	 0.169538180699581 
1941	 0.169490196163021 
1942	 0.169421774303628 
1943	 0.169377840336973 
1944	 0.169364575420257 
1945	 0.169354866370024 
1946	 0.169360286509112 
1947	 0.169402555314086 
1948	 0.169423196197861 
1949	 0.169446355856899 
1950	 0.169465047285232 
1951	 0.169485754977802 
1952	 0.169489116850198 
1953	 0.169492361328826 
1954	 0.169488153895622 
1955	 0.169505241481914 
1956	 0.169527397881852 
1957	 0.169546558408537 
1958	 0.169585012652446 
1959	 0.169597804899066 
1960	 0.169599054105394 
1961	 0.16959617573328 
1962	 0.16956831676617 
1963	 0.169563984682429 
1964	 0.169578323048534 
1965	 0.169563818255325 
1966	 0.169566373983191 
1967	 0.169563570283307 
1968	 0.169558990651729 
1969	 0.169543054754841 
1970	 0.169538217644989 
1971	 0.169541679436524 
1972	 0.169540115814861 
1973	 0.169536935356395 
1974	 0.169533440281727 
1975	 0.169522071797707 
1976	 0.169521819088621 
1977	 0.169546775781945 
1978	 0.169555246190841 
1979	 0.169563860199154 
1980	 0.169592794201255 
1981	 0.169598962726152 
1982	 0.169578462168598 
1983	 0.169581574345981 
1984	 0.16958723205573 
1985	 0.16959541690607 
1986	 0.169611263856631 
1987	 0.169631601210063 
1988	 0.169653659106112 
1989	 0.169675597459069 
1990	 0.169730511155204 
1991	 0.169783005589074 
1992	 0.169830988286843 
1993	 0.169895921536144 
1994	 0.169938871852061 
1995	 0.169958939342219 
1996	 0.169997076376468 
1997	 0.170033322783419 
1998	 0.170078454395696 
1999	 0.170138406479562 
2000	 0.17018733402565 
2001	 0.170239180627497 
2002	 0.17028221063196 
2003	 0.170323817363898 
2004	 0.170367706808244 
2005	 0.170402360272266 
2006	 0.170420576618995 
2007	 0.1704686221361 
2008	 0.170524809771011 
2009	 0.170580800724318 
2010	 0.170669822190092 
2011	 0.170728664701269 
2012	 0.170761651273547 
2013	 0.17080688028865 
2014	 0.17084956442852 
2015	 0.170890801935969 
2016	 0.170942225928582 
2017	 0.170981892318195 
2018	 0.171024914763593 
2019	 0.171063927579422 
2020	 0.17110408863066 
2021	 0.171153517209159 
2022	 0.171186272242062 
2023	 0.171212028494325 
2024	 0.171232035383392 
2025	 0.171242353383813 
2026	 0.171247022225076 
2027	 0.171244261950172 
2028	 0.17123440276945 
2029	 0.171234190616581 
2030	 0.171226865995633 
2031	 0.171235581190689 
2032	 0.171263054856946 
2033	 0.171274805188291 
2034	 0.171281921042748 
2035	 0.171297158812204 
2036	 0.171320168996726 
2037	 0.171327052772373 
2038	 0.171330572027916 
2039	 0.171332741563386 
2040	 0.171325841631682 
2041	 0.171307119100965 
2042	 0.171298679734461 
2043	 0.171307791031307 
2044	 0.171302175286185 
2045	 0.171289579819646 
2046	 0.171283617025598 
2047	 0.171283393725362 
2048	 0.171269541057793 
2049	 0.171263304575437 
2050	 0.171233409202616 
2051	 0.171178072451628 
2052	 0.171128221867203 
2053	 0.171047751544147 
2054	 0.170997942930356 
2055	 0.170949381038438 
2056	 0.170939175670781 
2057	 0.170916151831448 
2058	 0.170915845641104 
2059	 0.17089760755674 
2060	 0.170873767920465 
2061	 0.170842607629806 
2062	 0.17079913885891 
2063	 0.170772059344636 
2064	 0.170743368928966 
2065	 0.170719395039474 
2066	 0.170711696480482 
2067	 0.17069815250467 
2068	 0.17066250659498 
2069	 0.170657441702732 
2070	 0.170663718493967 
2071	 0.170689978658966 
2072	 0.170696097095771 
2073	 0.170713163202371 
2074	 0.170719035080749 
2075	 0.170709559849355 
2076	 0.170702275255979 
2077	 0.170696378767061 
2078	 0.170691708361732 
2079	 0.170681097196792 
2080	 0.170670310843948 
2081	 0.170661505577296 
2082	 0.170655676528483 
2083	 0.170640696659426 
2084	 0.17063126386889 
2085	 0.170644685103736 
2086	 0.170671798500168 
2087	 0.170707698442208 
2088	 0.170772074621449 
2089	 0.170813221462183 
2090	 0.170849096990289 
2091	 0.170892592330361 
2092	 0.170930299535839 
2093	 0.170973696616423 
2094	 0.171028139149522 
2095	 0.171079357732849 
2096	 0.171132379395356 
2097	 0.171179165936125 
2098	 0.171210139926741 
2099	 0.171268832855293 
2100	 0.171317742924733 
2101	 0.171355288613865 
2102	 0.171414262422043 
2103	 0.171478275962341 
2104	 0.171565104369798 
2105	 0.171662027554276 
2106	 0.171781601730867 
2107	 0.171943592527318 
2108	 0.172079007133886 
2109	 0.172229404570727 
2110	 0.172360281311677 
2111	 0.172476970635214 
2112	 0.172583755109522 
2113	 0.172672286378497 
2114	 0.1727625742532 
2115	 0.172862890628217 
2116	 0.172950070637176 
2117	 0.173067047338422 
2118	 0.173211361244276 
2119	 0.173339853554497 
2120	 0.173476224348902 
2121	 0.173606179792357 
2122	 0.173731675602732 
2123	 0.173856630492138 
2124	 0.173991485749464 
2125	 0.174106119223371 
2126	 0.174209270177319 
2127	 0.174306740835283 
2128	 0.174380832922215 
2129	 0.174466272374558 
2130	 0.174547039377267 
2131	 0.174641439465864 
2132	 0.174730998816806 
2133	 0.174832959724858 
2134	 0.174909983124351 
2135	 0.17498998976604 
2136	 0.175035259050631 
2137	 0.175049205481176 
2138	 0.175067595658089 
2139	 0.175064413105792 
2140	 0.175064890962861 
2141	 0.175066881817354 
2142	 0.175060709416427 
2143	 0.175031266006419 
2144	 0.175023618032282 
2145	 0.175024471342722 
2146	 0.175025490390685 
2147	 0.175047173818917 
2148	 0.175063431312701 
2149	 0.175052395357768 
2150	 0.175023802525206 
2151	 0.174997785583483 
2152	 0.174955596327055 
2153	 0.174911749228215 
2154	 0.174880218389151 
2155	 0.174816563197807 
2156	 0.174706531107206 
2157	 0.174637089293291 
2158	 0.174578708773803 
2159	 0.174507418252537 
2160	 0.174463175307289 
2161	 0.174394992126793 
2162	 0.174298962702331 
2163	 0.174201325831965 
2164	 0.174099827943069 
2165	 0.173991369207193 
2166	 0.173875226480453 
2167	 0.173735398142395 
2168	 0.173630581086347 
2169	 0.173531879773877 
2170	 0.173443109407886 
2171	 0.17338087534934 
2172	 0.173303613201859 
2173	 0.173230846823352 
2174	 0.173143624490084 
2175	 0.173042006721509 
2176	 0.172952249693986 
2177	 0.172863293019832 
2178	 0.172767596937156 
2179	 0.172670267251706 
2180	 0.172582018199612 
2181	 0.172489000996315 
2182	 0.172399293824008 
2183	 0.172329541356037 
2184	 0.172244413906625 
2185	 0.172163091678878 
2186	 0.172070585990282 
2187	 0.17199740713777 
2188	 0.171940268767723 
2189	 0.171866205819067 
2190	 0.171797372923858 
2191	 0.171717028071056 
2192	 0.171620938643878 
2193	 0.171527365429889 
2194	 0.171424782435461 
2195	 0.171336083570753 
2196	 0.171247797946385 
2197	 0.171165915758378 
2198	 0.171086096217805 
2199	 0.171023858845637 
2200	 0.170977718770075 
2201	 0.17092659400163 
2202	 0.170878620577021 
2203	 0.170856355232189 
2204	 0.170819596608254 
2205	 0.170780457245544 
2206	 0.170732990661422 
2207	 0.170686222701898 
2208	 0.17063168680625 
2209	 0.170554623253748 
2210	 0.170501657650963 
2211	 0.170453306069451 
2212	 0.170419349637411 
2213	 0.170409953195976 
2214	 0.170379492032264 
2215	 0.170347528278159 
2216	 0.170319461985329 
2217	 0.170278130060302 
2218	 0.170249285324338 
2219	 0.170222476517046 
2220	 0.170209890476452 
2221	 0.170196473644054 
2222	 0.170215236948994 
2223	 0.170223083370882 
2224	 0.170251953175416 
2225	 0.170236125776098 
2226	 0.170192902991281 
2227	 0.170161211910832 
2228	 0.170104618290174 
2229	 0.170076925545966 
2230	 0.170062773866727 
2231	 0.170054454024027 
2232	 0.17006727082677 
2233	 0.170058858717396 
2234	 0.170051763121879 
2235	 0.170036681009774 
2236	 0.169989262621432 
2237	 0.169973877602417 
2238	 0.169994474093514 
2239	 0.169979547522254 
2240	 0.169944113777921 
2241	 0.169934979291999 
2242	 0.169920224349582 
2243	 0.169901596922347 
2244	 0.169903567184273 
2245	 0.169915176484097 
2246	 0.169874491881762 
2247	 0.169832880467388 
2248	 0.169802366320244 
2249	 0.169765646176883 
2250	 0.169746795320697 
2251	 0.169741188363778 
2252	 0.169735484516921 
2253	 0.169742700772167 
2254	 0.169743420138479 
2255	 0.16973776930334 
2256	 0.169746265505317 
2257	 0.169768085394426 
2258	 0.169770340169745 
2259	 0.169788625676338 
2260	 0.169772332667581 
2261	 0.169704967170668 
2262	 0.169681370526055 
2263	 0.16965222707463 
2264	 0.169644565015955 
2265	 0.16969318677961 
2266	 0.169698543021657 
2267	 0.169687664387492 
2268	 0.169678052658168 
2269	 0.169650842878334 
2270	 0.169618145671085 
2271	 0.16960845842975 
2272	 0.169588981581353 
2273	 0.16954651638263 
2274	 0.169511200103432 
2275	 0.169496893398332 
2276	 0.169487525523423 
2277	 0.169482854136945 
2278	 0.169513090944971 
2279	 0.169498140593993 
2280	 0.169455760221977 
2281	 0.169426030220815 
2282	 0.169386036292807 
2283	 0.169355547255815 
2284	 0.169339126570988 
2285	 0.169300006489377 
2286	 0.169239293447447 
2287	 0.169204079411103 
2288	 0.16916783797699 
2289	 0.169139119468069 
2290	 0.169118515054077 
2291	 0.169107001215846 
2292	 0.169112096659615 
2293	 0.169107614552152 
2294	 0.169141788476503 
2295	 0.169130415312543 
2296	 0.169087583805064 
2297	 0.169014974872104 
2298	 0.168947617747712 
2299	 0.168902273650984 
2300	 0.168903114439321 
2301	 0.168904535812064 
2302	 0.168887323514434 
2303	 0.168830769831022 
2304	 0.168745529238719 
2305	 0.16869161080351 
2306	 0.168676731354254 
2307	 0.168705259447879 
2308	 0.168713940674568 
2309	 0.168772345545165 
2310	 0.168748745653673 
2311	 0.168691662744104 
2312	 0.16862667134214 
2313	 0.168494988586188 
2314	 0.168415979277939 
2315	 0.168327799992457 
2316	 0.168284173977608 
2317	 0.168313408689746 
2318	 0.168281462641172 
2319	 0.168266086869637 
2320	 0.168206175322786 
2321	 0.168052005272867 
2322	 0.167968586614219 
2323	 0.167893277170497 
2324	 0.167847468681279 
2325	 0.167880243902055 
2326	 0.167859453589618 
2327	 0.167820945749561 
2328	 0.167777915210048 
2329	 0.167780679973562 
2330	 0.16775015961567 
2331	 0.167726304306154 
2332	 0.167704866596863 
2333	 0.167660915981715 
2334	 0.167636620961391 
2335	 0.167638994544262 
2336	 0.167698543124863 
2337	 0.167719450367117 
2338	 0.167709896423156 
2339	 0.167708246255883 
2340	 0.167623710761834 
2341	 0.167556079273634 
2342	 0.167491407169554 
2343	 0.167373124491607 
2344	 0.167318062581105 
2345	 0.167251843305208 
2346	 0.167170547426845 
2347	 0.167095805936694 
2348	 0.167038425837634 
2349	 0.166988053600499 
2350	 0.166938794542893 
2351	 0.166877516162999 
2352	 0.166849878527797 
2353	 0.166755538657168 
2354	 0.16659486860942 
2355	 0.166494533303109 
2356	 0.166379228967724 
2357	 0.166300859334189 
2358	 0.166286011018327 
2359	 0.166210124475348 
2360	 0.166147085177148 
2361	 0.166034011452944 
2362	 0.165832040105245 
2363	 0.165696682585106 
2364	 0.165534471496012 
2365	 0.165431383278843 
2366	 0.165475375488743 
2367	 0.165391351690012 
2368	 0.165236812259776 
2369	 0.165119930721433 
2370	 0.164979926949001 
2371	 0.164753407208543 
2372	 0.164655898585537 
2373	 0.164586079746383 
2374	 0.164393693244068 
2375	 0.164261127374799 
2376	 0.164183941126875 
2377	 0.164019043012676 
2378	 0.163886187999393 
2379	 0.163795601572932 
2380	 0.163662477149655 
2381	 0.163524185036491 
2382	 0.163395648392943 
2383	 0.163316410484686 
2384	 0.163182503473737 
2385	 0.163027885691869 
2386	 0.162939448631995 
2387	 0.162791767319063 
2388	 0.162656903604821 
2389	 0.162532829150964 
2390	 0.162372705804426 
2391	 0.162195791635426 
2392	 0.161994871282332 
2393	 0.161835992754307 
2394	 0.161661390743237 
2395	 0.161513445065571 
2396	 0.161433576088291 
2397	 0.16137175580281 
2398	 0.161274878891038 
2399	 0.16118881052377 
2400	 0.161174184647942 
2401	 0.161035445464754 
2402	 0.160880154081556 
2403	 0.16086141015799 
2404	 0.160779001161188 
2405	 0.160723523212511 
2406	 0.160769858304479 
2407	 0.160699629808089 
2408	 0.160604021912315 
2409	 0.160567002978909 
2410	 0.160518920418729 
2411	 0.160540193969774 
2412	 0.160617003834298 
2413	 0.160658966024077 
2414	 0.160647535727881 
2415	 0.160622505064759 
2416	 0.160562285952975 
2417	 0.160387167153701 
2418	 0.160305993615518 
2419	 0.160278191146081 
2420	 0.160199783861993 
2421	 0.16010738376081 
2422	 0.16007952944181 
2423	 0.160073932864024 
2424	 0.160038738687893 
2425	 0.160040038614304 
2426	 0.160007932433789 
2427	 0.159904139517397 
2428	 0.159825781406962 
2429	 0.159763604719664 
2430	 0.159788614237801 
2431	 0.159855270541257 
2432	 0.159904506173086 
2433	 0.160061616995182 
2434	 0.160008233653678 
2435	 0.159821956844646 
2436	 0.159673266649406 
2437	 0.159427052859335 
2438	 0.159315061286928 
2439	 0.159221063588121 
2440	 0.15916462473425 
2441	 0.159238047738599 
2442	 0.159182006643693 
2443	 0.159119491025013 
2444	 0.159063164617311 
2445	 0.158883725898291 
2446	 0.158757301807443 
2447	 0.15870009288997 
2448	 0.158516280114154 
2449	 0.158274113683097 
2450	 0.158190702585262 
2451	 0.158098840119506 
2452	 0.158063655386659 
2453	 0.158212521814825 
2454	 0.158102672583916 
2455	 0.157833256104292 
2456	 0.157642532215356 
2457	 0.157399383325563 
2458	 0.157281804233271 
2459	 0.157186006219245 
2460	 0.157116697937507 
2461	 0.157122705926068 
2462	 0.157054096666874 
2463	 0.157052780101442 
2464	 0.156996269275147 
2465	 0.156876900058784 
2466	 0.156738931340803 
2467	 0.156553556592911 
2468	 0.156417923991205 
2469	 0.15627078236495 
2470	 0.156225819198844 
2471	 0.156086124436702 
2472	 0.155870425724118 
2473	 0.155652096137741 
2474	 0.155396177979807 
2475	 0.155109041036061 
2476	 0.155059089486155 
2477	 0.155163769563461 
2478	 0.155074632256042 
2479	 0.155014462783884 
2480	 0.154882528468962 
2481	 0.154622624677175 
2482	 0.154617258391462 
2483	 0.154679285730816 
2484	 0.154673263717889 
2485	 0.154613952450833 
2486	 0.15436208283128 
2487	 0.15417810805271 
2488	 0.154041348339528 
2489	 0.153906967026705 
2490	 0.154075261280568 
2491	 0.154069184104963 
2492	 0.153885471800059 
2493	 0.153884515616404 
2494	 0.153587872303715 
2495	 0.153385877071488 
2496	 0.153450012348677 
2497	 0.153333461430905 
2498	 0.153283412075089 
2499	 0.15321989090166 
2500	 0.153041809246216 
