Wavelength	LMW600000.asd
350	 0.107708056614615 
351	 0.108994614060076 
352	 0.107618303379823 
353	 0.10292585346613 
354	 0.106656063426414 
355	 0.111660113882163 
356	 0.112387200953726 
357	 0.107535516580831 
358	 0.110549105987393 
359	 0.107931686440021 
360	 0.103805798971487 
361	 0.111489562949495 
362	 0.109270506473104 
363	 0.107036313988309 
364	 0.110180183499264 
365	 0.111246332162587 
366	 0.110647301214516 
367	 0.111341390552459 
368	 0.115170020338107 
369	 0.117086752540463 
370	 0.114992824413598 
371	 0.111783663792542 
372	 0.113039890354963 
373	 0.114545967380473 
374	 0.115617296983044 
375	 0.116142797871997 
376	 0.116311813711377 
377	 0.113390784050348 
378	 0.111900488601833 
379	 0.115884233511543 
380	 0.118463025224732 
381	 0.116777736217557 
382	 0.114724757754457 
383	 0.119919597279868 
384	 0.121158491518715 
385	 0.119555251073287 
386	 0.117776148052356 
387	 0.117614702444662 
388	 0.119727672795792 
389	 0.121661434774132 
390	 0.121115188978138 
391	 0.121452190434751 
392	 0.122933273552544 
393	 0.124622753674074 
394	 0.12488875792378 
395	 0.125605608460251 
396	 0.126099239539303 
397	 0.126127756987309 
398	 0.127342689588648 
399	 0.128531261739578 
400	 0.129148354603735 
401	 0.129088916737694 
402	 0.129059323297911 
403	 0.129625633005997 
404	 0.130600064610206 
405	 0.131124883144693 
406	 0.132892539223923 
407	 0.134325474818094 
408	 0.134316140145656 
409	 0.134480654699397 
410	 0.134713784428823 
411	 0.135190725616027 
412	 0.136133354535098 
413	 0.137525618723664 
414	 0.13816358625239 
415	 0.137961502007778 
416	 0.138321540777797 
417	 0.138528684465153 
418	 0.138905478439317 
419	 0.13974958947433 
420	 0.140545262014788 
421	 0.141145940849039 
422	 0.141645028244369 
423	 0.142271940544234 
424	 0.142997868808666 
425	 0.143613080576558 
426	 0.144107476162265 
427	 0.144905627645682 
428	 0.145401314868235 
429	 0.145573182078024 
430	 0.145689617840881 
431	 0.146466093989467 
432	 0.146530264859256 
433	 0.146282661298967 
434	 0.14775701436936 
435	 0.148377373687217 
436	 0.148684778523524 
437	 0.149293830958965 
438	 0.149280869949705 
439	 0.149578205679564 
440	 0.15016797964734 
441	 0.150587430217871 
442	 0.151027839117147 
443	 0.151226619952335 
444	 0.151266977739558 
445	 0.151801897009325 
446	 0.152264947200951 
447	 0.152739908995475 
448	 0.15333831113982 
449	 0.153461563836941 
450	 0.153730121043944 
451	 0.154198053509687 
452	 0.154434667195509 
453	 0.15483407244676 
454	 0.155130218739714 
455	 0.155211948624846 
456	 0.155619674064537 
457	 0.156052155316961 
458	 0.156435288491746 
459	 0.156798394062062 
460	 0.157207524836757 
461	 0.157423234564269 
462	 0.157561000713114 
463	 0.158269095999867 
464	 0.158725702602637 
465	 0.158877644791557 
466	 0.158977313735724 
467	 0.159554002562564 
468	 0.160001845877248 
469	 0.16021545713621 
470	 0.160515085400981 
471	 0.160886823047314 
472	 0.161195401139397 
473	 0.161384948012183 
474	 0.161645462777433 
475	 0.161786884878727 
476	 0.162013445079146 
477	 0.162587264795327 
478	 0.162899623667019 
479	 0.163030784348523 
480	 0.163191004372243 
481	 0.163675336529336 
482	 0.16420532568297 
483	 0.164700162808941 
484	 0.1651239654591 
485	 0.165397809219157 
486	 0.16556847295684 
487	 0.165733366872076 
488	 0.166021091028677 
489	 0.166433178747691 
490	 0.166834267447913 
491	 0.167125297325766 
492	 0.167334025473631 
493	 0.167619621287784 
494	 0.167965711662695 
495	 0.168283754096894 
496	 0.168696962950091 
497	 0.168937648675637 
498	 0.169029723291006 
499	 0.169482698072702 
500	 0.169787703442793 
501	 0.169978404730905 
502	 0.170211576558815 
503	 0.17042096971513 
504	 0.170755306523843 
505	 0.171095854357317 
506	 0.171113527504357 
507	 0.171472092056003 
508	 0.171926061165845 
509	 0.172168671032411 
510	 0.172189267587355 
511	 0.172365002144359 
512	 0.172692047150919 
513	 0.172965204379297 
514	 0.173241424262591 
515	 0.173477306666645 
516	 0.173698459796957 
517	 0.174080428455414 
518	 0.174242014191101 
519	 0.174367557234205 
520	 0.174728582807933 
521	 0.175011173490537 
522	 0.17522022765982 
523	 0.175373752465901 
524	 0.175486602185585 
525	 0.175799408895525 
526	 0.176072625022368 
527	 0.17613571190794 
528	 0.17638836802588 
529	 0.176671292347279 
530	 0.176874193885899 
531	 0.17694939927141 
532	 0.177171900092602 
533	 0.177444645891251 
534	 0.177662880781747 
535	 0.177803405116701 
536	 0.178068919774444 
537	 0.178380257296627 
538	 0.178566255871075 
539	 0.178690810962111 
540	 0.178825995147538 
541	 0.179008672375322 
542	 0.179229629035267 
543	 0.179433549778796 
544	 0.179643713115596 
545	 0.179870800786107 
546	 0.179971679174566 
547	 0.180109679809155 
548	 0.180324391354623 
549	 0.180540635212917 
550	 0.180696958222316 
551	 0.180812887667701 
552	 0.180943563974852 
553	 0.181198935225312 
554	 0.181424216910459 
555	 0.18159344526458 
556	 0.181754302957128 
557	 0.181944839365919 
558	 0.182152728916503 
559	 0.18235828294978 
560	 0.182544559671337 
561	 0.182682618294491 
562	 0.182763246394234 
563	 0.182812808153149 
564	 0.18298765774956 
565	 0.183156420113166 
566	 0.183271490278072 
567	 0.183398872272112 
568	 0.183623614736412 
569	 0.18387897721828 
570	 0.184091147118094 
571	 0.184310911169774 
572	 0.184470174233008 
573	 0.184571088695496 
574	 0.184666124288045 
575	 0.184753266042893 
576	 0.184851684308423 
577	 0.184971507005127 
578	 0.185108606088165 
579	 0.185189441121171 
580	 0.185226604033674 
581	 0.185276812404883 
582	 0.185397222355343 
583	 0.185505246175803 
584	 0.185585202328111 
585	 0.185734260774447 
586	 0.185932099372061 
587	 0.186118532648814 
588	 0.186237980012113 
589	 0.186315863755385 
590	 0.1863832593223 
591	 0.186497986725555 
592	 0.186728751012398 
593	 0.186874712778621 
594	 0.186917504877313 
595	 0.186907190105811 
596	 0.186966659014791 
597	 0.186990092357871 
598	 0.186958051116578 
599	 0.186906143224756 
600	 0.186902796166122 
601	 0.186964583500497 
602	 0.187056199052179 
603	 0.187061878692076 
604	 0.187074164717473 
605	 0.187139545804759 
606	 0.187272383148899 
607	 0.187406961548038 
608	 0.187522618599887 
609	 0.187645727439399 
610	 0.187849666521274 
611	 0.187984230242801 
612	 0.188058922013789 
613	 0.188115354125574 
614	 0.188149179817284 
615	 0.188225472189559 
616	 0.188319314090662 
617	 0.188352976757098 
618	 0.188443896064923 
619	 0.188535597910336 
620	 0.188581624732114 
621	 0.188608122422674 
622	 0.188643496905772 
623	 0.188692966282686 
624	 0.18875295894573 
625	 0.188849010685174 
626	 0.188908089408144 
627	 0.188928952701775 
628	 0.189013773302805 
629	 0.189083038192133 
630	 0.189111035596672 
631	 0.189109251485389 
632	 0.189171176418163 
633	 0.189229398167728 
634	 0.189282528958166 
635	 0.189377952974777 
636	 0.189389644101985 
637	 0.189434563142121 
638	 0.189564709288892 
639	 0.189562237577258 
640	 0.189598556537816 
641	 0.189688742718185 
642	 0.189776468007135 
643	 0.189854646595736 
644	 0.189894637061733 
645	 0.189908633230171 
646	 0.189967000749608 
647	 0.19007588787833 
648	 0.190171080283239 
649	 0.190201933797919 
650	 0.190272942764942 
651	 0.190336927303376 
652	 0.190392748942603 
653	 0.190478302481066 
654	 0.190530468498434 
655	 0.190566653531202 
656	 0.190613778243675 
657	 0.190680514020374 
658	 0.190793736871226 
659	 0.190889400057827 
660	 0.190886105580158 
661	 0.19092723861459 
662	 0.19103426721104 
663	 0.191161886243718 
664	 0.191187818538213 
665	 0.191216082021762 
666	 0.19126074514721 
667	 0.191311198928363 
668	 0.191362931336166 
669	 0.191440425149794 
670	 0.191514364073193 
671	 0.191519517725286 
672	 0.191573374011023 
673	 0.191638862995987 
674	 0.191693582064564 
675	 0.191828035557231 
676	 0.19189678533075 
677	 0.191903702462335 
678	 0.191918200077726 
679	 0.191947734676315 
680	 0.19198647747418 
681	 0.192035224707251 
682	 0.192106822932999 
683	 0.192133100194091 
684	 0.192140444067342 
685	 0.192180036203454 
686	 0.192304005728048 
687	 0.192350407675192 
688	 0.192342622974413 
689	 0.192424993904733 
690	 0.192471237503511 
691	 0.192476580679246 
692	 0.19247042637696 
693	 0.192513757106409 
694	 0.192581858359588 
695	 0.192619867638276 
696	 0.192588974597957 
697	 0.192599450909042 
698	 0.192652970275325 
699	 0.192718346371527 
700	 0.192740392532382 
701	 0.192772666734151 
702	 0.192792059511747 
703	 0.192784070022962 
704	 0.192802652927338 
705	 0.192823034220408 
706	 0.192843482776183 
707	 0.19287019926207 
708	 0.19287949466072 
709	 0.192853369183283 
710	 0.192829527771143 
711	 0.192925892289961 
712	 0.192951687366966 
713	 0.192924176650664 
714	 0.192909236711544 
715	 0.192912388705048 
716	 0.192902278881952 
717	 0.192905349640055 
718	 0.192975450183139 
719	 0.192961002309148 
720	 0.192910605899635 
721	 0.192864375262672 
722	 0.192777592719252 
723	 0.192774174358982 
724	 0.192817556644935 
725	 0.192828573603577 
726	 0.192839454572781 
727	 0.192797905109141 
728	 0.192719026067537 
729	 0.192680244064807 
730	 0.192668876079769 
731	 0.19264448263774 
732	 0.192598096860554 
733	 0.192616082510358 
734	 0.192592129598027 
735	 0.192527936511294 
736	 0.192471021706462 
737	 0.192446678607263 
738	 0.192392527836432 
739	 0.192322076974838 
740	 0.192332259900348 
741	 0.192243030789729 
742	 0.192171842971504 
743	 0.192201037775057 
744	 0.192145040141492 
745	 0.192049665581194 
746	 0.19196877096285 
747	 0.191942165397614 
748	 0.191855977370585 
749	 0.19179722308792 
750	 0.191771400489108 
751	 0.191667802746663 
752	 0.191606098966766 
753	 0.191547715569705 
754	 0.191461536111765 
755	 0.19145387739901 
756	 0.191417397494355 
757	 0.191350170372882 
758	 0.191299972033864 
759	 0.191242816220942 
760	 0.191150852943556 
761	 0.19104210842371 
762	 0.19098940146576 
763	 0.190916182134836 
764	 0.19083295612086 
765	 0.190768211658145 
766	 0.190747834517276 
767	 0.190677797639786 
768	 0.190569544522331 
769	 0.190485679435331 
770	 0.190421791957577 
771	 0.190328823884319 
772	 0.190210263342651 
773	 0.190135143317956 
774	 0.190061313643632 
775	 0.190007055132327 
776	 0.189975604506681 
777	 0.189895063807179 
778	 0.189809310134376 
779	 0.189719209675428 
780	 0.189610580276145 
781	 0.189495518094594 
782	 0.189429641090674 
783	 0.189390708161578 
784	 0.18927919222687 
785	 0.189216929617065 
786	 0.189162598440594 
787	 0.18907282492249 
788	 0.18897517236625 
789	 0.188873242190609 
790	 0.188772636577095 
791	 0.188683138625675 
792	 0.188641831193688 
793	 0.188569682752461 
794	 0.188441409089126 
795	 0.188290180730865 
796	 0.188183953347216 
797	 0.188120527146243 
798	 0.188051293277462 
799	 0.187862038743212 
800	 0.187802347668801 
801	 0.187767878959565 
802	 0.187612219312021 
803	 0.18747041442217 
804	 0.18742174976397 
805	 0.187405522549072 
806	 0.18729057340323 
807	 0.187177628424838 
808	 0.187039029652696 
809	 0.186898299447612 
810	 0.186855595002568 
811	 0.186782718897098 
812	 0.186689907828419 
813	 0.186604154061578 
814	 0.186510819794506 
815	 0.18637842153231 
816	 0.186226072226852 
817	 0.186096607902114 
818	 0.186026450807225 
819	 0.185942361513135 
820	 0.185830006701902 
821	 0.185728738871913 
822	 0.185609189233818 
823	 0.18549036004077 
824	 0.185386108488112 
825	 0.185290359182064 
826	 0.185211333453762 
827	 0.185128252252962 
828	 0.185027403618532 
829	 0.184950936943595 
830	 0.184791904462885 
831	 0.18460954358772 
832	 0.18452573195857 
833	 0.184496837696048 
834	 0.184431478648795 
835	 0.184324308752981 
836	 0.184246513814578 
837	 0.184084365446953 
838	 0.183959063898363 
839	 0.183915504367172 
840	 0.183806809365238 
841	 0.183716849633898 
842	 0.183590955361604 
843	 0.183414467417195 
844	 0.183417064673044 
845	 0.183379106186389 
846	 0.18327105266444 
847	 0.18315591012026 
848	 0.183038880212609 
849	 0.182981762834255 
850	 0.182942102602993 
851	 0.182801845492115 
852	 0.182639456317514 
853	 0.18254227139585 
854	 0.182499368317617 
855	 0.18236276935205 
856	 0.182304506348176 
857	 0.182249587143836 
858	 0.18212735582124 
859	 0.182024178795773 
860	 0.181962113921527 
861	 0.181886549871098 
862	 0.181750253248126 
863	 0.181670906356953 
864	 0.181619918214984 
865	 0.181562585641357 
866	 0.181462023749102 
867	 0.181265654291766 
868	 0.18116747955154 
869	 0.181192831059766 
870	 0.181173588838403 
871	 0.181047632385537 
872	 0.180930455204536 
873	 0.18087649273702 
874	 0.180790014836103 
875	 0.180749649463154 
876	 0.180675046680788 
877	 0.180527347942078 
878	 0.180470856947908 
879	 0.180477082294266 
880	 0.180434091698371 
881	 0.180268775670133 
882	 0.180191348504843 
883	 0.18015886149415 
884	 0.180099179649947 
885	 0.179964670621616 
886	 0.179941397722925 
887	 0.179901051469985 
888	 0.179799249957275 
889	 0.179690414490301 
890	 0.179644078667853 
891	 0.179583091260175 
892	 0.179504451791474 
893	 0.179510271142021 
894	 0.179404915132769 
895	 0.179295141038104 
896	 0.179262841607751 
897	 0.179236929213405 
898	 0.179163099313102 
899	 0.179086874678423 
900	 0.179052803252866 
901	 0.179023756851489 
902	 0.179004206667647 
903	 0.178974451152694 
904	 0.178915062463893 
905	 0.178831468811765 
906	 0.178766337949859 
907	 0.178721552479009 
908	 0.178678664103413 
909	 0.17864409228261 
910	 0.178548454084757 
911	 0.178449252514611 
912	 0.17845935121654 
913	 0.178455548953584 
914	 0.178403519463151 
915	 0.178345532611525 
916	 0.178359766215722 
917	 0.178250336954258 
918	 0.178249879320962 
919	 0.178358967531374 
920	 0.178277845120297 
921	 0.178200219786624 
922	 0.178111596738517 
923	 0.17801245878183 
924	 0.177968950910384 
925	 0.178000247935879 
926	 0.178056493789316 
927	 0.178061880736481 
928	 0.177930035602396 
929	 0.177962449162609 
930	 0.178006101141739 
931	 0.177927607523129 
932	 0.177922183199405 
933	 0.177874010700345 
934	 0.177851288881016 
935	 0.177895284821179 
936	 0.177819566541876 
937	 0.177777978888321 
938	 0.177734947198608 
939	 0.177644254620039 
940	 0.177647335919932 
941	 0.177635224884671 
942	 0.177648751720078 
943	 0.17774117683303 
944	 0.177786979397675 
945	 0.177705323194191 
946	 0.177620349275597 
947	 0.177672825225761 
948	 0.177630532208876 
949	 0.177608055363721 
950	 0.177598819302538 
951	 0.177555408595305 
952	 0.177576920062925 
953	 0.177618752433102 
954	 0.177624894680645 
955	 0.177573236087831 
956	 0.177619260025215 
957	 0.177623762951993 
958	 0.177567508554114 
959	 0.177523982935269 
960	 0.177565047632491 
961	 0.177572905408321 
962	 0.177572552205381 
963	 0.17764675128188 
964	 0.177587956331389 
965	 0.177552075238028 
966	 0.177600962845652 
967	 0.177687654298312 
968	 0.177664732061485 
969	 0.177640327932115 
970	 0.177632491089062 
971	 0.177602244509527 
972	 0.177646622340229 
973	 0.177682363113222 
974	 0.177707851792412 
975	 0.177769050922586 
976	 0.177795386364922 
977	 0.177784085748474 
978	 0.177797471396675 
979	 0.177875808930119 
980	 0.177717825424437 
981	 0.17762346566309 
982	 0.177664119327479 
983	 0.177729509999367 
984	 0.177735531656065 
985	 0.177820113453117 
986	 0.177882429098966 
987	 0.177768150738948 
988	 0.177781237079486 
989	 0.177878236428668 
990	 0.177922523398547 
991	 0.177840413598503 
992	 0.178013476165227 
993	 0.178051350502474 
994	 0.178044264552684 
995	 0.178196940610237 
996	 0.178176445544031 
997	 0.178126033683312 
998	 0.17813884333207 
999	 0.178238667281226 
1000	 0.178317455674934 
1001	 0.179768289820455 
1002	 0.179801534781393 
1003	 0.179796015799995 
1004	 0.179811881087528 
1005	 0.179842703772339 
1006	 0.179889300300755 
1007	 0.179943125493386 
1008	 0.179988171664815 
1009	 0.180083314830286 
1010	 0.180100851941133 
1011	 0.180109213203763 
1012	 0.18018358540648 
1013	 0.180203010218184 
1014	 0.180160836955749 
1015	 0.180101966793575 
1016	 0.180069549694589 
1017	 0.180078050884373 
1018	 0.180105434982191 
1019	 0.180185133623126 
1020	 0.180312111755164 
1021	 0.180360906130712 
1022	 0.180350122512302 
1023	 0.18034615157942 
1024	 0.180298616202374 
1025	 0.180279600986986 
1026	 0.18028858808164 
1027	 0.180230943270175 
1028	 0.180195257971949 
1029	 0.180210179545735 
1030	 0.180227648850146 
1031	 0.180225856799451 
1032	 0.180249610491401 
1033	 0.180256452381873 
1034	 0.180228132138647 
1035	 0.180185061103652 
1036	 0.180195923162688 
1037	 0.180213128030298 
1038	 0.180193122932163 
1039	 0.180179259236137 
1040	 0.180191375364011 
1041	 0.18020602184672 
1042	 0.180239806924949 
1043	 0.180328378707099 
1044	 0.180365098810479 
1045	 0.180385214097458 
1046	 0.180377868544387 
1047	 0.180392667640046 
1048	 0.180397973578913 
1049	 0.18043475994924 
1050	 0.180500716294466 
1051	 0.180557431353381 
1052	 0.180577972697025 
1053	 0.180583957387691 
1054	 0.180653769518757 
1055	 0.180754802390024 
1056	 0.180832225592909 
1057	 0.180911327233788 
1058	 0.181015636001762 
1059	 0.181090281930646 
1060	 0.181130882065117 
1061	 0.181193969754132 
1062	 0.181273489174415 
1063	 0.181349183113729 
1064	 0.181439232305216 
1065	 0.18153097201197 
1066	 0.181599545489287 
1067	 0.181646570438133 
1068	 0.181678469793152 
1069	 0.181715612635997 
1070	 0.181748414196445 
1071	 0.181775646729853 
1072	 0.1818258551606 
1073	 0.181874324601931 
1074	 0.181921695145779 
1075	 0.18198679755325 
1076	 0.18205914839311 
1077	 0.18209266213023 
1078	 0.182140010994193 
1079	 0.182196478478243 
1080	 0.18222301637712 
1081	 0.182238561921363 
1082	 0.182228454401617 
1083	 0.182210414069519 
1084	 0.182164282170297 
1085	 0.182138797940103 
1086	 0.182107035164366 
1087	 0.182090497364927 
1088	 0.182098146739625 
1089	 0.182062155634149 
1090	 0.182034835977707 
1091	 0.182061418389387 
1092	 0.182076279950078 
1093	 0.182078070217111 
1094	 0.182091121310676 
1095	 0.182071448306269 
1096	 0.182015484984523 
1097	 0.181975193598725 
1098	 0.181957834470313 
1099	 0.181940239769005 
1100	 0.181938002359318 
1101	 0.181981684521149 
1102	 0.181999680887106 
1103	 0.182017863591555 
1104	 0.182018397581873 
1105	 0.182014964068469 
1106	 0.181986156768125 
1107	 0.181932677199462 
1108	 0.181905245618938 
1109	 0.181898703232681 
1110	 0.181896267523089 
1111	 0.181912541517357 
1112	 0.181967544880432 
1113	 0.1819906048498 
1114	 0.182018888916408 
1115	 0.182027795387531 
1116	 0.181999953248696 
1117	 0.182008677515214 
1118	 0.182032010921696 
1119	 0.18204620705962 
1120	 0.182059651994455 
1121	 0.182079657652309 
1122	 0.182072002105386 
1123	 0.182064795666599 
1124	 0.182080226608393 
1125	 0.18211405836257 
1126	 0.182141698125946 
1127	 0.182181426957678 
1128	 0.182207681161025 
1129	 0.182227503034135 
1130	 0.182254495621291 
1131	 0.182282215918934 
1132	 0.182305572761895 
1133	 0.182349739379041 
1134	 0.182357345415963 
1135	 0.182340287247973 
1136	 0.182318422198405 
1137	 0.182284461115884 
1138	 0.182269107360716 
1139	 0.18226711733453 
1140	 0.182284574547388 
1141	 0.182301196246576 
1142	 0.182333863764668 
1143	 0.182345771255542 
1144	 0.182361269396876 
1145	 0.182361976773904 
1146	 0.182344730427464 
1147	 0.18233061235211 
1148	 0.182308006173181 
1149	 0.182290466157882 
1150	 0.182271648529435 
1151	 0.182252267593648 
1152	 0.182240100351956 
1153	 0.182242657079691 
1154	 0.182242785016736 
1155	 0.182252751263678 
1156	 0.182248768946374 
1157	 0.182243901045293 
1158	 0.182233278996268 
1159	 0.182216878447457 
1160	 0.18219902128975 
1161	 0.182166683327797 
1162	 0.182152189167131 
1163	 0.182137640513878 
1164	 0.182133462995384 
1165	 0.182157738118169 
1166	 0.182167572755581 
1167	 0.182147290660253 
1168	 0.182126012805816 
1169	 0.182107159039833 
1170	 0.182063430095591 
1171	 0.182052196255084 
1172	 0.182065249268138 
1173	 0.182063463264574 
1174	 0.182071175260107 
1175	 0.182061980995426 
1176	 0.182031517697775 
1177	 0.182024635370697 
1178	 0.182020608072114 
1179	 0.18201920899614 
1180	 0.182036538466632 
1181	 0.182045692057744 
1182	 0.18205147644449 
1183	 0.182050148194822 
1184	 0.18205484517288 
1185	 0.182057771388587 
1186	 0.182071501919892 
1187	 0.182091141655177 
1188	 0.182109074010992 
1189	 0.182140059672121 
1190	 0.182155830204371 
1191	 0.182152771459869 
1192	 0.182170849947817 
1193	 0.182198303202095 
1194	 0.182218878879674 
1195	 0.182252184007466 
1196	 0.182275907031493 
1197	 0.182280212806646 
1198	 0.182296757191115 
1199	 0.182317476262607 
1200	 0.182340451988222 
1201	 0.182371038887366 
1202	 0.182415379484819 
1203	 0.182443519634537 
1204	 0.182473468808055 
1205	 0.182494332204747 
1206	 0.182497885423925 
1207	 0.182514614233534 
1208	 0.18253634194928 
1209	 0.182553780783381 
1210	 0.182571943424589 
1211	 0.182591398641697 
1212	 0.182610075308271 
1213	 0.182626800188708 
1214	 0.182651300057351 
1215	 0.182665616440831 
1216	 0.182674043222449 
1217	 0.182668510646724 
1218	 0.182683368730543 
1219	 0.182697833117595 
1220	 0.182720987310138 
1221	 0.182765000060667 
1222	 0.182790955486401 
1223	 0.182819252520209 
1224	 0.182830917404824 
1225	 0.182820045150924 
1226	 0.182827457391875 
1227	 0.182827821361264 
1228	 0.182838443916948 
1229	 0.182865912860852 
1230	 0.182890978928974 
1231	 0.182925933785357 
1232	 0.182947487943927 
1233	 0.182964128797347 
1234	 0.182977869472704 
1235	 0.182993618985263 
1236	 0.182995418796459 
1237	 0.183014378445629 
1238	 0.183050247364094 
1239	 0.183070975365022 
1240	 0.18309102107652 
1241	 0.183107869393107 
1242	 0.183122140589986 
1243	 0.183128368623289 
1244	 0.183121523130703 
1245	 0.183126940712016 
1246	 0.18313091364195 
1247	 0.183136797670882 
1248	 0.183149382232964 
1249	 0.183169148759094 
1250	 0.183182370383335 
1251	 0.183178796908709 
1252	 0.183196083750962 
1253	 0.183224352217604 
1254	 0.183243677839787 
1255	 0.183273363969949 
1256	 0.18328542813573 
1257	 0.183280880677226 
1258	 0.183283607800883 
1259	 0.183283708467315 
1260	 0.183284706697608 
1261	 0.18329919001071 
1262	 0.183289527123175 
1263	 0.183246972177787 
1264	 0.183233194933879 
1265	 0.183218997645685 
1266	 0.183211384834113 
1267	 0.18322268484629 
1268	 0.183250905819436 
1269	 0.183249078079273 
1270	 0.183230599507778 
1271	 0.183220162601315 
1272	 0.183185111083557 
1273	 0.183197791495495 
1274	 0.18323795652697 
1275	 0.18326948326443 
1276	 0.183322878198191 
1277	 0.18337156437081 
1278	 0.183404866562922 
1279	 0.183459790703975 
1280	 0.183542328636998 
1281	 0.18361164123418 
1282	 0.183680823117954 
1283	 0.1837520491986 
1284	 0.183822828183456 
1285	 0.183883830919074 
1286	 0.183965387156507 
1287	 0.184069977038522 
1288	 0.184166966914239 
1289	 0.18427743704072 
1290	 0.184375807925617 
1291	 0.184470768715637 
1292	 0.184564329884609 
1293	 0.184653983748926 
1294	 0.184744839285776 
1295	 0.184834234457464 
1296	 0.184923374289006 
1297	 0.185024529003263 
1298	 0.185103625795536 
1299	 0.185173307063388 
1300	 0.185232986879266 
1301	 0.18527309056981 
1302	 0.185311507007252 
1303	 0.185344075792176 
1304	 0.185375329456678 
1305	 0.185400097875718 
1306	 0.185411945888227 
1307	 0.185411205440791 
1308	 0.185415386575524 
1309	 0.185405260529705 
1310	 0.185383007694165 
1311	 0.185360452715814 
1312	 0.185321454093971 
1313	 0.185299997959789 
1314	 0.185293158779234 
1315	 0.185264067671131 
1316	 0.185232860228939 
1317	 0.185200749221318 
1318	 0.185141400427942 
1319	 0.185106415392388 
1320	 0.185090745028149 
1321	 0.185070639232943 
1322	 0.185056886755429 
1323	 0.185041789506256 
1324	 0.185026847469596 
1325	 0.18500156019804 
1326	 0.184966286132299 
1327	 0.184938982702118 
1328	 0.184903519162543 
1329	 0.184875216114478 
1330	 0.184862495256019 
1331	 0.184864810500706 
1332	 0.184859429908364 
1333	 0.184861954962561 
1334	 0.184861911155083 
1335	 0.18485442117693 
1336	 0.184860964000777 
1337	 0.184885553356282 
1338	 0.18489667174268 
1339	 0.184901938139109 
1340	 0.184912667671918 
1341	 0.18491159350503 
1342	 0.184925090949577 
1343	 0.184955138748986 
1344	 0.18498160767775 
1345	 0.185005994832762 
1346	 0.18502865759984 
1347	 0.18504339911472 
1348	 0.185073480840302 
1349	 0.185103880815466 
1350	 0.185117090519205 
1351	 0.18513749951268 
1352	 0.185155369123712 
1353	 0.185178525916893 
1354	 0.185201184930734 
1355	 0.18522994226488 
1356	 0.185264850580849 
1357	 0.185291670562214 
1358	 0.185317101533043 
1359	 0.185355083757192 
1360	 0.185396340854859 
1361	 0.18542985827826 
1362	 0.18547703508377 
1363	 0.185505142109329 
1364	 0.185511984306976 
1365	 0.18553142425581 
1366	 0.185547033387437 
1367	 0.185563358826934 
1368	 0.185603704549135 
1369	 0.185651832130275 
1370	 0.185694610920883 
1371	 0.185724620313858 
1372	 0.185736551488652 
1373	 0.185721133358529 
1374	 0.185715247294962 
1375	 0.185705984544179 
1376	 0.185693560155393 
1377	 0.185679438281537 
1378	 0.185659832662858 
1379	 0.185625627934811 
1380	 0.185606541066982 
1381	 0.185586619166712 
1382	 0.185575604994552 
1383	 0.185582456116447 
1384	 0.185576583554029 
1385	 0.185570689231972 
1386	 0.18556343123625 
1387	 0.185553676100784 
1388	 0.185538189084483 
1389	 0.185515768687052 
1390	 0.185501696386857 
1391	 0.185483413079636 
1392	 0.185446934885579 
1393	 0.185404306354688 
1394	 0.185360325115907 
1395	 0.185315527041636 
1396	 0.185274826512473 
1397	 0.185241296886219 
1398	 0.185223111631669 
1399	 0.185191300904038 
1400	 0.185155111341583 
1401	 0.18512141078197 
1402	 0.185086991474182 
1403	 0.185048014750154 
1404	 0.185010137675353 
1405	 0.184969951634964 
1406	 0.184922800515434 
1407	 0.184878772046515 
1408	 0.184834281173533 
1409	 0.184791304526851 
1410	 0.184749663212728 
1411	 0.184706784429149 
1412	 0.184661934010078 
1413	 0.184616943817915 
1414	 0.184596382874502 
1415	 0.184589503404362 
1416	 0.184585175538489 
1417	 0.184596389446912 
1418	 0.184571336160908 
1419	 0.184529774583984 
1420	 0.184504930179414 
1421	 0.184479934069739 
1422	 0.184468135747695 
1423	 0.184461080977118 
1424	 0.184450969288244 
1425	 0.184440341988703 
1426	 0.184426808972222 
1427	 0.184414507525613 
1428	 0.184399729851566 
1429	 0.184375030098911 
1430	 0.18436257912209 
1431	 0.18435544128027 
1432	 0.184348144090647 
1433	 0.184348828492361 
1434	 0.184347740268357 
1435	 0.184340575839271 
1436	 0.184343336714189 
1437	 0.184350985802971 
1438	 0.184358993961432 
1439	 0.184374454606556 
1440	 0.18438930224529 
1441	 0.184392470778024 
1442	 0.184402109305006 
1443	 0.18440875176237 
1444	 0.184413701261891 
1445	 0.184428797365824 
1446	 0.184451588196438 
1447	 0.184464133824208 
1448	 0.184474577890062 
1449	 0.18449307336696 
1450	 0.184502954913491 
1451	 0.184519730560423 
1452	 0.184542269039611 
1453	 0.184565022271174 
1454	 0.184590660332629 
1455	 0.184615483582393 
1456	 0.184644143085582 
1457	 0.184669983997892 
1458	 0.184696348587718 
1459	 0.184711226940604 
1460	 0.184719691030527 
1461	 0.184730312505152 
1462	 0.184734112615491 
1463	 0.184737426606282 
1464	 0.184745431697835 
1465	 0.184745811862685 
1466	 0.184734324905108 
1467	 0.184735391342559 
1468	 0.184744211927286 
1469	 0.184742662799904 
1470	 0.184741175082732 
1471	 0.184732837729114 
1472	 0.184733449527242 
1473	 0.184740079721329 
1474	 0.184757469322713 
1475	 0.184777585060339 
1476	 0.184772617081955 
1477	 0.184765430238946 
1478	 0.184767214595242 
1479	 0.184761827859408 
1480	 0.184762437153088 
1481	 0.18476472352439 
1482	 0.184758193845808 
1483	 0.184738249484913 
1484	 0.184737015245357 
1485	 0.184738486476064 
1486	 0.184745073417225 
1487	 0.184767800560812 
1488	 0.184776712329378 
1489	 0.184781626017737 
1490	 0.184783785317217 
1491	 0.184777486035344 
1492	 0.18478184361037 
1493	 0.184789881340702 
1494	 0.184793501083053 
1495	 0.184808637267705 
1496	 0.184806631459619 
1497	 0.184790276518674 
1498	 0.184779075851893 
1499	 0.184762223433475 
1500	 0.184745653793909 
1501	 0.184716240107579 
1502	 0.184708701076696 
1503	 0.184722177808226 
1504	 0.184713957909453 
1505	 0.184718820857183 
1506	 0.184740796336057 
1507	 0.184736836862446 
1508	 0.184743669598858 
1509	 0.184751758169773 
1510	 0.18475921479874 
1511	 0.184756317770528 
1512	 0.184747674901275 
1513	 0.184769495266204 
1514	 0.184775792807397 
1515	 0.184773436716815 
1516	 0.184784966679474 
1517	 0.184775017607078 
1518	 0.18473510243947 
1519	 0.184721137556916 
1520	 0.184710739390108 
1521	 0.184703646554603 
1522	 0.184709982279186 
1523	 0.184702209749759 
1524	 0.184689513082409 
1525	 0.184683939026917 
1526	 0.184670104982689 
1527	 0.184666495598606 
1528	 0.18467833385185 
1529	 0.184675739923161 
1530	 0.184665868936221 
1531	 0.184664269910337 
1532	 0.184652276822071 
1533	 0.184662546602755 
1534	 0.18470071461147 
1535	 0.184719270936902 
1536	 0.184745772568635 
1537	 0.184752577147238 
1538	 0.184733380814436 
1539	 0.184723116204015 
1540	 0.184703126770782 
1541	 0.184697775373126 
1542	 0.184705273316582 
1543	 0.184708056859244 
1544	 0.18472123026864 
1545	 0.184724158290613 
1546	 0.184714949920138 
1547	 0.184713126757226 
1548	 0.184705096767462 
1549	 0.184701523321546 
1550	 0.184712442237696 
1551	 0.184709231091768 
1552	 0.184709686813051 
1553	 0.184704804902192 
1554	 0.1846983289374 
1555	 0.184698210615549 
1556	 0.184700083319256 
1557	 0.184708261048459 
1558	 0.18471768750463 
1559	 0.184728117824766 
1560	 0.184716452384484 
1561	 0.184685512450179 
1562	 0.184675144045471 
1563	 0.184654398161972 
1564	 0.184649832373901 
1565	 0.184670837386987 
1566	 0.184675400922309 
1567	 0.184674677567328 
1568	 0.184670743273027 
1569	 0.184664119293581 
1570	 0.184660047476656 
1571	 0.184652828238434 
1572	 0.184648263264258 
1573	 0.184653109438947 
1574	 0.184639145253707 
1575	 0.184610061653159 
1576	 0.184590937618639 
1577	 0.184570959442001 
1578	 0.184547997151348 
1579	 0.184532315111316 
1580	 0.184507222515933 
1581	 0.184456727517834 
1582	 0.184435103556394 
1583	 0.184430139103875 
1584	 0.184420372009584 
1585	 0.184422352072315 
1586	 0.184420201998786 
1587	 0.184413328290567 
1588	 0.184409579961821 
1589	 0.184417919309838 
1590	 0.184412797482582 
1591	 0.184404394335811 
1592	 0.184384100293523 
1593	 0.184345841097535 
1594	 0.184316524673063 
1595	 0.184269117939371 
1596	 0.184248206673148 
1597	 0.184256277073635 
1598	 0.184248351494868 
1599	 0.184248896998684 
1600	 0.184244076579595 
1601	 0.184223601221916 
1602	 0.18420704527985 
1603	 0.184195109165026 
1604	 0.184183303474642 
1605	 0.18415882794047 
1606	 0.184153702065518 
1607	 0.184173535486665 
1608	 0.184173191455357 
1609	 0.18418282427881 
1610	 0.184190646046993 
1611	 0.184161132924462 
1612	 0.184134967033904 
1613	 0.184100105285797 
1614	 0.184060774327506 
1615	 0.184048943355204 
1616	 0.184033035457851 
1617	 0.184023695490146 
1618	 0.184039872313715 
1619	 0.184045499163248 
1620	 0.184044167275946 
1621	 0.184037055589695 
1622	 0.184024596071947 
1623	 0.184017319288697 
1624	 0.183998612463317 
1625	 0.184003757477912 
1626	 0.184030229591784 
1627	 0.18403060144091 
1628	 0.18403404235865 
1629	 0.18402296432658 
1630	 0.183988461559644 
1631	 0.183971739846585 
1632	 0.183956826103082 
1633	 0.183948031098401 
1634	 0.183943941369911 
1635	 0.183940836204409 
1636	 0.183943146911018 
1637	 0.183942972414223 
1638	 0.18394589966727 
1639	 0.183941587834866 
1640	 0.183938005756834 
1641	 0.183924064632811 
1642	 0.183893330823287 
1643	 0.183885243883221 
1644	 0.183876939844006 
1645	 0.183880472156553 
1646	 0.183917104313294 
1647	 0.183910145943606 
1648	 0.183880159702593 
1649	 0.183869118559532 
1650	 0.183847878256256 
1651	 0.183827575357186 
1652	 0.183824074269895 
1653	 0.183805359228466 
1654	 0.183761739767608 
1655	 0.183740733836092 
1656	 0.183733893251366 
1657	 0.183719000140871 
1658	 0.183696800577752 
1659	 0.183696605967443 
1660	 0.183716507109441 
1661	 0.183710199395096 
1662	 0.183711038052065 
1663	 0.183697842481723 
1664	 0.183646822082142 
1665	 0.183629883238811 
1666	 0.183633248273831 
1667	 0.183626024672886 
1668	 0.183636007973139 
1669	 0.183614427863569 
1670	 0.183562450881233 
1671	 0.18353905446775 
1672	 0.183511130532977 
1673	 0.183490683081973 
1674	 0.183490366250352 
1675	 0.183485275188487 
1676	 0.183478731077132 
1677	 0.183466637053485 
1678	 0.183458397305569 
1679	 0.183449526703385 
1680	 0.183430053303194 
1681	 0.183416152592182 
1682	 0.183408816373703 
1683	 0.183402805067241 
1684	 0.183391521386224 
1685	 0.183389704313186 
1686	 0.183400589930728 
1687	 0.183405086931412 
1688	 0.183418594654314 
1689	 0.183411445388289 
1690	 0.183388894758197 
1691	 0.183374054119864 
1692	 0.183341839573645 
1693	 0.183331922942649 
1694	 0.183339829531403 
1695	 0.183342484045888 
1696	 0.183359441704259 
1697	 0.183356139718672 
1698	 0.18333248326893 
1699	 0.183334802767028 
1700	 0.183345651034728 
1701	 0.183341878156006 
1702	 0.183360862613527 
1703	 0.183344884601977 
1704	 0.183294507841965 
1705	 0.183255247440856 
1706	 0.183200114909252 
1707	 0.183161479863492 
1708	 0.183127353389312 
1709	 0.183095400116163 
1710	 0.183062470320409 
1711	 0.183058716507639 
1712	 0.183073978584183 
1713	 0.18308066870112 
1714	 0.183118732382475 
1715	 0.1831165176298 
1716	 0.183074325342955 
1717	 0.183068866430103 
1718	 0.183063281792049 
1719	 0.183067385516937 
1720	 0.183107121429818 
1721	 0.183106430641308 
1722	 0.183088681124565 
1723	 0.183077686623289 
1724	 0.183051819657806 
1725	 0.183027033971199 
1726	 0.182997078923556 
1727	 0.182982511646855 
1728	 0.182975893409968 
1729	 0.182956475074471 
1730	 0.182954357572421 
1731	 0.182921165109783 
1732	 0.182854779381528 
1733	 0.182809607258562 
1734	 0.182762172032589 
1735	 0.182713668982938 
1736	 0.182671381463945 
1737	 0.182616803820502 
1738	 0.182544135947013 
1739	 0.182508625692761 
1740	 0.182490105930238 
1741	 0.182462221889742 
1742	 0.182457935746029 
1743	 0.182428492268792 
1744	 0.182368862996693 
1745	 0.182326945133152 
1746	 0.182285635319129 
1747	 0.182267548809781 
1748	 0.182268790205067 
1749	 0.182265824956894 
1750	 0.182244545751778 
1751	 0.182194442696734 
1752	 0.182154651628845 
1753	 0.182127289240594 
1754	 0.182095374273645 
1755	 0.18208182192612 
1756	 0.182046772513286 
1757	 0.181996141534427 
1758	 0.181955702387125 
1759	 0.181925717007828 
1760	 0.181914687088249 
1761	 0.181885280836123 
1762	 0.181861434175159 
1763	 0.181826428135218 
1764	 0.181768803347153 
1765	 0.181755031859978 
1766	 0.181758709377136 
1767	 0.181749336236633 
1768	 0.181741874394832 
1769	 0.181739855533357 
1770	 0.181705271299325 
1771	 0.181648501776004 
1772	 0.181614899542312 
1773	 0.181568761956195 
1774	 0.181520861885383 
1775	 0.181525937434072 
1776	 0.181530395939699 
1777	 0.181527878217634 
1778	 0.181546916592077 
1779	 0.181531011729573 
1780	 0.181490758929294 
1781	 0.181454426321713 
1782	 0.181415942201712 
1783	 0.181386262128376 
1784	 0.181354593731808 
1785	 0.181306438785092 
1786	 0.181279757378893 
1787	 0.181254049287908 
1788	 0.181246327531128 
1789	 0.181291779304223 
1790	 0.181292480545565 
1791	 0.181267452617657 
1792	 0.181267776038549 
1793	 0.181257065519492 
1794	 0.181246381017551 
1795	 0.181263174757213 
1796	 0.181254055348708 
1797	 0.1812002362883 
1798	 0.181194061470194 
1799	 0.181227183441624 
1800	 0.181225474331568 
1801	 0.179469725963909 
1802	 0.179545684094578 
1803	 0.17960834843378 
1804	 0.179651973404902 
1805	 0.179691358538124 
1806	 0.179712751733446 
1807	 0.179750242812872 
1808	 0.179784912366942 
1809	 0.179844389801513 
1810	 0.179879361752823 
1811	 0.179915153884082 
1812	 0.179909948349536 
1813	 0.17989767364699 
1814	 0.17989170398231 
1815	 0.179898325947465 
1816	 0.179900635279864 
1817	 0.179901671392974 
1818	 0.179926890068434 
1819	 0.179924292065468 
1820	 0.179897150129541 
1821	 0.179876475578065 
1822	 0.179876569813299 
1823	 0.179871098394242 
1824	 0.179874902601527 
1825	 0.179899124818501 
1826	 0.179911849875732 
1827	 0.179908567564839 
1828	 0.179898551594875 
1829	 0.179861703102192 
1830	 0.179845311200614 
1831	 0.179830298340884 
1832	 0.179828131156117 
1833	 0.179814099012274 
1834	 0.179824610711205 
1835	 0.179792960929476 
1836	 0.179748757540655 
1837	 0.179733995581004 
1838	 0.179715956734633 
1839	 0.179716780126383 
1840	 0.179738771336977 
1841	 0.179771550288931 
1842	 0.179796145529991 
1843	 0.179834473410618 
1844	 0.179853541864979 
1845	 0.179827193220893 
1846	 0.179786754615826 
1847	 0.179744429437466 
1848	 0.179688164425231 
1849	 0.179644037966466 
1850	 0.179623544349446 
1851	 0.179627050399526 
1852	 0.17962174284132 
1853	 0.179607405415905 
1854	 0.1796013906594 
1855	 0.179594624617561 
1856	 0.1795603261776 
1857	 0.179548232547854 
1858	 0.179574023408188 
1859	 0.179579361689497 
1860	 0.179563367914016 
1861	 0.179549439638604 
1862	 0.17950421151945 
1863	 0.179422682010334 
1864	 0.179347701274474 
1865	 0.179269875495717 
1866	 0.17921012129092 
1867	 0.179168542115962 
1868	 0.179128948121984 
1869	 0.179107088646425 
1870	 0.179086389660327 
1871	 0.179055364077666 
1872	 0.179024120511075 
1873	 0.178979986330809 
1874	 0.178929476382027 
1875	 0.178892234468184 
1876	 0.178856151905035 
1877	 0.178809802620379 
1878	 0.178755180296202 
1879	 0.178703634053037 
1880	 0.178623539680466 
1881	 0.178509517725464 
1882	 0.178418739213444 
1883	 0.178333499978944 
1884	 0.178207259965196 
1885	 0.178107590063169 
1886	 0.178013304052666 
1887	 0.177867167947095 
1888	 0.177728248051721 
1889	 0.177583774620939 
1890	 0.177429298500391 
1891	 0.177264081215532 
1892	 0.177075188993748 
1893	 0.17690563650555 
1894	 0.176734888576017 
1895	 0.176565336123645 
1896	 0.176417749513067 
1897	 0.176274807948783 
1898	 0.176079274573632 
1899	 0.175884474732365 
1900	 0.175665883686292 
1901	 0.175437562181788 
1902	 0.175239525786775 
1903	 0.17506833942106 
1904	 0.174880010836845 
1905	 0.174701109553159 
1906	 0.174527159538186 
1907	 0.174327291175357 
1908	 0.174132923265091 
1909	 0.173927146786013 
1910	 0.17370099577389 
1911	 0.17347985343461 
1912	 0.173250847487767 
1913	 0.173023631094829 
1914	 0.172799694516654 
1915	 0.172569933965011 
1916	 0.172337925066443 
1917	 0.172100653100629 
1918	 0.171860637208538 
1919	 0.171622499558929 
1920	 0.171378439562112 
1921	 0.171129749483166 
1922	 0.170877595101378 
1923	 0.170648468542005 
1924	 0.170428359489938 
1925	 0.170225818083797 
1926	 0.170022733417228 
1927	 0.169837759577124 
1928	 0.169636381863233 
1929	 0.16942868953866 
1930	 0.169224059641044 
1931	 0.169015052144352 
1932	 0.168816033792546 
1933	 0.168626005479336 
1934	 0.168463480646314 
1935	 0.168330536972697 
1936	 0.16822111097758 
1937	 0.168128405459599 
1938	 0.168088707992426 
1939	 0.168026819817723 
1940	 0.16794882578377 
1941	 0.167916048961055 
1942	 0.167897892938865 
1943	 0.167850932225223 
1944	 0.16782865949153 
1945	 0.167812027076607 
1946	 0.167796045647451 
1947	 0.167758326478161 
1948	 0.167764915213108 
1949	 0.167808684343087 
1950	 0.167835117325082 
1951	 0.167874083573689 
1952	 0.167922110150344 
1953	 0.167935567962333 
1954	 0.167934258199068 
1955	 0.16795215937185 
1956	 0.167954199497473 
1957	 0.167955858720995 
1958	 0.167960766606639 
1959	 0.167964533828648 
1960	 0.167953262623346 
1961	 0.167956799609722 
1962	 0.167973477047719 
1963	 0.16798180615639 
1964	 0.167992571384218 
1965	 0.167998428863426 
1966	 0.167997179356742 
1967	 0.168004264744837 
1968	 0.168009981472783 
1969	 0.16801720841629 
1970	 0.168017895915724 
1971	 0.168015133049343 
1972	 0.168022887311105 
1973	 0.168026024776951 
1974	 0.16803637729944 
1975	 0.168068986577724 
1976	 0.168075601093723 
1977	 0.168079185095137 
1978	 0.1681105437624 
1979	 0.16813105134021 
1980	 0.168149281698879 
1981	 0.168166878505838 
1982	 0.16818244391132 
1983	 0.168196032352902 
1984	 0.168222090009686 
1985	 0.168219909136262 
1986	 0.168177526812481 
1987	 0.168177251943186 
1988	 0.168181421884556 
1989	 0.168186765838878 
1990	 0.168221175550798 
1991	 0.168268899148969 
1992	 0.168313335455003 
1993	 0.168352776505169 
1994	 0.16840028360528 
1995	 0.168471072811757 
1996	 0.168515995808228 
1997	 0.168539541271462 
1998	 0.168581849934963 
1999	 0.168625596097744 
2000	 0.168668602858161 
2001	 0.168723994385547 
2002	 0.168769518229225 
2003	 0.16881474768545 
2004	 0.168856467886386 
2005	 0.168909535653745 
2006	 0.168982866379294 
2007	 0.169031399455749 
2008	 0.169063147686244 
2009	 0.16911588226267 
2010	 0.169164782158579 
2011	 0.169218601178994 
2012	 0.169305273973537 
2013	 0.169361669320784 
2014	 0.169405688918895 
2015	 0.169438011238735 
2016	 0.16943254526492 
2017	 0.169455078745772 
2018	 0.169499058917114 
2019	 0.169560509275949 
2020	 0.169610749961311 
2021	 0.169699210597768 
2022	 0.169745069737652 
2023	 0.169757723351835 
2024	 0.169776747611232 
2025	 0.169790260329392 
2026	 0.169794671027549 
2027	 0.169781656040341 
2028	 0.169780125058358 
2029	 0.169780574418414 
2030	 0.169775431664572 
2031	 0.169780363604579 
2032	 0.169797711466495 
2033	 0.169808246087536 
2034	 0.169818712593699 
2035	 0.16982779412499 
2036	 0.1698407183356 
2037	 0.169846475946164 
2038	 0.169852354628755 
2039	 0.16984834374601 
2040	 0.169839288556579 
2041	 0.16981575371395 
2042	 0.169803716167377 
2043	 0.169795272898038 
2044	 0.169782524568273 
2045	 0.169779769510451 
2046	 0.16976436150801 
2047	 0.169736803424688 
2048	 0.169712913638267 
2049	 0.169693282421855 
2050	 0.169659922419975 
2051	 0.169612420977687 
2052	 0.169574246998784 
2053	 0.169532105084984 
2054	 0.169492965170795 
2055	 0.169457424241152 
2056	 0.169413933688686 
2057	 0.169408287422361 
2058	 0.169426547953426 
2059	 0.169420061153894 
2060	 0.169441733375186 
2061	 0.169432455177507 
2062	 0.169374738065473 
2063	 0.169352538717985 
2064	 0.169342693942348 
2065	 0.169333609326132 
2066	 0.169337145144592 
2067	 0.169336477534222 
2068	 0.169333460279446 
2069	 0.1693334407287 
2070	 0.169342033571169 
2071	 0.169367460792212 
2072	 0.169354413532372 
2073	 0.169330405606062 
2074	 0.169308859478854 
2075	 0.169248096050231 
2076	 0.169229100157956 
2077	 0.169236308607617 
2078	 0.169240445609311 
2079	 0.169268690992753 
2080	 0.169272540741557 
2081	 0.169259251860891 
2082	 0.169262486841377 
2083	 0.169263132190498 
2084	 0.169256950974249 
2085	 0.169275434194569 
2086	 0.169317517890392 
2087	 0.16934902149558 
2088	 0.169383382945306 
2089	 0.169426104086873 
2090	 0.169480941775273 
2091	 0.169522176141379 
2092	 0.169573200834599 
2093	 0.169603904403434 
2094	 0.169600864225098 
2095	 0.16962559189607 
2096	 0.169642894350102 
2097	 0.169682228003893 
2098	 0.169745307758753 
2099	 0.169821799829225 
2100	 0.169883768977645 
2101	 0.169948161655081 
2102	 0.170017169113447 
2103	 0.170078430913329 
2104	 0.170152646637189 
2105	 0.170239442387328 
2106	 0.170327923117712 
2107	 0.170414102304712 
2108	 0.170514491279501 
2109	 0.170623541211706 
2110	 0.170743303855527 
2111	 0.17088936239944 
2112	 0.171016176724715 
2113	 0.171145757019552 
2114	 0.171268315478367 
2115	 0.171387194677419 
2116	 0.171491786526769 
2117	 0.171603929665473 
2118	 0.171714032077506 
2119	 0.171834494724773 
2120	 0.17196286328902 
2121	 0.172078856544659 
2122	 0.172190963986243 
2123	 0.172315829549782 
2124	 0.172446518085303 
2125	 0.172562191902224 
2126	 0.172694661765229 
2127	 0.17280406939271 
2128	 0.172881211320422 
2129	 0.172961827656152 
2130	 0.173029168154753 
2131	 0.173112524698442 
2132	 0.173181358855624 
2133	 0.173245201806801 
2134	 0.173305166467396 
2135	 0.173371796272556 
2136	 0.173404393758543 
2137	 0.173425585867712 
2138	 0.173425019135543 
2139	 0.17336903905635 
2140	 0.173360253536505 
2141	 0.173348109853528 
2142	 0.173358239717448 
2143	 0.173418874143408 
2144	 0.173448471774519 
2145	 0.173463805833285 
2146	 0.173490426896668 
2147	 0.173523592743439 
2148	 0.17354160340344 
2149	 0.173547099168588 
2150	 0.173560824010325 
2151	 0.173548486017355 
2152	 0.173506699952695 
2153	 0.173463354231439 
2154	 0.173417328724777 
2155	 0.173356070434053 
2156	 0.173264527847487 
2157	 0.173190923069634 
2158	 0.173112117723684 
2159	 0.173040642913187 
2160	 0.172994148997496 
2161	 0.17292125132784 
2162	 0.172821733579302 
2163	 0.172744660652671 
2164	 0.172680401464657 
2165	 0.172594872620272 
2166	 0.172499122214231 
2167	 0.172414464506089 
2168	 0.172309314557519 
2169	 0.172161485623996 
2170	 0.172050617507876 
2171	 0.171951800207507 
2172	 0.171859285843076 
2173	 0.171777184647265 
2174	 0.171693725545705 
2175	 0.171625673461955 
2176	 0.1715439352495 
2177	 0.171464567221757 
2178	 0.171368880366743 
2179	 0.171246572061573 
2180	 0.17114435989297 
2181	 0.171039322714084 
2182	 0.170939078856947 
2183	 0.170848922093904 
2184	 0.170775387816353 
2185	 0.170679898050963 
2186	 0.170569307997247 
2187	 0.170474658730531 
2188	 0.170373451650724 
2189	 0.170293128567227 
2190	 0.17024163368422 
2191	 0.170162020393882 
2192	 0.170083077296 
2193	 0.169992864631518 
2194	 0.16986625656286 
2195	 0.169775769851519 
2196	 0.169713482655603 
2197	 0.169627935632241 
2198	 0.169530178777049 
2199	 0.169457838799552 
2200	 0.169371548131842 
2201	 0.169312242570878 
2202	 0.169280764805432 
2203	 0.169287917848889 
2204	 0.169255088717258 
2205	 0.169217278816997 
2206	 0.16917446935579 
2207	 0.169114855913745 
2208	 0.169064184922576 
2209	 0.169021321451382 
2210	 0.168969569317328 
2211	 0.168900706722634 
2212	 0.168855335004126 
2213	 0.16882351399401 
2214	 0.168781567405685 
2215	 0.168740181522745 
2216	 0.168713471876546 
2217	 0.168678415750859 
2218	 0.168659608745704 
2219	 0.168673554952868 
2220	 0.168675180629876 
2221	 0.168671120289994 
2222	 0.168682890307256 
2223	 0.168668859726441 
2224	 0.168646157304372 
2225	 0.168613837404586 
2226	 0.168553750415898 
2227	 0.168520662782636 
2228	 0.16850016743071 
2229	 0.168462803092019 
2230	 0.168434122446035 
2231	 0.168384543315965 
2232	 0.168298065206864 
2233	 0.16824880613799 
2234	 0.168203542400902 
2235	 0.168174459597292 
2236	 0.16817216905253 
2237	 0.168161969833848 
2238	 0.168152019544925 
2239	 0.168151802415377 
2240	 0.168177102934499 
2241	 0.168176159868443 
2242	 0.168174491429588 
2243	 0.168157239325933 
2244	 0.168110606178284 
2245	 0.168057743798746 
2246	 0.168050343254989 
2247	 0.168022818655175 
2248	 0.168005640213144 
2249	 0.16800325789196 
2250	 0.168002160420226 
2251	 0.167996129572744 
2252	 0.168004990098761 
2253	 0.168048811072903 
2254	 0.168042948051684 
2255	 0.168011243629077 
2256	 0.167990104779505 
2257	 0.167938979116364 
2258	 0.167917860373799 
2259	 0.167919913704969 
2260	 0.167911985543982 
2261	 0.1679090224182 
2262	 0.167911524726848 
2263	 0.167909169124869 
2264	 0.16791563851949 
2265	 0.167938759670921 
2266	 0.167944527585992 
2267	 0.167966152154725 
2268	 0.167965570232458 
2269	 0.167949210360588 
2270	 0.16790523023226 
2271	 0.167896860191255 
2272	 0.167852416814359 
2273	 0.167822624322918 
2274	 0.167826743787997 
2275	 0.167787731807568 
2276	 0.167717366285346 
2277	 0.16767611149423 
2278	 0.167625703828584 
2279	 0.167592581022313 
2280	 0.167586466398658 
2281	 0.167559634506034 
2282	 0.167530969933707 
2283	 0.167499914078937 
2284	 0.167453274121932 
2285	 0.16742794822721 
2286	 0.167417802372715 
2287	 0.167389342079428 
2288	 0.167357141099354 
2289	 0.167334567391154 
2290	 0.167294290937187 
2291	 0.1672841620381 
2292	 0.167306685376619 
2293	 0.167320631483527 
2294	 0.167361012073622 
2295	 0.167364224382235 
2296	 0.167337354062468 
2297	 0.167330194992634 
2298	 0.167299885371707 
2299	 0.167262640446564 
2300	 0.167241488518571 
2301	 0.16720873617444 
2302	 0.167168851186499 
2303	 0.167162843472288 
2304	 0.16715352450537 
2305	 0.167112999944784 
2306	 0.167071540467951 
2307	 0.167005453308047 
2308	 0.166965666682195 
2309	 0.166942486706788 
2310	 0.166907642704704 
2311	 0.166888058182525 
2312	 0.166833121603357 
2313	 0.166724375598574 
2314	 0.166662051087945 
2315	 0.16663118897987 
2316	 0.166569375002809 
2317	 0.166504492398737 
2318	 0.166456858489635 
2319	 0.166387604313152 
2320	 0.166328107651636 
2321	 0.16630446262399 
2322	 0.166263789764899 
2323	 0.16618491549628 
2324	 0.166145119939035 
2325	 0.166140790946495 
2326	 0.166124657397003 
2327	 0.166118071656698 
2328	 0.166114745878426 
2329	 0.166108398378908 
2330	 0.166080717372543 
2331	 0.166064202772502 
2332	 0.166048060153849 
2333	 0.166035301726906 
2334	 0.166043680785357 
2335	 0.166050235215869 
2336	 0.166064937932679 
2337	 0.166058692272788 
2338	 0.166019306954801 
2339	 0.166005596949357 
2340	 0.166008704475077 
2341	 0.165998435163917 
2342	 0.165945681974661 
2343	 0.165852936814468 
2344	 0.165757461912009 
2345	 0.16567822745156 
2346	 0.165616168695458 
2347	 0.165525437307896 
2348	 0.165422034860941 
2349	 0.165336661571056 
2350	 0.165229813664349 
2351	 0.16515599646854 
2352	 0.165131923026373 
2353	 0.165052907299188 
2354	 0.164947925617339 
2355	 0.164840203581939 
2356	 0.1647292076715 
2357	 0.1646123128102 
2358	 0.164477126370391 
2359	 0.164364228572618 
2360	 0.164223570863313 
2361	 0.164120964990905 
2362	 0.164091723025478 
2363	 0.164000508323161 
2364	 0.163880392422882 
2365	 0.163772776487826 
2366	 0.163636568050034 
2367	 0.163508753108251 
2368	 0.16341504485007 
2369	 0.163318978170155 
2370	 0.163234934602435 
2371	 0.163066407201627 
2372	 0.162969182095311 
2373	 0.162869082995139 
2374	 0.16270150933134 
2375	 0.162568895390277 
2376	 0.162412631522433 
2377	 0.162225173228904 
2378	 0.16212123822293 
2379	 0.162043217127712 
2380	 0.161933255618637 
2381	 0.161790550483983 
2382	 0.161620265094709 
2383	 0.161445706797176 
2384	 0.161282922598165 
2385	 0.161202705392754 
2386	 0.161122891270613 
2387	 0.161034847362481 
2388	 0.160928828844006 
2389	 0.160744251221831 
2390	 0.160606655357435 
2391	 0.160450959535606 
2392	 0.160261517253358 
2393	 0.160103696843959 
2394	 0.159944822567655 
2395	 0.159835509269943 
2396	 0.159789105628453 
2397	 0.159808182151477 
2398	 0.159764035490126 
2399	 0.159582909166167 
2400	 0.159409453385673 
2401	 0.15923294535379 
2402	 0.159114176870947 
2403	 0.15912109273385 
2404	 0.159147438130713 
2405	 0.159190814768291 
2406	 0.159182545968596 
2407	 0.159127948862816 
2408	 0.159075812664022 
2409	 0.158955817339235 
2410	 0.158866210734237 
2411	 0.158836587934972 
2412	 0.158862757126235 
2413	 0.158917353686901 
2414	 0.158823331575716 
2415	 0.158717727605072 
2416	 0.158677430258536 
2417	 0.158575748358348 
2418	 0.158521225381517 
2419	 0.158570294701293 
2420	 0.158581956361588 
2421	 0.15858369357575 
2422	 0.158586958175786 
2423	 0.158674400861693 
2424	 0.158650792602564 
2425	 0.158484620800934 
2426	 0.15837815417058 
2427	 0.158235508079584 
2428	 0.15814639060903 
2429	 0.158108160473677 
2430	 0.158083511526314 
2431	 0.158098425814634 
2432	 0.158105084300247 
2433	 0.158197833220809 
2434	 0.158119898858025 
2435	 0.157892560188957 
2436	 0.157787477789428 
2437	 0.157644697903158 
2438	 0.157529272302828 
2439	 0.157536170090884 
2440	 0.1573763443267 
2441	 0.157065628760591 
2442	 0.156894144963654 
2443	 0.156711264583726 
2444	 0.156655052611226 
2445	 0.15682544251302 
2446	 0.156719387780609 
2447	 0.15647878544738 
2448	 0.15634205315384 
2449	 0.156075535694297 
2450	 0.155902670977801 
2451	 0.155895590327072 
2452	 0.155853287470535 
2453	 0.155757699684733 
2454	 0.155688231067033 
2455	 0.155683474430325 
2456	 0.155618927642 
2457	 0.155561548542057 
2458	 0.155491282988146 
2459	 0.155390116732908 
2460	 0.155305535011625 
2461	 0.155187859564063 
2462	 0.155010653205374 
2463	 0.154760651187775 
2464	 0.154665540985432 
2465	 0.154598107807455 
2466	 0.154584850367066 
2467	 0.154785484965114 
2468	 0.154761228717036 
2469	 0.154622916711485 
2470	 0.154418034480004 
2471	 0.154340419885632 
2472	 0.154400827950477 
2473	 0.154340212608093 
2474	 0.154235605749888 
2475	 0.154088022400122 
2476	 0.153944345533234 
2477	 0.153845217400161 
2478	 0.153812127438383 
2479	 0.153737914425915 
2480	 0.153472676791391 
2481	 0.153201045299042 
2482	 0.153073588239623 
2483	 0.152976545755067 
2484	 0.152975163433464 
2485	 0.153019468726057 
2486	 0.152647769516869 
2487	 0.152130432252662 
2488	 0.151927056510591 
2489	 0.151658691536174 
2490	 0.151728016346262 
2491	 0.151946302885502 
2492	 0.151674332454623 
2493	 0.151475924941421 
2494	 0.151180646549235 
2495	 0.151021244282189 
2496	 0.151351383213766 
2497	 0.151455247835385 
2498	 0.151352799156568 
2499	 0.151204423529869 
2500	 0.150978531717539 
