Wavelength	LMW600009.asd
350	 0.104494433975611 
351	 0.109154358838368 
352	 0.111654400663626 
353	 0.11108437580391 
354	 0.10396983430605 
355	 0.105601402042505 
356	 0.108904309616091 
357	 0.105183953158388 
358	 0.102835616654699 
359	 0.103361451822892 
360	 0.107179768863405 
361	 0.113162843048465 
362	 0.111427345504286 
363	 0.109224959683477 
364	 0.110706831301543 
365	 0.11203165338736 
366	 0.113239873658598 
367	 0.114437399130149 
368	 0.115331789054551 
369	 0.113785294153135 
370	 0.111367622989777 
371	 0.109945404553316 
372	 0.111226296575322 
373	 0.114467687715037 
374	 0.114794446444774 
375	 0.112366351466458 
376	 0.11702468058902 
377	 0.116963415344181 
378	 0.115635787029721 
379	 0.118645120497808 
380	 0.120613245428522 
381	 0.118933667051009 
382	 0.116756469657844 
383	 0.120448904786911 
384	 0.120360317603667 
385	 0.118931747337618 
386	 0.119117580701193 
387	 0.121653563443088 
388	 0.122592803970762 
389	 0.122103178874511 
390	 0.121770684221713 
391	 0.122349379510991 
392	 0.123790496845054 
393	 0.125828042554015 
394	 0.127940512473537 
395	 0.127344444544143 
396	 0.126655615780606 
397	 0.127697983430883 
398	 0.128809125360698 
399	 0.129265734218792 
400	 0.129663470228411 
401	 0.130788716000124 
402	 0.131245708201054 
403	 0.131626056709588 
404	 0.132274093443664 
405	 0.133139176785345 
406	 0.133879749743506 
407	 0.134364926251842 
408	 0.134716658278562 
409	 0.135601211372964 
410	 0.136162985470414 
411	 0.13648682610533 
412	 0.137142831761593 
413	 0.138826630339981 
414	 0.139810120373104 
415	 0.139876107992562 
416	 0.140959111863194 
417	 0.141317705898334 
418	 0.141325044850026 
419	 0.141721934323459 
420	 0.142723444463217 
421	 0.143656552130547 
422	 0.144336005213594 
423	 0.144900702770881 
424	 0.145156845157942 
425	 0.145452606871164 
426	 0.145956930561971 
427	 0.146419703611836 
428	 0.146846615385812 
429	 0.147411340549551 
430	 0.148191630397874 
431	 0.14852811436647 
432	 0.148634541828305 
433	 0.148851650566251 
434	 0.149558529711816 
435	 0.150277456178123 
436	 0.150856800929224 
437	 0.151243068461798 
438	 0.151405052068288 
439	 0.151603093418488 
440	 0.152070283607005 
441	 0.152896127227925 
442	 0.153274234002522 
443	 0.153395188700567 
444	 0.153503545992925 
445	 0.153744328931853 
446	 0.15415942602151 
447	 0.154682269022322 
448	 0.155172874087004 
449	 0.155332545655307 
450	 0.155731865905272 
451	 0.156335015622429 
452	 0.156604102092439 
453	 0.15695643133505 
454	 0.157280957508132 
455	 0.157534413967487 
456	 0.158067131181413 
457	 0.158673544147474 
458	 0.159065437832146 
459	 0.159042305445045 
460	 0.159351833694019 
461	 0.159682518384489 
462	 0.159903158232248 
463	 0.160267882098079 
464	 0.160878988542368 
465	 0.161322428330764 
466	 0.161341417664146 
467	 0.161920176772965 
468	 0.162303677831121 
469	 0.162414254267817 
470	 0.162735208540007 
471	 0.163049821884659 
472	 0.163394920774283 
473	 0.163776882709195 
474	 0.164028816915961 
475	 0.16434644059681 
476	 0.164700280126292 
477	 0.164965461667064 
478	 0.165084525201794 
479	 0.165376049753249 
480	 0.165862370756644 
481	 0.166114897918929 
482	 0.166620188471586 
483	 0.167174918873688 
484	 0.167500565316631 
485	 0.167827271334234 
486	 0.168096402034825 
487	 0.168311559952244 
488	 0.168533217347787 
489	 0.168783088099814 
490	 0.169135150001954 
491	 0.169563448364689 
492	 0.169767077888056 
493	 0.170083406022801 
494	 0.170486730394539 
495	 0.170795633940628 
496	 0.171062974507264 
497	 0.171313258250749 
498	 0.171600262926333 
499	 0.172032068851736 
500	 0.172334753744836 
501	 0.172550965862897 
502	 0.172792177195425 
503	 0.172998142569667 
504	 0.173255493355853 
505	 0.173589052439209 
506	 0.173956688663324 
507	 0.17416526883302 
508	 0.174363069315973 
509	 0.174659810605141 
510	 0.174875776811811 
511	 0.175082775421598 
512	 0.175302445333208 
513	 0.175533551491704 
514	 0.175804390800432 
515	 0.176066903379029 
516	 0.176302973658142 
517	 0.176561140745861 
518	 0.176767699322765 
519	 0.177009209224031 
520	 0.177361580840488 
521	 0.177565614163167 
522	 0.177777737138571 
523	 0.178028538652407 
524	 0.178196421164522 
525	 0.178427771605136 
526	 0.17869123385168 
527	 0.178933185353017 
528	 0.179167919454396 
529	 0.179370924733603 
530	 0.179542302815826 
531	 0.179703379842501 
532	 0.179905219575884 
533	 0.180171780446872 
534	 0.180462225998343 
535	 0.180598667675683 
536	 0.180808966968081 
537	 0.181044786194179 
538	 0.181179560150569 
539	 0.181350016813914 
540	 0.181554263351196 
541	 0.181757442107938 
542	 0.18189460433033 
543	 0.182106873295232 
544	 0.182335795126587 
545	 0.182509371610494 
546	 0.182747217073306 
547	 0.182924518614341 
548	 0.183058784051792 
549	 0.183284248869777 
550	 0.183473770713414 
551	 0.18365785367701 
552	 0.18386592773066 
553	 0.184052906099104 
554	 0.184197416799272 
555	 0.18434498103689 
556	 0.184566403511328 
557	 0.184800539064418 
558	 0.185048082047706 
559	 0.185268493821277 
560	 0.185325270918042 
561	 0.185434922788343 
562	 0.185591332978417 
563	 0.185732695208674 
564	 0.1859741161206 
565	 0.186113323161394 
566	 0.186154453209482 
567	 0.186345846820147 
568	 0.186582248638591 
569	 0.18680657513614 
570	 0.187004474633291 
571	 0.187297111061748 
572	 0.18744508782335 
573	 0.187485437607634 
574	 0.187640200479291 
575	 0.187771974154355 
576	 0.187891815425756 
577	 0.188018315300575 
578	 0.188147025016855 
579	 0.188210883118615 
580	 0.188222516906634 
581	 0.188237406038774 
582	 0.188312725267099 
583	 0.188444862639272 
584	 0.188616917376618 
585	 0.188806556486025 
586	 0.188955723966188 
587	 0.189094912375312 
588	 0.189256987136433 
589	 0.189352497343436 
590	 0.189449930556547 
591	 0.189571667562518 
592	 0.189692584580075 
593	 0.189801820700639 
594	 0.189851330010096 
595	 0.189838685137446 
596	 0.189894548054587 
597	 0.18995915489916 
598	 0.189990650278189 
599	 0.189973270865612 
600	 0.190045126150158 
601	 0.190149643532142 
602	 0.19021898531372 
603	 0.190203439660695 
604	 0.190183292210425 
605	 0.190232408779152 
606	 0.190389873275512 
607	 0.190545037873218 
608	 0.190607849002445 
609	 0.190639306281292 
610	 0.190862643360201 
611	 0.191037125351699 
612	 0.191145800570419 
613	 0.191225078559318 
614	 0.191294855884988 
615	 0.191354968925778 
616	 0.19140872723232 
617	 0.191460792298711 
618	 0.191506608792353 
619	 0.19154896942982 
620	 0.191599330058927 
621	 0.191690474302356 
622	 0.191766155222833 
623	 0.191809278447551 
624	 0.191832893028662 
625	 0.191925798710181 
626	 0.192020572209287 
627	 0.192075714833959 
628	 0.192100648439884 
629	 0.192146853493586 
630	 0.192207602649953 
631	 0.192260103621379 
632	 0.192289769677727 
633	 0.192334314611707 
634	 0.192416808929194 
635	 0.192537630705529 
636	 0.192549330544742 
637	 0.192586096319737 
638	 0.192717071179481 
639	 0.192721357288101 
640	 0.19277212871336 
641	 0.192867221753124 
642	 0.192932976244489 
643	 0.193010015999031 
644	 0.193080699417136 
645	 0.193142090660002 
646	 0.193220778300655 
647	 0.193251305336114 
648	 0.193274839732294 
649	 0.193347545621422 
650	 0.193449819272782 
651	 0.193533169268322 
652	 0.193588435576298 
653	 0.193641792544177 
654	 0.193689632416451 
655	 0.193739120923271 
656	 0.193792135148493 
657	 0.193824669866647 
658	 0.193940119728857 
659	 0.194071155179603 
660	 0.19409503020226 
661	 0.194162293157608 
662	 0.194236416397057 
663	 0.194295600483426 
664	 0.194366660865592 
665	 0.194386270460766 
666	 0.194434698610308 
667	 0.194568242436954 
668	 0.194559433432545 
669	 0.194631369966247 
670	 0.19475525017545 
671	 0.194704654992342 
672	 0.194736681654665 
673	 0.194840848730016 
674	 0.194951577029068 
675	 0.194988781590997 
676	 0.194998935177371 
677	 0.195020471457262 
678	 0.195080829554702 
679	 0.195149099254072 
680	 0.195177852706572 
681	 0.195186273723614 
682	 0.195280123041281 
683	 0.19535226860269 
684	 0.195387617941988 
685	 0.195414287281074 
686	 0.195532243896616 
687	 0.195565571269114 
688	 0.195539345478947 
689	 0.195609507227831 
690	 0.195631629712125 
691	 0.195632160716356 
692	 0.195664216816664 
693	 0.195799576405318 
694	 0.195832571929203 
695	 0.195791324288595 
696	 0.195779524410654 
697	 0.195767474657943 
698	 0.195828359997415 
699	 0.195924353639044 
700	 0.195904764641571 
701	 0.195916815993014 
702	 0.195973246000483 
703	 0.196034972289578 
704	 0.195997237913693 
705	 0.19598105658539 
706	 0.196004123800074 
707	 0.196026146320684 
708	 0.196025060745397 
709	 0.196016236687937 
710	 0.196024524128267 
711	 0.196083373626727 
712	 0.196090987754404 
713	 0.196044713832981 
714	 0.195990387187149 
715	 0.196033615695127 
716	 0.196073031564707 
717	 0.196080920447751 
718	 0.196086250588011 
719	 0.196076497889418 
720	 0.196020870607527 
721	 0.195932040484833 
722	 0.195907450150779 
723	 0.195924150738081 
724	 0.195944063838175 
725	 0.195936749932871 
726	 0.195958581462377 
727	 0.195943234434865 
728	 0.19587812667057 
729	 0.195808105373483 
730	 0.195792344267958 
731	 0.195783930304677 
732	 0.195743809546217 
733	 0.195700862443068 
734	 0.195666521616265 
735	 0.195619314671211 
736	 0.195539978811631 
737	 0.195515992888654 
738	 0.195493259439012 
739	 0.195449935311398 
740	 0.195409926217943 
741	 0.195319371711097 
742	 0.195260545864276 
743	 0.19527885063636 
744	 0.195249259586585 
745	 0.19516640130021 
746	 0.195070350230777 
747	 0.195012770981294 
748	 0.194928551138951 
749	 0.194868251851638 
750	 0.194829835208801 
751	 0.194738620243831 
752	 0.194676575247314 
753	 0.194608215673917 
754	 0.194510863385921 
755	 0.194482504606142 
756	 0.194445278110066 
757	 0.194393758403285 
758	 0.194353016824922 
759	 0.194280395765248 
760	 0.194164228324496 
761	 0.194045578430938 
762	 0.19402253164684 
763	 0.193997215039367 
764	 0.193914060116553 
765	 0.193781817031669 
766	 0.193765741193585 
767	 0.193715510115891 
768	 0.193616602497806 
769	 0.193525396012847 
770	 0.193461077217703 
771	 0.193384025328906 
772	 0.193289151833302 
773	 0.193218194396352 
774	 0.193128482007158 
775	 0.193063640470608 
776	 0.193037805816923 
777	 0.192935403833465 
778	 0.192801896921099 
779	 0.192680081330563 
780	 0.19259879266597 
781	 0.192494238192356 
782	 0.192423062647644 
783	 0.192364992503337 
784	 0.192220486137806 
785	 0.192192134285783 
786	 0.192176387428107 
787	 0.192079195782572 
788	 0.191973964874093 
789	 0.191859492211189 
790	 0.19175275302552 
791	 0.191670337556733 
792	 0.191610031772312 
793	 0.191509722309326 
794	 0.191361436672028 
795	 0.1912118098864 
796	 0.191125354164012 
797	 0.191085167575463 
798	 0.19103433879989 
799	 0.190867125199861 
800	 0.190791582145256 
801	 0.190744654917309 
802	 0.190615710505205 
803	 0.190448731079698 
804	 0.190386215456883 
805	 0.190369931397662 
806	 0.190237409964357 
807	 0.190138874235512 
808	 0.190001375308795 
809	 0.189842722998558 
810	 0.189819647825606 
811	 0.189735599536423 
812	 0.189625544866493 
813	 0.189540331397786 
814	 0.189426364366995 
815	 0.189283436474188 
816	 0.189139261338988 
817	 0.189032338694769 
818	 0.188986965091318 
819	 0.188901734662902 
820	 0.188763384020778 
821	 0.188639534917394 
822	 0.188523735603066 
823	 0.188433366773488 
824	 0.188357836767491 
825	 0.188239197144266 
826	 0.188120257864757 
827	 0.188032157963115 
828	 0.187973018524142 
829	 0.187855598645681 
830	 0.187673903941774 
831	 0.187497062438812 
832	 0.187414196961927 
833	 0.187393603261625 
834	 0.187323517322732 
835	 0.187203925841612 
836	 0.187135112763725 
837	 0.186992922692663 
838	 0.186871495843039 
839	 0.186810836625719 
840	 0.186701833262626 
841	 0.18656310276855 
842	 0.186410489013994 
843	 0.186276800318939 
844	 0.186243420047243 
845	 0.186211404470727 
846	 0.186141892747183 
847	 0.186033237061502 
848	 0.185898297997723 
849	 0.18579213600005 
850	 0.185716672257691 
851	 0.185625438401363 
852	 0.185494328387481 
853	 0.185378550912041 
854	 0.185291150758528 
855	 0.185169035234792 
856	 0.185122114942315 
857	 0.185054763726905 
858	 0.184912199848052 
859	 0.184872639793327 
860	 0.184792960132941 
861	 0.184681291002711 
862	 0.184586799240938 
863	 0.1844834862575 
864	 0.184402469001968 
865	 0.184319578547546 
866	 0.184187392145877 
867	 0.184049447726218 
868	 0.183968174075524 
869	 0.183930798099361 
870	 0.183851352559676 
871	 0.183737741695128 
872	 0.183630703585979 
873	 0.183563501714712 
874	 0.183545240801649 
875	 0.183487149309241 
876	 0.183375209237709 
877	 0.183242143298701 
878	 0.183175606801869 
879	 0.183189409095926 
880	 0.183153412791792 
881	 0.18296635127157 
882	 0.182850739155818 
883	 0.182838106589939 
884	 0.182836320244107 
885	 0.182720234881431 
886	 0.182611510166896 
887	 0.182557820740926 
888	 0.182534768540242 
889	 0.182466009373548 
890	 0.182362631997519 
891	 0.182257737160767 
892	 0.182190991739421 
893	 0.182194571690759 
894	 0.182115558519198 
895	 0.182017818412941 
896	 0.181960737806174 
897	 0.18191426356439 
898	 0.181837539795197 
899	 0.181751154213011 
900	 0.181687720745294 
901	 0.181660990211502 
902	 0.181667268433105 
903	 0.181646427534243 
904	 0.18155375922294 
905	 0.181462158321806 
906	 0.181461407032098 
907	 0.181466779756979 
908	 0.181359097794601 
909	 0.181310334855865 
910	 0.181274272956118 
911	 0.181232961543264 
912	 0.181190252662628 
913	 0.181121475732883 
914	 0.181041538391593 
915	 0.18096450277144 
916	 0.180899922398955 
917	 0.180851841196204 
918	 0.180878777434628 
919	 0.180961953525444 
920	 0.180990043510467 
921	 0.18090340284577 
922	 0.180789875369374 
923	 0.180707516670661 
924	 0.18062843139018 
925	 0.180604570472362 
926	 0.180639717706009 
927	 0.180672958002306 
928	 0.1805555535498 
929	 0.180565356813673 
930	 0.180619741514447 
931	 0.180589768422205 
932	 0.180462028922168 
933	 0.180477622197701 
934	 0.1805074883284 
935	 0.18041742924679 
936	 0.180395975929518 
937	 0.180412238668953 
938	 0.180354812239993 
939	 0.180196489027425 
940	 0.180296141765472 
941	 0.180276791416738 
942	 0.180210901188162 
943	 0.180289609586743 
944	 0.180411081440223 
945	 0.180414742390762 
946	 0.180350735627339 
947	 0.180331364773217 
948	 0.180236135504608 
949	 0.180246954565243 
950	 0.180255033574382 
951	 0.180098270560441 
952	 0.180141642468634 
953	 0.180223853318942 
954	 0.180280627705721 
955	 0.180311892960017 
956	 0.180265310891744 
957	 0.180228049389776 
958	 0.180192697637469 
959	 0.180120684483388 
960	 0.180173488977038 
961	 0.180239801040947 
962	 0.180303110695625 
963	 0.180380919377466 
964	 0.180227049419194 
965	 0.18018364272535 
966	 0.180266936895362 
967	 0.180265496493536 
968	 0.180217695044513 
969	 0.180230893566651 
970	 0.180270020092024 
971	 0.1802335863459 
972	 0.180268818819497 
973	 0.180322352720191 
974	 0.180361970894438 
975	 0.180385993456011 
976	 0.180422073547165 
977	 0.180410815065907 
978	 0.180402664198249 
979	 0.180484022553374 
980	 0.180516877452932 
981	 0.180457599802009 
982	 0.180334128986685 
983	 0.180243819697219 
984	 0.18040053765138 
985	 0.180472798645797 
986	 0.180430394172399 
987	 0.180426568665056 
988	 0.180447575208455 
989	 0.180559914176656 
990	 0.180640662913549 
991	 0.180568488218868 
992	 0.180685408086828 
993	 0.180673780212437 
994	 0.18062159844809 
995	 0.180703785961122 
996	 0.180587972052141 
997	 0.180680390680111 
998	 0.180823232496821 
999	 0.180785473692152 
1000	 0.180944925130467 
1001	 0.182603134587728 
1002	 0.182607539802464 
1003	 0.182601234890904 
1004	 0.182615068795426 
1005	 0.182627800687041 
1006	 0.182671483072515 
1007	 0.182745649633911 
1008	 0.182801795230447 
1009	 0.1828465001805 
1010	 0.182866168609972 
1011	 0.182819448609364 
1012	 0.182807534737439 
1013	 0.182869076096537 
1014	 0.182873222386849 
1015	 0.182888778328687 
1016	 0.182945391755292 
1017	 0.182991385004917 
1018	 0.183028709666091 
1019	 0.183083785776242 
1020	 0.183095948036431 
1021	 0.183071037438422 
1022	 0.183070724565867 
1023	 0.183044211711404 
1024	 0.182996558330561 
1025	 0.183000668221229 
1026	 0.182969215107408 
1027	 0.182878695065252 
1028	 0.1828970425763 
1029	 0.182942660093147 
1030	 0.182924267896292 
1031	 0.182921605713233 
1032	 0.182943319183498 
1033	 0.182938106956722 
1034	 0.182906745069236 
1035	 0.182929277116876 
1036	 0.182973698693202 
1037	 0.182993265487102 
1038	 0.18301710963177 
1039	 0.183020334026957 
1040	 0.18298902752899 
1041	 0.183011048769997 
1042	 0.183067206275295 
1043	 0.183117673297119 
1044	 0.183151949511986 
1045	 0.183208464485784 
1046	 0.183215300278683 
1047	 0.183210321951708 
1048	 0.183253434480419 
1049	 0.183345675706166 
1050	 0.183442705423688 
1051	 0.183495688807987 
1052	 0.183487473827469 
1053	 0.183516207474538 
1054	 0.183636358164347 
1055	 0.183729915058327 
1056	 0.183866372260235 
1057	 0.18396310281831 
1058	 0.183972045717572 
1059	 0.184041164061413 
1060	 0.18415304132527 
1061	 0.184227993404979 
1062	 0.184282787776036 
1063	 0.184369875791242 
1064	 0.184389055218541 
1065	 0.184436679303447 
1066	 0.184510762026408 
1067	 0.184546234185358 
1068	 0.18461025644326 
1069	 0.184651968775987 
1070	 0.184689936294136 
1071	 0.184744188227521 
1072	 0.184798339574131 
1073	 0.184821045247115 
1074	 0.184860937784816 
1075	 0.184938203974281 
1076	 0.184959341980877 
1077	 0.184948394449745 
1078	 0.184964659647897 
1079	 0.18496622998259 
1080	 0.184940534060325 
1081	 0.18491706959085 
1082	 0.18487740923803 
1083	 0.184841246806831 
1084	 0.184775626582948 
1085	 0.184756309435311 
1086	 0.184783039673238 
1087	 0.184771023517313 
1088	 0.184785050450334 
1089	 0.184729725025018 
1090	 0.184611566639385 
1091	 0.184536414484674 
1092	 0.184485260002308 
1093	 0.184472892915656 
1094	 0.184520597887568 
1095	 0.184525760366778 
1096	 0.184496954742936 
1097	 0.184470749736356 
1098	 0.184450479639489 
1099	 0.184433612296117 
1100	 0.184405437771689 
1101	 0.184371634122862 
1102	 0.184347242843443 
1103	 0.18431932474222 
1104	 0.184278615588416 
1105	 0.1842722903194 
1106	 0.184283814613703 
1107	 0.184265076278308 
1108	 0.184270284904774 
1109	 0.184299900187724 
1110	 0.184325279317055 
1111	 0.184340597445412 
1112	 0.184362827197831 
1113	 0.184379368687086 
1114	 0.1843623110013 
1115	 0.184384895540313 
1116	 0.184449600381395 
1117	 0.184493566050582 
1118	 0.184549956295161 
1119	 0.184583717398538 
1120	 0.18460885137799 
1121	 0.184604179610094 
1122	 0.184602096788784 
1123	 0.184642014861329 
1124	 0.184662244353721 
1125	 0.184681082847438 
1126	 0.184709469757031 
1127	 0.184727992931456 
1128	 0.184762797514378 
1129	 0.184821697012323 
1130	 0.184871012291611 
1131	 0.184937197630551 
1132	 0.184974087417995 
1133	 0.18499865637529 
1134	 0.185013842144709 
1135	 0.184998761614858 
1136	 0.184998269333036 
1137	 0.185017001698209 
1138	 0.185010897721133 
1139	 0.185019536666862 
1140	 0.185032585606353 
1141	 0.185056268525127 
1142	 0.185096850215328 
1143	 0.185113702289675 
1144	 0.185127879204787 
1145	 0.185142982892679 
1146	 0.185136521700266 
1147	 0.185142661090356 
1148	 0.185176464763991 
1149	 0.185181633199057 
1150	 0.185157701874141 
1151	 0.185159678441245 
1152	 0.185156897703386 
1153	 0.185148676432078 
1154	 0.185141310639893 
1155	 0.185142059050314 
1156	 0.185138486249118 
1157	 0.185130743848691 
1158	 0.185116382278994 
1159	 0.185108205849686 
1160	 0.185087379370821 
1161	 0.185037311539472 
1162	 0.18501689864516 
1163	 0.185003516108499 
1164	 0.184995568750307 
1165	 0.185014974282696 
1166	 0.185018401865189 
1167	 0.184990961699429 
1168	 0.184982414638103 
1169	 0.184970222040593 
1170	 0.18494494508756 
1171	 0.184933280094241 
1172	 0.184937456957158 
1173	 0.184930831681217 
1174	 0.184910826405561 
1175	 0.184908723619788 
1176	 0.184931283885512 
1177	 0.184925281941349 
1178	 0.184900823403424 
1179	 0.184897932019443 
1180	 0.184891082824238 
1181	 0.184880973258252 
1182	 0.184881973804384 
1183	 0.184894267915008 
1184	 0.184892652831241 
1185	 0.184869394720686 
1186	 0.184873659046594 
1187	 0.184887701292614 
1188	 0.184906674151426 
1189	 0.18493795526258 
1190	 0.184964120647532 
1191	 0.185003225810116 
1192	 0.18502577328236 
1193	 0.185035189994372 
1194	 0.185051734746702 
1195	 0.185066133756744 
1196	 0.18507685255105 
1197	 0.185089744402614 
1198	 0.185101685527225 
1199	 0.185111173138115 
1200	 0.185109982869107 
1201	 0.185124724973392 
1202	 0.185140943832019 
1203	 0.185172836763416 
1204	 0.185227855602318 
1205	 0.185256415211605 
1206	 0.185288464088496 
1207	 0.185308782449779 
1208	 0.185299942747905 
1209	 0.185312302592077 
1210	 0.18533268345777 
1211	 0.185352981397614 
1212	 0.185383184004442 
1213	 0.18540603328645 
1214	 0.185430991811998 
1215	 0.185448048507633 
1216	 0.18545979204832 
1217	 0.185463750362578 
1218	 0.185471463582054 
1219	 0.185473993702167 
1220	 0.185480198048786 
1221	 0.185486719000648 
1222	 0.185497660404954 
1223	 0.185510277573396 
1224	 0.185523846429266 
1225	 0.18554629058485 
1226	 0.185559372599198 
1227	 0.185562996782234 
1228	 0.185574822914095 
1229	 0.185583851244726 
1230	 0.185599042705168 
1231	 0.185633325097563 
1232	 0.185651562459299 
1233	 0.185663905217 
1234	 0.185668779954205 
1235	 0.185681034004232 
1236	 0.185683841622446 
1237	 0.185698947308151 
1238	 0.185730275022562 
1239	 0.185747510189357 
1240	 0.185760256572421 
1241	 0.185772604848625 
1242	 0.185780062275778 
1243	 0.185789488366423 
1244	 0.185799352405686 
1245	 0.18580872190957 
1246	 0.185815775481518 
1247	 0.1858257283046 
1248	 0.185833089450631 
1249	 0.185846522719976 
1250	 0.185876502887118 
1251	 0.185897091327512 
1252	 0.18591157380642 
1253	 0.185924837987375 
1254	 0.185939319041519 
1255	 0.185945021114346 
1256	 0.185955227098809 
1257	 0.185975553499136 
1258	 0.18598495816715 
1259	 0.185988197388883 
1260	 0.185987201269075 
1261	 0.185985824833864 
1262	 0.185976063164971 
1263	 0.185944889943808 
1264	 0.185932039157981 
1265	 0.185921837622112 
1266	 0.185914975121364 
1267	 0.185915746072565 
1268	 0.18593186268257 
1269	 0.18593197972063 
1270	 0.185924502772695 
1271	 0.185925025388368 
1272	 0.185919200629493 
1273	 0.185930139655133 
1274	 0.185947195178839 
1275	 0.185974240675461 
1276	 0.18601326065349 
1277	 0.186057840160309 
1278	 0.18610707335842 
1279	 0.186171135466263 
1280	 0.18625173216717 
1281	 0.186328180970526 
1282	 0.186415021132215 
1283	 0.186501485377988 
1284	 0.186586595747895 
1285	 0.186670496445187 
1286	 0.186774879675049 
1287	 0.186890872750185 
1288	 0.186990160283207 
1289	 0.187099478162842 
1290	 0.187184062472105 
1291	 0.187236100767408 
1292	 0.187320646851609 
1293	 0.187418815022953 
1294	 0.187494970811246 
1295	 0.187578557723935 
1296	 0.187651124983656 
1297	 0.187705493291972 
1298	 0.187754718568431 
1299	 0.187812789641418 
1300	 0.187846551873272 
1301	 0.187857885559428 
1302	 0.187861125171407 
1303	 0.187849155903529 
1304	 0.187832312558472 
1305	 0.187812080713537 
1306	 0.187775195741865 
1307	 0.187752453984885 
1308	 0.187721358293238 
1309	 0.187677351094921 
1310	 0.187619781264542 
1311	 0.187578656104277 
1312	 0.187530953794839 
1313	 0.187486828179875 
1314	 0.187466023801756 
1315	 0.187412109159836 
1316	 0.187318578208068 
1317	 0.187269500984176 
1318	 0.187232792491438 
1319	 0.187190861995453 
1320	 0.187188372270675 
1321	 0.187152949105685 
1322	 0.18708429359635 
1323	 0.187023840892435 
1324	 0.186990088829717 
1325	 0.186947331037408 
1326	 0.186932801026404 
1327	 0.186920885638745 
1328	 0.186881835939037 
1329	 0.186839546477509 
1330	 0.186810996966844 
1331	 0.186770725986222 
1332	 0.186766849477512 
1333	 0.186790267311474 
1334	 0.18680922958718 
1335	 0.18684986465544 
1336	 0.186873992409386 
1337	 0.186883267208758 
1338	 0.186913280405724 
1339	 0.18695497244117 
1340	 0.186991022225739 
1341	 0.187033036535127 
1342	 0.187078089694126 
1343	 0.187129043767262 
1344	 0.187161254441548 
1345	 0.187196653183471 
1346	 0.187244395400239 
1347	 0.187296501812167 
1348	 0.187345093694524 
1349	 0.187397079411206 
1350	 0.1874691661679 
1351	 0.187514004483062 
1352	 0.187530585492525 
1353	 0.187577266963246 
1354	 0.187626598567022 
1355	 0.187677182698644 
1356	 0.187749965596029 
1357	 0.187807909766839 
1358	 0.187854948245866 
1359	 0.187906962965011 
1360	 0.187958372416635 
1361	 0.188006863894315 
1362	 0.188052696680879 
1363	 0.188102451083028 
1364	 0.188154727240953 
1365	 0.188203842679111 
1366	 0.188248304964249 
1367	 0.188303321552184 
1368	 0.188366287971619 
1369	 0.18841481153479 
1370	 0.188459939343552 
1371	 0.188497123414249 
1372	 0.188506443987384 
1373	 0.188524391122373 
1374	 0.18853197731619 
1375	 0.188532675170717 
1376	 0.188528896416159 
1377	 0.188517777614397 
1378	 0.188506231178377 
1379	 0.188493721174732 
1380	 0.188477668005664 
1381	 0.188449915727431 
1382	 0.188430926338321 
1383	 0.188411675623516 
1384	 0.188400845270133 
1385	 0.188403974469503 
1386	 0.188398067272394 
1387	 0.188394703772219 
1388	 0.188382812095009 
1389	 0.188362899250744 
1390	 0.188345979392006 
1391	 0.188320428476746 
1392	 0.18828077805623 
1393	 0.18822343254394 
1394	 0.188171485030683 
1395	 0.188127383122579 
1396	 0.188084838798023 
1397	 0.188050596883206 
1398	 0.188033787381657 
1399	 0.187999047539907 
1400	 0.18796412150339 
1401	 0.187921038175931 
1402	 0.187870755729777 
1403	 0.187814624998317 
1404	 0.187740399697895 
1405	 0.187687105574673 
1406	 0.187638129177242 
1407	 0.187592680352665 
1408	 0.187562446541724 
1409	 0.18752639897656 
1410	 0.187492107498436 
1411	 0.18744843262691 
1412	 0.187395134093996 
1413	 0.187354504857275 
1414	 0.187316664012517 
1415	 0.187269659818999 
1416	 0.187239521597993 
1417	 0.187217395325651 
1418	 0.187187469577433 
1419	 0.187160664502481 
1420	 0.187137225806298 
1421	 0.187120232043353 
1422	 0.187101000667732 
1423	 0.187085278705796 
1424	 0.187069105217645 
1425	 0.187054140416971 
1426	 0.18703649234968 
1427	 0.187019465163687 
1428	 0.187002606663301 
1429	 0.186985295130344 
1430	 0.186968129952752 
1431	 0.186949257666115 
1432	 0.186928288030351 
1433	 0.186900018180471 
1434	 0.186891449593865 
1435	 0.186890320752235 
1436	 0.186891395119096 
1437	 0.186912060687342 
1438	 0.186918014248769 
1439	 0.186910392435564 
1440	 0.186916581382215 
1441	 0.186926087483729 
1442	 0.186934755646018 
1443	 0.186949648904435 
1444	 0.186960358020981 
1445	 0.186971631335118 
1446	 0.186988284309017 
1447	 0.187006778009154 
1448	 0.187033930998515 
1449	 0.1870619377967 
1450	 0.187079535077605 
1451	 0.187099465331778 
1452	 0.187119157191424 
1453	 0.187137780574733 
1454	 0.18715553037115 
1455	 0.187172253701692 
1456	 0.187189410297468 
1457	 0.187199118377554 
1458	 0.187206313906721 
1459	 0.187208254210482 
1460	 0.187198008874679 
1461	 0.187200007714793 
1462	 0.187202609907639 
1463	 0.187209706497721 
1464	 0.18722579919368 
1465	 0.187237309769017 
1466	 0.18725481900133 
1467	 0.187263202071539 
1468	 0.187266749752943 
1469	 0.187267520865588 
1470	 0.187260489993251 
1471	 0.187251486496905 
1472	 0.187250681098022 
1473	 0.187249079095049 
1474	 0.187243023761375 
1475	 0.187244759511544 
1476	 0.187250589406082 
1477	 0.187258158342147 
1478	 0.187276728742679 
1479	 0.187273983487651 
1480	 0.187260737869741 
1481	 0.187259580413162 
1482	 0.187242377502732 
1483	 0.187209015191966 
1484	 0.187204048454488 
1485	 0.187200111011895 
1486	 0.187199713854484 
1487	 0.187220469203771 
1488	 0.18723019115756 
1489	 0.187235286048859 
1490	 0.187236178587163 
1491	 0.187238650189166 
1492	 0.187243556063118 
1493	 0.187235405855802 
1494	 0.187239952039332 
1495	 0.187263529355433 
1496	 0.187269451279772 
1497	 0.187277618737542 
1498	 0.187273091598633 
1499	 0.187246229420869 
1500	 0.187232376681728 
1501	 0.187211135370124 
1502	 0.187198679205308 
1503	 0.18719278280745 
1504	 0.187199625741824 
1505	 0.187205120122506 
1506	 0.187211308773753 
1507	 0.187207231650138 
1508	 0.187191889175134 
1509	 0.187178516732101 
1510	 0.187168186742356 
1511	 0.187159197360728 
1512	 0.187161575863257 
1513	 0.187170285690117 
1514	 0.187178595942132 
1515	 0.187199321461202 
1516	 0.187218635086341 
1517	 0.187216081766689 
1518	 0.187192820781979 
1519	 0.187182442033851 
1520	 0.187156839066666 
1521	 0.187154338266483 
1522	 0.187171975329816 
1523	 0.187175819980336 
1524	 0.187184891465599 
1525	 0.187187671654388 
1526	 0.187177467436867 
1527	 0.187179974099143 
1528	 0.187192123395396 
1529	 0.18719216014653 
1530	 0.187183039684797 
1531	 0.187191557037784 
1532	 0.187207524761224 
1533	 0.187213360641225 
1534	 0.187231961719808 
1535	 0.187241166636162 
1536	 0.1872273392311 
1537	 0.187229626448513 
1538	 0.18724303950059 
1539	 0.187250267665773 
1540	 0.187257528075952 
1541	 0.187265280644832 
1542	 0.187277601277839 
1543	 0.187281924954399 
1544	 0.187288494807792 
1545	 0.18728521704938 
1546	 0.18726742483886 
1547	 0.187250683911529 
1548	 0.187236329681312 
1549	 0.187226122955672 
1550	 0.187249862417037 
1551	 0.187268020861273 
1552	 0.187281769043222 
1553	 0.187304507186363 
1554	 0.187297779184292 
1555	 0.187291500804063 
1556	 0.187298587196676 
1557	 0.187288295755844 
1558	 0.18728767192184 
1559	 0.187289341274677 
1560	 0.187286709922325 
1561	 0.187281388192354 
1562	 0.187280960795637 
1563	 0.187276904397537 
1564	 0.187283900707822 
1565	 0.187296170062925 
1566	 0.187313962975935 
1567	 0.187347303732973 
1568	 0.187359267697078 
1569	 0.187371120440155 
1570	 0.187368297214281 
1571	 0.187349613592589 
1572	 0.187329552584126 
1573	 0.187297046503846 
1574	 0.18727528774411 
1575	 0.187248256548086 
1576	 0.187229145714046 
1577	 0.18722217771656 
1578	 0.187210782890532 
1579	 0.18719857509205 
1580	 0.187185574647913 
1581	 0.187173378303301 
1582	 0.18715948216152 
1583	 0.187144994935223 
1584	 0.18713095768075 
1585	 0.187113130195736 
1586	 0.187101495033059 
1587	 0.187093506071597 
1588	 0.187083399533716 
1589	 0.187083607052539 
1590	 0.187069565369929 
1591	 0.187043419878755 
1592	 0.187020871198537 
1593	 0.186980942879667 
1594	 0.186965513149151 
1595	 0.186971115133186 
1596	 0.18696742178251 
1597	 0.186978046383176 
1598	 0.18697512538481 
1599	 0.186952004062916 
1600	 0.186941401652492 
1601	 0.186935273007713 
1602	 0.186928003127044 
1603	 0.186925629875775 
1604	 0.186921303365493 
1605	 0.186915106500199 
1606	 0.186910625288711 
1607	 0.186909717964418 
1608	 0.186906688835032 
1609	 0.186899441392623 
1610	 0.1868790925035 
1611	 0.186851321087957 
1612	 0.186832878108432 
1613	 0.186822497941816 
1614	 0.186797732247823 
1615	 0.18678330871151 
1616	 0.18677886780012 
1617	 0.186776640800935 
1618	 0.186787062386871 
1619	 0.186787467668103 
1620	 0.186780912295061 
1621	 0.186771375585404 
1622	 0.186752077610224 
1623	 0.186734350272126 
1624	 0.186710947427141 
1625	 0.186703320681443 
1626	 0.186700183529285 
1627	 0.186693206131816 
1628	 0.186702395164971 
1629	 0.186687448003956 
1630	 0.186646615449959 
1631	 0.186639106372438 
1632	 0.186643734759483 
1633	 0.1866324772779 
1634	 0.186633715950864 
1635	 0.186619795426196 
1636	 0.18658033505071 
1637	 0.186562434106769 
1638	 0.186551662170336 
1639	 0.186547601724038 
1640	 0.186553024575965 
1641	 0.186549298658987 
1642	 0.186545208357193 
1643	 0.18655105413253 
1644	 0.18656336064453 
1645	 0.186557574758453 
1646	 0.186553889430349 
1647	 0.186546446989012 
1648	 0.186512419245382 
1649	 0.186505498624602 
1650	 0.186522177557112 
1651	 0.186521857871033 
1652	 0.18652837734723 
1653	 0.186512156354505 
1654	 0.186477383768546 
1655	 0.186450950295919 
1656	 0.186405755183903 
1657	 0.186385494095112 
1658	 0.186376432945157 
1659	 0.186376728595662 
1660	 0.186400435858249 
1661	 0.186401300821811 
1662	 0.186403217898994 
1663	 0.186397159509837 
1664	 0.186371337709065 
1665	 0.186358884166492 
1666	 0.186354206502487 
1667	 0.186342228549256 
1668	 0.186326310349902 
1669	 0.186315460838412 
1670	 0.186302462045711 
1671	 0.186293832027292 
1672	 0.186296482222918 
1673	 0.186285691816273 
1674	 0.186273330015301 
1675	 0.186251546455697 
1676	 0.186209520501996 
1677	 0.186189327723009 
1678	 0.186172791058267 
1679	 0.186160032420673 
1680	 0.186159190839509 
1681	 0.18615944993062 
1682	 0.186171523202004 
1683	 0.186159443731439 
1684	 0.186130343090957 
1685	 0.186125545263922 
1686	 0.186112604984358 
1687	 0.186110210280717 
1688	 0.186142842867112 
1689	 0.186148042732518 
1690	 0.186137134655422 
1691	 0.18612657294993 
1692	 0.186115690344335 
1693	 0.18609462687272 
1694	 0.186051897531141 
1695	 0.186033560450958 
1696	 0.186020647830201 
1697	 0.186010576239765 
1698	 0.186011670160292 
1699	 0.186017211546321 
1700	 0.186033423092903 
1701	 0.186031687518134 
1702	 0.186035586223571 
1703	 0.186024825985156 
1704	 0.185984763204603 
1705	 0.185963353035523 
1706	 0.18594804172298 
1707	 0.185935804973387 
1708	 0.185925790856863 
1709	 0.18591949818603 
1710	 0.185922960570168 
1711	 0.185913830957953 
1712	 0.185894898059649 
1713	 0.185894245634721 
1714	 0.185891221204084 
1715	 0.185897747971754 
1716	 0.185936708732826 
1717	 0.185940358358442 
1718	 0.185932499803271 
1719	 0.185917578244346 
1720	 0.185878179337225 
1721	 0.185851913180934 
1722	 0.185830340690862 
1723	 0.185797520336441 
1724	 0.18575452422745 
1725	 0.185727549021071 
1726	 0.185697797327542 
1727	 0.185676254409122 
1728	 0.185671523215605 
1729	 0.18566670993375 
1730	 0.185674591322666 
1731	 0.185647630030477 
1732	 0.185616296041648 
1733	 0.185566575725149 
1734	 0.185469475272353 
1735	 0.185419604221038 
1736	 0.185385548642992 
1737	 0.185351930267375 
1738	 0.185338061203788 
1739	 0.185306582723548 
1740	 0.185263442663749 
1741	 0.185238047204306 
1742	 0.185215204748241 
1743	 0.185199682919468 
1744	 0.185208704558697 
1745	 0.185182595247096 
1746	 0.185129252639428 
1747	 0.185111054652618 
1748	 0.185103387436639 
1749	 0.185087023501796 
1750	 0.18507571361438 
1751	 0.185046421745822 
1752	 0.184992597387974 
1753	 0.184968691774197 
1754	 0.184951417979907 
1755	 0.184908743326116 
1756	 0.184872809398975 
1757	 0.184815416768559 
1758	 0.184778430732629 
1759	 0.184777124343194 
1760	 0.184740870224995 
1761	 0.18472022167023 
1762	 0.184705436002341 
1763	 0.184654057617599 
1764	 0.184652078351007 
1765	 0.184690095689531 
1766	 0.184694775374925 
1767	 0.184707424061236 
1768	 0.184699419886312 
1769	 0.184646299341354 
1770	 0.184608783398865 
1771	 0.184564777498784 
1772	 0.184519374645767 
1773	 0.184474553919523 
1774	 0.184437934534953 
1775	 0.18442308650076 
1776	 0.184404022171637 
1777	 0.184397756694541 
1778	 0.184387093259669 
1779	 0.184398678053558 
1780	 0.184416097453036 
1781	 0.184410257844924 
1782	 0.184419317104626 
1783	 0.184375397614214 
1784	 0.184356555353969 
1785	 0.184353546210582 
1786	 0.184346933390706 
1787	 0.184349495622594 
1788	 0.184342338089142 
1789	 0.184327226076341 
1790	 0.184322300229104 
1791	 0.184324241161757 
1792	 0.184313414116336 
1793	 0.184297204938159 
1794	 0.184289463115551 
1795	 0.184277616544924 
1796	 0.184269555118362 
1797	 0.184273252255341 
1798	 0.184264990828194 
1799	 0.18424780096183 
1800	 0.184235660613701 
1801	 0.183234402243297 
1802	 0.183279820298118 
1803	 0.183347585997503 
1804	 0.183419959295281 
1805	 0.18351173547637 
1806	 0.183544596720132 
1807	 0.183530147432751 
1808	 0.183537100095592 
1809	 0.183535010379895 
1810	 0.183528952394853 
1811	 0.183513153188265 
1812	 0.183522726069285 
1813	 0.183523950512252 
1814	 0.183513255634154 
1815	 0.183521097231037 
1816	 0.183536725578414 
1817	 0.183552668631086 
1818	 0.183580258579672 
1819	 0.183585640390337 
1820	 0.183586598739251 
1821	 0.183586766719712 
1822	 0.183559264645181 
1823	 0.183535294008987 
1824	 0.183553057529047 
1825	 0.183559455559289 
1826	 0.18355100598632 
1827	 0.183547816622053 
1828	 0.183533412647577 
1829	 0.183479930123044 
1830	 0.183465813451881 
1831	 0.183472884360982 
1832	 0.183474997792593 
1833	 0.183471226573386 
1834	 0.183456009674907 
1835	 0.183445925163753 
1836	 0.183453234056671 
1837	 0.183446646239728 
1838	 0.183469114326045 
1839	 0.18349667687897 
1840	 0.18353658921037 
1841	 0.183544462399042 
1842	 0.183563689985032 
1843	 0.183578899171981 
1844	 0.183563137466969 
1845	 0.183545937393185 
1846	 0.183528308223056 
1847	 0.183499691521163 
1848	 0.183456668064176 
1849	 0.183409360884297 
1850	 0.18337247312057 
1851	 0.183339892928719 
1852	 0.183312055379431 
1853	 0.18329293741122 
1854	 0.183290282546192 
1855	 0.183299893335722 
1856	 0.183281422597276 
1857	 0.183256527833574 
1858	 0.183243932483985 
1859	 0.183213043656051 
1860	 0.183178821820082 
1861	 0.183151898356481 
1862	 0.183121591735004 
1863	 0.18306913251504 
1864	 0.183012323255587 
1865	 0.182959342996212 
1866	 0.182903638843368 
1867	 0.182854344419759 
1868	 0.182822786466287 
1869	 0.182800615147496 
1870	 0.18278587801668 
1871	 0.182761277384861 
1872	 0.182738058270314 
1873	 0.182695650472513 
1874	 0.182650798516468 
1875	 0.182620303850343 
1876	 0.182578855698153 
1877	 0.182524615850123 
1878	 0.182458183467895 
1879	 0.182375537277489 
1880	 0.182288389315689 
1881	 0.182192793856113 
1882	 0.18208773591924 
1883	 0.181977953401889 
1884	 0.18184691138088 
1885	 0.181714335848224 
1886	 0.181594282651004 
1887	 0.181467487536489 
1888	 0.181342239013745 
1889	 0.181196474275591 
1890	 0.1810502253303 
1891	 0.180900365106691 
1892	 0.180742659038798 
1893	 0.180579784243068 
1894	 0.180424437767042 
1895	 0.18024106586872 
1896	 0.180036849552195 
1897	 0.179847117630214 
1898	 0.179658110432408 
1899	 0.179452281779411 
1900	 0.179246426758971 
1901	 0.179042924825698 
1902	 0.178845523548376 
1903	 0.178657304220818 
1904	 0.178454414840361 
1905	 0.178255156377318 
1906	 0.178046978179624 
1907	 0.177818864892438 
1908	 0.17759854733979 
1909	 0.177399878520216 
1910	 0.177189597311094 
1911	 0.176981869051839 
1912	 0.176758005207939 
1913	 0.176520021669527 
1914	 0.176260279519453 
1915	 0.176012206040312 
1916	 0.175750152572882 
1917	 0.175497517437806 
1918	 0.175273328996046 
1919	 0.175027000194797 
1920	 0.174780291935299 
1921	 0.174542258912848 
1922	 0.174284641925117 
1923	 0.174042730618374 
1924	 0.173809270216006 
1925	 0.173584004133761 
1926	 0.173363132282561 
1927	 0.173152500743839 
1928	 0.17294053377276 
1929	 0.172736347363754 
1930	 0.172545709575888 
1931	 0.172366696046328 
1932	 0.172201631522509 
1933	 0.172030082276374 
1934	 0.171878398754721 
1935	 0.171746603780446 
1936	 0.171623079493127 
1937	 0.171518833260865 
1938	 0.17144630171583 
1939	 0.17137412485569 
1940	 0.171309068990622 
1941	 0.171254007807914 
1942	 0.171209557385732 
1943	 0.171185307492792 
1944	 0.171179471174264 
1945	 0.171196060676443 
1946	 0.171201603022263 
1947	 0.171220764651608 
1948	 0.171230116379016 
1949	 0.17123106380927 
1950	 0.171231374489435 
1951	 0.171229325578694 
1952	 0.17123283876583 
1953	 0.171244459439532 
1954	 0.171257867614494 
1955	 0.171253803384264 
1956	 0.171250813112385 
1957	 0.171261978710883 
1958	 0.171265323109647 
1959	 0.171280338852301 
1960	 0.171332602949962 
1961	 0.17135417136564 
1962	 0.171361604990018 
1963	 0.171362679073633 
1964	 0.17135480809585 
1965	 0.171334018444013 
1966	 0.171324163519564 
1967	 0.171313744637971 
1968	 0.171296859060649 
1969	 0.171272557771611 
1970	 0.171266818602471 
1971	 0.171267266941971 
1972	 0.171260954132771 
1973	 0.171262269550092 
1974	 0.171265686178465 
1975	 0.171258863015916 
1976	 0.171255381461308 
1977	 0.171290618768674 
1978	 0.171321994875526 
1979	 0.171328435735524 
1980	 0.171336414755842 
1981	 0.171342652264628 
1982	 0.171320539193829 
1983	 0.171333001961382 
1984	 0.171368168943589 
1985	 0.171395989104426 
1986	 0.171428898003596 
1987	 0.171466363994193 
1988	 0.171512771363457 
1989	 0.171557303559868 
1990	 0.171582308663541 
1991	 0.171613539527836 
1992	 0.17164396149803 
1993	 0.171648949804982 
1994	 0.171695981511167 
1995	 0.171785503159288 
1996	 0.171833437763499 
1997	 0.171883501547748 
1998	 0.171922753363425 
1999	 0.171927765821382 
2000	 0.17194897783142 
2001	 0.171980598716089 
2002	 0.172006900420237 
2003	 0.172017934520166 
2004	 0.17205464061475 
2005	 0.172104424718166 
2006	 0.172164302253898 
2007	 0.172233556140857 
2008	 0.172343691188087 
2009	 0.172411758953143 
2010	 0.172471690281007 
2011	 0.172523355370229 
2012	 0.17254327958108 
2013	 0.172577551801886 
2014	 0.172619064224166 
2015	 0.172650211900917 
2016	 0.17267302503499 
2017	 0.172729426004558 
2018	 0.172776770004303 
2019	 0.172827946436404 
2020	 0.172875815200017 
2021	 0.172939703772394 
2022	 0.172975957412687 
2023	 0.172998291579627 
2024	 0.173017239919555 
2025	 0.173019038776662 
2026	 0.173021067785532 
2027	 0.173014232643957 
2028	 0.173013464361479 
2029	 0.17301459413882 
2030	 0.173011225746011 
2031	 0.173021152924681 
2032	 0.173042149079843 
2033	 0.173057664277809 
2034	 0.173081032916093 
2035	 0.173095571715006 
2036	 0.173106103490358 
2037	 0.173116144875541 
2038	 0.173137819057733 
2039	 0.173130173461164 
2040	 0.173108986979437 
2041	 0.173077119404246 
2042	 0.173011424963692 
2043	 0.172968921709541 
2044	 0.172951656252424 
2045	 0.17295833009259 
2046	 0.172957719567073 
2047	 0.17299581659188 
2048	 0.172987393976258 
2049	 0.172955864592573 
2050	 0.17292107386133 
2051	 0.172858928923543 
2052	 0.172809119434812 
2053	 0.172752952651176 
2054	 0.172708933358741 
2055	 0.172670337208918 
2056	 0.172637039601194 
2057	 0.172609538671646 
2058	 0.172596901668406 
2059	 0.172568698245092 
2060	 0.172543172903111 
2061	 0.172507483336016 
2062	 0.172457499557292 
2063	 0.172413575946115 
2064	 0.17235185347684 
2065	 0.172318682893851 
2066	 0.172295128413898 
2067	 0.172286027205344 
2068	 0.172306892624101 
2069	 0.172326557152693 
2070	 0.172330171409096 
2071	 0.172335609172461 
2072	 0.172327761476047 
2073	 0.172296197923708 
2074	 0.172290175597276 
2075	 0.172284454947555 
2076	 0.172290705455812 
2077	 0.172316085043318 
2078	 0.17233207328034 
2079	 0.172353253409185 
2080	 0.17237044527733 
2081	 0.172383195383242 
2082	 0.17239811254876 
2083	 0.172406496714574 
2084	 0.172429591040832 
2085	 0.172442951394628 
2086	 0.172449238176635 
2087	 0.172471854921314 
2088	 0.172496824878236 
2089	 0.172528537306387 
2090	 0.172584314981137 
2091	 0.172616581863064 
2092	 0.172625192271573 
2093	 0.172663997803952 
2094	 0.172705353638884 
2095	 0.172755413169082 
2096	 0.172847267160715 
2097	 0.172908925029083 
2098	 0.172948888228658 
2099	 0.172992716151701 
2100	 0.173050661346533 
2101	 0.173102086917342 
2102	 0.173168392787138 
2103	 0.173259139144364 
2104	 0.173335018990612 
2105	 0.173394792499438 
2106	 0.173484093997563 
2107	 0.173586505975458 
2108	 0.173691784080595 
2109	 0.17381964187092 
2110	 0.173940128321343 
2111	 0.174063258220882 
2112	 0.174180733497176 
2113	 0.174313247420057 
2114	 0.174412911617974 
2115	 0.174521435569739 
2116	 0.174614089110039 
2117	 0.174732971692793 
2118	 0.174856784803366 
2119	 0.174991900683577 
2120	 0.175148374421978 
2121	 0.175295268687824 
2122	 0.175451410242831 
2123	 0.175592159130827 
2124	 0.175734730441131 
2125	 0.175859689420356 
2126	 0.17596689355012 
2127	 0.176073480286302 
2128	 0.176165669762363 
2129	 0.176260622377974 
2130	 0.176359273008681 
2131	 0.176449091446557 
2132	 0.176529003426646 
2133	 0.176606876293631 
2134	 0.17666867451112 
2135	 0.176711821729502 
2136	 0.176757396079764 
2137	 0.176802082458693 
2138	 0.17683101619063 
2139	 0.176850032352467 
2140	 0.176863478922603 
2141	 0.176853954011518 
2142	 0.176855413754069 
2143	 0.176864689472179 
2144	 0.176865075435484 
2145	 0.176858704683963 
2146	 0.176856630051235 
2147	 0.176851393516756 
2148	 0.176844103633769 
2149	 0.176838859000423 
2150	 0.17684313287182 
2151	 0.176832562529796 
2152	 0.176824949510678 
2153	 0.176789191200124 
2154	 0.176727368856301 
2155	 0.176681115403073 
2156	 0.176628346123956 
2157	 0.176567085256639 
2158	 0.176525467626696 
2159	 0.17644922950958 
2160	 0.176322920552277 
2161	 0.176226239638692 
2162	 0.176128141932363 
2163	 0.176032744949326 
2164	 0.175942667095826 
2165	 0.175874933184673 
2166	 0.175789524210546 
2167	 0.175701508297998 
2168	 0.175600661291332 
2169	 0.175490821482681 
2170	 0.175385138195714 
2171	 0.175261955690607 
2172	 0.175160225209691 
2173	 0.175072041494585 
2174	 0.174983802324397 
2175	 0.17490998862424 
2176	 0.174820126989279 
2177	 0.174736559683056 
2178	 0.174633384088914 
2179	 0.174485794997223 
2180	 0.174380349152159 
2181	 0.174305748437002 
2182	 0.17420447428253 
2183	 0.174114548689695 
2184	 0.174014421024808 
2185	 0.173915640952158 
2186	 0.173777252211036 
2187	 0.173690185627621 
2188	 0.173639655099168 
2189	 0.173575549204771 
2190	 0.173526839449152 
2191	 0.173462284496221 
2192	 0.173402559747426 
2193	 0.173319175601401 
2194	 0.173208298313474 
2195	 0.173115710271305 
2196	 0.17300929099279 
2197	 0.172920448049092 
2198	 0.172838883529397 
2199	 0.172775510557037 
2200	 0.172723610544629 
2201	 0.172682167119134 
2202	 0.172655457608547 
2203	 0.172656146021301 
2204	 0.172637454797511 
2205	 0.172629875956355 
2206	 0.17259088297227 
2207	 0.172531089866324 
2208	 0.172484626380684 
2209	 0.172423224826797 
2210	 0.172371502273802 
2211	 0.172328456122657 
2212	 0.172288017633058 
2213	 0.172250586443206 
2214	 0.172206281543692 
2215	 0.172159904008888 
2216	 0.172124110741727 
2217	 0.17208001924256 
2218	 0.172051741454519 
2219	 0.172050714418643 
2220	 0.172038117312906 
2221	 0.17203547847457 
2222	 0.172008811397257 
2223	 0.171979323551974 
2224	 0.171952008730087 
2225	 0.171940900782096 
2226	 0.171942997432302 
2227	 0.171920713470207 
2228	 0.171903473522685 
2229	 0.171873667212592 
2230	 0.171811792960362 
2231	 0.171778373223821 
2232	 0.171753938288623 
2233	 0.171738995254666 
2234	 0.1717373236076 
2235	 0.171728758734601 
2236	 0.171737653177057 
2237	 0.171724421154272 
2238	 0.171685135816895 
2239	 0.171668047874068 
2240	 0.171645665029544 
2241	 0.171636828099977 
2242	 0.171670117696781 
2243	 0.171667074736235 
2244	 0.17164848011165 
2245	 0.171623080070405 
2246	 0.171599034003936 
2247	 0.171557487509082 
2248	 0.171525373592132 
2249	 0.171499797264884 
2250	 0.171476948839811 
2251	 0.171445919319661 
2252	 0.17143214610932 
2253	 0.171434001137143 
2254	 0.171436833422626 
2255	 0.171455913530122 
2256	 0.171452652673233 
2257	 0.171436953712697 
2258	 0.17143240997928 
2259	 0.171417495973431 
2260	 0.17140964369835 
2261	 0.171434763146114 
2262	 0.171424599065343 
2263	 0.171366823203717 
2264	 0.171356093745348 
2265	 0.17136187298976 
2266	 0.171358434557598 
2267	 0.171394852419116 
2268	 0.17140269260122 
2269	 0.171383651187779 
2270	 0.171353211451577 
2271	 0.171328119087037 
2272	 0.171316301383048 
2273	 0.171303802952785 
2274	 0.171253371015075 
2275	 0.171215072981407 
2276	 0.171162745165926 
2277	 0.17112438287594 
2278	 0.171092250609023 
2279	 0.171059507528649 
2280	 0.171034956569535 
2281	 0.171006395824025 
2282	 0.170975045603555 
2283	 0.170943113131379 
2284	 0.170889060740766 
2285	 0.1708821661068 
2286	 0.170926541819657 
2287	 0.170910967056469 
2288	 0.170890632735655 
2289	 0.170868885860148 
2290	 0.170784910094211 
2291	 0.170757065034748 
2292	 0.170791924286942 
2293	 0.170793868131938 
2294	 0.170797034830936 
2295	 0.170780021478762 
2296	 0.170722863791385 
2297	 0.17070279429318 
2298	 0.170692960674723 
2299	 0.170689449187028 
2300	 0.170699565320727 
2301	 0.170687987196457 
2302	 0.170654615443832 
2303	 0.170589822662612 
2304	 0.170520679117251 
2305	 0.170459233225416 
2306	 0.170416492902195 
2307	 0.170386511839666 
2308	 0.170359090960137 
2309	 0.170356869802357 
2310	 0.170332387270042 
2311	 0.170294448942329 
2312	 0.17025440973097 
2313	 0.170222463108085 
2314	 0.170158830850613 
2315	 0.170061766685174 
2316	 0.169999965884615 
2317	 0.169919886120944 
2318	 0.169871269149573 
2319	 0.169866368498624 
2320	 0.169837943336446 
2321	 0.169818449422884 
2322	 0.169786688285345 
2323	 0.169745303948899 
2324	 0.169710243236981 
2325	 0.169651738293088 
2326	 0.169625821736084 
2327	 0.169619129673501 
2328	 0.169619196372335 
2329	 0.169620685792386 
2330	 0.169617246900703 
2331	 0.169614067850403 
2332	 0.169573173940302 
2333	 0.169537699893251 
2334	 0.169523989778669 
2335	 0.16953427881876 
2336	 0.169574787004277 
2337	 0.169591849452973 
2338	 0.169570712024356 
2339	 0.169496055433855 
2340	 0.169384571866369 
2341	 0.169280800286475 
2342	 0.16919342780192 
2343	 0.169120687638326 
2344	 0.169044852552854 
2345	 0.168978846682464 
2346	 0.168934674709362 
2347	 0.16887995812771 
2348	 0.168812820041013 
2349	 0.168758047001065 
2350	 0.168742899306364 
2351	 0.168659146250394 
2352	 0.168558774516733 
2353	 0.168432974030065 
2354	 0.168212634510858 
2355	 0.16807434847048 
2356	 0.167962325969875 
2357	 0.167855924738544 
2358	 0.167790660906355 
2359	 0.167712204480632 
2360	 0.167619032347414 
2361	 0.167540701418702 
2362	 0.16752071647508 
2363	 0.167444960824194 
2364	 0.167349150853589 
2365	 0.167230788744934 
2366	 0.167011694638688 
2367	 0.166866791324745 
2368	 0.166751552261078 
2369	 0.166654386858856 
2370	 0.166613510573601 
2371	 0.16658565695274 
2372	 0.166452015449667 
2373	 0.166289909559398 
2374	 0.166170425036953 
2375	 0.166022291908464 
2376	 0.165892022830759 
2377	 0.165791819803506 
2378	 0.165649566976511 
2379	 0.165427624436905 
2380	 0.1652305131693 
2381	 0.165080642766168 
2382	 0.164906480343523 
2383	 0.164835565773644 
2384	 0.164787102240137 
2385	 0.164673433208681 
2386	 0.164582615081961 
2387	 0.164439342680624 
2388	 0.164255201337492 
2389	 0.164129583814834 
2390	 0.164011536821349 
2391	 0.163909868637754 
2392	 0.163817037097709 
2393	 0.163647306422161 
2394	 0.163476020223462 
2395	 0.163338691931259 
2396	 0.163187274947939 
2397	 0.163068200643878 
2398	 0.16296159326051 
2399	 0.162770604947881 
2400	 0.162634930801486 
2401	 0.162611985359296 
2402	 0.162533775291074 
2403	 0.162494795502687 
2404	 0.162469198438846 
2405	 0.162388696720924 
2406	 0.162353772041295 
2407	 0.162264610392664 
2408	 0.162212484224022 
2409	 0.162252339350315 
2410	 0.16219614878375 
2411	 0.162152424240259 
2412	 0.162156499141022 
2413	 0.162058439477472 
2414	 0.162026694943508 
2415	 0.162050998723294 
2416	 0.162065479261014 
2417	 0.1620900131257 
2418	 0.162094570207446 
2419	 0.16213579043235 
2420	 0.162098392941842 
2421	 0.161993175923315 
2422	 0.161915993438647 
2423	 0.161788904954496 
2424	 0.161707531592966 
2425	 0.16164694022149 
2426	 0.1615158334594 
2427	 0.161334035265636 
2428	 0.161242101072833 
2429	 0.161179158353055 
2430	 0.161217352664414 
2431	 0.161382926425732 
2432	 0.161439589174222 
2433	 0.161510142833984 
2434	 0.161488011398206 
2435	 0.161377057344818 
2436	 0.161303883740144 
2437	 0.161173359766662 
2438	 0.161069790621389 
2439	 0.160987786243071 
2440	 0.160904649239271 
2441	 0.16091066496325 
2442	 0.160794468112996 
2443	 0.160529985149754 
2444	 0.160361471362836 
2445	 0.160149856882892 
2446	 0.159994934010119 
2447	 0.159973812804296 
2448	 0.159893964789247 
2449	 0.159816170145891 
2450	 0.159713603705315 
2451	 0.159564739042523 
2452	 0.159461356151142 
2453	 0.159338666539992 
2454	 0.159158166128375 
2455	 0.158952901296761 
2456	 0.158849358716837 
2457	 0.158768945511028 
2458	 0.158734458175434 
2459	 0.158837239394064 
2460	 0.158825500490062 
2461	 0.158784025789086 
2462	 0.158674236794519 
2463	 0.15847393304077 
2464	 0.158318094289528 
2465	 0.15817081186336 
2466	 0.157947353231466 
2467	 0.15763832490737 
2468	 0.157427751156534 
2469	 0.157126570311835 
2470	 0.157029639865564 
2471	 0.15710572417067 
2472	 0.157217635425988 
2473	 0.157383584336723 
2474	 0.157436411325559 
2475	 0.157509670210409 
2476	 0.157554432402382 
2477	 0.157316822524386 
2478	 0.156954213375405 
2479	 0.156690867290919 
2480	 0.156467284651077 
2481	 0.156170927667602 
2482	 0.156063958844076 
2483	 0.155989897073843 
2484	 0.155872976580086 
2485	 0.155879275186084 
2486	 0.155859406482825 
2487	 0.155933648346444 
2488	 0.155990479566216 
2489	 0.155918429388192 
2490	 0.15596407210389 
2491	 0.155914569771714 
2492	 0.155692855700248 
2493	 0.155610045474591 
2494	 0.155519634196587 
2495	 0.15537284683792 
2496	 0.155242768393652 
2497	 0.155154278512847 
2498	 0.155084991737581 
2499	 0.154886149664725 
2500	 0.154608167129888 
