Wavelength	LMW600003.asd
350	 0.104952266101663 
351	 0.112391132494579 
352	 0.113133288558272 
353	 0.107418979314632 
354	 0.104965469570024 
355	 0.107665627620979 
356	 0.109780615620094 
357	 0.107468137033099 
358	 0.113278537725169 
359	 0.113608847296181 
360	 0.109001366196349 
361	 0.108890142407282 
362	 0.110173896551723 
363	 0.109435076987073 
364	 0.106810111608802 
365	 0.108025134378949 
366	 0.108689597510232 
367	 0.109397361895541 
368	 0.11117166232472 
369	 0.111424809902661 
370	 0.111374575705182 
371	 0.111773944952238 
372	 0.112693758360927 
373	 0.11078024087036 
374	 0.111030511241258 
375	 0.114889670230162 
376	 0.116212622679369 
377	 0.11435568915903 
378	 0.112657612290514 
379	 0.114214166883401 
380	 0.115157755679375 
381	 0.114926149396583 
382	 0.11503402443073 
383	 0.117934445396955 
384	 0.118272293618711 
385	 0.117578384940126 
386	 0.117940171610473 
387	 0.120798945700479 
388	 0.121459883646835 
389	 0.121169887806402 
390	 0.122354251468331 
391	 0.123027720079788 
392	 0.122725527796217 
393	 0.122398404070156 
394	 0.123871698653879 
395	 0.124096563585213 
396	 0.124909662624669 
397	 0.127041142767288 
398	 0.127128803688721 
399	 0.127226783214554 
400	 0.128246039643252 
401	 0.130115465854416 
402	 0.129727490051844 
403	 0.130096945475172 
404	 0.131498325303899 
405	 0.131212201850461 
406	 0.131898715104221 
407	 0.133257354863276 
408	 0.134304750700972 
409	 0.133775145586622 
410	 0.133258225010665 
411	 0.134155180530205 
412	 0.137042704792953 
413	 0.137949778487957 
414	 0.138158100654363 
415	 0.138605507551059 
416	 0.139112456668785 
417	 0.139893824955427 
418	 0.140390098869665 
419	 0.14035756986814 
420	 0.141224600970026 
421	 0.142040842159565 
422	 0.142723400511908 
423	 0.143705108030247 
424	 0.144396658268703 
425	 0.144536290979084 
426	 0.14436959029007 
427	 0.144942300717899 
428	 0.145677781443636 
429	 0.146218491430449 
430	 0.146450271284458 
431	 0.147150337922438 
432	 0.147633919702789 
433	 0.147902801401684 
434	 0.148639060735224 
435	 0.149144504466111 
436	 0.149346306803711 
437	 0.149399692905309 
438	 0.149646296275357 
439	 0.150375033768528 
440	 0.151173167282944 
441	 0.151378590899791 
442	 0.151423678992889 
443	 0.151834670469991 
444	 0.152556313392606 
445	 0.152674786932575 
446	 0.1527422534875 
447	 0.153040264776067 
448	 0.153628950042948 
449	 0.15396128692764 
450	 0.154451044482222 
451	 0.155084860632267 
452	 0.15547786826017 
453	 0.155725042648923 
454	 0.15593841455016 
455	 0.156249851214081 
456	 0.156884192206216 
457	 0.157157874576915 
458	 0.157263029567534 
459	 0.157716995109763 
460	 0.158151100921451 
461	 0.158409888091519 
462	 0.158542119918621 
463	 0.158843271647321 
464	 0.159278626445773 
465	 0.159749110191093 
466	 0.16015241445807 
467	 0.160486367332889 
468	 0.160789136014011 
469	 0.161072621828038 
470	 0.161332396024617 
471	 0.161682110950619 
472	 0.162016671823524 
473	 0.162273728983951 
474	 0.162580484051803 
475	 0.162839685588722 
476	 0.163117614002734 
477	 0.163509556647195 
478	 0.163775235801291 
479	 0.164068762307139 
480	 0.164431008975653 
481	 0.164697637506748 
482	 0.165049612443349 
483	 0.165440326396506 
484	 0.165793440011502 
485	 0.166210975438031 
486	 0.166422809381207 
487	 0.166561869691377 
488	 0.167058783003257 
489	 0.16738512786008 
490	 0.167677205604269 
491	 0.168065780744947 
492	 0.168400407668503 
493	 0.168468514018043 
494	 0.168586195894948 
495	 0.169194566613658 
496	 0.169580662367507 
497	 0.169866962595965 
498	 0.170141982340814 
499	 0.170309754824126 
500	 0.170614829338555 
501	 0.170873500468852 
502	 0.17093892174251 
503	 0.171421335554851 
504	 0.171862321165663 
505	 0.172083366488439 
506	 0.172208136433981 
507	 0.172518032106703 
508	 0.172895666536861 
509	 0.173191048443427 
510	 0.173395947856817 
511	 0.173612732734842 
512	 0.173850194115371 
513	 0.174059515263473 
514	 0.174152260856002 
515	 0.174353302780096 
516	 0.174734189261885 
517	 0.175067552940054 
518	 0.175273378659066 
519	 0.175441775974736 
520	 0.175690052215351 
521	 0.175903510552587 
522	 0.176141417389205 
523	 0.176385229906922 
524	 0.176530615695322 
525	 0.176792164556382 
526	 0.177062497626429 
527	 0.177244617780973 
528	 0.177519518457282 
529	 0.177763975523484 
530	 0.17793319087419 
531	 0.178046447993571 
532	 0.178194251906952 
533	 0.178446572905818 
534	 0.17877464039869 
535	 0.178956737555463 
536	 0.17913634345369 
537	 0.179338449578019 
538	 0.179540275447132 
539	 0.179701701491105 
540	 0.179914942164275 
541	 0.180177771015852 
542	 0.180351868789599 
543	 0.180499920235096 
544	 0.180625947895461 
545	 0.180749112679995 
546	 0.181018133381599 
547	 0.181196712594277 
548	 0.18129953387187 
549	 0.181547899190343 
550	 0.181716958946368 
551	 0.18190577386877 
552	 0.182168291673045 
553	 0.182279588456624 
554	 0.182415667646896 
555	 0.182619034220764 
556	 0.182858980652517 
557	 0.183135630963576 
558	 0.183321129556813 
559	 0.18341139317309 
560	 0.18364674463112 
561	 0.183776686051507 
562	 0.183851357197479 
563	 0.183998466516458 
564	 0.184163306453539 
565	 0.184312183573764 
566	 0.18444106922916 
567	 0.184578750624155 
568	 0.184795515332763 
569	 0.185036100373134 
570	 0.185238490113805 
571	 0.185435402300781 
572	 0.185604757976255 
573	 0.185732033213657 
574	 0.185815487609956 
575	 0.185940635003058 
576	 0.186064915887562 
577	 0.186165171895388 
578	 0.186317527858155 
579	 0.186405340047104 
580	 0.18643994606069 
581	 0.186484779433677 
582	 0.186529385843216 
583	 0.186604927111725 
584	 0.186726005460262 
585	 0.186881013400312 
586	 0.187071164668958 
587	 0.187266302494448 
588	 0.187422337323438 
589	 0.187469755943698 
590	 0.187542492018199 
591	 0.187691356141646 
592	 0.187878896058109 
593	 0.18799727906337 
594	 0.188045415921004 
595	 0.188056179075871 
596	 0.188076207993511 
597	 0.188128715524288 
598	 0.188172287132658 
599	 0.188148926840875 
600	 0.188211511288479 
601	 0.1882840143513 
602	 0.188310482498579 
603	 0.188315834478909 
604	 0.188339854209331 
605	 0.188392036244164 
606	 0.188475813328351 
607	 0.188651683508855 
608	 0.188743780659917 
609	 0.188772543287852 
610	 0.188989759636124 
611	 0.189116219739937 
612	 0.18920057601377 
613	 0.189323154367364 
614	 0.189393009900225 
615	 0.189434029511255 
616	 0.189484281912368 
617	 0.189580647913713 
618	 0.189617925792774 
619	 0.189647039339462 
620	 0.18971684992115 
621	 0.18983147346301 
622	 0.189882632457517 
623	 0.18988432164447 
624	 0.189905632115634 
625	 0.189985971711192 
626	 0.190096180239006 
627	 0.190191498043767 
628	 0.19021574125405 
629	 0.190266504958092 
630	 0.190325719541384 
631	 0.19035827080323 
632	 0.190393737781187 
633	 0.190435015703683 
634	 0.190509711419628 
635	 0.19065264023941 
636	 0.190675706863465 
637	 0.190699574649843 
638	 0.190805641394852 
639	 0.190844216731005 
640	 0.190856446809391 
641	 0.190894969200976 
642	 0.190999802888657 
643	 0.191039759816554 
644	 0.191102570460815 
645	 0.191215361416283 
646	 0.191288313841938 
647	 0.191334913667089 
648	 0.191370711246428 
649	 0.191418062074424 
650	 0.191513319515688 
651	 0.19160768940873 
652	 0.191678393844345 
653	 0.191727726466178 
654	 0.191726163227649 
655	 0.19177140938638 
656	 0.191900217930712 
657	 0.191936236910815 
658	 0.192033382594522 
659	 0.192132562133886 
660	 0.192112645324284 
661	 0.19220089956136 
662	 0.192308476885923 
663	 0.192377424143562 
664	 0.192439440573666 
665	 0.192492749696763 
666	 0.192547356709793 
667	 0.192603728911234 
668	 0.192603178352767 
669	 0.192670030482612 
670	 0.192774851671977 
671	 0.192769806787961 
672	 0.192813313971426 
673	 0.192899027839415 
674	 0.192993759305447 
675	 0.193077641785366 
676	 0.19311313058336 
677	 0.19310925575333 
678	 0.193106005432246 
679	 0.193177245045248 
680	 0.193240010362707 
681	 0.193272032225383 
682	 0.193348065063707 
683	 0.193411732350036 
684	 0.193443056613951 
685	 0.193456533751813 
686	 0.193560779410865 
687	 0.193601831037831 
688	 0.19358957199172 
689	 0.193646111743963 
690	 0.19371770174813 
691	 0.193741567789535 
692	 0.193719700619934 
693	 0.193790353058226 
694	 0.193824459884539 
695	 0.193825596180241 
696	 0.193835546076627 
697	 0.193813982212055 
698	 0.193857334379582 
699	 0.193962324707549 
700	 0.19401595412502 
701	 0.194016316660549 
702	 0.19401088522686 
703	 0.194034703223801 
704	 0.194051700500116 
705	 0.194068795784655 
706	 0.194081743771131 
707	 0.194082609277998 
708	 0.194076877060473 
709	 0.194078729673599 
710	 0.194095268033285 
711	 0.19412346639163 
712	 0.194127427172835 
713	 0.194093741990955 
714	 0.194043268117691 
715	 0.194096300258014 
716	 0.194113735461069 
717	 0.194101232188359 
718	 0.194159921583242 
719	 0.194149972957513 
720	 0.194098441035433 
721	 0.194037359756523 
722	 0.193948721317617 
723	 0.193972799565413 
724	 0.1940277739499 
725	 0.193994087044833 
726	 0.19399782196268 
727	 0.193986842059748 
728	 0.19394359685339 
729	 0.193891876057847 
730	 0.19387166439127 
731	 0.193862355569186 
732	 0.193835988957555 
733	 0.193773088530854 
734	 0.193726563097269 
735	 0.193678924415482 
736	 0.193604392693823 
737	 0.193628580319997 
738	 0.193597600020286 
739	 0.193499856003697 
740	 0.193494198356414 
741	 0.193426555968587 
742	 0.193364676574761 
743	 0.193359168653004 
744	 0.193284589683006 
745	 0.1932125986194 
746	 0.193149065589176 
747	 0.193072449746629 
748	 0.192994925063894 
749	 0.192941902327474 
750	 0.192900869839731 
751	 0.192814770726917 
752	 0.192772912680631 
753	 0.192717386046732 
754	 0.192610867379988 
755	 0.192577774463429 
756	 0.192556236701473 
757	 0.192523631165395 
758	 0.19247567857207 
759	 0.19239480218166 
760	 0.192271583409117 
761	 0.192146392058191 
762	 0.19211550626544 
763	 0.192078104223911 
764	 0.191993671468698 
765	 0.191877916257361 
766	 0.191868199388343 
767	 0.191824939038222 
768	 0.191724426563923 
769	 0.191609653352725 
770	 0.191521652043358 
771	 0.191467539697042 
772	 0.19141957263411 
773	 0.191316894920054 
774	 0.191214967930712 
775	 0.191148347727918 
776	 0.191115465816275 
777	 0.191034242219073 
778	 0.190938013651527 
779	 0.190831254779618 
780	 0.190711800367013 
781	 0.190607423089048 
782	 0.190540205027715 
783	 0.190487332450024 
784	 0.190386186829654 
785	 0.190345906024863 
786	 0.190309854343807 
787	 0.190224194909467 
788	 0.190119989074677 
789	 0.189991580964002 
790	 0.18986885116675 
791	 0.189784476022024 
792	 0.189719592747879 
793	 0.189640707912171 
794	 0.189522048043675 
795	 0.189356940425912 
796	 0.189261624607157 
797	 0.189218446528918 
798	 0.189166430534494 
799	 0.189006358024328 
800	 0.188912811397839 
801	 0.188857506765085 
802	 0.188758485137064 
803	 0.18857847843913 
804	 0.188515306385707 
805	 0.188524374007003 
806	 0.188420665555754 
807	 0.188283418048008 
808	 0.188140823366901 
809	 0.188022227517877 
810	 0.187959278590686 
811	 0.187870965344882 
812	 0.187771568932577 
813	 0.187682387929737 
814	 0.187582267856267 
815	 0.187456310518342 
816	 0.187316317072725 
817	 0.187192562305117 
818	 0.187143140663229 
819	 0.187059199096763 
820	 0.186922926091998 
821	 0.186802405234862 
822	 0.186698066601134 
823	 0.186622126688663 
824	 0.186550466116807 
825	 0.186400727099903 
826	 0.186289248721211 
827	 0.186220613701626 
828	 0.186155095479492 
829	 0.18602391046889 
830	 0.185859848446879 
831	 0.185702273301771 
832	 0.185590387494801 
833	 0.185542030729061 
834	 0.185490849239772 
835	 0.185416439033098 
836	 0.18534362846027 
837	 0.185191020757234 
838	 0.185087647859636 
839	 0.185053581285249 
840	 0.184868610907846 
841	 0.184730091880892 
842	 0.18460240757443 
843	 0.184450266659169 
844	 0.18445224834757 
845	 0.184438618149192 
846	 0.184360234384906 
847	 0.184238531071969 
848	 0.184117460337982 
849	 0.184012341185286 
850	 0.183923016850558 
851	 0.183834441795821 
852	 0.183708393948175 
853	 0.183583538063999 
854	 0.183479240230293 
855	 0.183370724948621 
856	 0.183355384712488 
857	 0.183317680865148 
858	 0.183176683498601 
859	 0.183065200388787 
860	 0.182975071835354 
861	 0.182889410773697 
862	 0.182793997887329 
863	 0.18272391051384 
864	 0.182622080525094 
865	 0.182512288690341 
866	 0.182450379964245 
867	 0.182323135049292 
868	 0.182254052613779 
869	 0.182244841223789 
870	 0.182159448440442 
871	 0.182010457944212 
872	 0.18190132309051 
873	 0.181866263797941 
874	 0.181804698668056 
875	 0.181746890465628 
876	 0.181654593713985 
877	 0.18151632945895 
878	 0.181415193895716 
879	 0.181444815642997 
880	 0.181432740952953 
881	 0.181224416197632 
882	 0.181147019950931 
883	 0.18111753980862 
884	 0.181064294971147 
885	 0.180954821507275 
886	 0.180926907061538 
887	 0.180898383522613 
888	 0.180819261867648 
889	 0.180691350702065 
890	 0.180570791401247 
891	 0.180494706841482 
892	 0.180476804813103 
893	 0.180498470498518 
894	 0.180384793294591 
895	 0.180264573917228 
896	 0.180220384062777 
897	 0.180138830518706 
898	 0.180073338807006 
899	 0.180044514322457 
900	 0.18003770769327 
901	 0.179964315065124 
902	 0.179948366679126 
903	 0.179918033723151 
904	 0.17980094066205 
905	 0.179784737643887 
906	 0.179773424105851 
907	 0.179727186502432 
908	 0.179648484503749 
909	 0.179585756034953 
910	 0.179536544131743 
911	 0.179505681348834 
912	 0.179491891441502 
913	 0.179419528834786 
914	 0.179325343272337 
915	 0.17924088407902 
916	 0.179184137347878 
917	 0.179191471466697 
918	 0.179233395030497 
919	 0.179277179787806 
920	 0.179295168404209 
921	 0.179195988498976 
922	 0.179077958759389 
923	 0.179006423241355 
924	 0.178946858034336 
925	 0.178927592869601 
926	 0.178959519447168 
927	 0.178991511857567 
928	 0.17887547895746 
929	 0.178871864004064 
930	 0.178912286358923 
931	 0.178889833243783 
932	 0.178812712627994 
933	 0.178837044164189 
934	 0.178842901831403 
935	 0.178734873449209 
936	 0.178736596584752 
937	 0.178724139501053 
938	 0.178651857522569 
939	 0.178541411021792 
940	 0.178537488185258 
941	 0.178569570537906 
942	 0.178632368130787 
943	 0.178725425667963 
944	 0.178784176433891 
945	 0.178703910903006 
946	 0.178586696805382 
947	 0.178579275599047 
948	 0.178563177349429 
949	 0.178550069634184 
950	 0.17849400969104 
951	 0.178387533603862 
952	 0.17854712826854 
953	 0.178614275708342 
954	 0.17853232089674 
955	 0.178450263590324 
956	 0.178461808101933 
957	 0.178486665978447 
958	 0.178493616272635 
959	 0.178488985498278 
960	 0.178446862635781 
961	 0.178502185658201 
962	 0.178619852237805 
963	 0.178646377562118 
964	 0.178474157247904 
965	 0.178406402946359 
966	 0.178475373808153 
967	 0.178516987287625 
968	 0.178544422066321 
969	 0.178562544833071 
970	 0.17858520666778 
971	 0.178625921403708 
972	 0.178672814120486 
973	 0.17867088305783 
974	 0.178670832744654 
975	 0.178763241235582 
976	 0.178836568604229 
977	 0.178826536224057 
978	 0.178786479291271 
979	 0.178799059419359 
980	 0.178644910698265 
981	 0.178664365813251 
982	 0.178755998771889 
983	 0.178630380980861 
984	 0.178665540074571 
985	 0.178748524161278 
986	 0.178743157833129 
987	 0.17861615988144 
988	 0.178793774562841 
989	 0.178841447868685 
990	 0.178756632558095 
991	 0.178765992713161 
992	 0.178913823501115 
993	 0.178836792478894 
994	 0.178817815210103 
995	 0.17915475746444 
996	 0.178930030428843 
997	 0.178968875571814 
998	 0.179114503256312 
999	 0.179021807011294 
1000	 0.179220709734568 
1001	 0.180941329750444 
1002	 0.180960284513695 
1003	 0.181052935193491 
1004	 0.181080268694005 
1005	 0.181066883228502 
1006	 0.181097827217413 
1007	 0.181125707282436 
1008	 0.18114625617801 
1009	 0.18118492820898 
1010	 0.181173037305555 
1011	 0.18122492770547 
1012	 0.181272578604832 
1013	 0.181273172695757 
1014	 0.181337109411553 
1015	 0.181344448646558 
1016	 0.181297913201443 
1017	 0.181288794152286 
1018	 0.181288432841683 
1019	 0.181353705304699 
1020	 0.181435429565255 
1021	 0.181473475855507 
1022	 0.181522893614067 
1023	 0.181535962465246 
1024	 0.18151136436554 
1025	 0.181514730507768 
1026	 0.181477851702033 
1027	 0.18146672450969 
1028	 0.181509878134621 
1029	 0.181512394897386 
1030	 0.181511748565916 
1031	 0.181498083553921 
1032	 0.181479607806576 
1033	 0.181411064245054 
1034	 0.181361730675398 
1035	 0.181365386068349 
1036	 0.181393600180902 
1037	 0.18137814519838 
1038	 0.181383630597232 
1039	 0.181428872845142 
1040	 0.181429256683847 
1041	 0.18144435772937 
1042	 0.181478653598592 
1043	 0.181466959006249 
1044	 0.181471483461503 
1045	 0.181474190178811 
1046	 0.181521800186826 
1047	 0.18158868258641 
1048	 0.18167176720546 
1049	 0.181739654952662 
1050	 0.181786735911568 
1051	 0.181815058118542 
1052	 0.181837344183797 
1053	 0.181930334079924 
1054	 0.182044333734301 
1055	 0.182114179441448 
1056	 0.182202730252809 
1057	 0.182278080421718 
1058	 0.18231707419755 
1059	 0.182374401502049 
1060	 0.182460261166045 
1061	 0.182501172374809 
1062	 0.182517942375815 
1063	 0.182590568076249 
1064	 0.182679078408884 
1065	 0.182783283656238 
1066	 0.182859111658707 
1067	 0.182873104451858 
1068	 0.182899698007282 
1069	 0.182945830795925 
1070	 0.182989684681588 
1071	 0.183079850524922 
1072	 0.183134472567939 
1073	 0.183163428677018 
1074	 0.183177401465013 
1075	 0.183164802034419 
1076	 0.183180855956684 
1077	 0.18320865723207 
1078	 0.183220306878656 
1079	 0.183258596387983 
1080	 0.183272103482218 
1081	 0.183257937162839 
1082	 0.183274069641822 
1083	 0.183262527200182 
1084	 0.183237415239756 
1085	 0.183218450724435 
1086	 0.183176257740946 
1087	 0.1831467239364 
1088	 0.183122332146628 
1089	 0.183112394100745 
1090	 0.183102051407179 
1091	 0.183121868550961 
1092	 0.183074859321721 
1093	 0.183025495641262 
1094	 0.183000353436253 
1095	 0.182927410471777 
1096	 0.182940689279337 
1097	 0.182969634114561 
1098	 0.18295001739765 
1099	 0.182908789543703 
1100	 0.182885880802168 
1101	 0.182827743293478 
1102	 0.18279689386578 
1103	 0.182800124738302 
1104	 0.182775524964105 
1105	 0.182738281211535 
1106	 0.182725864608768 
1107	 0.182726432509185 
1108	 0.182734980370491 
1109	 0.182779744290505 
1110	 0.182799237946961 
1111	 0.182797330907866 
1112	 0.182768037038807 
1113	 0.182773616642833 
1114	 0.182767112228934 
1115	 0.182782943774274 
1116	 0.182842675803953 
1117	 0.182864727107023 
1118	 0.182866722193093 
1119	 0.182872963456948 
1120	 0.182908348805678 
1121	 0.182941623261278 
1122	 0.182960009582546 
1123	 0.182995772873131 
1124	 0.183034367835074 
1125	 0.183059918471875 
1126	 0.183099390667672 
1127	 0.183166003956772 
1128	 0.183210850173102 
1129	 0.183233062069415 
1130	 0.183271147363683 
1131	 0.183332865443183 
1132	 0.183366268909621 
1133	 0.183389176036106 
1134	 0.183412202664639 
1135	 0.183422412504756 
1136	 0.183424776476651 
1137	 0.18343207496973 
1138	 0.183435974445796 
1139	 0.18344805555111 
1140	 0.183456935951695 
1141	 0.183472969626879 
1142	 0.183509765080883 
1143	 0.183516854911703 
1144	 0.183507637532393 
1145	 0.183507453520496 
1146	 0.183489155903521 
1147	 0.183492767505357 
1148	 0.18352208377558 
1149	 0.183531928298201 
1150	 0.18354502369871 
1151	 0.183547385463211 
1152	 0.183537510054615 
1153	 0.183517204213218 
1154	 0.183499190230704 
1155	 0.183475108751845 
1156	 0.18345678032966 
1157	 0.183442886727013 
1158	 0.183419261464669 
1159	 0.183388401332953 
1160	 0.183366007529327 
1161	 0.183324831094847 
1162	 0.183315019239209 
1163	 0.18334374327221 
1164	 0.183345496742551 
1165	 0.183345754230742 
1166	 0.183352784150906 
1167	 0.183340972989467 
1168	 0.183318759258221 
1169	 0.183303669025301 
1170	 0.18330051680943 
1171	 0.183277401268029 
1172	 0.183229847894968 
1173	 0.183211673952123 
1174	 0.183198835137376 
1175	 0.183186892082386 
1176	 0.183188826929012 
1177	 0.183194412468122 
1178	 0.183199052249743 
1179	 0.183204306893643 
1180	 0.183225989989935 
1181	 0.183235557128294 
1182	 0.183230476380283 
1183	 0.183238162233991 
1184	 0.1832336482042 
1185	 0.18321813905988 
1186	 0.183222270132013 
1187	 0.183233135524538 
1188	 0.183235374296012 
1189	 0.183244496169801 
1190	 0.183250713363576 
1191	 0.183238691159148 
1192	 0.183249006944135 
1193	 0.183275898841964 
1194	 0.183300860180061 
1195	 0.183338031586922 
1196	 0.183366246083385 
1197	 0.183394896086134 
1198	 0.183418636574176 
1199	 0.183438412137575 
1200	 0.183452648443064 
1201	 0.183467519143168 
1202	 0.183475890634347 
1203	 0.183493837948701 
1204	 0.183516099646624 
1205	 0.18353481690391 
1206	 0.183555388411319 
1207	 0.183577291759872 
1208	 0.183595274327664 
1209	 0.183618189651877 
1210	 0.1836506792094 
1211	 0.183676031916455 
1212	 0.183702808460984 
1213	 0.183722599329005 
1214	 0.183731590639861 
1215	 0.183746386560361 
1216	 0.183761431282024 
1217	 0.183776033338623 
1218	 0.18378606736773 
1219	 0.183795247304385 
1220	 0.183808060452269 
1221	 0.183814153753855 
1222	 0.1838295752733 
1223	 0.1838577501341 
1224	 0.183876764271365 
1225	 0.183897980406051 
1226	 0.183910659738204 
1227	 0.183910495439384 
1228	 0.18392102849562 
1229	 0.183936141916356 
1230	 0.18394502285105 
1231	 0.183953366504816 
1232	 0.183965499286904 
1233	 0.183977118893137 
1234	 0.183980115072652 
1235	 0.183994912419501 
1236	 0.184019057113905 
1237	 0.184042443698544 
1238	 0.18406652280775 
1239	 0.184093932407307 
1240	 0.184143663254398 
1241	 0.184156533890391 
1242	 0.18414058563414 
1243	 0.184147630198495 
1244	 0.184142884894563 
1245	 0.184144993168691 
1246	 0.184171004641139 
1247	 0.184186942332127 
1248	 0.184193624842798 
1249	 0.184194972070671 
1250	 0.184215077886324 
1251	 0.18423127756352 
1252	 0.18425099957486 
1253	 0.184276473835572 
1254	 0.184294159396634 
1255	 0.184316012502042 
1256	 0.184324893327133 
1257	 0.184328681323063 
1258	 0.184321939988952 
1259	 0.184291390117609 
1260	 0.184281431326889 
1261	 0.184273625112827 
1262	 0.18426748516963 
1263	 0.184276748802766 
1264	 0.184277563681075 
1265	 0.184267343016824 
1266	 0.184265415650067 
1267	 0.184274340425825 
1268	 0.18427377817467 
1269	 0.184266068172781 
1270	 0.18425166710431 
1271	 0.184245920771872 
1272	 0.184222602448338 
1273	 0.184234358868456 
1274	 0.184270803976288 
1275	 0.18430489373823 
1276	 0.184350682235902 
1277	 0.184404991465374 
1278	 0.184471880754383 
1279	 0.184528179924377 
1280	 0.184580537842359 
1281	 0.184650202893134 
1282	 0.184726229573564 
1283	 0.184800642188476 
1284	 0.184887299707119 
1285	 0.184977625108735 
1286	 0.185060338537596 
1287	 0.185148927643004 
1288	 0.185246887639438 
1289	 0.185369035443782 
1290	 0.185459770124202 
1291	 0.185533828353402 
1292	 0.185624799327494 
1293	 0.185712630676823 
1294	 0.185800808833896 
1295	 0.185911696910603 
1296	 0.185991820178808 
1297	 0.186058177647682 
1298	 0.186111615103647 
1299	 0.186146172802006 
1300	 0.186176662139998 
1301	 0.186187159041586 
1302	 0.186203143887479 
1303	 0.186212376635403 
1304	 0.186239226702308 
1305	 0.186240422587976 
1306	 0.186217585660945 
1307	 0.186176116812244 
1308	 0.186111047620706 
1309	 0.186064774330937 
1310	 0.186014803833513 
1311	 0.185977284399493 
1312	 0.185952700436826 
1313	 0.185917018558025 
1314	 0.185888646459808 
1315	 0.185842966193743 
1316	 0.185776939250917 
1317	 0.18573038977156 
1318	 0.185681461515172 
1319	 0.185640466160199 
1320	 0.185617720097263 
1321	 0.185584988951522 
1322	 0.185553255394635 
1323	 0.185511747427457 
1324	 0.185463835386078 
1325	 0.185433556977455 
1326	 0.185410330599604 
1327	 0.185376156776907 
1328	 0.185354716011268 
1329	 0.185335765500884 
1330	 0.185321321371889 
1331	 0.185308868130075 
1332	 0.185303492652131 
1333	 0.185305498293354 
1334	 0.185307556243282 
1335	 0.185304818862497 
1336	 0.185320764443064 
1337	 0.185348756628724 
1338	 0.185374816839539 
1339	 0.185420389321243 
1340	 0.185450748889924 
1341	 0.185460586051963 
1342	 0.185493379997872 
1343	 0.185538356877751 
1344	 0.185573646072327 
1345	 0.185625983845873 
1346	 0.185679043553154 
1347	 0.185710987552233 
1348	 0.18574478632198 
1349	 0.185787016564429 
1350	 0.185821305924987 
1351	 0.185858954296294 
1352	 0.185895717756001 
1353	 0.185952337791722 
1354	 0.186018807626071 
1355	 0.186073969376369 
1356	 0.186146007010426 
1357	 0.186199779898077 
1358	 0.186234008126546 
1359	 0.186276868224902 
1360	 0.186319178960309 
1361	 0.18635862250411 
1362	 0.18639254940119 
1363	 0.186433875044397 
1364	 0.186482591746894 
1365	 0.186529906826066 
1366	 0.186585848860312 
1367	 0.186617285149959 
1368	 0.186675527435848 
1369	 0.186730112225945 
1370	 0.186772736682092 
1371	 0.18681740888548 
1372	 0.18681856230018 
1373	 0.186811479941947 
1374	 0.186814969868293 
1375	 0.186815469361359 
1376	 0.186808475565873 
1377	 0.186807195812708 
1378	 0.186797029932909 
1379	 0.186771296340588 
1380	 0.186753584417887 
1381	 0.18673375843306 
1382	 0.18672158972848 
1383	 0.186718114653111 
1384	 0.1867039897359 
1385	 0.186694421600068 
1386	 0.186679098033564 
1387	 0.186644478647024 
1388	 0.186620600424148 
1389	 0.186607545621449 
1390	 0.186590820911779 
1391	 0.186554234375953 
1392	 0.186528340770261 
1393	 0.186481389432407 
1394	 0.186425384855351 
1395	 0.18637833113769 
1396	 0.186339780389286 
1397	 0.18630633593824 
1398	 0.186284067439905 
1399	 0.186251096867966 
1400	 0.186218853354567 
1401	 0.186181233028481 
1402	 0.186144676708113 
1403	 0.186095293255746 
1404	 0.186030319133899 
1405	 0.185983031988006 
1406	 0.185930495080661 
1407	 0.185884401135029 
1408	 0.185858394876611 
1409	 0.185819892859904 
1410	 0.185774751942611 
1411	 0.185728962369877 
1412	 0.185672851101178 
1413	 0.185633057301413 
1414	 0.185600144307643 
1415	 0.185573283580949 
1416	 0.185556851690682 
1417	 0.185537249690506 
1418	 0.185497216780057 
1419	 0.185451329636172 
1420	 0.185422452127067 
1421	 0.185384204113011 
1422	 0.185357086845151 
1423	 0.185353674957627 
1424	 0.185338038239452 
1425	 0.185318290241439 
1426	 0.18530466066683 
1427	 0.185291017250527 
1428	 0.185282913541182 
1429	 0.185282048711432 
1430	 0.185278644149854 
1431	 0.185283737935048 
1432	 0.185273482618324 
1433	 0.185251939921977 
1434	 0.185238417018675 
1435	 0.185208334314848 
1436	 0.185205948531357 
1437	 0.185224593691326 
1438	 0.185238100333293 
1439	 0.185270262368251 
1440	 0.185287240863033 
1441	 0.185293180998844 
1442	 0.185302325978255 
1443	 0.185298244036585 
1444	 0.185306416811895 
1445	 0.185321020031518 
1446	 0.18532798592726 
1447	 0.185339015806535 
1448	 0.185342730249942 
1449	 0.185378028115127 
1450	 0.185424639148989 
1451	 0.185451615857349 
1452	 0.185491639473915 
1453	 0.185520432233892 
1454	 0.185523189025322 
1455	 0.185533772984146 
1456	 0.185555663678278 
1457	 0.185563464708822 
1458	 0.18555467300971 
1459	 0.185557725975517 
1460	 0.185564275114996 
1461	 0.185568046212014 
1462	 0.185576748966065 
1463	 0.185575310893958 
1464	 0.18556275645087 
1465	 0.185560810970304 
1466	 0.185552950506695 
1467	 0.185557306856128 
1468	 0.185582652618119 
1469	 0.185593739694372 
1470	 0.185603978022924 
1471	 0.185605720105572 
1472	 0.185612752244142 
1473	 0.185624116314405 
1474	 0.185639934935948 
1475	 0.185643719949404 
1476	 0.185628782852956 
1477	 0.185605926255815 
1478	 0.18558732760222 
1479	 0.185587691157803 
1480	 0.185597288738114 
1481	 0.185611133019087 
1482	 0.18560469241938 
1483	 0.185582505689918 
1484	 0.185571744037073 
1485	 0.185548194709362 
1486	 0.185539675967293 
1487	 0.185544179799279 
1488	 0.185548270636341 
1489	 0.185556432766629 
1490	 0.185566217536152 
1491	 0.185587065666115 
1492	 0.185597237336447 
1493	 0.185602869923606 
1494	 0.185605504354891 
1495	 0.18560442583164 
1496	 0.185598280604068 
1497	 0.185587832373005 
1498	 0.185577443786301 
1499	 0.185553296363335 
1500	 0.185542595371993 
1501	 0.185545003214836 
1502	 0.185538341360384 
1503	 0.185525655029403 
1504	 0.185532809792589 
1505	 0.185527336202472 
1506	 0.185518129209238 
1507	 0.185521182834736 
1508	 0.185513200093739 
1509	 0.185511411459835 
1510	 0.185505164414386 
1511	 0.185503813021059 
1512	 0.185513961469499 
1513	 0.1855207973138 
1514	 0.185529242756124 
1515	 0.185538471820802 
1516	 0.185540230548936 
1517	 0.185526525807848 
1518	 0.185490440967825 
1519	 0.185484579915381 
1520	 0.185475393377022 
1521	 0.185477844616954 
1522	 0.18550981107188 
1523	 0.185517910018716 
1524	 0.185514898968067 
1525	 0.185519912322242 
1526	 0.185523105714322 
1527	 0.18552487670295 
1528	 0.185526949545618 
1529	 0.185530097718951 
1530	 0.185529509690025 
1531	 0.185537414387392 
1532	 0.185548818775728 
1533	 0.185567521878701 
1534	 0.185607316564671 
1535	 0.185620246174175 
1536	 0.18562310568212 
1537	 0.185624363519788 
1538	 0.185598053556781 
1539	 0.185593607931075 
1540	 0.185611125501402 
1541	 0.185616590536008 
1542	 0.185624798847334 
1543	 0.185625088300647 
1544	 0.185612458693793 
1545	 0.185604200567935 
1546	 0.185589918930926 
1547	 0.185585628605316 
1548	 0.185594946978037 
1549	 0.185590781866415 
1550	 0.185597818001626 
1551	 0.185605488509482 
1552	 0.185586943133225 
1553	 0.185586439424493 
1554	 0.185596022054617 
1555	 0.185599263009642 
1556	 0.185607156301939 
1557	 0.185617390298944 
1558	 0.185619984841122 
1559	 0.18560635694319 
1560	 0.185595143322653 
1561	 0.185578095847415 
1562	 0.185574491467806 
1563	 0.18556535753795 
1564	 0.185575960163974 
1565	 0.185610040879665 
1566	 0.185632190664251 
1567	 0.185665008428688 
1568	 0.18567505528934 
1569	 0.185674794985166 
1570	 0.185664374224646 
1571	 0.185633734865094 
1572	 0.185617192056037 
1573	 0.185604018870751 
1574	 0.185583309224652 
1575	 0.185562487265361 
1576	 0.185537938050614 
1577	 0.185501187334987 
1578	 0.185474636611607 
1579	 0.185450919990784 
1580	 0.185431842167153 
1581	 0.185419874790154 
1582	 0.185403631096771 
1583	 0.18538849130331 
1584	 0.185374908844869 
1585	 0.1853529754348 
1586	 0.185344283838763 
1587	 0.185354087922598 
1588	 0.185349512776195 
1589	 0.185343367425089 
1590	 0.185338701825051 
1591	 0.185320784406908 
1592	 0.18531306402588 
1593	 0.185324790660695 
1594	 0.185317162331513 
1595	 0.185296698735515 
1596	 0.185284495149933 
1597	 0.185263271561525 
1598	 0.18525076698633 
1599	 0.185254036033516 
1600	 0.185249367862416 
1601	 0.185239608992175 
1602	 0.185228978458864 
1603	 0.185217586063053 
1604	 0.185205358775508 
1605	 0.185187378782393 
1606	 0.185178586740992 
1607	 0.185181721999411 
1608	 0.18516698235027 
1609	 0.185165875865074 
1610	 0.185171230954666 
1611	 0.185159721926529 
1612	 0.18513815915444 
1613	 0.185112634477535 
1614	 0.185083073979248 
1615	 0.185049555245687 
1616	 0.18504458874617 
1617	 0.185051888451213 
1618	 0.185045991272205 
1619	 0.185052634294848 
1620	 0.185059278610382 
1621	 0.1850524993629 
1622	 0.185033877057505 
1623	 0.185026435998467 
1624	 0.185019845816977 
1625	 0.185000145734455 
1626	 0.18497797536679 
1627	 0.184960870262127 
1628	 0.184927345027557 
1629	 0.184921623481114 
1630	 0.184940914545771 
1631	 0.184940144224128 
1632	 0.184940453867644 
1633	 0.184935871823375 
1634	 0.184927421817473 
1635	 0.184908047340474 
1636	 0.184879184214565 
1637	 0.184862627372912 
1638	 0.184837972034638 
1639	 0.184824141805438 
1640	 0.184823900219651 
1641	 0.184822191364863 
1642	 0.184825094664794 
1643	 0.184815853872812 
1644	 0.184805220387551 
1645	 0.184797694305145 
1646	 0.184776858594494 
1647	 0.184770542952505 
1648	 0.18478120670566 
1649	 0.184780472858881 
1650	 0.184775532948526 
1651	 0.184773964224567 
1652	 0.184781681191192 
1653	 0.184765466341687 
1654	 0.184730259404336 
1655	 0.184715750498025 
1656	 0.184700541322134 
1657	 0.184676355094155 
1658	 0.1846534872555 
1659	 0.184647673614953 
1660	 0.184636454560335 
1661	 0.184629513413889 
1662	 0.18465719961287 
1663	 0.184651445026959 
1664	 0.184607509620872 
1665	 0.184599495829399 
1666	 0.184609048399335 
1667	 0.184602557687582 
1668	 0.184610739203021 
1669	 0.184595301888724 
1670	 0.184547032785596 
1671	 0.18452602587079 
1672	 0.184507646387328 
1673	 0.184496376220993 
1674	 0.184503863593633 
1675	 0.184497719080067 
1676	 0.184484392926846 
1677	 0.184479893503285 
1678	 0.18448507036015 
1679	 0.184470591003071 
1680	 0.18444730180536 
1681	 0.184431880787481 
1682	 0.184402874572276 
1683	 0.184383859272348 
1684	 0.184380178552789 
1685	 0.184370537720957 
1686	 0.184343979782927 
1687	 0.184347139175398 
1688	 0.18438108624619 
1689	 0.184384311514796 
1690	 0.184395104455021 
1691	 0.18438775123355 
1692	 0.184346000642963 
1693	 0.184326506439993 
1694	 0.184312744053509 
1695	 0.184297437459997 
1696	 0.184283690408009 
1697	 0.184274713635396 
1698	 0.184262866371322 
1699	 0.184264697741868 
1700	 0.184290424326272 
1701	 0.184284048994686 
1702	 0.184266198161224 
1703	 0.184257293635952 
1704	 0.184235224539946 
1705	 0.184215058079989 
1706	 0.184205193248694 
1707	 0.184191449052823 
1708	 0.184162087222182 
1709	 0.184146704656267 
1710	 0.184143578142442 
1711	 0.184139582124555 
1712	 0.184139408808256 
1713	 0.184133111448413 
1714	 0.18412312243183 
1715	 0.184125806619965 
1716	 0.184130417166848 
1717	 0.18413566948369 
1718	 0.184166354882196 
1719	 0.184158821770548 
1720	 0.184120754707751 
1721	 0.184102582978703 
1722	 0.184080527340278 
1723	 0.184052658660332 
1724	 0.184025774145191 
1725	 0.184009706389105 
1726	 0.183980814076732 
1727	 0.183970744966496 
1728	 0.184001366974014 
1729	 0.183986461417496 
1730	 0.183960153732073 
1731	 0.183915698510339 
1732	 0.18383593019359 
1733	 0.183772887842683 
1734	 0.183702581636943 
1735	 0.183647563351258 
1736	 0.183593205872247 
1737	 0.183561695462304 
1738	 0.183542648310828 
1739	 0.183527051393346 
1740	 0.183541942969379 
1741	 0.183529008591003 
1742	 0.183507799985961 
1743	 0.183484788631812 
1744	 0.183443097799225 
1745	 0.183417241037418 
1746	 0.183397128782368 
1747	 0.183385846462936 
1748	 0.183381528913783 
1749	 0.183369609956575 
1750	 0.183344451760613 
1751	 0.183284508373617 
1752	 0.183229233084849 
1753	 0.183194624241808 
1754	 0.183144580962716 
1755	 0.183140440851107 
1756	 0.183141748014257 
1757	 0.183092546871253 
1758	 0.183070177799731 
1759	 0.183056098141067 
1760	 0.183023675469385 
1761	 0.183016754657198 
1762	 0.182995854515091 
1763	 0.18295085304957 
1764	 0.182931279760022 
1765	 0.182915875804605 
1766	 0.182913383176613 
1767	 0.182923709536233 
1768	 0.182906875659975 
1769	 0.182897106459547 
1770	 0.182875028987097 
1771	 0.182841372032857 
1772	 0.182813994920534 
1773	 0.182764783052106 
1774	 0.18275920008803 
1775	 0.18275690964851 
1776	 0.182725884600079 
1777	 0.182714022512935 
1778	 0.182679468605269 
1779	 0.182658251728201 
1780	 0.182658151666034 
1781	 0.182649574469287 
1782	 0.182652132578276 
1783	 0.182635659557828 
1784	 0.182625004264036 
1785	 0.182625329551886 
1786	 0.182610409951859 
1787	 0.182587101135073 
1788	 0.182568123490508 
1789	 0.18254070061006 
1790	 0.182525305106101 
1791	 0.182510040747545 
1792	 0.18249629120291 
1793	 0.182495952181166 
1794	 0.182492686285537 
1795	 0.182499511762359 
1796	 0.182493156615216 
1797	 0.182463878623761 
1798	 0.182458064169832 
1799	 0.182458536421479 
1800	 0.182460378924698 
1801	 0.18155669400961 
1802	 0.181578193030252 
1803	 0.181591724550481 
1804	 0.181622315455246 
1805	 0.181693663786536 
1806	 0.181735585813216 
1807	 0.181786516928337 
1808	 0.181827493278689 
1809	 0.181856652352014 
1810	 0.181881526809165 
1811	 0.181908331892474 
1812	 0.181927509990236 
1813	 0.181925827775981 
1814	 0.181912505983153 
1815	 0.181898777598341 
1816	 0.181898013645213 
1817	 0.181893549688005 
1818	 0.18188993614871 
1819	 0.181886330832077 
1820	 0.181881916373159 
1821	 0.181878547969506 
1822	 0.181889038172363 
1823	 0.181891449257117 
1824	 0.181894781354119 
1825	 0.181903880584064 
1826	 0.181873782010474 
1827	 0.181857801622464 
1828	 0.181846518208928 
1829	 0.181825407121344 
1830	 0.181811324275284 
1831	 0.181803296338027 
1832	 0.181814453206937 
1833	 0.181817605163901 
1834	 0.181809593216445 
1835	 0.181788423874121 
1836	 0.181764206763696 
1837	 0.181737002922157 
1838	 0.181721208869255 
1839	 0.181715079055822 
1840	 0.181730268772866 
1841	 0.181723786639768 
1842	 0.181721174162206 
1843	 0.181730561001009 
1844	 0.181714928832913 
1845	 0.181693535247094 
1846	 0.18168731939012 
1847	 0.181681122326321 
1848	 0.181655602225261 
1849	 0.181636047888071 
1850	 0.181622113117028 
1851	 0.181610215745077 
1852	 0.181570929826023 
1853	 0.181545939285276 
1854	 0.181549767825507 
1855	 0.181562320146638 
1856	 0.181586863120793 
1857	 0.181593986040757 
1858	 0.181562892969336 
1859	 0.181500209621981 
1860	 0.181446197000638 
1861	 0.181364611048388 
1862	 0.181306818697661 
1863	 0.181269388038067 
1864	 0.181229993787958 
1865	 0.181183598650739 
1866	 0.181133136414334 
1867	 0.181085362933517 
1868	 0.181054618865819 
1869	 0.181028902141902 
1870	 0.181002912189923 
1871	 0.180965882143794 
1872	 0.180925369279093 
1873	 0.180873301160211 
1874	 0.180828705764279 
1875	 0.180771369534904 
1876	 0.180713676485878 
1877	 0.180665092804111 
1878	 0.180597089411009 
1879	 0.180541427877571 
1880	 0.18047170812668 
1881	 0.18040271382353 
1882	 0.180316578561131 
1883	 0.180225623546332 
1884	 0.180096895884772 
1885	 0.179972589560339 
1886	 0.179834188309553 
1887	 0.179692009298692 
1888	 0.179565519568768 
1889	 0.179425217336387 
1890	 0.179291060033604 
1891	 0.179145482004726 
1892	 0.178992203147825 
1893	 0.178829252570873 
1894	 0.1786606651545 
1895	 0.178477399217407 
1896	 0.178296732929495 
1897	 0.178091699342126 
1898	 0.177884858491193 
1899	 0.177696543330434 
1900	 0.177498765670824 
1901	 0.177296662939232 
1902	 0.177095660672462 
1903	 0.17689082573414 
1904	 0.176696540227626 
1905	 0.176504831494185 
1906	 0.176323465596451 
1907	 0.176135257161729 
1908	 0.175923357412287 
1909	 0.175703079232671 
1910	 0.175473373092853 
1911	 0.175241389407607 
1912	 0.175008318074052 
1913	 0.1747700702258 
1914	 0.174513699042366 
1915	 0.174268406974982 
1916	 0.174025669789223 
1917	 0.173783778167871 
1918	 0.173551757655999 
1919	 0.173332855745144 
1920	 0.173098694380123 
1921	 0.17286556982273 
1922	 0.172621740222584 
1923	 0.172367814207414 
1924	 0.172131601882113 
1925	 0.171901628653384 
1926	 0.171685411826184 
1927	 0.17148357139007 
1928	 0.171281713777081 
1929	 0.171089839107182 
1930	 0.170892522177035 
1931	 0.170694886325331 
1932	 0.170523822394053 
1933	 0.170360390883799 
1934	 0.170200594044694 
1935	 0.170070915895549 
1936	 0.169969818151717 
1937	 0.169864642373491 
1938	 0.169771369711607 
1939	 0.169696283467808 
1940	 0.169628308189242 
1941	 0.169570222461776 
1942	 0.16953340063688 
1943	 0.169529015736434 
1944	 0.169526934531003 
1945	 0.169528304504169 
1946	 0.169530275571661 
1947	 0.169540310083821 
1948	 0.169549561794746 
1949	 0.169561664504978 
1950	 0.169567849366383 
1951	 0.169570937950651 
1952	 0.169580822402693 
1953	 0.169595145855293 
1954	 0.169605740678865 
1955	 0.169629104263148 
1956	 0.169635536440704 
1957	 0.169636547103462 
1958	 0.169618135985437 
1959	 0.169616500945792 
1960	 0.169617247582588 
1961	 0.16962238904676 
1962	 0.169641048147219 
1963	 0.169646696949172 
1964	 0.169656625527924 
1965	 0.169636273585936 
1966	 0.169638594097567 
1967	 0.169641748898819 
1968	 0.16963529953141 
1969	 0.169632554646807 
1970	 0.169629661989986 
1971	 0.169610466014012 
1972	 0.169605982307669 
1973	 0.169612939830216 
1974	 0.169616169746317 
1975	 0.169622664947348 
1976	 0.169623814579355 
1977	 0.16963028644991 
1978	 0.169644889120322 
1979	 0.169662478301999 
1980	 0.169700562640268 
1981	 0.169713782874105 
1982	 0.169714858733835 
1983	 0.169725672052313 
1984	 0.169722742321345 
1985	 0.169729079765242 
1986	 0.169754265642031 
1987	 0.169772016424815 
1988	 0.169774006240815 
1989	 0.169794741099144 
1990	 0.169833416760235 
1991	 0.169873078262399 
1992	 0.169927295599068 
1993	 0.170018585346741 
1994	 0.17007007075038 
1995	 0.17010282670028 
1996	 0.170149077485279 
1997	 0.170181590767467 
1998	 0.170226310996715 
1999	 0.170302473021536 
2000	 0.1703524597983 
2001	 0.170390156697121 
2002	 0.170417221075952 
2003	 0.170458435063313 
2004	 0.1704913095556 
2005	 0.170525601778669 
2006	 0.170562564183841 
2007	 0.170610764506141 
2008	 0.170658528489048 
2009	 0.170706952631476 
2010	 0.17078159955961 
2011	 0.17083280537762 
2012	 0.17085646047367 
2013	 0.170896422684657 
2014	 0.170941896006315 
2015	 0.17097727173234 
2016	 0.171029382955029 
2017	 0.171097634740159 
2018	 0.171139499323728 
2019	 0.171171630397811 
2020	 0.171205557547411 
2021	 0.171230012896954 
2022	 0.171249254723873 
2023	 0.171267186304253 
2024	 0.171286539584796 
2025	 0.171298158913613 
2026	 0.171305174296142 
2027	 0.171314589481571 
2028	 0.171319099665564 
2029	 0.171325209048237 
2030	 0.171320879130295 
2031	 0.171329399652118 
2032	 0.17134940433838 
2033	 0.17136208817769 
2034	 0.171370639079229 
2035	 0.171385478112686 
2036	 0.171408175440136 
2037	 0.17141862984083 
2038	 0.171435014765166 
2039	 0.171437853863307 
2040	 0.171421904119364 
2041	 0.171409751310583 
2042	 0.171399422193909 
2043	 0.171379847936226 
2044	 0.171368668914797 
2045	 0.171365253223305 
2046	 0.171352892690439 
2047	 0.171336029390713 
2048	 0.171323247523569 
2049	 0.171317433332138 
2050	 0.171292539544844 
2051	 0.171262359499595 
2052	 0.17122832568299 
2053	 0.171170781065755 
2054	 0.171126707583386 
2055	 0.171080950095807 
2056	 0.171047862787935 
2057	 0.171023923138827 
2058	 0.171012629460065 
2059	 0.170992664949286 
2060	 0.170983745981807 
2061	 0.170961664545747 
2062	 0.170920990598146 
2063	 0.170898246420375 
2064	 0.170886772615769 
2065	 0.170868366158337 
2066	 0.170846755740397 
2067	 0.170835680349759 
2068	 0.170835924964052 
2069	 0.170813995804028 
2070	 0.170812446763017 
2071	 0.170836754078917 
2072	 0.170826497767521 
2073	 0.170800174454127 
2074	 0.170786617707483 
2075	 0.170763269474807 
2076	 0.170742639122089 
2077	 0.170726319642593 
2078	 0.170715369655209 
2079	 0.17070311209492 
2080	 0.170692546069022 
2081	 0.170684820353553 
2082	 0.170685696123284 
2083	 0.170689589110105 
2084	 0.170691120332674 
2085	 0.170707368628474 
2086	 0.170741275152807 
2087	 0.170770526079586 
2088	 0.170800083259634 
2089	 0.170839086445625 
2090	 0.170890702681716 
2091	 0.170932128155402 
2092	 0.170971986166476 
2093	 0.171017739898291 
2094	 0.171067768738666 
2095	 0.171108205018368 
2096	 0.171136943062447 
2097	 0.171185226400784 
2098	 0.17123164861114 
2099	 0.171289197784481 
2100	 0.171348395885326 
2101	 0.171430569835157 
2102	 0.171498049181951 
2103	 0.171538530633687 
2104	 0.171627515541009 
2105	 0.171744069950373 
2106	 0.171854354335059 
2107	 0.172001207525159 
2108	 0.172117636186644 
2109	 0.17221330908163 
2110	 0.172319227436744 
2111	 0.172408903724817 
2112	 0.172519119274328 
2113	 0.172648613608621 
2114	 0.172773505451082 
2115	 0.172898103560983 
2116	 0.173034436567013 
2117	 0.17315789333847 
2118	 0.173265411364946 
2119	 0.173392286329237 
2120	 0.173525401518823 
2121	 0.173660756780983 
2122	 0.173813303399431 
2123	 0.173948442118348 
2124	 0.174085175727851 
2125	 0.174203740623661 
2126	 0.17430999710453 
2127	 0.174408862595371 
2128	 0.174477510612505 
2129	 0.174567161529893 
2130	 0.174673850331685 
2131	 0.174759320013726 
2132	 0.174847174232561 
2133	 0.17495428554694 
2134	 0.175018937549893 
2135	 0.175057353361742 
2136	 0.175094310263259 
2137	 0.175107040468677 
2138	 0.175129454902991 
2139	 0.175157721293687 
2140	 0.175165662302466 
2141	 0.175155655711838 
2142	 0.175156328417281 
2143	 0.175133974928766 
2144	 0.175136868309987 
2145	 0.175171788450272 
2146	 0.175189547779405 
2147	 0.175210440650327 
2148	 0.175235600025325 
2149	 0.175232664025262 
2150	 0.175214931992897 
2151	 0.175183399128504 
2152	 0.175122705534479 
2153	 0.175081047540168 
2154	 0.175042727854924 
2155	 0.174988737856483 
2156	 0.174934407309605 
2157	 0.174873528680632 
2158	 0.174790672194648 
2159	 0.174715558685046 
2160	 0.174659002317218 
2161	 0.174577467145714 
2162	 0.174473726413373 
2163	 0.174377532591963 
2164	 0.174273490574024 
2165	 0.174164026334025 
2166	 0.174057538705373 
2167	 0.173948444313083 
2168	 0.173859439683082 
2169	 0.173775544786811 
2170	 0.1736927603522 
2171	 0.173636707318877 
2172	 0.173557502323706 
2173	 0.173476905315935 
2174	 0.173368994056313 
2175	 0.173228851045771 
2176	 0.173113166139599 
2177	 0.172985204762036 
2178	 0.172866293733563 
2179	 0.172761626735915 
2180	 0.172665597634465 
2181	 0.172567711791322 
2182	 0.172475245009188 
2183	 0.172393663427031 
2184	 0.172333479377841 
2185	 0.172255364097055 
2186	 0.172166013619811 
2187	 0.172090215072665 
2188	 0.172027296109973 
2189	 0.171943919383335 
2190	 0.171857581674734 
2191	 0.171768118623527 
2192	 0.171664774132758 
2193	 0.171560334917116 
2194	 0.17145139449755 
2195	 0.171349206022362 
2196	 0.171227555059825 
2197	 0.17113751497927 
2198	 0.171072304136911 
2199	 0.171007296726859 
2200	 0.170949678091558 
2201	 0.170908678836225 
2202	 0.170872449725523 
2203	 0.170864125304056 
2204	 0.170836538823899 
2205	 0.170828578138875 
2206	 0.170787100756653 
2207	 0.170710228970137 
2208	 0.170669466627396 
2209	 0.170634591027742 
2210	 0.170597654951113 
2211	 0.170578680844999 
2212	 0.170546903581822 
2213	 0.17049441746545 
2214	 0.170467224763905 
2215	 0.170467702375642 
2216	 0.17044003572634 
2217	 0.170393449123747 
2218	 0.170371750070594 
2219	 0.17034559123958 
2220	 0.170327408851869 
2221	 0.170343920737363 
2222	 0.170340886180366 
2223	 0.170339340430608 
2224	 0.170326471062936 
2225	 0.170302299188307 
2226	 0.170270004590272 
2227	 0.170243980185932 
2228	 0.170194710163455 
2229	 0.170178309066014 
2230	 0.170195279223016 
2231	 0.170181361715155 
2232	 0.170161055129841 
2233	 0.170149203705607 
2234	 0.17013126544122 
2235	 0.170106788518133 
2236	 0.170089465487967 
2237	 0.170067060830043 
2238	 0.170012747385753 
2239	 0.169995247170859 
2240	 0.170002725178438 
2241	 0.170007528077346 
2242	 0.170050852958108 
2243	 0.170054364398883 
2244	 0.170034751079582 
2245	 0.170016767127069 
2246	 0.169989398125769 
2247	 0.169934725708121 
2248	 0.169883407090761 
2249	 0.16982620352328 
2250	 0.169778797382242 
2251	 0.169705267656049 
2252	 0.169693595066135 
2253	 0.169723517930121 
2254	 0.169742072324894 
2255	 0.169803248301562 
2256	 0.169815207385848 
2257	 0.169800992024094 
2258	 0.169800612718828 
2259	 0.169784130703998 
2260	 0.169780601451988 
2261	 0.169785515417386 
2262	 0.169785746946042 
2263	 0.169782387134244 
2264	 0.169783381075742 
2265	 0.169803427491151 
2266	 0.169806995205662 
2267	 0.169802578721645 
2268	 0.169796598538208 
2269	 0.169781406605289 
2270	 0.169747036350993 
2271	 0.169766811431919 
2272	 0.16977471209083 
2273	 0.169749647491194 
2274	 0.169730505884758 
2275	 0.169700932039284 
2276	 0.169636490158205 
2277	 0.169581747358797 
2278	 0.169535249731061 
2279	 0.16949251237987 
2280	 0.169423905980679 
2281	 0.169396200248874 
2282	 0.169408013077888 
2283	 0.169393507201203 
2284	 0.169389720350331 
2285	 0.169369011932423 
2286	 0.169324613298361 
2287	 0.169304913929134 
2288	 0.169281006866141 
2289	 0.169269437739953 
2290	 0.169298905170173 
2291	 0.169287788781821 
2292	 0.169266017151222 
2293	 0.169231890579639 
2294	 0.16916657949335 
2295	 0.169106631039383 
2296	 0.169024872679342 
2297	 0.168968720121335 
2298	 0.16894812306053 
2299	 0.168929241285197 
2300	 0.168933456665289 
2301	 0.168965454386752 
2302	 0.168951786329519 
2303	 0.168904412140543 
2304	 0.168900744320768 
2305	 0.168858235921589 
2306	 0.168826588531608 
2307	 0.168811514091422 
2308	 0.168775703513137 
2309	 0.168716706015072 
2310	 0.168679853416538 
2311	 0.168652494578853 
2312	 0.168610610337602 
2313	 0.168571549535075 
2314	 0.168513611296615 
2315	 0.168431450873172 
2316	 0.168364718201907 
2317	 0.16828433108182 
2318	 0.168230935912972 
2319	 0.168199265843328 
2320	 0.168168332650653 
2321	 0.168161150682211 
2322	 0.168129518171032 
2323	 0.168082506880073 
2324	 0.168052963164632 
2325	 0.168022861922118 
2326	 0.167991381152224 
2327	 0.167981640430833 
2328	 0.167939300737132 
2329	 0.167924301731669 
2330	 0.167919388286983 
2331	 0.167894704851195 
2332	 0.167882258822285 
2333	 0.16783955391835 
2334	 0.167820522420974 
2335	 0.167848733603325 
2336	 0.167847011602092 
2337	 0.167827742298192 
2338	 0.167814534070466 
2339	 0.167768301921049 
2340	 0.167688862684949 
2341	 0.167612849791425 
2342	 0.167501280176797 
2343	 0.167419089899618 
2344	 0.167399171232469 
2345	 0.167332217845255 
2346	 0.167259772713441 
2347	 0.167204107724565 
2348	 0.167133525505764 
2349	 0.167057362185355 
2350	 0.167011758951244 
2351	 0.166942254920937 
2352	 0.166844351203478 
2353	 0.166735534190645 
2354	 0.166604505413079 
2355	 0.166496434744062 
2356	 0.166380660821281 
2357	 0.166289479077591 
2358	 0.166241552456726 
2359	 0.166175214392295 
2360	 0.166069130008472 
2361	 0.16600249480403 
2362	 0.166014764294525 
2363	 0.1659340315959 
2364	 0.165814930529196 
2365	 0.165702999785732 
2366	 0.165522921716048 
2367	 0.165383167162891 
2368	 0.165294430259594 
2369	 0.16518371653637 
2370	 0.165095322205047 
2371	 0.164898127150822 
2372	 0.164750727739682 
2373	 0.164640897528039 
2374	 0.164526858689227 
2375	 0.164432530767415 
2376	 0.164306804343854 
2377	 0.164134364773008 
2378	 0.163986095283921 
2379	 0.163824621641748 
2380	 0.163666998808119 
2381	 0.163574980695105 
2382	 0.163469174479808 
2383	 0.163385418796745 
2384	 0.163308229199369 
2385	 0.163197209772355 
2386	 0.163104973191668 
2387	 0.162967728619991 
2388	 0.162801299667926 
2389	 0.162622478352855 
2390	 0.162480269527227 
2391	 0.162312501126621 
2392	 0.162106950592535 
2393	 0.161973366820741 
2394	 0.161739969127899 
2395	 0.161546008201206 
2396	 0.161427838856568 
2397	 0.161249790467851 
2398	 0.16110484479473 
2399	 0.160962679712001 
2400	 0.160885042691381 
2401	 0.160882508075516 
2402	 0.160896746578354 
2403	 0.160917968729356 
2404	 0.160880062219921 
2405	 0.16078992256768 
2406	 0.16066645133448 
2407	 0.160529428406408 
2408	 0.160396295080015 
2409	 0.160294426791417 
2410	 0.160259234177184 
2411	 0.160221394609873 
2412	 0.160179315081296 
2413	 0.160137652583346 
2414	 0.16009968682619 
2415	 0.160088050599304 
2416	 0.160073717344984 
2417	 0.160097789739894 
2418	 0.160155281925615 
2419	 0.160212057775447 
2420	 0.160241887742501 
2421	 0.160304578482025 
2422	 0.160280067316364 
2423	 0.160176273487569 
2424	 0.160125001415315 
2425	 0.160090847321017 
2426	 0.16003273448617 
2427	 0.159994969921387 
2428	 0.159930318525712 
2429	 0.159783571740792 
2430	 0.159720778458674 
2431	 0.159672553200284 
2432	 0.159645931390639 
2433	 0.159696823753241 
2434	 0.159734032417854 
2435	 0.159774667662126 
2436	 0.15979020874477 
2437	 0.159861524891987 
2438	 0.159785209341824 
2439	 0.159593639919668 
2440	 0.159462489819136 
2441	 0.159234467701141 
2442	 0.159095401739929 
2443	 0.15907847916783 
2444	 0.159017148414722 
2445	 0.15890618770566 
2446	 0.158830369253022 
2447	 0.158782212173334 
2448	 0.158663488199182 
2449	 0.158579410141898 
2450	 0.158459236306159 
2451	 0.158225558816036 
2452	 0.158094965850379 
2453	 0.15797463082624 
2454	 0.157872976536033 
2455	 0.15789074130265 
2456	 0.157829365045964 
2457	 0.157725877344178 
2458	 0.157637504956404 
2459	 0.157489989621448 
2460	 0.157395154892924 
2461	 0.157367994215194 
2462	 0.157279906827779 
2463	 0.157193382001165 
2464	 0.157080879002988 
2465	 0.15690555426067 
2466	 0.156725174561504 
2467	 0.156547374076452 
2468	 0.156381659909811 
2469	 0.156168454621781 
2470	 0.156064475072751 
2471	 0.155986565173388 
2472	 0.155904148239029 
2473	 0.155878936996263 
2474	 0.15583219716899 
2475	 0.155678107356571 
2476	 0.155473285871411 
2477	 0.155337122954662 
2478	 0.15520270403566 
2479	 0.154980038351723 
2480	 0.154975398372076 
2481	 0.155037307150793 
2482	 0.154898080045749 
2483	 0.154795297636228 
2484	 0.154660080171547 
2485	 0.154320537484066 
2486	 0.154056400372506 
2487	 0.154032715629264 
2488	 0.153951508917367 
2489	 0.153770731909226 
2490	 0.153706517244081 
2491	 0.153642631832537 
2492	 0.153516080743498 
2493	 0.153519637718563 
2494	 0.153505731723061 
2495	 0.153383915300206 
2496	 0.153299996224388 
2497	 0.153246936598406 
2498	 0.153284811115511 
2499	 0.153213311673282 
2500	 0.153023333619623 
