Wavelength	LMW600001.asd
350	 0.104463347124688 
351	 0.101837335767078 
352	 0.101093299343803 
353	 0.100788865759834 
354	 0.108907565345934 
355	 0.112573434159799 
356	 0.112650462914612 
357	 0.112457909128302 
358	 0.110125595975464 
359	 0.108954653423172 
360	 0.109003172199305 
361	 0.108296210223358 
362	 0.107091603759557 
363	 0.107120166840616 
364	 0.109031172898727 
365	 0.111727816969249 
366	 0.113452400274702 
367	 0.11350552990937 
368	 0.112363936404887 
369	 0.113595874494923 
370	 0.112886093342901 
371	 0.110355615309891 
372	 0.109296497197897 
373	 0.110571252348044 
374	 0.112201875042449 
375	 0.113331920634928 
376	 0.116013665175308 
377	 0.11460637175687 
378	 0.113541253690552 
379	 0.117293025061212 
380	 0.117174422608261 
381	 0.115669444147505 
382	 0.115390040332773 
383	 0.118220413497332 
384	 0.119566571961105 
385	 0.119558452604516 
386	 0.119185982698961 
387	 0.119514281518334 
388	 0.120909692672279 
389	 0.122362574093218 
390	 0.122498483750052 
391	 0.120108957870908 
392	 0.121172885964711 
393	 0.124593497258378 
394	 0.123604542415851 
395	 0.124223680743156 
396	 0.124726913474747 
397	 0.124117466506821 
398	 0.12585046347563 
399	 0.12634681345588 
400	 0.126750760775519 
401	 0.129002415661582 
402	 0.12926970285045 
403	 0.129401762720629 
404	 0.130211742771035 
405	 0.131093382175969 
406	 0.131472483057741 
407	 0.132401904695081 
408	 0.134025496063941 
409	 0.133245015993492 
410	 0.132847454715701 
411	 0.133379280692414 
412	 0.134317634678287 
413	 0.135949506733532 
414	 0.137255436585076 
415	 0.137688467751818 
416	 0.137371233120551 
417	 0.137908796137428 
418	 0.138831684480807 
419	 0.13943068037717 
420	 0.140184800624581 
421	 0.140596430057598 
422	 0.14096189757713 
423	 0.141981416284925 
424	 0.142851397166178 
425	 0.143590369811574 
426	 0.144196376022689 
427	 0.144405303718805 
428	 0.144463414599832 
429	 0.144745983339331 
430	 0.145469737452556 
431	 0.145943354487026 
432	 0.146256494517769 
433	 0.146596362291775 
434	 0.147177514364845 
435	 0.147556833978306 
436	 0.147817888273375 
437	 0.148069201771478 
438	 0.148120771419815 
439	 0.148686458375393 
440	 0.149452958301856 
441	 0.14969199430068 
442	 0.149878888196463 
443	 0.150331107368008 
444	 0.150929214865205 
445	 0.150918172908867 
446	 0.151234296025665 
447	 0.151775154941611 
448	 0.152206171825167 
449	 0.152582693397736 
450	 0.153022252697296 
451	 0.153486276179486 
452	 0.153804886437168 
453	 0.153924503925121 
454	 0.154100120671492 
455	 0.154503713658119 
456	 0.155016339046014 
457	 0.155326259117258 
458	 0.155514065949558 
459	 0.15582982175219 
460	 0.156228522229915 
461	 0.156577408476641 
462	 0.15687047728206 
463	 0.157291318476964 
464	 0.15759694808597 
465	 0.157922691816103 
466	 0.15840252906656 
467	 0.15871937214292 
468	 0.159143433798885 
469	 0.15958753057413 
470	 0.159704629220482 
471	 0.159935502040537 
472	 0.16022494873487 
473	 0.160498995414163 
474	 0.160854616644529 
475	 0.161182192417289 
476	 0.161452010735385 
477	 0.161683606863747 
478	 0.161942687280399 
479	 0.162323970120407 
480	 0.162775652762322 
481	 0.163042611267545 
482	 0.163498155476882 
483	 0.163954306539473 
484	 0.164176995057447 
485	 0.164382214618924 
486	 0.164729506663995 
487	 0.165147779585105 
488	 0.165390181418142 
489	 0.165576644032513 
490	 0.165838070656303 
491	 0.166210371151146 
492	 0.166489297425107 
493	 0.166838678199814 
494	 0.167223941668895 
495	 0.167535198744896 
496	 0.167863843250576 
497	 0.168083415578397 
498	 0.168251341140651 
499	 0.168732367182069 
500	 0.169077425643257 
501	 0.169266427408281 
502	 0.169416052400232 
503	 0.169606279609183 
504	 0.169922861348327 
505	 0.170281653465089 
506	 0.17046274663388 
507	 0.170699175331298 
508	 0.17092237068426 
509	 0.171092762303947 
510	 0.171414769194012 
511	 0.171708870117476 
512	 0.171961762564949 
513	 0.172236536141499 
514	 0.172419126095999 
515	 0.172575913607256 
516	 0.172774388440698 
517	 0.173053408279487 
518	 0.173345487243406 
519	 0.173573411134195 
520	 0.173715464232914 
521	 0.174045678264564 
522	 0.174295861791545 
523	 0.174420902417935 
524	 0.174635793452762 
525	 0.174878682640347 
526	 0.17513360107914 
527	 0.175383008675032 
528	 0.175586832551617 
529	 0.175752652975319 
530	 0.175917584965907 
531	 0.17612971765171 
532	 0.176318269185496 
533	 0.176512219200545 
534	 0.17674052306163 
535	 0.177015285011695 
536	 0.177214307073633 
537	 0.177372203545696 
538	 0.177567361945022 
539	 0.177688688052834 
540	 0.177846586237203 
541	 0.178074264442017 
542	 0.178283269907259 
543	 0.178455942964254 
544	 0.178647177903222 
545	 0.178893013087601 
546	 0.179074487541848 
547	 0.179155811321504 
548	 0.179259036815308 
549	 0.179609353929625 
550	 0.179794965431988 
551	 0.179914944720894 
552	 0.180101765512881 
553	 0.180322457249275 
554	 0.180508762624384 
555	 0.180652085437005 
556	 0.180788193934847 
557	 0.18102279223977 
558	 0.1812386402638 
559	 0.181394321382187 
560	 0.181636603067218 
561	 0.181734222079118 
562	 0.18178505664958 
563	 0.181955507575732 
564	 0.182112133977319 
565	 0.182201027317916 
566	 0.182259110967773 
567	 0.182416309502543 
568	 0.182626353243248 
569	 0.18287686490014 
570	 0.18314471759093 
571	 0.183365593272373 
572	 0.183501351492566 
573	 0.183594722469521 
574	 0.183733990796777 
575	 0.183781138909214 
576	 0.183860520838978 
577	 0.184039971242856 
578	 0.184192391307986 
579	 0.184234736081862 
580	 0.184230703282054 
581	 0.184303693612418 
582	 0.184456437079 
583	 0.184520614286419 
584	 0.184505139995116 
585	 0.18469102370134 
586	 0.184919618776918 
587	 0.185110550490571 
588	 0.185225835933515 
589	 0.185317768350548 
590	 0.185410165104524 
591	 0.185534014675558 
592	 0.185719260899648 
593	 0.185822777737784 
594	 0.185871295067712 
595	 0.185910873971218 
596	 0.185937455258231 
597	 0.185958512722287 
598	 0.18596865717079 
599	 0.185961816830508 
600	 0.185990782774118 
601	 0.186046300142804 
602	 0.186108252020436 
603	 0.186156350798151 
604	 0.186123603703666 
605	 0.186121660371632 
606	 0.186279357134682 
607	 0.186444706445573 
608	 0.186558520175387 
609	 0.186655429341812 
610	 0.186865953265871 
611	 0.186992086164464 
612	 0.187045136040567 
613	 0.187090557793217 
614	 0.187190594461447 
615	 0.187265322539452 
616	 0.187317641825164 
617	 0.187402593311958 
618	 0.187450477636547 
619	 0.18748620763732 
620	 0.187538068088323 
621	 0.187616090944125 
622	 0.187664622768225 
623	 0.187695361825388 
624	 0.187745507778886 
625	 0.187811031585894 
626	 0.187884014514857 
627	 0.18794717853249 
628	 0.187971864450928 
629	 0.188008993438892 
630	 0.188057130773381 
631	 0.188101842751621 
632	 0.188140525055895 
633	 0.188170670357521 
634	 0.188220409614161 
635	 0.188333613445253 
636	 0.188390464397482 
637	 0.188448281188514 
638	 0.188541792870997 
639	 0.188569896893639 
640	 0.188590158832878 
641	 0.188641798842523 
642	 0.188744605019045 
643	 0.188835680255969 
644	 0.188896532065633 
645	 0.188936435855342 
646	 0.188996920160993 
647	 0.18904952370019 
648	 0.189101798041939 
649	 0.189171830269794 
650	 0.189285679196327 
651	 0.189350758469764 
652	 0.189371778394869 
653	 0.189436979621186 
654	 0.189504657524671 
655	 0.189562962987217 
656	 0.189612408575132 
657	 0.189666691654257 
658	 0.18977657839672 
659	 0.189874289153622 
660	 0.189864844687801 
661	 0.189925823128938 
662	 0.189999485551483 
663	 0.190059398662332 
664	 0.190159573816162 
665	 0.190219090165602 
666	 0.190255366558651 
667	 0.190301521197636 
668	 0.190314236625366 
669	 0.190417364607479 
670	 0.190554109056226 
671	 0.190532994622654 
672	 0.190573386585575 
673	 0.190644515237364 
674	 0.190701954802636 
675	 0.190781078993751 
676	 0.190815521278374 
677	 0.190819771967316 
678	 0.190847102832118 
679	 0.190941094032242 
680	 0.191011517550911 
681	 0.191029343531498 
682	 0.191059709736852 
683	 0.19111812521724 
684	 0.191161798278709 
685	 0.191173365549222 
686	 0.191301625069612 
687	 0.191345538906756 
688	 0.191314844810587 
689	 0.191363654316938 
690	 0.191412154907849 
691	 0.19143016221232 
692	 0.191429752034353 
693	 0.191495885799004 
694	 0.191568846609068 
695	 0.191591938862146 
696	 0.191541180006437 
697	 0.191555545700018 
698	 0.191609496725942 
699	 0.191674408319254 
700	 0.191729283143524 
701	 0.191730010244042 
702	 0.191726600191646 
703	 0.191759340492701 
704	 0.191784517347585 
705	 0.191775894010526 
706	 0.191782883213243 
707	 0.1918710131309 
708	 0.191890433182501 
709	 0.191842896545531 
710	 0.191789791182382 
711	 0.191853673279359 
712	 0.19186512431355 
713	 0.191835545049456 
714	 0.191823822255545 
715	 0.191864460582328 
716	 0.191863867125266 
717	 0.191848142186254 
718	 0.191914364778652 
719	 0.191873713295732 
720	 0.191825447748704 
721	 0.191824123591666 
722	 0.191749432286132 
723	 0.191742822147853 
724	 0.19177877643526 
725	 0.191785378645163 
726	 0.191778522962891 
727	 0.191747578438027 
728	 0.191698765427964 
729	 0.191655071687397 
730	 0.191644815551516 
731	 0.191632664552519 
732	 0.1915957712453 
733	 0.19157141162144 
734	 0.191536034168479 
735	 0.191483168986502 
736	 0.191420669849137 
737	 0.191397765840225 
738	 0.191359325888993 
739	 0.191303997571412 
740	 0.191293518805207 
741	 0.191208342403154 
742	 0.191129648594443 
743	 0.191125251097011 
744	 0.191117727540152 
745	 0.191037568030967 
746	 0.190929347083778 
747	 0.190878687418008 
748	 0.19080509467471 
749	 0.190759092780079 
750	 0.190734146659461 
751	 0.190644971484428 
752	 0.190592894647901 
753	 0.190543488530921 
754	 0.190466397736105 
755	 0.190437317972755 
756	 0.190430335399475 
757	 0.190397506775271 
758	 0.190294983613636 
759	 0.190197297465436 
760	 0.190098803004632 
761	 0.190004294117836 
762	 0.189940036559232 
763	 0.189891358646943 
764	 0.189815503246581 
765	 0.189705983936208 
766	 0.189684964053266 
767	 0.189627098081317 
768	 0.1895254846724 
769	 0.189436857583843 
770	 0.189395912724402 
771	 0.189333617693612 
772	 0.189233853492439 
773	 0.189154490619709 
774	 0.189078023387892 
775	 0.189014008231226 
776	 0.188961428241485 
777	 0.188877256568978 
778	 0.188791689516407 
779	 0.188704603920544 
780	 0.188604934976154 
781	 0.188499718770809 
782	 0.188431035197566 
783	 0.18838185483879 
784	 0.188276610276776 
785	 0.18821472397259 
786	 0.188160199029094 
787	 0.18807194528639 
788	 0.187957927889513 
789	 0.187849572427735 
790	 0.187746195999894 
791	 0.187644462203147 
792	 0.187608057335529 
793	 0.18752489082253 
794	 0.187376906887615 
795	 0.187237374809872 
796	 0.187134504437198 
797	 0.187070297666869 
798	 0.187006743583572 
799	 0.186840778337636 
800	 0.186767175557326 
801	 0.186739101085008 
802	 0.186651806254328 
803	 0.186481536534029 
804	 0.186414116701197 
805	 0.186406056452001 
806	 0.186287460351027 
807	 0.186194673921138 
808	 0.186053061510319 
809	 0.1858883147823 
810	 0.185873861991778 
811	 0.185760182026549 
812	 0.185624571267415 
813	 0.185559437417476 
814	 0.185497095966774 
815	 0.185365003375332 
816	 0.185210868178286 
817	 0.18512089596582 
818	 0.18507635703566 
819	 0.184977103809607 
820	 0.184839673174932 
821	 0.184770522793139 
822	 0.184634096867152 
823	 0.184526460491223 
824	 0.184477458778931 
825	 0.184354626972764 
826	 0.184232429760697 
827	 0.184137036530441 
828	 0.184062047233639 
829	 0.183943684421263 
830	 0.183779946707828 
831	 0.18362259505406 
832	 0.183535074769969 
833	 0.183474621500071 
834	 0.18342378777293 
835	 0.183359007656653 
836	 0.183253399663275 
837	 0.183103374854479 
838	 0.183005596584322 
839	 0.182973211629514 
840	 0.182853845447528 
841	 0.182742109647082 
842	 0.182599436952959 
843	 0.182416754388874 
844	 0.182388833083255 
845	 0.182358665299422 
846	 0.182284237808409 
847	 0.182183712713528 
848	 0.182064491725679 
849	 0.181986762845456 
850	 0.181928320846136 
851	 0.181806246267622 
852	 0.181700509232754 
853	 0.181628791332371 
854	 0.181564776580892 
855	 0.181435967389247 
856	 0.181349001269549 
857	 0.181269650829976 
858	 0.181161285470402 
859	 0.181067561241851 
860	 0.180987677618264 
861	 0.18090003421065 
862	 0.18078812848444 
863	 0.180690463953855 
864	 0.180632726364077 
865	 0.180585409750327 
866	 0.180490926991544 
867	 0.180346052096988 
868	 0.180279145832025 
869	 0.180275728881604 
870	 0.180175696285824 
871	 0.180037496366627 
872	 0.179919648969418 
873	 0.179856858191407 
874	 0.179842283756722 
875	 0.179801014107299 
876	 0.179685614089573 
877	 0.179517395758529 
878	 0.179457186075505 
879	 0.179492164539102 
880	 0.179469540655524 
881	 0.179276535961242 
882	 0.179169923361207 
883	 0.179147262475123 
884	 0.17911302699649 
885	 0.178971369815814 
886	 0.178954083193588 
887	 0.178915878171968 
888	 0.178825730461014 
889	 0.178764612907318 
890	 0.178663861535343 
891	 0.17856608904012 
892	 0.178522808684881 
893	 0.178564607452628 
894	 0.178449612953099 
895	 0.178334087038653 
896	 0.178323862230321 
897	 0.178289166184705 
898	 0.178212494887641 
899	 0.178131071683007 
900	 0.178079882492976 
901	 0.178037580898716 
902	 0.178024764640153 
903	 0.177993914225537 
904	 0.177900634219469 
905	 0.177785859430518 
906	 0.177797941557344 
907	 0.177831191307501 
908	 0.17771892405267 
909	 0.177673523783445 
910	 0.17759119358323 
911	 0.177516379420885 
912	 0.177557408953336 
913	 0.177508352507809 
914	 0.177399370156457 
915	 0.177311987023944 
916	 0.177326342864867 
917	 0.17725840015181 
918	 0.177274301874485 
919	 0.177378737232614 
920	 0.177354038703804 
921	 0.177234674971563 
922	 0.177124618899435 
923	 0.177068882222243 
924	 0.177006456967872 
925	 0.177018973102154 
926	 0.177055117454607 
927	 0.1770494324022 
928	 0.176967919355971 
929	 0.176961811725776 
930	 0.176994252250602 
931	 0.177001953718857 
932	 0.176986014829397 
933	 0.176947378808219 
934	 0.176908426052405 
935	 0.176880059337838 
936	 0.176820053925758 
937	 0.176796637691122 
938	 0.176746976680338 
939	 0.176634062618802 
940	 0.17666229607571 
941	 0.176651308183396 
942	 0.176673848241695 
943	 0.1768226298771 
944	 0.176873864793858 
945	 0.176781000810722 
946	 0.176669594699442 
947	 0.176680598542079 
948	 0.176644563532476 
949	 0.176611139113668 
950	 0.17657837805774 
951	 0.176539609686599 
952	 0.176611082981505 
953	 0.176654624428293 
954	 0.176627750308097 
955	 0.176581690728697 
956	 0.176686604062395 
957	 0.176712687953447 
958	 0.176637958092691 
959	 0.176583133946852 
960	 0.176573754874129 
961	 0.176619633070567 
962	 0.176673634023713 
963	 0.176663816798301 
964	 0.176580973484082 
965	 0.176561233549757 
966	 0.176608582058287 
967	 0.176641933316459 
968	 0.176715527627945 
969	 0.176749889159311 
970	 0.1767350296945 
971	 0.176717284231285 
972	 0.17671880083616 
973	 0.176755832099581 
974	 0.17680900825946 
975	 0.176844884040961 
976	 0.176900316507087 
977	 0.176892698679314 
978	 0.176860052407883 
979	 0.17689146587349 
980	 0.176865296036315 
981	 0.176833950808722 
982	 0.176781460237128 
983	 0.176699591340051 
984	 0.17689074105843 
985	 0.176930422715384 
986	 0.176846457600979 
987	 0.176896964442595 
988	 0.176945898025064 
989	 0.176941142571067 
990	 0.176913078271424 
991	 0.1769321246336 
992	 0.177041097414371 
993	 0.177012786311592 
994	 0.177025400790735 
995	 0.177275571399885 
996	 0.177242941844974 
997	 0.177266837425547 
998	 0.177300266281363 
999	 0.177219959933654 
1000	 0.177217738041751 
1001	 0.17894637901919 
1002	 0.178945586551583 
1003	 0.178963265533992 
1004	 0.178975355733323 
1005	 0.178995501121958 
1006	 0.179011108170702 
1007	 0.179022499896142 
1008	 0.179030593672145 
1009	 0.179040938202247 
1010	 0.179065010613891 
1011	 0.179093704125479 
1012	 0.179102419269668 
1013	 0.179106475994528 
1014	 0.179133170670187 
1015	 0.179157804197494 
1016	 0.17919348333702 
1017	 0.179226836751049 
1018	 0.179268984978183 
1019	 0.179303791974377 
1020	 0.179334438024099 
1021	 0.179322383714847 
1022	 0.179302810915115 
1023	 0.179297748778246 
1024	 0.179318173476841 
1025	 0.179352465337805 
1026	 0.17934279830012 
1027	 0.179318744262457 
1028	 0.179284145792294 
1029	 0.179215333338695 
1030	 0.179164583860836 
1031	 0.179162314976689 
1032	 0.179197485250665 
1033	 0.179228740104076 
1034	 0.179255593276847 
1035	 0.179292468324495 
1036	 0.179289148460074 
1037	 0.179203643285676 
1038	 0.179153766297313 
1039	 0.179158124015044 
1040	 0.179092225543869 
1041	 0.179118518123998 
1042	 0.179205634002593 
1043	 0.179225926582534 
1044	 0.179260210566338 
1045	 0.179332119982742 
1046	 0.179368168456229 
1047	 0.179407183703811 
1048	 0.179474393100924 
1049	 0.179533493329959 
1050	 0.17962235815206 
1051	 0.179637160039473 
1052	 0.179629214449371 
1053	 0.179695856983152 
1054	 0.17977824796787 
1055	 0.179869280852538 
1056	 0.179955579310798 
1057	 0.180035432925697 
1058	 0.180102448262457 
1059	 0.180171437160859 
1060	 0.180227118223159 
1061	 0.180309703862899 
1062	 0.180412686379912 
1063	 0.180480062300197 
1064	 0.180565961725145 
1065	 0.180610197755176 
1066	 0.18062381483152 
1067	 0.180658471827426 
1068	 0.180657521708999 
1069	 0.18069780171893 
1070	 0.180758665080249 
1071	 0.180861174695125 
1072	 0.180916037180662 
1073	 0.180983637339828 
1074	 0.181021100016005 
1075	 0.181019761894609 
1076	 0.181010132526298 
1077	 0.181048891445757 
1078	 0.181098607267076 
1079	 0.181110356164224 
1080	 0.181097873345334 
1081	 0.181094264167826 
1082	 0.181094800976281 
1083	 0.181081409389791 
1084	 0.18108724342935 
1085	 0.18109046218921 
1086	 0.181052926104753 
1087	 0.181039493843038 
1088	 0.181049246259455 
1089	 0.181071029845155 
1090	 0.181070110147072 
1091	 0.181064023398187 
1092	 0.181025252162775 
1093	 0.180978843709366 
1094	 0.1809441909506 
1095	 0.180931397637274 
1096	 0.180932775596634 
1097	 0.180925995993479 
1098	 0.180916606075879 
1099	 0.180892437991831 
1100	 0.180870870302504 
1101	 0.18085007547163 
1102	 0.180844575377441 
1103	 0.18085645409201 
1104	 0.18083102188742 
1105	 0.180810720509507 
1106	 0.180793632016558 
1107	 0.180743001303353 
1108	 0.180713387021591 
1109	 0.180750161762959 
1110	 0.180780841365436 
1111	 0.180796757509848 
1112	 0.180828284559332 
1113	 0.180846841053431 
1114	 0.180834724225969 
1115	 0.180847280992376 
1116	 0.18087317459445 
1117	 0.180901634962003 
1118	 0.18094658467262 
1119	 0.180966380797114 
1120	 0.180995089812168 
1121	 0.181007389486045 
1122	 0.181006386094816 
1123	 0.180996440429982 
1124	 0.181001352378458 
1125	 0.181005556281782 
1126	 0.181028040929363 
1127	 0.181072191236697 
1128	 0.181097947732602 
1129	 0.181114665847555 
1130	 0.181146847933115 
1131	 0.18118772932049 
1132	 0.181217224327802 
1133	 0.181266317380975 
1134	 0.181290079747169 
1135	 0.181293435364501 
1136	 0.181281419430211 
1137	 0.181270347552618 
1138	 0.181269059868475 
1139	 0.181271694715985 
1140	 0.181270319388726 
1141	 0.181289372732655 
1142	 0.181340210329227 
1143	 0.18135128655 
1144	 0.181357394603337 
1145	 0.181359694999907 
1146	 0.181321865211123 
1147	 0.181315578103211 
1148	 0.181346626716401 
1149	 0.181345331062395 
1150	 0.181324634505865 
1151	 0.181322734232519 
1152	 0.181315513274572 
1153	 0.181307406992282 
1154	 0.181300363738171 
1155	 0.181311420063526 
1156	 0.181305222825406 
1157	 0.181289657392668 
1158	 0.181265336260347 
1159	 0.181231920343418 
1160	 0.181206152839254 
1161	 0.181160502821831 
1162	 0.181139032762811 
1163	 0.1811433714103 
1164	 0.181137700660591 
1165	 0.18114081758899 
1166	 0.181132178195102 
1167	 0.181132219482241 
1168	 0.181114218046483 
1169	 0.181092313216456 
1170	 0.181060883866987 
1171	 0.181041343643355 
1172	 0.181010073129566 
1173	 0.180996867895202 
1174	 0.181001886903814 
1175	 0.180998259772639 
1176	 0.180997159902255 
1177	 0.180997142490978 
1178	 0.180995715677025 
1179	 0.180996998685394 
1180	 0.180999649235236 
1181	 0.18100426672723 
1182	 0.181016817869103 
1183	 0.181022943885017 
1184	 0.181021512555788 
1185	 0.181011247184281 
1186	 0.181018755453287 
1187	 0.181020287157258 
1188	 0.181037687741374 
1189	 0.181081585515005 
1190	 0.181105574896113 
1191	 0.181129248250427 
1192	 0.181145673801574 
1193	 0.181147022352649 
1194	 0.181161150999378 
1195	 0.181174416993125 
1196	 0.181192316872664 
1197	 0.181220063825235 
1198	 0.18124630302323 
1199	 0.181273470963535 
1200	 0.181298980961507 
1201	 0.181333054073032 
1202	 0.181382105657837 
1203	 0.181403859780153 
1204	 0.181414866889873 
1205	 0.181433448046436 
1206	 0.181431922795617 
1207	 0.181450506109696 
1208	 0.181499160439193 
1209	 0.181519920333688 
1210	 0.181526355230528 
1211	 0.181539528999442 
1212	 0.181536668400539 
1213	 0.181548156378433 
1214	 0.181580664657957 
1215	 0.18160023794569 
1216	 0.181616838279885 
1217	 0.181632522731053 
1218	 0.181648026102134 
1219	 0.181653453172461 
1220	 0.181671189708275 
1221	 0.181700093801004 
1222	 0.181718425972206 
1223	 0.181736162413398 
1224	 0.18175202101675 
1225	 0.181758790777262 
1226	 0.181774150337123 
1227	 0.181795237499217 
1228	 0.181813434942656 
1229	 0.181827085136443 
1230	 0.181850933387015 
1231	 0.18188891169123 
1232	 0.181913208961466 
1233	 0.181934650087351 
1234	 0.181961738239616 
1235	 0.181977146097588 
1236	 0.181971863520164 
1237	 0.181985719937137 
1238	 0.182009803654901 
1239	 0.182024700193934 
1240	 0.182042923791392 
1241	 0.182055862143995 
1242	 0.182062313175932 
1243	 0.182067543676183 
1244	 0.182069590981811 
1245	 0.182073169475959 
1246	 0.182076133593132 
1247	 0.182076005784419 
1248	 0.182078780284948 
1249	 0.182071136926283 
1250	 0.182064758674692 
1251	 0.182077562998418 
1252	 0.182090931490718 
1253	 0.182119103157479 
1254	 0.18213483665632 
1255	 0.182151278835328 
1256	 0.182162593417769 
1257	 0.182166881225121 
1258	 0.182176056652437 
1259	 0.182191902523861 
1260	 0.182193191542306 
1261	 0.182185078692507 
1262	 0.182180976715576 
1263	 0.182162383733486 
1264	 0.18215790260473 
1265	 0.182173699525105 
1266	 0.18217454566152 
1267	 0.182177987805857 
1268	 0.182171333618366 
1269	 0.182153135183831 
1270	 0.182110386217048 
1271	 0.182101032499257 
1272	 0.182087151090234 
1273	 0.182097948450761 
1274	 0.182136486774294 
1275	 0.182173633801891 
1276	 0.18221431039875 
1277	 0.182272813449416 
1278	 0.182356748026689 
1279	 0.182423730017102 
1280	 0.182494577852856 
1281	 0.182568838425507 
1282	 0.18263170117955 
1283	 0.182705760408199 
1284	 0.182797397683941 
1285	 0.18287733316426 
1286	 0.182964415983051 
1287	 0.183058608472382 
1288	 0.183153736165794 
1289	 0.183258208543743 
1290	 0.183353197352419 
1291	 0.183452242455146 
1292	 0.183533530307863 
1293	 0.183592313379525 
1294	 0.183675884079093 
1295	 0.18376417942883 
1296	 0.183847844705214 
1297	 0.18395404068814 
1298	 0.184034247524365 
1299	 0.184096081518885 
1300	 0.184153170806187 
1301	 0.184209342788661 
1302	 0.184245209926426 
1303	 0.184265629401969 
1304	 0.184277232958111 
1305	 0.1842669375311 
1306	 0.184253420356272 
1307	 0.184230450775223 
1308	 0.184199072119188 
1309	 0.184184375482848 
1310	 0.184177437474656 
1311	 0.184156393324618 
1312	 0.184146976419393 
1313	 0.184117583525737 
1314	 0.184065208329743 
1315	 0.184021966647504 
1316	 0.183966951002298 
1317	 0.183930618759338 
1318	 0.183895981400527 
1319	 0.183874133815854 
1320	 0.18388878542748 
1321	 0.183870554687996 
1322	 0.183842234223647 
1323	 0.183811556893102 
1324	 0.18377281738362 
1325	 0.183712798168825 
1326	 0.183661911961287 
1327	 0.183631180364027 
1328	 0.183588525352923 
1329	 0.183571263115647 
1330	 0.183550715086558 
1331	 0.183534563068423 
1332	 0.183529182633012 
1333	 0.183528671446658 
1334	 0.183532768343476 
1335	 0.183548086204891 
1336	 0.18357042327745 
1337	 0.183602949846919 
1338	 0.183625481659774 
1339	 0.183656877457612 
1340	 0.183680335886731 
1341	 0.183686277667507 
1342	 0.183703003488128 
1343	 0.183733370672776 
1344	 0.183744181326923 
1345	 0.183754166303524 
1346	 0.183794822454187 
1347	 0.183824675318541 
1348	 0.183851516387402 
1349	 0.183889921911896 
1350	 0.183915785866439 
1351	 0.183941607690959 
1352	 0.183961275898904 
1353	 0.184000454949284 
1354	 0.184045600041188 
1355	 0.184082952219094 
1356	 0.184135714481829 
1357	 0.184171517417489 
1358	 0.184186713068808 
1359	 0.184217855427384 
1360	 0.184253406233721 
1361	 0.184287538881485 
1362	 0.184326578236988 
1363	 0.184362038538054 
1364	 0.184398185139212 
1365	 0.184430764184423 
1366	 0.184462090796238 
1367	 0.184485770656929 
1368	 0.184521274445757 
1369	 0.184548711278793 
1370	 0.184565488062841 
1371	 0.184588001915781 
1372	 0.184593758817196 
1373	 0.184585948357815 
1374	 0.184583560676023 
1375	 0.184583629507701 
1376	 0.184573928349981 
1377	 0.184558657160932 
1378	 0.184542474654392 
1379	 0.184514993520366 
1380	 0.184499001508502 
1381	 0.184485590298859 
1382	 0.184475352126303 
1383	 0.184472761543616 
1384	 0.184465305424797 
1385	 0.184458700740331 
1386	 0.184450665285082 
1387	 0.184451044119442 
1388	 0.184437490003798 
1389	 0.184416688688566 
1390	 0.184386669815019 
1391	 0.184364971974482 
1392	 0.184324616456316 
1393	 0.184278782399619 
1394	 0.184246643480536 
1395	 0.184202645494917 
1396	 0.184158903992501 
1397	 0.184122236830226 
1398	 0.184096757999288 
1399	 0.184061988032106 
1400	 0.184026084397764 
1401	 0.183983807912082 
1402	 0.183937848193362 
1403	 0.183894057136621 
1404	 0.183844122791207 
1405	 0.183800194460131 
1406	 0.183760940420646 
1407	 0.183718732148222 
1408	 0.183673858310077 
1409	 0.183636941482118 
1410	 0.183603384419648 
1411	 0.183569404855993 
1412	 0.183544322941347 
1413	 0.183507112159851 
1414	 0.183473682151238 
1415	 0.183442098358808 
1416	 0.183406602995468 
1417	 0.183394889762193 
1418	 0.18337254553059 
1419	 0.183345252520839 
1420	 0.18333140091651 
1421	 0.183305567783033 
1422	 0.183286761665997 
1423	 0.183281274183614 
1424	 0.183274444489065 
1425	 0.183274844768094 
1426	 0.183263502887319 
1427	 0.183249628653875 
1428	 0.183237384852771 
1429	 0.183214646992761 
1430	 0.183201786691369 
1431	 0.183199566356748 
1432	 0.183189117002569 
1433	 0.183172457179966 
1434	 0.183165729604889 
1435	 0.183157588909018 
1436	 0.183159357948033 
1437	 0.183173968265002 
1438	 0.183184164977281 
1439	 0.183199841635304 
1440	 0.183212414893227 
1441	 0.183215313992776 
1442	 0.183211819606118 
1443	 0.183201128654443 
1444	 0.183202439603612 
1445	 0.183223107554181 
1446	 0.183256002159562 
1447	 0.183292585777475 
1448	 0.183320516964505 
1449	 0.183337386786968 
1450	 0.183350143925714 
1451	 0.183365638995571 
1452	 0.183374964303669 
1453	 0.183405368822866 
1454	 0.18344658529454 
1455	 0.183477742245735 
1456	 0.183531963837654 
1457	 0.183547965655545 
1458	 0.183535877697487 
1459	 0.183536958173263 
1460	 0.183520367249952 
1461	 0.183517353188005 
1462	 0.1835242956857 
1463	 0.183528522164985 
1464	 0.183537065859933 
1465	 0.183541385619466 
1466	 0.183547064601003 
1467	 0.183547774599669 
1468	 0.183540364875771 
1469	 0.183537768899302 
1470	 0.183532910200602 
1471	 0.183535602932545 
1472	 0.183529186492396 
1473	 0.183530420127237 
1474	 0.183540902526576 
1475	 0.183540326164941 
1476	 0.183541950995739 
1477	 0.183543900167714 
1478	 0.183551457719591 
1479	 0.183549724782077 
1480	 0.183536255597366 
1481	 0.183536883330412 
1482	 0.18352413390411 
1483	 0.183492256935758 
1484	 0.183472235285016 
1485	 0.183447812306762 
1486	 0.183441172740858 
1487	 0.183441544489963 
1488	 0.183451651375921 
1489	 0.183488518383136 
1490	 0.183503953825345 
1491	 0.18350787400528 
1492	 0.183519132654734 
1493	 0.183530208727414 
1494	 0.183541989526719 
1495	 0.183566091080006 
1496	 0.183575223957216 
1497	 0.183575100665983 
1498	 0.183567727848051 
1499	 0.183544446547586 
1500	 0.183531498360518 
1501	 0.183515466108141 
1502	 0.183503890871904 
1503	 0.183491711143875 
1504	 0.183495999930093 
1505	 0.183506778548363 
1506	 0.183518695320411 
1507	 0.183542785907623 
1508	 0.183548041674574 
1509	 0.183518071905312 
1510	 0.183504032438765 
1511	 0.183489215565927 
1512	 0.183468336964792 
1513	 0.183481383715337 
1514	 0.18348087764372 
1515	 0.183473592791343 
1516	 0.183488205705961 
1517	 0.183482872782395 
1518	 0.18346911306192 
1519	 0.183457883673004 
1520	 0.183431334523169 
1521	 0.183426162449412 
1522	 0.183437781464504 
1523	 0.183433173373005 
1524	 0.183433964401565 
1525	 0.183429050969459 
1526	 0.183403775386017 
1527	 0.183398449020131 
1528	 0.183407567515314 
1529	 0.183408446058079 
1530	 0.183410607263848 
1531	 0.183413327600787 
1532	 0.183411714235564 
1533	 0.183417906255245 
1534	 0.183431884639209 
1535	 0.183443194313079 
1536	 0.18345925093228 
1537	 0.183468071836222 
1538	 0.183474748155045 
1539	 0.183476429128051 
1540	 0.183469317598875 
1541	 0.183467389947576 
1542	 0.183460043279096 
1543	 0.183461090477828 
1544	 0.183474946913804 
1545	 0.183478495474094 
1546	 0.18347905388945 
1547	 0.183481356136363 
1548	 0.183478057783633 
1549	 0.183481235145615 
1550	 0.18349033489732 
1551	 0.183500994609206 
1552	 0.183508495939388 
1553	 0.183507547338774 
1554	 0.183507694947553 
1555	 0.183500183845009 
1556	 0.183495367745316 
1557	 0.183503768574305 
1558	 0.183497974363513 
1559	 0.183491238833681 
1560	 0.183476456157155 
1561	 0.18344317252319 
1562	 0.183430277932096 
1563	 0.183419885494002 
1564	 0.183419231501169 
1565	 0.183434098375864 
1566	 0.18344269043647 
1567	 0.183454591747709 
1568	 0.183462373321078 
1569	 0.183471362042577 
1570	 0.183471752290536 
1571	 0.183474097533303 
1572	 0.183459536795752 
1573	 0.183432382365073 
1574	 0.183403033777599 
1575	 0.183347689630582 
1576	 0.183324438881139 
1577	 0.183318735774371 
1578	 0.183303515409956 
1579	 0.183300298479622 
1580	 0.183289686812628 
1581	 0.183271579349806 
1582	 0.183250985972438 
1583	 0.183229862580625 
1584	 0.183212015779125 
1585	 0.183182827857716 
1586	 0.183167138184931 
1587	 0.183164461498768 
1588	 0.183160832033482 
1589	 0.183163720868474 
1590	 0.183161200435927 
1591	 0.183163003314397 
1592	 0.183156243616844 
1593	 0.183141479767234 
1594	 0.183127722000214 
1595	 0.183104518470124 
1596	 0.183088921188244 
1597	 0.183083056176529 
1598	 0.183069425864702 
1599	 0.183054950731248 
1600	 0.18303965021621 
1601	 0.183013353182281 
1602	 0.182994883249605 
1603	 0.182977535201483 
1604	 0.182969305795665 
1605	 0.18297236085513 
1606	 0.18297085611372 
1607	 0.182974154381417 
1608	 0.182979166319099 
1609	 0.182968285364436 
1610	 0.182963560349444 
1611	 0.182949968839834 
1612	 0.182937112420393 
1613	 0.182932119286394 
1614	 0.182919134259455 
1615	 0.182893888392267 
1616	 0.182864990963056 
1617	 0.182847984102901 
1618	 0.182825749167898 
1619	 0.182821172752569 
1620	 0.182830021798786 
1621	 0.182822294049555 
1622	 0.18280492719011 
1623	 0.182795852414227 
1624	 0.182789842109297 
1625	 0.18277286171687 
1626	 0.182747109607775 
1627	 0.182740540548761 
1628	 0.182733564073164 
1629	 0.182731107124827 
1630	 0.182751322848516 
1631	 0.182745764089812 
1632	 0.182724579016638 
1633	 0.18271188755787 
1634	 0.182692555867213 
1635	 0.18268460435561 
1636	 0.182685583753059 
1637	 0.182677270795821 
1638	 0.182672038433702 
1639	 0.182659088084897 
1640	 0.182631573714062 
1641	 0.182623885889275 
1642	 0.182624313613591 
1643	 0.182620657350474 
1644	 0.182626063082566 
1645	 0.182624516270142 
1646	 0.182618293328646 
1647	 0.182609812862937 
1648	 0.182600805666155 
1649	 0.182590776343259 
1650	 0.182576633734577 
1651	 0.182560332169451 
1652	 0.182546668093237 
1653	 0.182525827189427 
1654	 0.18249180029166 
1655	 0.182472062332646 
1656	 0.182448940895813 
1657	 0.182444662118877 
1658	 0.182464866299561 
1659	 0.182462175140714 
1660	 0.182460963527962 
1661	 0.182455024795504 
1662	 0.182434620759817 
1663	 0.182418287001422 
1664	 0.182399501734206 
1665	 0.182393990866127 
1666	 0.18239509368349 
1667	 0.182386508632139 
1668	 0.182397712745706 
1669	 0.182375921506539 
1670	 0.182313963367822 
1671	 0.182286641553007 
1672	 0.182261825876168 
1673	 0.182240826505333 
1674	 0.182242874654215 
1675	 0.182227551611473 
1676	 0.182192178483716 
1677	 0.182181324432061 
1678	 0.182185842475358 
1679	 0.182178153130187 
1680	 0.182178240509226 
1681	 0.182170549789754 
1682	 0.182145145103709 
1683	 0.182135340282942 
1684	 0.182133951061906 
1685	 0.182132980762842 
1686	 0.182135266599697 
1687	 0.182141266518841 
1688	 0.182162104607968 
1689	 0.182157961831009 
1690	 0.182144083564899 
1691	 0.182130220628277 
1692	 0.182096385853 
1693	 0.18207590759604 
1694	 0.182066703823192 
1695	 0.182048354433025 
1696	 0.182020174092621 
1697	 0.182007535894065 
1698	 0.181989156372252 
1699	 0.181999471020602 
1700	 0.182041848254834 
1701	 0.182062857464614 
1702	 0.182107552091758 
1703	 0.182107552802171 
1704	 0.182072507349809 
1705	 0.182050146644829 
1706	 0.182011443600306 
1707	 0.181974880551942 
1708	 0.181926764180317 
1709	 0.181907001751734 
1710	 0.181895756434534 
1711	 0.181890270641084 
1712	 0.181920309764961 
1713	 0.181919835215982 
1714	 0.181892016933853 
1715	 0.181890194434604 
1716	 0.181900861230897 
1717	 0.181899482071206 
1718	 0.181901854919369 
1719	 0.181901910941543 
1720	 0.181888303542366 
1721	 0.181889986221244 
1722	 0.181916526899469 
1723	 0.181904776867718 
1724	 0.181876089691627 
1725	 0.181848789746441 
1726	 0.181794718655267 
1727	 0.18177030926785 
1728	 0.181769593442571 
1729	 0.181743100468653 
1730	 0.181713629179577 
1731	 0.181680809388909 
1732	 0.181634672656175 
1733	 0.181587966647613 
1734	 0.181541315943338 
1735	 0.181497778710743 
1736	 0.181445797923538 
1737	 0.181401463300375 
1738	 0.181364281223932 
1739	 0.181328503446568 
1740	 0.18129540520783 
1741	 0.181265356448282 
1742	 0.181235152727492 
1743	 0.181215188269446 
1744	 0.181204875241541 
1745	 0.181175689537443 
1746	 0.181149064336203 
1747	 0.181122665837471 
1748	 0.181090043562938 
1749	 0.181073030709972 
1750	 0.181065585332862 
1751	 0.181047319928774 
1752	 0.181003149619986 
1753	 0.180968406225102 
1754	 0.180925312342361 
1755	 0.180892854191735 
1756	 0.180881817308551 
1757	 0.180861050295122 
1758	 0.180858829391923 
1759	 0.180846742397533 
1760	 0.18080281148102 
1761	 0.180767892935814 
1762	 0.180751621108354 
1763	 0.180741017839048 
1764	 0.180744864661729 
1765	 0.180749049812375 
1766	 0.180724606829809 
1767	 0.180686545170897 
1768	 0.180660737052749 
1769	 0.180641209274547 
1770	 0.180609271113635 
1771	 0.180575772912438 
1772	 0.180514266064772 
1773	 0.180463802995035 
1774	 0.18046675162526 
1775	 0.180446252118913 
1776	 0.180438364246849 
1777	 0.180440353203694 
1778	 0.180386396008199 
1779	 0.18036078987621 
1780	 0.180362819273563 
1781	 0.180332948649491 
1782	 0.180311021914646 
1783	 0.180293112148963 
1784	 0.180280262718166 
1785	 0.18028197326998 
1786	 0.180270163596962 
1787	 0.180245661178802 
1788	 0.180221594461171 
1789	 0.180200857819632 
1790	 0.180190018061441 
1791	 0.180189082537665 
1792	 0.180175797077577 
1793	 0.180142748427387 
1794	 0.1801250923319 
1795	 0.180120291933086 
1796	 0.180109782708578 
1797	 0.180115924336992 
1798	 0.180104550922172 
1799	 0.180062669853807 
1800	 0.180036272926876 
1801	 0.178840285046455 
1802	 0.178892612829107 
1803	 0.178961370874252 
1804	 0.179019124232471 
1805	 0.1790638606721 
1806	 0.179086282595397 
1807	 0.179097010774174 
1808	 0.179123994345329 
1809	 0.179159820788088 
1810	 0.179185838597926 
1811	 0.17922157394439 
1812	 0.179243647813141 
1813	 0.17924777194227 
1814	 0.179249995848373 
1815	 0.179240822715081 
1816	 0.179233311589752 
1817	 0.179236345087956 
1818	 0.17924148394586 
1819	 0.179243582144965 
1820	 0.179242295415134 
1821	 0.179272249272119 
1822	 0.179295147465174 
1823	 0.17930179649827 
1824	 0.179330230031323 
1825	 0.179325082415881 
1826	 0.179307141896807 
1827	 0.179314941203092 
1828	 0.179306782764985 
1829	 0.17929807022235 
1830	 0.17927873074678 
1831	 0.179247062705788 
1832	 0.179215138837148 
1833	 0.179180740022144 
1834	 0.179162276873685 
1835	 0.179164931627549 
1836	 0.17913656824364 
1837	 0.179096629707977 
1838	 0.179081019395213 
1839	 0.179079424201774 
1840	 0.179082453612523 
1841	 0.179101351841178 
1842	 0.179141232161386 
1843	 0.179154202595785 
1844	 0.1791265072571 
1845	 0.179104795432039 
1846	 0.179082477707183 
1847	 0.179046805808382 
1848	 0.179014200572436 
1849	 0.178980996003782 
1850	 0.178955556561647 
1851	 0.178919558799194 
1852	 0.178910779416965 
1853	 0.178929673500454 
1854	 0.178953127460253 
1855	 0.178977409699915 
1856	 0.178997195485734 
1857	 0.179007217980892 
1858	 0.179001478403509 
1859	 0.178978704388512 
1860	 0.178940785870764 
1861	 0.17888374560063 
1862	 0.178814215316326 
1863	 0.178745033364015 
1864	 0.178671254887735 
1865	 0.178625690110218 
1866	 0.178606284873587 
1867	 0.178558890758277 
1868	 0.178520216627238 
1869	 0.178494262256208 
1870	 0.178424016435696 
1871	 0.178369048110138 
1872	 0.178319142006116 
1873	 0.178293716970803 
1874	 0.178235035403581 
1875	 0.178191022294371 
1876	 0.178152786666943 
1877	 0.178076379662884 
1878	 0.17800435842462 
1879	 0.177950636221421 
1880	 0.177883247578669 
1881	 0.177815705440275 
1882	 0.177736640537049 
1883	 0.177661668131074 
1884	 0.177540949737046 
1885	 0.177413285992343 
1886	 0.177310869167223 
1887	 0.177193653128826 
1888	 0.177076736041884 
1889	 0.176956495809954 
1890	 0.176817604485597 
1891	 0.176661237659859 
1892	 0.17646793280965 
1893	 0.176295087409993 
1894	 0.17612442327911 
1895	 0.175940623789832 
1896	 0.175759842369135 
1897	 0.175585694788493 
1898	 0.175379685348662 
1899	 0.175182358352942 
1900	 0.174982847447274 
1901	 0.17478391927494 
1902	 0.174595134356609 
1903	 0.174422774343374 
1904	 0.17423564262276 
1905	 0.174049808327234 
1906	 0.173866630329088 
1907	 0.173654199016903 
1908	 0.17343628657848 
1909	 0.17321729299554 
1910	 0.172973880940405 
1911	 0.172754594193496 
1912	 0.172531494930058 
1913	 0.172298877873288 
1914	 0.172061542285266 
1915	 0.171826558133506 
1916	 0.171585002925517 
1917	 0.171336570861925 
1918	 0.171102892010092 
1919	 0.170875006227231 
1920	 0.170640599054698 
1921	 0.170403268299139 
1922	 0.170166115303983 
1923	 0.169938321962988 
1924	 0.169715773562297 
1925	 0.169498695399453 
1926	 0.169289887262712 
1927	 0.169092422912335 
1928	 0.168889675472767 
1929	 0.168696401326862 
1930	 0.16851395758364 
1931	 0.16832981532391 
1932	 0.168163128477552 
1933	 0.167994423200161 
1934	 0.167837640446132 
1935	 0.167701012442372 
1936	 0.167570043562436 
1937	 0.167467845798333 
1938	 0.167396236957139 
1939	 0.167329071486441 
1940	 0.167280652077903 
1941	 0.167252489334283 
1942	 0.167207072030049 
1943	 0.16717163071534 
1944	 0.167157423386663 
1945	 0.167143606636537 
1946	 0.167154278846503 
1947	 0.167209404538939 
1948	 0.167230460110037 
1949	 0.167257978304791 
1950	 0.167272550631893 
1951	 0.167269576224396 
1952	 0.167253140918189 
1953	 0.167267762962313 
1954	 0.16727167851192 
1955	 0.167281672846767 
1956	 0.167300224948266 
1957	 0.16731072719997 
1958	 0.167321196822104 
1959	 0.167324474348764 
1960	 0.167318352753353 
1961	 0.167322333678274 
1962	 0.16732175014705 
1963	 0.167324732475656 
1964	 0.167341839905243 
1965	 0.167348553449353 
1966	 0.16734229828693 
1967	 0.167340437603117 
1968	 0.167336767034783 
1969	 0.167327894573362 
1970	 0.167321881314539 
1971	 0.167305281401453 
1972	 0.167311068120964 
1973	 0.167335141753673 
1974	 0.167346846165298 
1975	 0.167360763114802 
1976	 0.167389078782154 
1977	 0.167407064888699 
1978	 0.167411020995679 
1979	 0.167423017489807 
1980	 0.167443254167165 
1981	 0.167453602715249 
1982	 0.167455525066559 
1983	 0.167458905041753 
1984	 0.167452211939522 
1985	 0.167458925771929 
1986	 0.167466333342984 
1987	 0.167482207364494 
1988	 0.167501813544293 
1989	 0.167543417093731 
1990	 0.167582331179558 
1991	 0.167618786448856 
1992	 0.167664659876513 
1993	 0.16771940308488 
1994	 0.167773234600924 
1995	 0.167833540511587 
1996	 0.167889272623243 
1997	 0.167951303708928 
1998	 0.167998867424697 
1999	 0.168042980983001 
2000	 0.168081351516042 
2001	 0.168106741913272 
2002	 0.168124646518086 
2003	 0.168160122751277 
2004	 0.16820859004697 
2005	 0.168257027864815 
2006	 0.168324403228603 
2007	 0.168377248640432 
2008	 0.168415104422619 
2009	 0.168469808275269 
2010	 0.168547628191541 
2011	 0.168593619285752 
2012	 0.168627478939163 
2013	 0.168669438141005 
2014	 0.168692606798577 
2015	 0.168714619838465 
2016	 0.168760608518574 
2017	 0.168819981978256 
2018	 0.168869881224752 
2019	 0.168921591270322 
2020	 0.168963374837435 
2021	 0.169005532536084 
2022	 0.169036775216046 
2023	 0.169051386815766 
2024	 0.169076980093079 
2025	 0.169112255417389 
2026	 0.169127728943674 
2027	 0.169132856465736 
2028	 0.16913817977805 
2029	 0.169146240698953 
2030	 0.169140547589942 
2031	 0.169144222989432 
2032	 0.169160991174287 
2033	 0.169168722831664 
2034	 0.16916802571497 
2035	 0.169173594354182 
2036	 0.169186287556512 
2037	 0.169190819348157 
2038	 0.169193122545969 
2039	 0.169190290110388 
2040	 0.169173177393208 
2041	 0.169174451006464 
2042	 0.169165589867761 
2043	 0.169158422399361 
2044	 0.169149972894119 
2045	 0.169146089564433 
2046	 0.169130723756878 
2047	 0.169115122121566 
2048	 0.169085986853947 
2049	 0.16903669965363 
2050	 0.169003515971381 
2051	 0.168972606343581 
2052	 0.16893573527567 
2053	 0.168902270990015 
2054	 0.168869526627291 
2055	 0.168833690116333 
2056	 0.168784925381887 
2057	 0.168755666352122 
2058	 0.16874188881483 
2059	 0.168715880100695 
2060	 0.168683255851883 
2061	 0.168669425988394 
2062	 0.16866671092011 
2063	 0.16865294980068 
2064	 0.168645912277069 
2065	 0.168640085443423 
2066	 0.168623573016468 
2067	 0.168611479204653 
2068	 0.168614525323586 
2069	 0.168604305366598 
2070	 0.168605524326849 
2071	 0.168609575290885 
2072	 0.168602009163698 
2073	 0.168608087969338 
2074	 0.168583609042555 
2075	 0.168511971666653 
2076	 0.168491020779309 
2077	 0.168473180850669 
2078	 0.16847325147051 
2079	 0.168522750613747 
2080	 0.168542808028306 
2081	 0.168557363565907 
2082	 0.168566533315772 
2083	 0.168564130674053 
2084	 0.168555231534619 
2085	 0.168567713567338 
2086	 0.168585105389239 
2087	 0.168609002146931 
2088	 0.16865139176663 
2089	 0.168683024895292 
2090	 0.168716453708699 
2091	 0.168742211675203 
2092	 0.168749446654892 
2093	 0.168785005787236 
2094	 0.168832396459265 
2095	 0.168876129395468 
2096	 0.168937834229 
2097	 0.16899864256626 
2098	 0.169059663139662 
2099	 0.169108859233461 
2100	 0.169166233461748 
2101	 0.169232740983542 
2102	 0.169293968691925 
2103	 0.169342167052811 
2104	 0.169412908312931 
2105	 0.169481858751942 
2106	 0.169584051755205 
2107	 0.169714544063458 
2108	 0.169842511856968 
2109	 0.170011741539744 
2110	 0.170146728680571 
2111	 0.170266277007676 
2112	 0.17038414693625 
2113	 0.17049607176945 
2114	 0.170583572640292 
2115	 0.170697959279413 
2116	 0.170819307247024 
2117	 0.170939940305423 
2118	 0.171072782271923 
2119	 0.171194257135294 
2120	 0.171304950302857 
2121	 0.171429455044144 
2122	 0.171566779765555 
2123	 0.171685434603009 
2124	 0.171807676536849 
2125	 0.171916252438991 
2126	 0.172002980916512 
2127	 0.172095783838142 
2128	 0.172192300237331 
2129	 0.172277067420175 
2130	 0.172361555754875 
2131	 0.172424044494711 
2132	 0.172495916380181 
2133	 0.172561103335478 
2134	 0.172628862901019 
2135	 0.172716370591313 
2136	 0.172756369060048 
2137	 0.172770768172293 
2138	 0.172787485033154 
2139	 0.172762140240312 
2140	 0.172769267077813 
2141	 0.172806402052365 
2142	 0.172815898983743 
2143	 0.172811811893847 
2144	 0.172819315193712 
2145	 0.172813812665429 
2146	 0.172817410579444 
2147	 0.17283360099607 
2148	 0.172864863054083 
2149	 0.172867285078225 
2150	 0.172871302464593 
2151	 0.172836816372216 
2152	 0.172765585313998 
2153	 0.172712231342367 
2154	 0.172634215960176 
2155	 0.172576514224363 
2156	 0.172540253958094 
2157	 0.172488777958514 
2158	 0.172440266943939 
2159	 0.17237600416786 
2160	 0.172300751490385 
2161	 0.172221766046726 
2162	 0.172128936965997 
2163	 0.172036146557463 
2164	 0.171947202222368 
2165	 0.171842222331309 
2166	 0.171742746793833 
2167	 0.17163621548247 
2168	 0.171540466259177 
2169	 0.171448488986469 
2170	 0.171358357861682 
2171	 0.171284010165964 
2172	 0.171183123967014 
2173	 0.171061900715627 
2174	 0.170958979601669 
2175	 0.17084899627308 
2176	 0.170745448853358 
2177	 0.170661171828825 
2178	 0.170567061399182 
2179	 0.170462729698702 
2180	 0.170362299875745 
2181	 0.170259154612239 
2182	 0.170165014992132 
2183	 0.170071598961076 
2184	 0.169988778616482 
2185	 0.169904005403141 
2186	 0.169827917151756 
2187	 0.169745932291485 
2188	 0.16965912760239 
2189	 0.169581410038297 
2190	 0.169515642695503 
2191	 0.169433058862721 
2192	 0.169345801327029 
2193	 0.169257215317882 
2194	 0.169151016948801 
2195	 0.169059278227119 
2196	 0.168978178237412 
2197	 0.168893701559291 
2198	 0.168807302853411 
2199	 0.168730882053373 
2200	 0.168648001686324 
2201	 0.168583801429187 
2202	 0.168532708444807 
2203	 0.16848955941054 
2204	 0.168468286449914 
2205	 0.168477007104911 
2206	 0.1684579952051 
2207	 0.168455529179375 
2208	 0.168417585775538 
2209	 0.168349219607235 
2210	 0.168292069096151 
2211	 0.168225362554987 
2212	 0.168157805699654 
2213	 0.168077610045061 
2214	 0.168019121081083 
2215	 0.16795342968669 
2216	 0.167917298932938 
2217	 0.167930993995155 
2218	 0.167909422377992 
2219	 0.167876284083731 
2220	 0.167856023638821 
2221	 0.167824851887562 
2222	 0.167792741784938 
2223	 0.167799653664326 
2224	 0.167823050630994 
2225	 0.167819563850857 
2226	 0.16781778520928 
2227	 0.167793847321667 
2228	 0.167749299350746 
2229	 0.167706490100102 
2230	 0.167640735497286 
2231	 0.167612410330901 
2232	 0.167594285688127 
2233	 0.167577296365547 
2234	 0.16758684539748 
2235	 0.167581157980371 
2236	 0.167558016177339 
2237	 0.167554030097116 
2238	 0.167561327593869 
2239	 0.167568951017466 
2240	 0.167599608145435 
2241	 0.167603425843939 
2242	 0.167593499328433 
2243	 0.167583084909996 
2244	 0.167546911206546 
2245	 0.16752647106751 
2246	 0.167536350795889 
2247	 0.167523875449399 
2248	 0.167507072913163 
2249	 0.16749273397994 
2250	 0.167467062143973 
2251	 0.167415568170948 
2252	 0.167399656293696 
2253	 0.16739499939505 
2254	 0.167401432206431 
2255	 0.167419094165307 
2256	 0.16744337455813 
2257	 0.167495123709327 
2258	 0.167516746563038 
2259	 0.167547429051297 
2260	 0.167554265858888 
2261	 0.167531977072672 
2262	 0.167503160546194 
2263	 0.167437737002471 
2264	 0.167407652371929 
2265	 0.167387343632709 
2266	 0.167371059857493 
2267	 0.167386247259672 
2268	 0.167387354759138 
2269	 0.167396887011096 
2270	 0.16736463192121 
2271	 0.167331316991953 
2272	 0.167321373465649 
2273	 0.167279289412692 
2274	 0.167249988593797 
2275	 0.167230990920039 
2276	 0.167222626735893 
2277	 0.167199090745711 
2278	 0.167194746740305 
2279	 0.16714337754477 
2280	 0.167049315826833 
2281	 0.166993376491426 
2282	 0.166920065613645 
2283	 0.166879765045914 
2284	 0.166884248107239 
2285	 0.166856461933957 
2286	 0.166809648936362 
2287	 0.166786939316716 
2288	 0.166772309156535 
2289	 0.166758762558645 
2290	 0.166774840604869 
2291	 0.166770045002922 
2292	 0.166742650353888 
2293	 0.166722181631624 
2294	 0.166692002637528 
2295	 0.166674440022143 
2296	 0.166659074253164 
2297	 0.166666201277185 
2298	 0.166675162478989 
2299	 0.16665128344681 
2300	 0.166611224323208 
2301	 0.166563829821154 
2302	 0.166501963802876 
2303	 0.166497229036181 
2304	 0.16650622950696 
2305	 0.166486175898796 
2306	 0.166467240584057 
2307	 0.166446324020825 
2308	 0.166410338053419 
2309	 0.16637006078719 
2310	 0.166321121975583 
2311	 0.166254049631844 
2312	 0.16618760243893 
2313	 0.166097412053205 
2314	 0.166036936592377 
2315	 0.166004544910905 
2316	 0.165955533236768 
2317	 0.16591220858253 
2318	 0.165862734067623 
2319	 0.165781316078868 
2320	 0.165724768110042 
2321	 0.165687385111967 
2322	 0.165654650654801 
2323	 0.165643264447797 
2324	 0.165620000829571 
2325	 0.165594557739018 
2326	 0.165573784035191 
2327	 0.165555342626107 
2328	 0.165515666020232 
2329	 0.165514622602274 
2330	 0.165498095631637 
2331	 0.165457016393318 
2332	 0.165423747452609 
2333	 0.165409409186206 
2334	 0.165429647785531 
2335	 0.165484428880094 
2336	 0.165569360355823 
2337	 0.165590613507327 
2338	 0.165535638737988 
2339	 0.165485391456317 
2340	 0.165426370413704 
2341	 0.165372580107501 
2342	 0.165347001471662 
2343	 0.165267696994455 
2344	 0.16515773256603 
2345	 0.165065540204035 
2346	 0.164950771852618 
2347	 0.164864725378366 
2348	 0.164804423774254 
2349	 0.164729502154586 
2350	 0.164674411913305 
2351	 0.164591192863328 
2352	 0.164486538201671 
2353	 0.16437942222024 
2354	 0.16423539697271 
2355	 0.164143224423213 
2356	 0.164107735307515 
2357	 0.164009915379278 
2358	 0.163875382930256 
2359	 0.163791955984422 
2360	 0.163680485735276 
2361	 0.163598459037425 
2362	 0.163620598018923 
2363	 0.163570443455036 
2364	 0.16347303712113 
2365	 0.163373517787887 
2366	 0.163264839291129 
2367	 0.163134734756534 
2368	 0.162947141968736 
2369	 0.162829793897031 
2370	 0.162761746063079 
2371	 0.162622206132122 
2372	 0.162515538936773 
2373	 0.162437817926472 
2374	 0.162303523845994 
2375	 0.162143310935125 
2376	 0.162029128978186 
2377	 0.161899804148941 
2378	 0.161702662837645 
2379	 0.161543542125988 
2380	 0.161407165158763 
2381	 0.161198094649212 
2382	 0.161047662545777 
2383	 0.160988902666142 
2384	 0.160864272557325 
2385	 0.160775165390802 
2386	 0.16070872186992 
2387	 0.160574451384157 
2388	 0.160445621055411 
2389	 0.1603134873958 
2390	 0.160182630639415 
2391	 0.15998604228796 
2392	 0.159819970706718 
2393	 0.159704594890118 
2394	 0.159550894522877 
2395	 0.159510125666589 
2396	 0.159416230487726 
2397	 0.159290928164324 
2398	 0.159240981953671 
2399	 0.159083657064386 
2400	 0.15894299533917 
2401	 0.158848221034029 
2402	 0.158742837675643 
2403	 0.158715523239985 
2404	 0.158759862650455 
2405	 0.15873252456881 
2406	 0.158615103511395 
2407	 0.158550634514524 
2408	 0.158518308203571 
2409	 0.158521844374783 
2410	 0.158538894087205 
2411	 0.158443688890055 
2412	 0.158285681219395 
2413	 0.158217212476474 
2414	 0.158126157647801 
2415	 0.158056231542709 
2416	 0.1580662961516 
2417	 0.158137347519917 
2418	 0.158091867833946 
2419	 0.158096680978398 
2420	 0.158063170434859 
2421	 0.157914044937284 
2422	 0.157850425905517 
2423	 0.157831661033277 
2424	 0.157834100811543 
2425	 0.157881194849859 
2426	 0.157813437679786 
2427	 0.157757125277763 
2428	 0.15761482021722 
2429	 0.157278428953405 
2430	 0.15716291352664 
2431	 0.157183226606043 
2432	 0.157098435346884 
2433	 0.157011057336303 
2434	 0.156896986378279 
2435	 0.156694104143687 
2436	 0.156569020876791 
2437	 0.156511777913241 
2438	 0.15652220413488 
2439	 0.156571057308173 
2440	 0.15657489940315 
2441	 0.156673548085709 
2442	 0.156585689048585 
2443	 0.156375345839833 
2444	 0.156217159325104 
2445	 0.155930641230774 
2446	 0.155860796241704 
2447	 0.155941434778757 
2448	 0.155886959443473 
2449	 0.15590296982001 
2450	 0.155833015326462 
2451	 0.155595988326012 
2452	 0.155571088900647 
2453	 0.155598857017351 
2454	 0.15562722991487 
2455	 0.155815385729654 
2456	 0.15577663509369 
2457	 0.155685989200843 
2458	 0.155546377268601 
2459	 0.155195197257359 
2460	 0.155066156108615 
2461	 0.155068005303152 
2462	 0.154918123491693 
2463	 0.15472824245141 
2464	 0.154648932033211 
2465	 0.154568728737467 
2466	 0.154442360030016 
2467	 0.1544364412399 
2468	 0.154328386191433 
2469	 0.154001231483695 
2470	 0.153927068558405 
2471	 0.153833338323234 
2472	 0.153658879293896 
2473	 0.153461632478477 
2474	 0.15330739144149 
2475	 0.153264294641122 
2476	 0.153248072353369 
2477	 0.153229182739889 
2478	 0.15311321494101 
2479	 0.152994753899399 
2480	 0.152945298115008 
2481	 0.152896039444285 
2482	 0.152806745955703 
2483	 0.152573449830306 
2484	 0.152339339694963 
2485	 0.152098835574138 
2486	 0.151864211021405 
2487	 0.151823310547961 
2488	 0.151870803210407 
2489	 0.151948506979108 
2490	 0.151921975445967 
2491	 0.151792766526977 
2492	 0.151668391632508 
2493	 0.151560873059561 
2494	 0.151532055140487 
2495	 0.151549999975205 
2496	 0.151517458645361 
2497	 0.151280060347911 
2498	 0.151114409898942 
2499	 0.15116948220303 
2500	 0.151073992122309 
