Wavelength	LMW600008.asd
350	 0.112362855019162 
351	 0.112804636060614 
352	 0.111623803822963 
353	 0.107810631419711 
354	 0.109961296455082 
355	 0.113381360243635 
356	 0.112049775802957 
357	 0.104991831144669 
358	 0.11101145168559 
359	 0.113944786056646 
360	 0.113262472181188 
361	 0.117633162191623 
362	 0.114376012331848 
363	 0.11043693428437 
364	 0.11070259027302 
365	 0.113711886653084 
366	 0.112908531214445 
367	 0.111003641933194 
368	 0.112244761888858 
369	 0.116209253746256 
370	 0.116017228782201 
371	 0.11357224153121 
372	 0.116123860868527 
373	 0.118093381748076 
374	 0.118560021323766 
375	 0.117821367765421 
376	 0.117190777386017 
377	 0.114549987691474 
378	 0.113979600896268 
379	 0.118517868856554 
380	 0.119515310844517 
381	 0.117911218227465 
382	 0.116950029438778 
383	 0.12056941969736 
384	 0.121971151352649 
385	 0.121487379493135 
386	 0.120941183824107 
387	 0.122916726201899 
388	 0.124885686838319 
389	 0.124841406960157 
390	 0.122350831940104 
391	 0.122803225772734 
392	 0.123814083767096 
393	 0.124953943773575 
394	 0.127486165768494 
395	 0.126891835499791 
396	 0.126597626979799 
397	 0.128618881476997 
398	 0.129264158604611 
399	 0.128993109049538 
400	 0.129451070311396 
401	 0.131843900875567 
402	 0.13204306947384 
403	 0.132543050495659 
404	 0.133849337241554 
405	 0.134126097066446 
406	 0.134851327832624 
407	 0.135877285374125 
408	 0.136680150795238 
409	 0.13656844264244 
410	 0.136451676865338 
411	 0.136700229663883 
412	 0.13738169034302 
413	 0.138563084304774 
414	 0.139639560063849 
415	 0.140252273409717 
416	 0.140395436687994 
417	 0.140813452568948 
418	 0.141515820313953 
419	 0.142284573845285 
420	 0.142934328410034 
421	 0.143076672829172 
422	 0.14338748025152 
423	 0.144952101148782 
424	 0.145551605983454 
425	 0.145539950915537 
426	 0.145578169909909 
427	 0.146232644912614 
428	 0.147033778156106 
429	 0.147647702338443 
430	 0.147951219195667 
431	 0.148619950160854 
432	 0.149170921775815 
433	 0.149584437651523 
434	 0.150304021645393 
435	 0.150588959416351 
436	 0.150682330939154 
437	 0.15087513800367 
438	 0.151000884484179 
439	 0.151527945314865 
440	 0.152384991060356 
441	 0.153175873228197 
442	 0.153356042063553 
443	 0.153462076340774 
444	 0.153775714196533 
445	 0.154025556378784 
446	 0.154382035585685 
447	 0.15488036186135 
448	 0.155423629223373 
449	 0.155531463680924 
450	 0.15570146625907 
451	 0.156126348273422 
452	 0.156690811567854 
453	 0.157070789364313 
454	 0.157393022741184 
455	 0.157793944160827 
456	 0.15821959631167 
457	 0.158662187864806 
458	 0.159016923433636 
459	 0.159193745633501 
460	 0.159549998522797 
461	 0.15983451995929 
462	 0.159974003235358 
463	 0.16021284972706 
464	 0.160623354266481 
465	 0.161071299262847 
466	 0.161421861687622 
467	 0.161807155521099 
468	 0.162259734257626 
469	 0.162699699332312 
470	 0.162975577974425 
471	 0.16326635950095 
472	 0.163538097327046 
473	 0.163778988359556 
474	 0.164116773938158 
475	 0.164471020712247 
476	 0.164778785747137 
477	 0.165008605577654 
478	 0.165295565036407 
479	 0.165619659339174 
480	 0.165931743460578 
481	 0.166155904854995 
482	 0.166673480498644 
483	 0.167181615424998 
484	 0.167371281117072 
485	 0.167740009718952 
486	 0.167994658997001 
487	 0.168124790241509 
488	 0.168367552475409 
489	 0.168787984991125 
490	 0.169231297481407 
491	 0.1695989661074 
492	 0.170057625828165 
493	 0.170305534026754 
494	 0.170463256258041 
495	 0.170810112870172 
496	 0.171173699931442 
497	 0.171388154065583 
498	 0.171515995965869 
499	 0.171959544747648 
500	 0.172252558052778 
501	 0.172442811345219 
502	 0.172709911680884 
503	 0.173114994028399 
504	 0.173382690944679 
505	 0.173543010071747 
506	 0.173897512097558 
507	 0.174256483541047 
508	 0.174482798383362 
509	 0.174582079800798 
510	 0.174911604350787 
511	 0.17522870993104 
512	 0.175454371073546 
513	 0.175615317189048 
514	 0.175850878739577 
515	 0.176061618070431 
516	 0.176259994047295 
517	 0.176716572302201 
518	 0.177021676632627 
519	 0.177174491699793 
520	 0.177331427427305 
521	 0.177689744452596 
522	 0.177930238889046 
523	 0.178040016055513 
524	 0.178347075139267 
525	 0.178556956492247 
526	 0.178703850336996 
527	 0.178891633393968 
528	 0.179220220666471 
529	 0.179472506717385 
530	 0.179618809784137 
531	 0.17976333087855 
532	 0.179997412697402 
533	 0.180225870372979 
534	 0.180400500350195 
535	 0.180633620375199 
536	 0.180835782833501 
537	 0.181037979054003 
538	 0.181288519990312 
539	 0.181422693438937 
540	 0.181560582741774 
541	 0.181757124080571 
542	 0.181951797999219 
543	 0.182147486745237 
544	 0.182362371446033 
545	 0.182604609737274 
546	 0.182835196356686 
547	 0.182969677634681 
548	 0.183062070672184 
549	 0.183272699352743 
550	 0.183456636636439 
551	 0.183614599367499 
552	 0.183782943981789 
553	 0.184022226194808 
554	 0.184274090584657 
555	 0.184482823356909 
556	 0.184616366910132 
557	 0.184841341129199 
558	 0.1850775322598 
559	 0.185264608626075 
560	 0.185429194234295 
561	 0.185546085672317 
562	 0.185635145442686 
563	 0.185736968245386 
564	 0.185910780826919 
565	 0.186053596763348 
566	 0.186167208144449 
567	 0.186378285432986 
568	 0.186613700174698 
569	 0.186842680586242 
570	 0.187051843755456 
571	 0.187259023265387 
572	 0.187425990227645 
573	 0.187562946994045 
574	 0.187707759285877 
575	 0.187767648510064 
576	 0.187858275832366 
577	 0.18803442701946 
578	 0.188153256222061 
579	 0.188248473376675 
580	 0.188299151455846 
581	 0.188288359787579 
582	 0.188351299497341 
583	 0.188466750615517 
584	 0.188612844496471 
585	 0.188790800964285 
586	 0.18897733334063 
587	 0.189139585086348 
588	 0.189252413739292 
589	 0.189323943043016 
590	 0.189404010613881 
591	 0.189545554038267 
592	 0.189787631231353 
593	 0.189835861762216 
594	 0.189818956959292 
595	 0.189870796760573 
596	 0.189897398034914 
597	 0.189933111908312 
598	 0.189972783117843 
599	 0.189997103746341 
600	 0.190052862886231 
601	 0.190138036278039 
602	 0.190215800509671 
603	 0.19019362030605 
604	 0.190171005458766 
605	 0.190209580601218 
606	 0.190341101977653 
607	 0.190532080943297 
608	 0.190630089344262 
609	 0.190663439522655 
610	 0.190866848916432 
611	 0.191037475682117 
612	 0.191151561485924 
613	 0.191236226115301 
614	 0.191346421323505 
615	 0.191374800129797 
616	 0.19137885708091 
617	 0.191509924885778 
618	 0.191555126839145 
619	 0.191571006892774 
620	 0.191620333634775 
621	 0.191692909564013 
622	 0.191768342075908 
623	 0.191819126576284 
624	 0.191835927040939 
625	 0.19194240526638 
626	 0.192026904353493 
627	 0.192057802530472 
628	 0.192133339534058 
629	 0.192189303852924 
630	 0.192251047014501 
631	 0.19233571101013 
632	 0.192331089590032 
633	 0.192342692981463 
634	 0.19241471866353 
635	 0.192527692762555 
636	 0.192539368452292 
637	 0.192601575089956 
638	 0.192777317384734 
639	 0.192779020129022 
640	 0.192793963856371 
641	 0.192848930084382 
642	 0.192905637130802 
643	 0.193010589127645 
644	 0.193098170324324 
645	 0.19315537190023 
646	 0.193261841078892 
647	 0.193291217619615 
648	 0.193290931645072 
649	 0.193348535979131 
650	 0.193498052659155 
651	 0.193574608920502 
652	 0.193573950971552 
653	 0.193633040844854 
654	 0.193725816150139 
655	 0.193807213811557 
656	 0.193849364312267 
657	 0.193866514818921 
658	 0.193985546384367 
659	 0.194111553151779 
660	 0.194083457456395 
661	 0.194141895921274 
662	 0.194230763487702 
663	 0.194313434614034 
664	 0.194426987670449 
665	 0.194448862013249 
666	 0.19444788079961 
667	 0.194507527257683 
668	 0.194506306190532 
669	 0.194624685278877 
670	 0.194785532287092 
671	 0.19472131289225 
672	 0.194793999891028 
673	 0.194910204895836 
674	 0.194966314728192 
675	 0.195029626889791 
676	 0.195058569093091 
677	 0.195070457393011 
678	 0.195103181340259 
679	 0.195142803726344 
680	 0.195195643844794 
681	 0.195257298792253 
682	 0.195308219685466 
683	 0.195370819309425 
684	 0.195409851034019 
685	 0.195416978651363 
686	 0.195545790415113 
687	 0.195579080755129 
688	 0.195543036022864 
689	 0.195623761057322 
690	 0.195661286059286 
691	 0.195677413368073 
692	 0.195712884543637 
693	 0.195803541035784 
694	 0.1958163620648 
695	 0.195784707022549 
696	 0.195787414169561 
697	 0.195760901831482 
698	 0.195810385523372 
699	 0.195918251705744 
700	 0.195935223469258 
701	 0.195964471414866 
702	 0.195991870245567 
703	 0.195996013627241 
704	 0.19599853022448 
705	 0.196032206714785 
706	 0.196062993299987 
707	 0.196037296563604 
708	 0.196061929398066 
709	 0.196072859426422 
710	 0.196049292962569 
711	 0.196058429155861 
712	 0.196059376823546 
713	 0.196039567475197 
714	 0.196010771411428 
715	 0.196048700337125 
716	 0.19606626101477 
717	 0.196067178252396 
718	 0.196112410781809 
719	 0.196080292197345 
720	 0.196013112628568 
721	 0.195956797279916 
722	 0.195910943010076 
723	 0.195935574726539 
724	 0.195976436221609 
725	 0.195958638121689 
726	 0.195925789881318 
727	 0.195903727287394 
728	 0.195879986590709 
729	 0.19581380201293 
730	 0.195819658509403 
731	 0.195823519406838 
732	 0.195766583256472 
733	 0.195704579548809 
734	 0.195676228047806 
735	 0.19564744059972 
736	 0.195571870326917 
737	 0.195549516151705 
738	 0.195495152751445 
739	 0.195416686092635 
740	 0.195431019141344 
741	 0.195366010736772 
742	 0.195306503329441 
743	 0.195315643153715 
744	 0.195246630927873 
745	 0.195146137627225 
746	 0.195070838540833 
747	 0.195055271416826 
748	 0.194928021670456 
749	 0.194835667074548 
750	 0.194814839353649 
751	 0.194737862617827 
752	 0.194688741367925 
753	 0.194628095876443 
754	 0.194530287474069 
755	 0.19448921278652 
756	 0.194463623981623 
757	 0.194425591793149 
758	 0.194357902308796 
759	 0.194274021758831 
760	 0.194171699317216 
761	 0.19407395440382 
762	 0.194034165583163 
763	 0.193980220286295 
764	 0.19389434964863 
765	 0.193795391735006 
766	 0.193771331372452 
767	 0.193708671660689 
768	 0.19361325593852 
769	 0.193546067968065 
770	 0.193485514122539 
771	 0.19338817229557 
772	 0.193270472014372 
773	 0.193218443085265 
774	 0.193124663923519 
775	 0.193041664921036 
776	 0.193005430105239 
777	 0.192908925902952 
778	 0.192793621254715 
779	 0.192680937533115 
780	 0.192583103556816 
781	 0.192502613963941 
782	 0.1924434663865 
783	 0.192381574796446 
784	 0.192269792190255 
785	 0.192210527862229 
786	 0.192157644416979 
787	 0.19206928630974 
788	 0.191987786779406 
789	 0.191875569104137 
790	 0.191747794964969 
791	 0.191641401593253 
792	 0.19159786517171 
793	 0.191507635789302 
794	 0.191358851366139 
795	 0.191232384509469 
796	 0.191155213536732 
797	 0.191101342170492 
798	 0.191027023206478 
799	 0.190870935656722 
800	 0.190804043763914 
801	 0.190747925113227 
802	 0.190599066124809 
803	 0.190468632653491 
804	 0.19042139933011 
805	 0.190384853772502 
806	 0.190228423501812 
807	 0.190127681711837 
808	 0.190003077955262 
809	 0.189859152366174 
810	 0.189837454028487 
811	 0.189741405156564 
812	 0.189619345911393 
813	 0.189533950195574 
814	 0.189430513070726 
815	 0.189306796257478 
816	 0.189162183008338 
817	 0.189015285740253 
818	 0.188967321113931 
819	 0.188910752958695 
820	 0.18879026263119 
821	 0.188619179182211 
822	 0.188516329493336 
823	 0.1884522214833 
824	 0.188370656003585 
825	 0.188213501804584 
826	 0.18813196387491 
827	 0.188078234617042 
828	 0.187974482779648 
829	 0.187836574292618 
830	 0.187691899177794 
831	 0.187550975227531 
832	 0.187422684626146 
833	 0.187369836045902 
834	 0.187302828527306 
835	 0.187207870378329 
836	 0.187145243678242 
837	 0.18701523453844 
838	 0.186898096831039 
839	 0.186827069433576 
840	 0.186707738835731 
841	 0.186555077482409 
842	 0.186381269721793 
843	 0.186231427917845 
844	 0.18625400568236 
845	 0.186251766749009 
846	 0.186172467021716 
847	 0.186046485842121 
848	 0.185911513928639 
849	 0.185805332879218 
850	 0.185721823922893 
851	 0.185620011329074 
852	 0.185511291518956 
853	 0.185400665412048 
854	 0.185286798325482 
855	 0.185160603879029 
856	 0.185110873587865 
857	 0.185074629103428 
858	 0.184989353926595 
859	 0.184888341789861 
860	 0.184800763240833 
861	 0.184707745296128 
862	 0.184588358431206 
863	 0.184499066466895 
864	 0.184404000035732 
865	 0.184305222898728 
866	 0.184219970075933 
867	 0.184078808650125 
868	 0.183999518902854 
869	 0.183985365326225 
870	 0.183911804629618 
871	 0.183782899303033 
872	 0.183662694488636 
873	 0.183591940160964 
874	 0.183554007468475 
875	 0.183518710096685 
876	 0.18343014335331 
877	 0.183284896037199 
878	 0.183217488622499 
879	 0.183228141169773 
880	 0.183178123824795 
881	 0.182969353170233 
882	 0.182873297612212 
883	 0.182838238997504 
884	 0.182802242795575 
885	 0.182715155586395 
886	 0.182619060569344 
887	 0.182555057004944 
888	 0.182516196330537 
889	 0.182455945440695 
890	 0.182370707994999 
891	 0.18226933734591 
892	 0.182196621199186 
893	 0.182223893354935 
894	 0.182146656450434 
895	 0.182034049147883 
896	 0.181965047159856 
897	 0.181933022659783 
898	 0.181840385800555 
899	 0.1817458985442 
900	 0.181709589561083 
901	 0.181676362161885 
902	 0.181673457705758 
903	 0.181644697045875 
904	 0.181544967977565 
905	 0.181463834357804 
906	 0.181459150239185 
907	 0.181464361882568 
908	 0.181388930563596 
909	 0.18135993255631 
910	 0.181295452437349 
911	 0.181220609676978 
912	 0.181209214198351 
913	 0.181116104594524 
914	 0.181015551528795 
915	 0.180951099204121 
916	 0.18091395810537 
917	 0.180843805276682 
918	 0.180862387010582 
919	 0.180962730024936 
920	 0.180973342688834 
921	 0.180907992224081 
922	 0.180769510744735 
923	 0.180626220307922 
924	 0.180623320075864 
925	 0.180657910319852 
926	 0.1807205965231 
927	 0.180759500437341 
928	 0.180619581883695 
929	 0.180577379811112 
930	 0.180607380876767 
931	 0.180619253848781 
932	 0.180572150658485 
933	 0.180511061644139 
934	 0.180465729906682 
935	 0.18044991642158 
936	 0.18045634224541 
937	 0.180381491063381 
938	 0.180301168289825 
939	 0.180303317541852 
940	 0.180289739020795 
941	 0.180268854451912 
942	 0.180302135500558 
943	 0.180411134467018 
944	 0.180386080763586 
945	 0.180365168539053 
946	 0.180359866826563 
947	 0.18033465102413 
948	 0.180343729394567 
949	 0.180294985444336 
950	 0.1801933973433 
951	 0.180112222137854 
952	 0.180154567836123 
953	 0.180248087599453 
954	 0.180306021736608 
955	 0.180283510987403 
956	 0.180355620419123 
957	 0.180315458751475 
958	 0.180232522221923 
959	 0.180293030983071 
960	 0.180246680384549 
961	 0.180226351282947 
962	 0.18030606060049 
963	 0.180438925853642 
964	 0.180235565490878 
965	 0.180163370108779 
966	 0.180281522829511 
967	 0.180334380227127 
968	 0.180259357496103 
969	 0.180249188160871 
970	 0.180315385736242 
971	 0.180340240282435 
972	 0.180329431793886 
973	 0.18040448614347 
974	 0.180506076184245 
975	 0.180486216659034 
976	 0.180470004939369 
977	 0.180480897775193 
978	 0.180503343507303 
979	 0.180507954369469 
980	 0.180537258837318 
981	 0.180472280985177 
982	 0.180351879771796 
983	 0.180310681892293 
984	 0.180383753046451 
985	 0.18051692690876 
986	 0.180579160592456 
987	 0.180490719710062 
988	 0.180578187289464 
989	 0.180633646855772 
990	 0.18063179563912 
991	 0.180654683885129 
992	 0.180747485754525 
993	 0.180660145798019 
994	 0.180625730425916 
995	 0.180884610804326 
996	 0.180777519732782 
997	 0.180702501206495 
998	 0.180706470172675 
999	 0.180740678786603 
1000	 0.180990501034509 
1001	 0.182515855190307 
1002	 0.182489207081806 
1003	 0.182458897382958 
1004	 0.18246783427797 
1005	 0.182555912593433 
1006	 0.182594557987405 
1007	 0.182627694669337 
1008	 0.182630608039868 
1009	 0.182628985244739 
1010	 0.182621247176515 
1011	 0.182614024723695 
1012	 0.182662192155578 
1013	 0.182774782710285 
1014	 0.182793791756613 
1015	 0.18276964436888 
1016	 0.18280826945274 
1017	 0.182844596377735 
1018	 0.182852755839459 
1019	 0.182912039247096 
1020	 0.183008105193992 
1021	 0.183036669348942 
1022	 0.183045970464711 
1023	 0.182997164619939 
1024	 0.182926200490328 
1025	 0.182923304969911 
1026	 0.182884782967957 
1027	 0.182861451134641 
1028	 0.182917342083776 
1029	 0.182923325139483 
1030	 0.18290774509301 
1031	 0.182885277094704 
1032	 0.182856598554678 
1033	 0.182804187797192 
1034	 0.182805928885191 
1035	 0.18285164384555 
1036	 0.182942529882528 
1037	 0.183042448597494 
1038	 0.183091374320398 
1039	 0.183066244187884 
1040	 0.183036200354371 
1041	 0.183068387802002 
1042	 0.183116025411223 
1043	 0.183155582348199 
1044	 0.1831864018054 
1045	 0.183230939506222 
1046	 0.183249780390043 
1047	 0.183234521007023 
1048	 0.183245031628266 
1049	 0.183289135233533 
1050	 0.183308182898811 
1051	 0.183351992530827 
1052	 0.183437211884075 
1053	 0.18354586968777 
1054	 0.183667323074368 
1055	 0.183754367101096 
1056	 0.183794818193872 
1057	 0.1838359472435 
1058	 0.183814083033761 
1059	 0.183858617813165 
1060	 0.183918304165301 
1061	 0.184021044049335 
1062	 0.184112468255201 
1063	 0.184210197419723 
1064	 0.184286904901743 
1065	 0.18435566708041 
1066	 0.184474449515685 
1067	 0.18455964564152 
1068	 0.184640452372224 
1069	 0.184723491619546 
1070	 0.184758321000444 
1071	 0.18473441361747 
1072	 0.184755146991964 
1073	 0.18476183160972 
1074	 0.184774077507047 
1075	 0.184802344465586 
1076	 0.184847583035756 
1077	 0.184859242033942 
1078	 0.184853792457398 
1079	 0.184858428589713 
1080	 0.184845350687998 
1081	 0.184816074533289 
1082	 0.184801277534336 
1083	 0.184781390439142 
1084	 0.184756417283085 
1085	 0.184720513204636 
1086	 0.184674650235661 
1087	 0.184650121473203 
1088	 0.184617482012158 
1089	 0.184608465558912 
1090	 0.184630447227549 
1091	 0.18460621023994 
1092	 0.184546798559799 
1093	 0.184501075787953 
1094	 0.18445752851044 
1095	 0.1844427111595 
1096	 0.18443967298223 
1097	 0.184422604942643 
1098	 0.184406697319338 
1099	 0.184379690834433 
1100	 0.184352496689427 
1101	 0.184329135153708 
1102	 0.184307387060441 
1103	 0.184284438465034 
1104	 0.184255935825688 
1105	 0.184215516990257 
1106	 0.184202965191413 
1107	 0.184208521718705 
1108	 0.184221140783577 
1109	 0.18425899190058 
1110	 0.184272925872631 
1111	 0.184283647124518 
1112	 0.184263945480583 
1113	 0.184286398003989 
1114	 0.184344771712969 
1115	 0.184367126716564 
1116	 0.18438767363155 
1117	 0.184407767349121 
1118	 0.184403833901467 
1119	 0.184398884965643 
1120	 0.184446796933127 
1121	 0.184496973268426 
1122	 0.18453225404864 
1123	 0.184586856607878 
1124	 0.184623802423857 
1125	 0.184646344187626 
1126	 0.184671837662283 
1127	 0.184685645270331 
1128	 0.184718128216551 
1129	 0.184753262488698 
1130	 0.184798245060614 
1131	 0.18487873221047 
1132	 0.184925965797727 
1133	 0.18495232567862 
1134	 0.184987450890739 
1135	 0.185034901570632 
1136	 0.185044579677363 
1137	 0.185028155928829 
1138	 0.185017924236386 
1139	 0.185026590727201 
1140	 0.18502306298945 
1141	 0.185027352915067 
1142	 0.185068069052211 
1143	 0.185081185836825 
1144	 0.185055307452631 
1145	 0.185061437220067 
1146	 0.185092571085904 
1147	 0.185107640635543 
1148	 0.1851321992021 
1149	 0.185140498888697 
1150	 0.185140091140594 
1151	 0.185125011875339 
1152	 0.185106755391566 
1153	 0.185090799316299 
1154	 0.185083951619076 
1155	 0.185086210781259 
1156	 0.185080866354995 
1157	 0.185090624704803 
1158	 0.185069252269656 
1159	 0.185009420557713 
1160	 0.184990166987278 
1161	 0.184972365742915 
1162	 0.184961560350545 
1163	 0.18499501343761 
1164	 0.184995485786541 
1165	 0.184976150512124 
1166	 0.184949549068624 
1167	 0.184943252985369 
1168	 0.184933765002653 
1169	 0.184926007947111 
1170	 0.184938971469966 
1171	 0.184924361358158 
1172	 0.184885333420503 
1173	 0.184866647682516 
1174	 0.184843038308484 
1175	 0.184830160335961 
1176	 0.184832550871057 
1177	 0.184829507399847 
1178	 0.184838440499873 
1179	 0.184829326357098 
1180	 0.18479642357124 
1181	 0.184785443529303 
1182	 0.184777403473304 
1183	 0.184761438235312 
1184	 0.184773018813946 
1185	 0.184817150803202 
1186	 0.184837996334874 
1187	 0.184859713623525 
1188	 0.184879474194031 
1189	 0.184891700331197 
1190	 0.184910039425519 
1191	 0.184933178823327 
1192	 0.18495296701087 
1193	 0.184973216825126 
1194	 0.184991773819077 
1195	 0.185015262803131 
1196	 0.185027756191273 
1197	 0.185033087823765 
1198	 0.185037181423138 
1199	 0.185037050939617 
1200	 0.185023984275552 
1201	 0.185028378728226 
1202	 0.185030746041595 
1203	 0.185053610470779 
1204	 0.185097686379616 
1205	 0.18512658362124 
1206	 0.18515949199412 
1207	 0.185195221017639 
1208	 0.185231317318797 
1209	 0.185259194598687 
1210	 0.185291678808579 
1211	 0.18531902328744 
1212	 0.185333625446947 
1213	 0.185349181031055 
1214	 0.185384615299379 
1215	 0.185391237549626 
1216	 0.185382515144143 
1217	 0.18534234195304 
1218	 0.185347858806496 
1219	 0.185353234828166 
1220	 0.185364248805703 
1221	 0.185413201996666 
1222	 0.185431451446519 
1223	 0.185423413788756 
1224	 0.185431816297062 
1225	 0.185443058613973 
1226	 0.185458259803246 
1227	 0.185479764333283 
1228	 0.185497531458805 
1229	 0.185521333953601 
1230	 0.185538098665275 
1231	 0.185551126534055 
1232	 0.185559897673672 
1233	 0.185564893970557 
1234	 0.185558702199258 
1235	 0.185574193268581 
1236	 0.185594050765065 
1237	 0.185616318027804 
1238	 0.185662941796141 
1239	 0.185679839378127 
1240	 0.185667522077728 
1241	 0.185687267014917 
1242	 0.185721969463883 
1243	 0.185738726929558 
1244	 0.185769586409421 
1245	 0.18578679386771 
1246	 0.185770728383172 
1247	 0.185772332291643 
1248	 0.18578271397786 
1249	 0.185796228253547 
1250	 0.185810692432559 
1251	 0.185825317985403 
1252	 0.185833631670552 
1253	 0.185834339244942 
1254	 0.185849068123222 
1255	 0.185873017294289 
1256	 0.185878732282208 
1257	 0.18588512389243 
1258	 0.185890534895866 
1259	 0.18587594143642 
1260	 0.185874348076852 
1261	 0.185893325851322 
1262	 0.185893824843123 
1263	 0.185878621228423 
1264	 0.185873417338577 
1265	 0.185866724574371 
1266	 0.18585984536554 
1267	 0.185854798812008 
1268	 0.185858090208157 
1269	 0.185852420289196 
1270	 0.18583761664958 
1271	 0.185834452253842 
1272	 0.185828625051881 
1273	 0.185839896431376 
1274	 0.185861625630583 
1275	 0.185890696422317 
1276	 0.185925157918897 
1277	 0.185976078742172 
1278	 0.186044196602969 
1279	 0.186109937699119 
1280	 0.186191684310475 
1281	 0.186269529254104 
1282	 0.186338281815582 
1283	 0.186420341120904 
1284	 0.186510282199612 
1285	 0.186607661596459 
1286	 0.186713662666045 
1287	 0.186809040557169 
1288	 0.186898577075551 
1289	 0.186981121591071 
1290	 0.187068936706744 
1291	 0.187154197620512 
1292	 0.187238785188908 
1293	 0.187331248586215 
1294	 0.187406907892708 
1295	 0.187466601874273 
1296	 0.187532963773351 
1297	 0.18760418354234 
1298	 0.187660442745906 
1299	 0.187718452658612 
1300	 0.187760731303724 
1301	 0.18778661599392 
1302	 0.187800370253166 
1303	 0.187800710770217 
1304	 0.187798149650819 
1305	 0.18777811339183 
1306	 0.187740182529697 
1307	 0.187701940130795 
1308	 0.187653822489131 
1309	 0.187615059238535 
1310	 0.187582225285595 
1311	 0.187540932232614 
1312	 0.187498104231937 
1313	 0.187454413254712 
1314	 0.1874038938688 
1315	 0.187354102097248 
1316	 0.187302917512116 
1317	 0.187257479383643 
1318	 0.187212475907951 
1319	 0.187166702771289 
1320	 0.187127731052916 
1321	 0.18708734358683 
1322	 0.187042891503189 
1323	 0.1870019804375 
1324	 0.186964828707087 
1325	 0.186911053985798 
1326	 0.186868072566867 
1327	 0.186832207361176 
1328	 0.186786754903908 
1329	 0.186758481393378 
1330	 0.186737389867019 
1331	 0.186710023543321 
1332	 0.18671156063136 
1333	 0.186741169053485 
1334	 0.186764619101289 
1335	 0.186798263199602 
1336	 0.186834977767265 
1337	 0.18688730034084 
1338	 0.186916216003146 
1339	 0.186932788854456 
1340	 0.186962445961573 
1341	 0.186976895215095 
1342	 0.187006337927521 
1343	 0.187057601174078 
1344	 0.187105238722934 
1345	 0.187136394923847 
1346	 0.187171217637617 
1347	 0.187223322195728 
1348	 0.187277664468925 
1349	 0.187329380134449 
1350	 0.187390522004795 
1351	 0.187439132545751 
1352	 0.187467131933052 
1353	 0.187515183572965 
1354	 0.187570388247005 
1355	 0.187626941572024 
1356	 0.187692950898817 
1357	 0.18774883671522 
1358	 0.187810890996336 
1359	 0.187858577063926 
1360	 0.187886667374038 
1361	 0.187929445424414 
1362	 0.187966513172669 
1363	 0.188013044578931 
1364	 0.188081219529696 
1365	 0.18813471285335 
1366	 0.18818211933186 
1367	 0.188228718718346 
1368	 0.188293213377697 
1369	 0.188328231874405 
1370	 0.188376891257779 
1371	 0.188431380582706 
1372	 0.188436144508538 
1373	 0.188450058021038 
1374	 0.188460430452946 
1375	 0.188461395058501 
1376	 0.188454093596272 
1377	 0.188443934928586 
1378	 0.18843565085966 
1379	 0.188414529331829 
1380	 0.188402735207408 
1381	 0.188403752973709 
1382	 0.188394440695116 
1383	 0.188376750867387 
1384	 0.188361503467534 
1385	 0.188347378977269 
1386	 0.188333214386773 
1387	 0.188323665214258 
1388	 0.188304162116442 
1389	 0.18828546903284 
1390	 0.188251479404224 
1391	 0.188205213505945 
1392	 0.188176353605709 
1393	 0.188146035810063 
1394	 0.188113357253384 
1395	 0.188070275811037 
1396	 0.188019227348003 
1397	 0.18798576693968 
1398	 0.187958519691508 
1399	 0.187916343068168 
1400	 0.18788606780853 
1401	 0.187842397129207 
1402	 0.1877729779877 
1403	 0.187718319054139 
1404	 0.187668491770179 
1405	 0.187621987125776 
1406	 0.187580121169484 
1407	 0.18753533165631 
1408	 0.187495600323747 
1409	 0.187448692209895 
1410	 0.18739375048045 
1411	 0.187342226856187 
1412	 0.187280460779827 
1413	 0.187240073273278 
1414	 0.187221024654122 
1415	 0.187188387217696 
1416	 0.187164171337395 
1417	 0.187150451223702 
1418	 0.187119618671895 
1419	 0.187083536438877 
1420	 0.187062286242757 
1421	 0.187043138853961 
1422	 0.187025273670469 
1423	 0.187018340487113 
1424	 0.187003288385682 
1425	 0.186988117048491 
1426	 0.186968498687557 
1427	 0.186941126717464 
1428	 0.186923110718642 
1429	 0.186907638621231 
1430	 0.186894110011411 
1431	 0.186885690547144 
1432	 0.186875818496298 
1433	 0.186864770051539 
1434	 0.186857011275336 
1435	 0.186846156000851 
1436	 0.186844705525446 
1437	 0.186850787490284 
1438	 0.186857170794881 
1439	 0.186870204451104 
1440	 0.186886467643776 
1441	 0.186891368615268 
1442	 0.186897393244434 
1443	 0.186902855510097 
1444	 0.186903479234437 
1445	 0.186919062454825 
1446	 0.186937264447787 
1447	 0.186955636515708 
1448	 0.186989416849113 
1449	 0.18701369294226 
1450	 0.187036567543669 
1451	 0.187053976041312 
1452	 0.187061447393733 
1453	 0.187077509575935 
1454	 0.187092066908113 
1455	 0.187112267997753 
1456	 0.187149641046438 
1457	 0.187166609282587 
1458	 0.187173906028277 
1459	 0.18717762943705 
1460	 0.187165281413322 
1461	 0.187164527981585 
1462	 0.187169137621788 
1463	 0.187174844016107 
1464	 0.187181118457763 
1465	 0.187188379692296 
1466	 0.187200649360006 
1467	 0.187209735866228 
1468	 0.187217382941348 
1469	 0.187225397349989 
1470	 0.187237186722879 
1471	 0.187237169104659 
1472	 0.187230471032255 
1473	 0.187233377414736 
1474	 0.187225167465738 
1475	 0.187222882153756 
1476	 0.187223937151946 
1477	 0.187219283521031 
1478	 0.187217936253271 
1479	 0.187196287968922 
1480	 0.18718044211554 
1481	 0.187182771274631 
1482	 0.187171717062184 
1483	 0.18715934451798 
1484	 0.187150129748821 
1485	 0.187129863038119 
1486	 0.18712696428808 
1487	 0.187136541543752 
1488	 0.187142645510528 
1489	 0.187160677373173 
1490	 0.187164814139376 
1491	 0.187156643951434 
1492	 0.187162533789956 
1493	 0.187172376785374 
1494	 0.187174573130702 
1495	 0.187186479685087 
1496	 0.18719040590335 
1497	 0.187177849304204 
1498	 0.187174606667394 
1499	 0.187181100709715 
1500	 0.187173952523136 
1501	 0.187162803796871 
1502	 0.187148933917278 
1503	 0.187124502110136 
1504	 0.187099872532401 
1505	 0.187087675658699 
1506	 0.187087219021774 
1507	 0.187095229465787 
1508	 0.187106002097783 
1509	 0.187112245486274 
1510	 0.187120968017411 
1511	 0.187131537959542 
1512	 0.187134092440313 
1513	 0.187150050930486 
1514	 0.187150648717172 
1515	 0.187137170021786 
1516	 0.187140757007424 
1517	 0.187128109158771 
1518	 0.18709640650913 
1519	 0.18708693177399 
1520	 0.187082111137831 
1521	 0.187077755061344 
1522	 0.187079966264016 
1523	 0.187088636295704 
1524	 0.187101129952607 
1525	 0.18711038659652 
1526	 0.187133886354116 
1527	 0.187140510476865 
1528	 0.187129399812226 
1529	 0.187133038762762 
1530	 0.187139788756254 
1531	 0.187143057246316 
1532	 0.187151433232151 
1533	 0.187154827086013 
1534	 0.187147298080108 
1535	 0.187150300678902 
1536	 0.187158911363683 
1537	 0.187170412811626 
1538	 0.18719049979689 
1539	 0.187203629788289 
1540	 0.187222470377501 
1541	 0.18722501777535 
1542	 0.18720916849322 
1543	 0.18720803860172 
1544	 0.187204717689124 
1545	 0.187202423389744 
1546	 0.187215301764763 
1547	 0.187213535790559 
1548	 0.187200890789966 
1549	 0.18719695217802 
1550	 0.187196225140185 
1551	 0.18720281578214 
1552	 0.187207680735165 
1553	 0.187215762724441 
1554	 0.187234208184677 
1555	 0.187243025381484 
1556	 0.187241893667953 
1557	 0.187239718740154 
1558	 0.187240659116872 
1559	 0.187235990620753 
1560	 0.187229210344524 
1561	 0.187230063531299 
1562	 0.187225424891101 
1563	 0.187202634830089 
1564	 0.1872067386309 
1565	 0.187226385357579 
1566	 0.187243420670985 
1567	 0.187276623444616 
1568	 0.187285689203823 
1569	 0.187288768019907 
1570	 0.187284293698716 
1571	 0.187264853339468 
1572	 0.187248922647251 
1573	 0.187229378079561 
1574	 0.187213151854128 
1575	 0.187190362114081 
1576	 0.187175426503241 
1577	 0.187170142022881 
1578	 0.187154607112517 
1579	 0.187138997249488 
1580	 0.187122647055273 
1581	 0.187096446931577 
1582	 0.187079056218737 
1583	 0.187069883019522 
1584	 0.187053473549681 
1585	 0.187034427129955 
1586	 0.187019354578544 
1587	 0.186999934496261 
1588	 0.186986773943305 
1589	 0.186985667616658 
1590	 0.186974018212673 
1591	 0.186958607004449 
1592	 0.186944968361585 
1593	 0.186922193430337 
1594	 0.186909161885538 
1595	 0.186901655633586 
1596	 0.18689470024913 
1597	 0.186899113381399 
1598	 0.18689277329404 
1599	 0.186881502042309 
1600	 0.186872290649042 
1601	 0.186851591365059 
1602	 0.186841281301662 
1603	 0.186843201358008 
1604	 0.186837119527377 
1605	 0.186826851361052 
1606	 0.186823680202268 
1607	 0.18682019718198 
1608	 0.186821813647317 
1609	 0.186816817415951 
1610	 0.186806808603666 
1611	 0.186793896348436 
1612	 0.186777446931901 
1613	 0.186753793672635 
1614	 0.186733124954869 
1615	 0.186718481352416 
1616	 0.186695968441933 
1617	 0.186688825471923 
1618	 0.186695723655003 
1619	 0.18668089753023 
1620	 0.18666884598803 
1621	 0.186663877208125 
1622	 0.186663599006705 
1623	 0.186655441435121 
1624	 0.186648145382729 
1625	 0.186643920553371 
1626	 0.186636594741037 
1627	 0.186626199626308 
1628	 0.186621246323688 
1629	 0.186611871481099 
1630	 0.186591576991618 
1631	 0.186580385142314 
1632	 0.18657767981224 
1633	 0.186566720403383 
1634	 0.186550139060875 
1635	 0.186540471761942 
1636	 0.186532826742122 
1637	 0.18652367532604 
1638	 0.186515355593133 
1639	 0.186509610109784 
1640	 0.186502941894023 
1641	 0.186499235714943 
1642	 0.186500839513824 
1643	 0.186501802740486 
1644	 0.186503936335158 
1645	 0.186501730827443 
1646	 0.186499513289542 
1647	 0.186495854624458 
1648	 0.186489704719874 
1649	 0.186481713501036 
1650	 0.186477327539467 
1651	 0.186461079053027 
1652	 0.186432256607347 
1653	 0.18641252449348 
1654	 0.186388756963167 
1655	 0.186370858874085 
1656	 0.186363085662003 
1657	 0.186345847170931 
1658	 0.186323104416073 
1659	 0.186305591920715 
1660	 0.186281221551346 
1661	 0.186272603443737 
1662	 0.18627363797471 
1663	 0.186277065931826 
1664	 0.186300664352417 
1665	 0.186298299986957 
1666	 0.186283080308454 
1667	 0.186275235995324 
1668	 0.186258748847435 
1669	 0.186242348385852 
1670	 0.186227624729205 
1671	 0.186219716217919 
1672	 0.186217175775142 
1673	 0.186196772235176 
1674	 0.186174767884904 
1675	 0.186153681693741 
1676	 0.186104240708385 
1677	 0.186088420804471 
1678	 0.186101562885329 
1679	 0.186100653933463 
1680	 0.186115804159297 
1681	 0.186102989139438 
1682	 0.1860665072097 
1683	 0.186048158426649 
1684	 0.186016666156922 
1685	 0.186002666528524 
1686	 0.18600569645466 
1687	 0.186011008760037 
1688	 0.186030156336653 
1689	 0.186032316721327 
1690	 0.186034680491691 
1691	 0.186033160153972 
1692	 0.186020612943678 
1693	 0.186005577366289 
1694	 0.185991219356203 
1695	 0.185974699333618 
1696	 0.185940429835973 
1697	 0.185927337663319 
1698	 0.185922803097646 
1699	 0.185927450546592 
1700	 0.185951867763838 
1701	 0.185959087205645 
1702	 0.185970888118713 
1703	 0.185971137522406 
1704	 0.185961041529674 
1705	 0.185945168539445 
1706	 0.185918961983824 
1707	 0.185898184333519 
1708	 0.185864629674559 
1709	 0.185848111960957 
1710	 0.185840616047183 
1711	 0.185841627044548 
1712	 0.185855426641989 
1713	 0.185862210249757 
1714	 0.185879341827637 
1715	 0.185883518185801 
1716	 0.185883316871549 
1717	 0.185874484217465 
1718	 0.185855429485439 
1719	 0.18583418783631 
1720	 0.185797765217305 
1721	 0.185780284789392 
1722	 0.185778479057326 
1723	 0.185756789646411 
1724	 0.185728889778685 
1725	 0.185709962323215 
1726	 0.185675523182575 
1727	 0.185659192229471 
1728	 0.185679797308633 
1729	 0.18565658983821 
1730	 0.185613683920065 
1731	 0.185576473419482 
1732	 0.185515468079807 
1733	 0.185468244678992 
1734	 0.185437044617422 
1735	 0.185386685366939 
1736	 0.185317966086374 
1737	 0.185279801162338 
1738	 0.185248516442671 
1739	 0.18521943744949 
1740	 0.185210828993883 
1741	 0.185188946905164 
1742	 0.185158943766775 
1743	 0.185128686038176 
1744	 0.185094873109495 
1745	 0.185080413419695 
1746	 0.185065133616311 
1747	 0.185070227989228 
1748	 0.185084110923939 
1749	 0.185065114978248 
1750	 0.185049249694886 
1751	 0.18501055480071 
1752	 0.184965935035148 
1753	 0.18493021430633 
1754	 0.18488084458223 
1755	 0.184845999399589 
1756	 0.184812376162363 
1757	 0.184789618144822 
1758	 0.184787866107257 
1759	 0.184763800629707 
1760	 0.18471297530768 
1761	 0.184671244044122 
1762	 0.1846331855373 
1763	 0.184596833485162 
1764	 0.184606485869784 
1765	 0.184622588634839 
1766	 0.184614431022744 
1767	 0.184624340851691 
1768	 0.184621786551608 
1769	 0.184592545857478 
1770	 0.184579765182364 
1771	 0.184557041370537 
1772	 0.184522625144153 
1773	 0.184506414971528 
1774	 0.184455963708752 
1775	 0.184395835764652 
1776	 0.184385958964244 
1777	 0.184378472310287 
1778	 0.184362854853765 
1779	 0.184369111247766 
1780	 0.184359925147699 
1781	 0.184318204950786 
1782	 0.184285634369577 
1783	 0.184266453965275 
1784	 0.184256017050068 
1785	 0.184264221112101 
1786	 0.18426615916638 
1787	 0.184280132855613 
1788	 0.184276814363921 
1789	 0.184266186685312 
1790	 0.184258200464622 
1791	 0.18422396492224 
1792	 0.184208310834539 
1793	 0.184206243711279 
1794	 0.184207643560798 
1795	 0.18422938702598 
1796	 0.184231299928867 
1797	 0.184234328545206 
1798	 0.184215786362033 
1799	 0.18415698724315 
1800	 0.18414410824011 
1801	 0.183197965254773 
1802	 0.183226950811599 
1803	 0.183254973645069 
1804	 0.183323173923095 
1805	 0.183388434819988 
1806	 0.183430411458463 
1807	 0.183483484538672 
1808	 0.183510509923163 
1809	 0.183497402194303 
1810	 0.183507216702276 
1811	 0.183523755437664 
1812	 0.183523796169289 
1813	 0.183531719488947 
1814	 0.183543353048365 
1815	 0.183546825833367 
1816	 0.183548324690538 
1817	 0.183550209101382 
1818	 0.183549248537673 
1819	 0.183552965588749 
1820	 0.183555540293302 
1821	 0.183572300903286 
1822	 0.183562651989137 
1823	 0.183530781345822 
1824	 0.183503645881521 
1825	 0.183468048269619 
1826	 0.183462599160747 
1827	 0.183480038455136 
1828	 0.183481681978525 
1829	 0.183486295189179 
1830	 0.183477520717471 
1831	 0.183456964602086 
1832	 0.183441441641201 
1833	 0.183413475933974 
1834	 0.183401917099852 
1835	 0.18342150831573 
1836	 0.183420173947345 
1837	 0.183415669539042 
1838	 0.183418555748134 
1839	 0.183423661232041 
1840	 0.183421567941598 
1841	 0.183427072818779 
1842	 0.183433352085479 
1843	 0.183453449742959 
1844	 0.183471868303361 
1845	 0.18343393235463 
1846	 0.183381341510169 
1847	 0.183349604479288 
1848	 0.183301404384444 
1849	 0.183276219333669 
1850	 0.183256937532692 
1851	 0.183272331228708 
1852	 0.183240744659836 
1853	 0.183220150924589 
1854	 0.18322659124877 
1855	 0.183228750352286 
1856	 0.183256559121249 
1857	 0.183266480329211 
1858	 0.183243242198383 
1859	 0.183216816686193 
1860	 0.183177821662016 
1861	 0.18311995322865 
1862	 0.183050366064562 
1863	 0.182999738567273 
1864	 0.182948082005534 
1865	 0.182901891364184 
1866	 0.182861468406042 
1867	 0.18280536855719 
1868	 0.182771893022175 
1869	 0.182743040161076 
1870	 0.182708265845223 
1871	 0.182676453972506 
1872	 0.182655179474213 
1873	 0.182620837188833 
1874	 0.182579511531925 
1875	 0.182541392030026 
1876	 0.182492873699464 
1877	 0.182412913954088 
1878	 0.182318573461663 
1879	 0.182238104458723 
1880	 0.182158430094055 
1881	 0.182086998253368 
1882	 0.182002630755451 
1883	 0.181926118215707 
1884	 0.181821446282762 
1885	 0.18170153797971 
1886	 0.181564952629431 
1887	 0.18140705397747 
1888	 0.181254768410805 
1889	 0.181096204908548 
1890	 0.180947902361565 
1891	 0.180803859044272 
1892	 0.180683712910202 
1893	 0.180533124311299 
1894	 0.180377364212379 
1895	 0.180206674153502 
1896	 0.180017291325658 
1897	 0.179795363898354 
1898	 0.179583888210556 
1899	 0.179382333953128 
1900	 0.17916667918786 
1901	 0.178971603620206 
1902	 0.178774163757735 
1903	 0.178576357100806 
1904	 0.178374048793145 
1905	 0.178177354246668 
1906	 0.17798092995456 
1907	 0.177764193627973 
1908	 0.177542903860075 
1909	 0.177324346769333 
1910	 0.17708057369294 
1911	 0.176844930404234 
1912	 0.176617607475047 
1913	 0.176382749191019 
1914	 0.176152498055638 
1915	 0.175908646194549 
1916	 0.175645957934309 
1917	 0.175398923945159 
1918	 0.175159355790788 
1919	 0.174913315324819 
1920	 0.174714869196311 
1921	 0.174494908783141 
1922	 0.174253205638958 
1923	 0.174035761442164 
1924	 0.173804160756845 
1925	 0.173547177278434 
1926	 0.173318640535987 
1927	 0.173096631269794 
1928	 0.172888098111479 
1929	 0.172692257233722 
1930	 0.172497398119371 
1931	 0.172305695172782 
1932	 0.172104188610615 
1933	 0.171925720490787 
1934	 0.171772235373598 
1935	 0.171637367855939 
1936	 0.171534390356596 
1937	 0.171438312666664 
1938	 0.171359531786743 
1939	 0.17128651094528 
1940	 0.17122797139855 
1941	 0.17117012252831 
1942	 0.171130820850055 
1943	 0.171101109831784 
1944	 0.17108563049544 
1945	 0.17108351806259 
1946	 0.171088569501491 
1947	 0.171110757369572 
1948	 0.171125379264861 
1949	 0.171151660408115 
1950	 0.171169196483624 
1951	 0.171186949697146 
1952	 0.171184251047452 
1953	 0.17119192469874 
1954	 0.171198146592969 
1955	 0.17120657568352 
1956	 0.171211390073694 
1957	 0.171209145248123 
1958	 0.171199846712147 
1959	 0.171195941002672 
1960	 0.171179289527761 
1961	 0.171181803586338 
1962	 0.171207051844588 
1963	 0.171215046005333 
1964	 0.171221752026156 
1965	 0.171226225231155 
1966	 0.171237001172948 
1967	 0.171229384200542 
1968	 0.171221603374035 
1969	 0.1712169180889 
1970	 0.171209669806418 
1971	 0.171177826672673 
1972	 0.171176745222913 
1973	 0.171203450363197 
1974	 0.171208209172981 
1975	 0.171209851228845 
1976	 0.171220053178465 
1977	 0.171222641055775 
1978	 0.171224534188579 
1979	 0.171232260591833 
1980	 0.171246887158309 
1981	 0.171254241819493 
1982	 0.171248572372329 
1983	 0.171254806289455 
1984	 0.171260652232728 
1985	 0.171278806602493 
1986	 0.171303549667678 
1987	 0.171335468398239 
1988	 0.171383674258636 
1989	 0.171428380459914 
1990	 0.171461749650256 
1991	 0.171511936433745 
1992	 0.171554059374673 
1993	 0.171593125450642 
1994	 0.171630224318928 
1995	 0.171663820043727 
1996	 0.171703005364883 
1997	 0.171739671688552 
1998	 0.17177930157381 
1999	 0.171829795639887 
2000	 0.17187411137086 
2001	 0.171908836824311 
2002	 0.171953240265445 
2003	 0.172007148216651 
2004	 0.172053326789616 
2005	 0.172100417979826 
2006	 0.172153411809325 
2007	 0.172200755294497 
2008	 0.172235502282148 
2009	 0.172282733989275 
2010	 0.172339046634292 
2011	 0.172389635241946 
2012	 0.172449960007107 
2013	 0.17249929528971 
2014	 0.172551176259715 
2015	 0.17257757297541 
2016	 0.172593240345614 
2017	 0.172611956957275 
2018	 0.172656361446691 
2019	 0.17271810249034 
2020	 0.172766326666106 
2021	 0.172849950204228 
2022	 0.172884593669711 
2023	 0.172875565755061 
2024	 0.172886010723237 
2025	 0.172875327043286 
2026	 0.172881031340204 
2027	 0.172910228422137 
2028	 0.172924422404797 
2029	 0.172931012693141 
2030	 0.172934094484475 
2031	 0.172945329235907 
2032	 0.172944988146459 
2033	 0.172957272945951 
2034	 0.172989492134387 
2035	 0.173003130358338 
2036	 0.17301136618214 
2037	 0.173018622297948 
2038	 0.173023849228277 
2039	 0.173020613247537 
2040	 0.17301679274585 
2041	 0.172991733063989 
2042	 0.172983906019868 
2043	 0.173001127139181 
2044	 0.172995662659365 
2045	 0.173005060006253 
2046	 0.172991114898427 
2047	 0.17295445066909 
2048	 0.172916036517744 
2049	 0.172860507366095 
2050	 0.172823446294745 
2051	 0.172796672148475 
2052	 0.172750363837605 
2053	 0.172695952178232 
2054	 0.172656838897872 
2055	 0.172608086169098 
2056	 0.172555556587394 
2057	 0.172529587560413 
2058	 0.172545378927269 
2059	 0.172518266499729 
2060	 0.172473735248634 
2061	 0.172448528803042 
2062	 0.172418006778185 
2063	 0.172388446463836 
2064	 0.172378878109735 
2065	 0.172354324384366 
2066	 0.172302294656245 
2067	 0.172274232128686 
2068	 0.172253146042662 
2069	 0.172235899488972 
2070	 0.172240963018039 
2071	 0.172278840859105 
2072	 0.172275598875578 
2073	 0.172271109120327 
2074	 0.172263506634816 
2075	 0.172219127837502 
2076	 0.172212940587299 
2077	 0.172232875847901 
2078	 0.172243490901035 
2079	 0.172275970908368 
2080	 0.172281851058061 
2081	 0.172260637403081 
2082	 0.172260855914178 
2083	 0.172260521891251 
2084	 0.172252748535929 
2085	 0.172268158422786 
2086	 0.172307434113046 
2087	 0.172340434682165 
2088	 0.172377132354764 
2089	 0.172417248868725 
2090	 0.172479420029081 
2091	 0.172511173799715 
2092	 0.172512750905837 
2093	 0.172547541827295 
2094	 0.172583763193805 
2095	 0.172620640513125 
2096	 0.172679418895544 
2097	 0.172738448965406 
2098	 0.172794722854448 
2099	 0.172844249843938 
2100	 0.172904406467724 
2101	 0.172976157897912 
2102	 0.173048330702072 
2103	 0.173112641547251 
2104	 0.173199245667676 
2105	 0.173308204932503 
2106	 0.173407571379014 
2107	 0.173501726044828 
2108	 0.173617865309299 
2109	 0.173743503636511 
2110	 0.173873847785926 
2111	 0.174046877148938 
2112	 0.174182001437943 
2113	 0.174306278488704 
2114	 0.174405473952548 
2115	 0.174518131563667 
2116	 0.174613300161527 
2117	 0.174721619383305 
2118	 0.174834878620115 
2119	 0.174960149796217 
2120	 0.175093305279064 
2121	 0.175217732325441 
2122	 0.175356301577495 
2123	 0.175483916606868 
2124	 0.17559624803469 
2125	 0.175712449041726 
2126	 0.175833831894497 
2127	 0.175948358721217 
2128	 0.176051649427673 
2129	 0.176160328289712 
2130	 0.176272765811506 
2131	 0.176392719948193 
2132	 0.176476713822586 
2133	 0.176549973953128 
2134	 0.176611885566201 
2135	 0.176640297216879 
2136	 0.176682953523904 
2137	 0.17674181665721 
2138	 0.176765017863567 
2139	 0.176764764198491 
2140	 0.176766848168962 
2141	 0.176735336633748 
2142	 0.176729797338075 
2143	 0.176735280972408 
2144	 0.176744636345739 
2145	 0.176775234643611 
2146	 0.176790332227184 
2147	 0.176810883137943 
2148	 0.176813261238599 
2149	 0.176806491877426 
2150	 0.176785470182997 
2151	 0.176760599470634 
2152	 0.176724780839226 
2153	 0.176687433637821 
2154	 0.176646810619878 
2155	 0.176595578935987 
2156	 0.176534874173019 
2157	 0.176472279274388 
2158	 0.176404929749979 
2159	 0.17632873573086 
2160	 0.176247778397795 
2161	 0.176160323671759 
2162	 0.176054934362037 
2163	 0.175956416423009 
2164	 0.175864852027335 
2165	 0.175761935013081 
2166	 0.17565556963344 
2167	 0.175541857764939 
2168	 0.175442458835267 
2169	 0.175338713598118 
2170	 0.175246732217902 
2171	 0.175175334909751 
2172	 0.175088577012125 
2173	 0.174995115104112 
2174	 0.174907257443705 
2175	 0.174821947042367 
2176	 0.174731749543987 
2177	 0.174645578802322 
2178	 0.174551746792379 
2179	 0.17444337599302 
2180	 0.174345129110366 
2181	 0.174253747709451 
2182	 0.174154927856749 
2183	 0.174057054403604 
2184	 0.173952902918119 
2185	 0.173859475514434 
2186	 0.173757001889271 
2187	 0.173677957146555 
2188	 0.173622205977011 
2189	 0.173553895927541 
2190	 0.173506818503413 
2191	 0.173419631567877 
2192	 0.173304646002516 
2193	 0.173202047888751 
2194	 0.173064851939005 
2195	 0.172967224669586 
2196	 0.172894571274127 
2197	 0.172823461734222 
2198	 0.172765047929004 
2199	 0.172716485892864 
2200	 0.172678453856038 
2201	 0.172645037047983 
2202	 0.172624151955143 
2203	 0.172613992958308 
2204	 0.172587276376658 
2205	 0.172568136002342 
2206	 0.172512807336829 
2207	 0.172419915039725 
2208	 0.172367418579951 
2209	 0.172307873966345 
2210	 0.172262957054332 
2211	 0.172262896978258 
2212	 0.172222252328833 
2213	 0.172151416269079 
2214	 0.172097951607752 
2215	 0.172020361844083 
2216	 0.17198772646454 
2217	 0.171997463299915 
2218	 0.171986344536772 
2219	 0.171996965394148 
2220	 0.171992097678482 
2221	 0.171961695036021 
2222	 0.171943308056248 
2223	 0.171922686586283 
2224	 0.171912888823119 
2225	 0.171895048107492 
2226	 0.171875202896823 
2227	 0.171853022138936 
2228	 0.171825776435458 
2229	 0.171808252494662 
2230	 0.171805143365416 
2231	 0.171769095345787 
2232	 0.171716345164157 
2233	 0.171675701416358 
2234	 0.171606774955232 
2235	 0.171567390338744 
2236	 0.171551907890736 
2237	 0.171543478822539 
2238	 0.171549385267663 
2239	 0.171548489827836 
2240	 0.171559333575582 
2241	 0.171566121601186 
2242	 0.171577550665682 
2243	 0.17157056483239 
2244	 0.171563370809584 
2245	 0.171540542107578 
2246	 0.171483119624698 
2247	 0.17143686211345 
2248	 0.171415742080097 
2249	 0.171404216029266 
2250	 0.171399784772462 
2251	 0.171425955169012 
2252	 0.171424119805453 
2253	 0.171417358116018 
2254	 0.171405875396678 
2255	 0.171378325373771 
2256	 0.171364078863002 
2257	 0.171362966767639 
2258	 0.171336297170387 
2259	 0.171287002986234 
2260	 0.171267164174957 
2261	 0.171232223948489 
2262	 0.171228621960415 
2263	 0.171267908493128 
2264	 0.171295918016901 
2265	 0.171351301103517 
2266	 0.171373162936768 
2267	 0.171399247398237 
2268	 0.171392284826656 
2269	 0.171365797671642 
2270	 0.17127647696503 
2271	 0.171208704262861 
2272	 0.171153863354616 
2273	 0.171120290615134 
2274	 0.171105680353416 
2275	 0.17108059697706 
2276	 0.171059923526443 
2277	 0.17104123940986 
2278	 0.171027951221178 
2279	 0.170998215546922 
2280	 0.170954353949301 
2281	 0.170934383198371 
2282	 0.17091368136137 
2283	 0.170898553461233 
2284	 0.170915689731332 
2285	 0.170906550740483 
2286	 0.170886101764636 
2287	 0.170853513142121 
2288	 0.170792656338417 
2289	 0.170759675244652 
2290	 0.170726400662509 
2291	 0.170699814506108 
2292	 0.170704210272667 
2293	 0.170694420554571 
2294	 0.170669543303856 
2295	 0.170652091460994 
2296	 0.170643113434585 
2297	 0.170625594567319 
2298	 0.170605476236634 
2299	 0.170584747639875 
2300	 0.170551694335386 
2301	 0.170540557643638 
2302	 0.170499165555206 
2303	 0.170465358651407 
2304	 0.17045599264871 
2305	 0.170403292391671 
2306	 0.17037802075114 
2307	 0.170386469124912 
2308	 0.170345018099878 
2309	 0.170275103774023 
2310	 0.170226759821794 
2311	 0.170157403448224 
2312	 0.170113708629805 
2313	 0.170111822863848 
2314	 0.170069168882158 
2315	 0.170003999182208 
2316	 0.169953205064556 
2317	 0.169890855278931 
2318	 0.169826554223871 
2319	 0.16977251313328 
2320	 0.169717712796644 
2321	 0.169639269064066 
2322	 0.169587916734323 
2323	 0.169548726944155 
2324	 0.169527575992656 
2325	 0.169540820044688 
2326	 0.169538118088707 
2327	 0.169554704333728 
2328	 0.16954648908958 
2329	 0.16950259111645 
2330	 0.169474842019935 
2331	 0.169457045117071 
2332	 0.169428484623068 
2333	 0.169380812915178 
2334	 0.169348798995305 
2335	 0.169351936772682 
2336	 0.169351194250393 
2337	 0.169365695793801 
2338	 0.169395488223206 
2339	 0.169366311842323 
2340	 0.169324608269372 
2341	 0.169319898927032 
2342	 0.169259897769385 
2343	 0.169188425855087 
2344	 0.169115854041153 
2345	 0.169033267554605 
2346	 0.168920383585199 
2347	 0.168852249482389 
2348	 0.168811437758016 
2349	 0.168738621774396 
2350	 0.168690447452052 
2351	 0.168596577328179 
2352	 0.168442882442579 
2353	 0.1683167370382 
2354	 0.168172653383942 
2355	 0.168061961277991 
2356	 0.168002347622948 
2357	 0.167888531492556 
2358	 0.167736057230763 
2359	 0.167632874464149 
2360	 0.167512807828482 
2361	 0.167409242711693 
2362	 0.167398215975853 
2363	 0.167301693611321 
2364	 0.16712026853362 
2365	 0.167008822510749 
2366	 0.166899133065915 
2367	 0.166810527538934 
2368	 0.166770540145788 
2369	 0.16670238681758 
2370	 0.166642424797276 
2371	 0.166551675973985 
2372	 0.166416597922783 
2373	 0.166324117202135 
2374	 0.166202256001325 
2375	 0.166046254533713 
2376	 0.165892512672078 
2377	 0.165729694195651 
2378	 0.165575476481591 
2379	 0.165397709740806 
2380	 0.165259284324666 
2381	 0.16515550014292 
2382	 0.165015124271391 
2383	 0.164883113945309 
2384	 0.16471371800444 
2385	 0.164557199816492 
2386	 0.164453495816355 
2387	 0.164330567890013 
2388	 0.164254288800095 
2389	 0.164118717209175 
2390	 0.163928850738018 
2391	 0.163807986663187 
2392	 0.163620629053752 
2393	 0.163459373405143 
2394	 0.16334315350742 
2395	 0.163141636479465 
2396	 0.162954594566852 
2397	 0.162843991783357 
2398	 0.162759697226212 
2399	 0.16265198708163 
2400	 0.162616252280873 
2401	 0.162559039485763 
2402	 0.162481378092485 
2403	 0.162510206387515 
2404	 0.162483047238327 
2405	 0.162491643285272 
2406	 0.16250738039651 
2407	 0.162458604586967 
2408	 0.162428082362867 
2409	 0.162309512465158 
2410	 0.162182787077634 
2411	 0.162093378760195 
2412	 0.162031932147885 
2413	 0.162065088448595 
2414	 0.162110663521696 
2415	 0.162070148811807 
2416	 0.162040890045061 
2417	 0.161995471278808 
2418	 0.161968095955228 
2419	 0.161910907032088 
2420	 0.161899362645031 
2421	 0.161942151406581 
2422	 0.161915836372393 
2423	 0.161915813664783 
2424	 0.161886885406087 
2425	 0.161772972063807 
2426	 0.161662939509564 
2427	 0.161510864394243 
2428	 0.161404610978412 
2429	 0.161310723648854 
2430	 0.161297300473914 
2431	 0.16136442672455 
2432	 0.16141312284288 
2433	 0.161518086725931 
2434	 0.161519963381197 
2435	 0.161482803785498 
2436	 0.161400728968899 
2437	 0.161223017124349 
2438	 0.161122668833906 
2439	 0.161042046262561 
2440	 0.160937342539747 
2441	 0.160869288055104 
2442	 0.160784004820422 
2443	 0.160619466912969 
2444	 0.160537302929021 
2445	 0.160520717648392 
2446	 0.160437091896934 
2447	 0.16037992174074 
2448	 0.160255009512177 
2449	 0.160052947539262 
2450	 0.159926109361227 
2451	 0.159774314747071 
2452	 0.159687797726669 
2453	 0.159695305818219 
2454	 0.159590932603522 
2455	 0.159451166794583 
2456	 0.159340123479086 
2457	 0.159264278328004 
2458	 0.15906740782181 
2459	 0.158790909192465 
2460	 0.158593200114142 
2461	 0.158224375280632 
2462	 0.15809444042458 
2463	 0.158175103824634 
2464	 0.15811167407127 
2465	 0.158173103418924 
2466	 0.158115427211208 
2467	 0.15798046095442 
2468	 0.157812645930883 
2469	 0.157502921152108 
2470	 0.157434296746983 
2471	 0.157367880285571 
2472	 0.15744791939136 
2473	 0.157440416756048 
2474	 0.157376828927462 
2475	 0.157349814822611 
2476	 0.157179007343193 
2477	 0.157023155623598 
2478	 0.156824816135291 
2479	 0.156575295188805 
2480	 0.156513323514097 
2481	 0.156353717816092 
2482	 0.156156029785088 
2483	 0.156057894546598 
2484	 0.155903629647883 
2485	 0.155768119561461 
2486	 0.155583354410631 
2487	 0.15537649431789 
2488	 0.15525244470638 
2489	 0.155172553090661 
2490	 0.155306484402228 
2491	 0.155457772585515 
2492	 0.15531115431319 
2493	 0.155253895817485 
2494	 0.155170186530034 
2495	 0.154928166836463 
2496	 0.154851742159207 
2497	 0.154785693343405 
2498	 0.154680230867551 
2499	 0.154547417635318 
2500	 0.154440734220152 
