Wavelength	LMW600006.asd
350	 0.113890546076728 
351	 0.111908694193606 
352	 0.109137125892654 
353	 0.109596535997429 
354	 0.105531279665137 
355	 0.10917406446412 
356	 0.112348412722711 
357	 0.107272032801743 
358	 0.108354455394657 
359	 0.110494643860609 
360	 0.110793958119471 
361	 0.108708877821998 
362	 0.109479911863762 
363	 0.111934874777185 
364	 0.113920191006959 
365	 0.112900577590336 
366	 0.112904801779024 
367	 0.113315453710848 
368	 0.113021059671128 
369	 0.114539270323203 
370	 0.114777710212062 
371	 0.114207040062716 
372	 0.11551627660192 
373	 0.116380232406294 
374	 0.115990867272358 
375	 0.115133182453544 
376	 0.117203243381312 
377	 0.114932897521474 
378	 0.112929787050961 
379	 0.116470934749425 
380	 0.11790373677366 
381	 0.11756973721347 
382	 0.117027682542026 
383	 0.118322883738814 
384	 0.119936631443122 
385	 0.120231231643506 
386	 0.119297972144794 
387	 0.120410343358048 
388	 0.122079484657544 
389	 0.123326849473112 
390	 0.123776237073389 
391	 0.125350353587792 
392	 0.125531903805727 
393	 0.124376754867226 
394	 0.124264438396337 
395	 0.126445369843798 
396	 0.128071497256497 
397	 0.127599478541598 
398	 0.127633286497493 
399	 0.128089298111117 
400	 0.129335772532362 
401	 0.131240907768348 
402	 0.130488365005115 
403	 0.130393296932865 
404	 0.131816715256827 
405	 0.132775108059832 
406	 0.133149982790568 
407	 0.133795244456908 
408	 0.13501332428679 
409	 0.135082139757472 
410	 0.13561539180077 
411	 0.136611418703853 
412	 0.137387129055527 
413	 0.138397162898777 
414	 0.138875296643161 
415	 0.13896493661618 
416	 0.140083394355605 
417	 0.140067275785445 
418	 0.140230932109127 
419	 0.141710717948998 
420	 0.142170046956767 
421	 0.14235136900041 
422	 0.142995749695774 
423	 0.144567849457501 
424	 0.144928045352746 
425	 0.145026551290837 
426	 0.145539250543623 
427	 0.145908807879811 
428	 0.146206351203992 
429	 0.146569377672964 
430	 0.147150577433343 
431	 0.148077569217834 
432	 0.148609560830599 
433	 0.148794146245869 
434	 0.14941709025843 
435	 0.149608351128744 
436	 0.149888835930195 
437	 0.150545914402512 
438	 0.15047508453896 
439	 0.150954023613865 
440	 0.15184525662961 
441	 0.152343024528402 
442	 0.152507457632354 
443	 0.152686505472474 
444	 0.153044709597659 
445	 0.153428391016246 
446	 0.153864453443751 
447	 0.154345538375779 
448	 0.154796536893318 
449	 0.15484025991819 
450	 0.155252728165676 
451	 0.155912163802126 
452	 0.155976918094004 
453	 0.15634735682501 
454	 0.156753573895552 
455	 0.156992289376606 
456	 0.157548443265508 
457	 0.158036260288171 
458	 0.158378512903993 
459	 0.158653191109051 
460	 0.158979294372345 
461	 0.159263960655574 
462	 0.159505547461319 
463	 0.15985569629812 
464	 0.160268149941077 
465	 0.160603967820565 
466	 0.160806786224574 
467	 0.16124012601009 
468	 0.161773280611747 
469	 0.162185455120561 
470	 0.162241748741847 
471	 0.162474904269162 
472	 0.162822025660496 
473	 0.163150628718114 
474	 0.16341534743176 
475	 0.163728135653933 
476	 0.164072109725672 
477	 0.164370430882991 
478	 0.164560055806117 
479	 0.164821034475532 
480	 0.165228740806675 
481	 0.165689558729392 
482	 0.166158602545774 
483	 0.166589340226318 
484	 0.166970340335655 
485	 0.167453290936879 
486	 0.167566817902572 
487	 0.167504490832065 
488	 0.167966458204062 
489	 0.168351050232237 
490	 0.168577666021505 
491	 0.168751284847812 
492	 0.169226812754625 
493	 0.16948744870645 
494	 0.169660371934785 
495	 0.170113731201274 
496	 0.170552081395079 
497	 0.170795688776854 
498	 0.170944826364415 
499	 0.171508092150822 
500	 0.171686414354243 
501	 0.17170787815065 
502	 0.171991817543644 
503	 0.172362918194336 
504	 0.172697087758477 
505	 0.172968044150942 
506	 0.173238678034058 
507	 0.173527361901649 
508	 0.173768603727753 
509	 0.173946915940083 
510	 0.174231863643374 
511	 0.174477862364021 
512	 0.174672287172346 
513	 0.174882905663152 
514	 0.175217579134427 
515	 0.175475858068274 
516	 0.17562517184356 
517	 0.175981827318329 
518	 0.176267129186688 
519	 0.176461857393882 
520	 0.176645463795252 
521	 0.176941358099476 
522	 0.17718203717643 
523	 0.177352684326133 
524	 0.177611181408217 
525	 0.177850651696539 
526	 0.178062906548132 
527	 0.178270416260816 
528	 0.178539873409971 
529	 0.17867267952565 
530	 0.178749538064222 
531	 0.179012206623782 
532	 0.179268392807314 
533	 0.179493430848866 
534	 0.179695719996244 
535	 0.179895807391519 
536	 0.180115456342182 
537	 0.180340142886572 
538	 0.180542050384939 
539	 0.180716684625923 
540	 0.180936687317387 
541	 0.181196356788104 
542	 0.181380963844329 
543	 0.181535562193112 
544	 0.181671701635998 
545	 0.181812760844924 
546	 0.182065467710269 
547	 0.182268838653725 
548	 0.18242822319307 
549	 0.182684346616778 
550	 0.182846549098056 
551	 0.182939684747985 
552	 0.183044645128814 
553	 0.183284236951298 
554	 0.183524282717487 
555	 0.183733126499564 
556	 0.183932494126599 
557	 0.184095919827991 
558	 0.184320371058017 
559	 0.184600553946266 
560	 0.184732112003282 
561	 0.184803733453289 
562	 0.184859625251259 
563	 0.184950663720413 
564	 0.185230247723864 
565	 0.185414570773194 
566	 0.185448662111671 
567	 0.185558842119709 
568	 0.185814427302601 
569	 0.186108012140779 
570	 0.186334933262091 
571	 0.186586228319835 
572	 0.186753171163389 
573	 0.186828032512526 
574	 0.186883035483251 
575	 0.187009861020013 
576	 0.187149002181658 
577	 0.187267347211072 
578	 0.187466129428109 
579	 0.187544258495392 
580	 0.187536474854044 
581	 0.187576533317871 
582	 0.187686793885539 
583	 0.187784976213385 
584	 0.187858733596293 
585	 0.18800924613052 
586	 0.18821584016929 
587	 0.188398431834041 
588	 0.188493939023322 
589	 0.188596791352365 
590	 0.188699980633174 
591	 0.188829910610827 
592	 0.189035150688682 
593	 0.18910825702784 
594	 0.18911677946652 
595	 0.189146470369835 
596	 0.189169273982871 
597	 0.189225902178224 
598	 0.189277481505768 
599	 0.18925980258348 
600	 0.189299736028983 
601	 0.189386900926642 
602	 0.189471406348119 
603	 0.189459920038589 
604	 0.189445489521016 
605	 0.189480002631299 
606	 0.189591646767367 
607	 0.189779417501919 
608	 0.189871528876236 
609	 0.189890542009228 
610	 0.19008429096321 
611	 0.190243373886436 
612	 0.190352615120222 
613	 0.190443710504828 
614	 0.190549756455004 
615	 0.190590470274587 
616	 0.190610090500992 
617	 0.190726034660133 
618	 0.190815460321882 
619	 0.19084567020507 
620	 0.190847250543233 
621	 0.190964746800577 
622	 0.191041305366875 
623	 0.191052624311555 
624	 0.19104923160255 
625	 0.191195150853363 
626	 0.191286234517899 
627	 0.191276751422207 
628	 0.191367043658428 
629	 0.191459606052521 
630	 0.191502128928879 
631	 0.191489212253769 
632	 0.191552231258558 
633	 0.191610936465647 
634	 0.191671323746434 
635	 0.191799117434611 
636	 0.191770573218344 
637	 0.1917979653524 
638	 0.191985688330194 
639	 0.191984772049467 
640	 0.191984531110677 
641	 0.192047316242462 
642	 0.192166975096591 
643	 0.192260513128126 
644	 0.192316719027309 
645	 0.1923547415659 
646	 0.192425791777093 
647	 0.192465043658453 
648	 0.192512389976871 
649	 0.192617302307108 
650	 0.192745379465536 
651	 0.192819834356397 
652	 0.192835078746246 
653	 0.192850362016302 
654	 0.192900533987787 
655	 0.192963726886666 
656	 0.193022141381204 
657	 0.193097736355487 
658	 0.193212172567748 
659	 0.193292874841179 
660	 0.193258612344639 
661	 0.193332040708177 
662	 0.193434610222352 
663	 0.193517845615216 
664	 0.193622748645852 
665	 0.193665256265312 
666	 0.193691940780888 
667	 0.193755431215926 
668	 0.193754405071264 
669	 0.193824896624573 
670	 0.19393287400972 
671	 0.19391512850125 
672	 0.193983254494551 
673	 0.194102483591756 
674	 0.194200509796814 
675	 0.194215070269764 
676	 0.194251589627717 
677	 0.194293725374266 
678	 0.19428981584685 
679	 0.194346441272571 
680	 0.194393596119674 
681	 0.194421153850591 
682	 0.194515999272535 
683	 0.194593227479196 
684	 0.194641517470013 
685	 0.194679688163423 
686	 0.194767560543404 
687	 0.194785851304299 
688	 0.194762766396085 
689	 0.194822103832385 
690	 0.194870442403882 
691	 0.194883158953848 
692	 0.19488321102731 
693	 0.194975475396959 
694	 0.195019883103336 
695	 0.195010435460819 
696	 0.194991991890748 
697	 0.194977739198713 
698	 0.195035418379777 
699	 0.195136397627314 
700	 0.195153784150256 
701	 0.195137922439558 
702	 0.195150738988352 
703	 0.195212948052292 
704	 0.195222087138725 
705	 0.195228766962771 
706	 0.195241227546853 
707	 0.195247995932214 
708	 0.195264374281246 
709	 0.195265648533521 
710	 0.195256030580021 
711	 0.195287514821506 
712	 0.195299090831695 
713	 0.195274983476973 
714	 0.195234506195658 
715	 0.195278149160992 
716	 0.195286090173795 
717	 0.195271324941522 
718	 0.195332226166394 
719	 0.195327065021385 
720	 0.195264817971986 
721	 0.195188336500802 
722	 0.195157827359479 
723	 0.195155516589643 
724	 0.19517255112461 
725	 0.195195559349194 
726	 0.195192213718015 
727	 0.195155370105034 
728	 0.195100403713167 
729	 0.195060566529666 
730	 0.195032814967933 
731	 0.194985314115497 
732	 0.194920445144318 
733	 0.194944520374664 
734	 0.194909434730477 
735	 0.194818910186805 
736	 0.194745092085087 
737	 0.194749540514657 
738	 0.194716353454639 
739	 0.194641164321894 
740	 0.194649466117582 
741	 0.194567185746126 
742	 0.19449607465077 
743	 0.194508727369359 
744	 0.194436830133094 
745	 0.194351999778833 
746	 0.194281775342016 
747	 0.194227481520326 
748	 0.194149975376113 
749	 0.194081469635926 
750	 0.194029127619493 
751	 0.193962973106077 
752	 0.19391744918978 
753	 0.193838912300984 
754	 0.193714175754188 
755	 0.19370864363088 
756	 0.193697370242116 
757	 0.193651496257167 
758	 0.193592385902459 
759	 0.193517759101677 
760	 0.19340557439689 
761	 0.193286781610023 
762	 0.193256405903321 
763	 0.193205546581467 
764	 0.193107917082545 
765	 0.192989006327245 
766	 0.192965799061597 
767	 0.192913924866491 
768	 0.192825082855787 
769	 0.192748779868546 
770	 0.192680131726418 
771	 0.192609998096005 
772	 0.192532752500337 
773	 0.19244836292672 
774	 0.192359235519772 
775	 0.192297800968954 
776	 0.192262315803526 
777	 0.192140074422657 
778	 0.19201552207586 
779	 0.191914124849051 
780	 0.191830947268074 
781	 0.1917530084011 
782	 0.191690179888275 
783	 0.191624797918752 
784	 0.19151438468057 
785	 0.191463974992601 
786	 0.191420313521448 
787	 0.191332529873167 
788	 0.191230621091455 
789	 0.191120503155629 
790	 0.191008021260064 
791	 0.190902895604242 
792	 0.190843188588405 
793	 0.190765718510081 
794	 0.190642310615385 
795	 0.190488913935675 
796	 0.190406105600166 
797	 0.190335001248467 
798	 0.19022718710814 
799	 0.190099047910665 
800	 0.19005065978729 
801	 0.189996994896347 
802	 0.189843740192742 
803	 0.189688610286595 
804	 0.189626219852439 
805	 0.189603132835815 
806	 0.18949079438005 
807	 0.189410096944796 
808	 0.189263645937709 
809	 0.18907369903139 
810	 0.189036728740669 
811	 0.188964812988143 
812	 0.1888616776512 
813	 0.188763727390719 
814	 0.188676256701716 
815	 0.188559651073774 
816	 0.1884082964646 
817	 0.188253973092202 
818	 0.188236586459412 
819	 0.188160482654493 
820	 0.187996039270164 
821	 0.187868546990809 
822	 0.187746386779013 
823	 0.187678278554335 
824	 0.187642194196888 
825	 0.187487628721254 
826	 0.187382741616726 
827	 0.187307493392779 
828	 0.1872110697382 
829	 0.187125599904392 
830	 0.186976672134467 
831	 0.186804914376013 
832	 0.186697457460344 
833	 0.186640186164769 
834	 0.186584855457392 
835	 0.186507937281596 
836	 0.186412651323163 
837	 0.186272288192848 
838	 0.186139470636461 
839	 0.18604211817389 
840	 0.185945127430818 
841	 0.185838249066811 
842	 0.185691774673475 
843	 0.185523342773596 
844	 0.185508749104278 
845	 0.185493634535691 
846	 0.1854318267447 
847	 0.185333064829274 
848	 0.185190154110784 
849	 0.18508204010574 
850	 0.185013770816767 
851	 0.184922832076468 
852	 0.1847912352474 
853	 0.184665464154732 
854	 0.184561122986335 
855	 0.184435761813545 
856	 0.184416212184953 
857	 0.184362055573914 
858	 0.184188451502138 
859	 0.184112049372602 
860	 0.18405545502481 
861	 0.183976277341899 
862	 0.183859851864172 
863	 0.183766264379257 
864	 0.183695121982088 
865	 0.183620788033777 
866	 0.183507346479319 
867	 0.183350287931503 
868	 0.183262079365048 
869	 0.183241786065416 
870	 0.183168477309619 
871	 0.183056497617267 
872	 0.182955525494392 
873	 0.182888779345165 
874	 0.1828249369114 
875	 0.182791296428934 
876	 0.182696513798688 
877	 0.182520042017223 
878	 0.182495144665564 
879	 0.182511556755927 
880	 0.182452739298904 
881	 0.182268603664501 
882	 0.182177088435039 
883	 0.182147451913576 
884	 0.182099714035775 
885	 0.181966654780236 
886	 0.181916340332414 
887	 0.181892849104742 
888	 0.181825062770304 
889	 0.181668986306917 
890	 0.181604827191922 
891	 0.181569008928097 
892	 0.181523195781619 
893	 0.181498980375362 
894	 0.181415944693446 
895	 0.181326850380036 
896	 0.181270390970134 
897	 0.181210965837098 
898	 0.181174970033589 
899	 0.181110634760447 
900	 0.181005977065124 
901	 0.181008612744406 
902	 0.180981015696584 
903	 0.180914326638129 
904	 0.180841946078963 
905	 0.180769276019679 
906	 0.180722769278026 
907	 0.180716633578193 
908	 0.180730795291319 
909	 0.180622723126801 
910	 0.180536829047771 
911	 0.180528581786417 
912	 0.180555607827154 
913	 0.180451373134154 
914	 0.180287604019744 
915	 0.18017710900918 
916	 0.180212229980846 
917	 0.180172211846449 
918	 0.18021819769771 
919	 0.180340175594621 
920	 0.180296573148011 
921	 0.180195913945158 
922	 0.180060202157488 
923	 0.179936846463124 
924	 0.179917477044193 
925	 0.179974337962193 
926	 0.180011131189264 
927	 0.179960370144985 
928	 0.179835910049916 
929	 0.17989985815423 
930	 0.179987151996471 
931	 0.179924927328669 
932	 0.179787987466324 
933	 0.179813702420847 
934	 0.179837785984303 
935	 0.179722189128081 
936	 0.17978510583117 
937	 0.179733475232814 
938	 0.179610438322679 
939	 0.179556743450625 
940	 0.179630769545496 
941	 0.179622979571572 
942	 0.179621298665901 
943	 0.179741788831781 
944	 0.179708184187462 
945	 0.17966051469502 
946	 0.179636783376773 
947	 0.179620008842501 
948	 0.17959035107209 
949	 0.179573697432255 
950	 0.179545023287607 
951	 0.179484673970146 
952	 0.17952794216783 
953	 0.17959249208797 
954	 0.179605392370042 
955	 0.179550216262504 
956	 0.179627655415787 
957	 0.179579458891284 
958	 0.1794672505513 
959	 0.179507668722846 
960	 0.179506647570942 
961	 0.179539198147478 
962	 0.179576585933412 
963	 0.179548663941639 
964	 0.179613101668504 
965	 0.179622655798714 
966	 0.179565412373565 
967	 0.179529840420145 
968	 0.179512251185441 
969	 0.179535125311028 
970	 0.179557954681854 
971	 0.179527190131839 
972	 0.179566325573261 
973	 0.179668975388818 
974	 0.179772806503863 
975	 0.179806309433804 
976	 0.179833819768694 
977	 0.179824820700472 
978	 0.179796871035284 
979	 0.179780709801246 
980	 0.179668865418807 
981	 0.179632478822279 
982	 0.179668103434736 
983	 0.179667809773763 
984	 0.179666193004581 
985	 0.179676041364338 
986	 0.179690256133167 
987	 0.179707254840683 
988	 0.179817535597806 
989	 0.179865389406599 
990	 0.179805600314128 
991	 0.179719367790805 
992	 0.179908523433078 
993	 0.179913386390275 
994	 0.179864725484693 
995	 0.180055307935148 
996	 0.180213614141333 
997	 0.180177108736872 
998	 0.180112755912248 
999	 0.180208795507898 
1000	 0.180211816308077 
1001	 0.181828223178797 
1002	 0.181849616353699 
1003	 0.181874869752523 
1004	 0.181885424829425 
1005	 0.181846578283554 
1006	 0.181849059021648 
1007	 0.181862215082246 
1008	 0.18191728244702 
1009	 0.181937591682697 
1010	 0.181968533857154 
1011	 0.182069214357167 
1012	 0.182062193336753 
1013	 0.182068427804901 
1014	 0.182131907171723 
1015	 0.182106903683884 
1016	 0.182156134772379 
1017	 0.182211024488032 
1018	 0.182309414521734 
1019	 0.182293535858182 
1020	 0.182271149655189 
1021	 0.182305818720543 
1022	 0.182330181618251 
1023	 0.182306495138995 
1024	 0.182331639217844 
1025	 0.182329170076028 
1026	 0.182254417968238 
1027	 0.18222954447092 
1028	 0.182207114664277 
1029	 0.182211504198392 
1030	 0.182214770685029 
1031	 0.182197249280023 
1032	 0.1821662258982 
1033	 0.182219143381108 
1034	 0.182251207677333 
1035	 0.182224645677938 
1036	 0.182247780491602 
1037	 0.182275146411188 
1038	 0.182248142578385 
1039	 0.182257974493083 
1040	 0.182312205127351 
1041	 0.182330755515862 
1042	 0.182348926202463 
1043	 0.182358854708645 
1044	 0.182370108730953 
1045	 0.182368534606497 
1046	 0.182388352550816 
1047	 0.182402639367321 
1048	 0.182450656488691 
1049	 0.182549441535015 
1050	 0.182624996740326 
1051	 0.182684875722698 
1052	 0.182726914959907 
1053	 0.182751466440211 
1054	 0.182788366493327 
1055	 0.182836511494603 
1056	 0.18295763143253 
1057	 0.183053296714838 
1058	 0.183144661531812 
1059	 0.183231931707458 
1060	 0.183341789539284 
1061	 0.183392969846017 
1062	 0.18344249907406 
1063	 0.183464156117385 
1064	 0.183506654968199 
1065	 0.183572332030932 
1066	 0.183628549106168 
1067	 0.18372268286123 
1068	 0.183782348630968 
1069	 0.183832348080529 
1070	 0.183883385290466 
1071	 0.183907335740742 
1072	 0.183967437026238 
1073	 0.184083854412678 
1074	 0.184125267072668 
1075	 0.184140848222258 
1076	 0.184164079989935 
1077	 0.184172700467926 
1078	 0.184151271755166 
1079	 0.184159042284848 
1080	 0.184199949031156 
1081	 0.184183150783879 
1082	 0.184145561063729 
1083	 0.184114229067694 
1084	 0.184053685558706 
1085	 0.184034613624261 
1086	 0.184055416434844 
1087	 0.184034199462539 
1088	 0.184015423064978 
1089	 0.183992995521044 
1090	 0.183927588756284 
1091	 0.18387693674289 
1092	 0.18386306859301 
1093	 0.183839688229409 
1094	 0.183816423048734 
1095	 0.183790339421886 
1096	 0.183741140398908 
1097	 0.183694336803911 
1098	 0.183664776394977 
1099	 0.183631460690303 
1100	 0.183621808487721 
1101	 0.183650259327218 
1102	 0.183653638823108 
1103	 0.183667203849944 
1104	 0.18365721764255 
1105	 0.183629548536275 
1106	 0.183608586902638 
1107	 0.183579982739509 
1108	 0.18356608269395 
1109	 0.183563861682693 
1110	 0.183565724403619 
1111	 0.18356799237078 
1112	 0.183575751286708 
1113	 0.183585357298068 
1114	 0.183593054772349 
1115	 0.183606072261143 
1116	 0.183633353285906 
1117	 0.183653364432048 
1118	 0.183670539125126 
1119	 0.183679312482407 
1120	 0.183718695797791 
1121	 0.183766788873284 
1122	 0.183829318374725 
1123	 0.183907383841233 
1124	 0.183940574731583 
1125	 0.183946433182679 
1126	 0.183964880839343 
1127	 0.18393919952332 
1128	 0.183975304147803 
1129	 0.184062626700556 
1130	 0.18410934075849 
1131	 0.184184445308157 
1132	 0.184222258118795 
1133	 0.184200712130252 
1134	 0.184213255350547 
1135	 0.184236711364699 
1136	 0.184254463178074 
1137	 0.184255715087044 
1138	 0.184270176750986 
1139	 0.18428102846681 
1140	 0.184264788068641 
1141	 0.184282590763876 
1142	 0.184329488032201 
1143	 0.184362103236037 
1144	 0.184420739469845 
1145	 0.184432819566773 
1146	 0.184408289557689 
1147	 0.18440472362045 
1148	 0.184386998401932 
1149	 0.18437188372553 
1150	 0.18436209601076 
1151	 0.184368056292234 
1152	 0.184369063712195 
1153	 0.184351663324891 
1154	 0.184339901832827 
1155	 0.184335992334478 
1156	 0.184326696170284 
1157	 0.184306408874574 
1158	 0.184293153812181 
1159	 0.184294455350875 
1160	 0.184279478153352 
1161	 0.18424565591957 
1162	 0.184228307167304 
1163	 0.184215888360432 
1164	 0.18419807666113 
1165	 0.18417831312173 
1166	 0.184173963988348 
1167	 0.184155844477739 
1168	 0.184145170479985 
1169	 0.18414072178637 
1170	 0.184152032952696 
1171	 0.184144502942787 
1172	 0.184130076597763 
1173	 0.184121293852825 
1174	 0.184104104287328 
1175	 0.18409756734956 
1176	 0.184103233155906 
1177	 0.184102246705895 
1178	 0.184112051351894 
1179	 0.184101139621994 
1180	 0.184062380979745 
1181	 0.184047481924353 
1182	 0.184032623531313 
1183	 0.184019173816082 
1184	 0.18401725466419 
1185	 0.184036253473566 
1186	 0.184046992212883 
1187	 0.18404989790091 
1188	 0.184071680774974 
1189	 0.184113960029547 
1190	 0.184141038173085 
1191	 0.184175029663129 
1192	 0.18419621859473 
1193	 0.18420340292386 
1194	 0.184213822260531 
1195	 0.184212926355747 
1196	 0.184225617641426 
1197	 0.184251796796208 
1198	 0.184268648518826 
1199	 0.184284723811232 
1200	 0.184303736703075 
1201	 0.184325151569781 
1202	 0.18433760398874 
1203	 0.184361635465696 
1204	 0.18440309962317 
1205	 0.184428446574426 
1206	 0.184447940666566 
1207	 0.184468650837616 
1208	 0.184481454345883 
1209	 0.184501777714923 
1210	 0.184526918181354 
1211	 0.184550242021456 
1212	 0.184583500746533 
1213	 0.184603180621563 
1214	 0.184616872539489 
1215	 0.184626023761245 
1216	 0.184628989174736 
1217	 0.184616386856712 
1218	 0.184621874030991 
1219	 0.184628468814223 
1220	 0.184641029620485 
1221	 0.184669680782737 
1222	 0.184681758391088 
1223	 0.184681813368895 
1224	 0.18469715463885 
1225	 0.184719625803603 
1226	 0.18473129465267 
1227	 0.184744598687433 
1228	 0.184760423265769 
1229	 0.18476464973254 
1230	 0.184775285307704 
1231	 0.18479943097941 
1232	 0.184819124871898 
1233	 0.184837120143637 
1234	 0.184855622563272 
1235	 0.184860063579363 
1236	 0.184853300272902 
1237	 0.184860240956264 
1238	 0.184856015804607 
1239	 0.18486978169475 
1240	 0.184907980832646 
1241	 0.184929038701155 
1242	 0.184953053984834 
1243	 0.184966073619457 
1244	 0.184958589434761 
1245	 0.184970769381799 
1246	 0.184989615993185 
1247	 0.185003158284217 
1248	 0.18501771981252 
1249	 0.185047045641378 
1250	 0.185063568743575 
1251	 0.185081288626934 
1252	 0.185099059124548 
1253	 0.185126886176931 
1254	 0.185137597348729 
1255	 0.185134988518671 
1256	 0.185141687193112 
1257	 0.185149800299929 
1258	 0.185151004196591 
1259	 0.185150448621851 
1260	 0.18515095383593 
1261	 0.185141086026314 
1262	 0.185140098897695 
1263	 0.185150966140823 
1264	 0.185154368945297 
1265	 0.185164124304033 
1266	 0.18515950237308 
1267	 0.185140382967644 
1268	 0.185124789500394 
1269	 0.185108789254603 
1270	 0.185077321617604 
1271	 0.185074281563783 
1272	 0.18508567357799 
1273	 0.185093240428875 
1274	 0.185101857293411 
1275	 0.185134281216554 
1276	 0.185175154583324 
1277	 0.185227731422258 
1278	 0.185315883747003 
1279	 0.185383062667477 
1280	 0.185439594485089 
1281	 0.185505558932051 
1282	 0.185570200064425 
1283	 0.18564172258462 
1284	 0.185708457818806 
1285	 0.185801258710579 
1286	 0.18591562943695 
1287	 0.186019436436551 
1288	 0.186113109514499 
1289	 0.186210094694027 
1290	 0.186306656483207 
1291	 0.186384581765668 
1292	 0.186480214285023 
1293	 0.186609986215164 
1294	 0.186693680366258 
1295	 0.18675207754208 
1296	 0.186818143149854 
1297	 0.186867624777818 
1298	 0.186916010169944 
1299	 0.186977249869429 
1300	 0.187015145491728 
1301	 0.187028737456587 
1302	 0.187047937376154 
1303	 0.187066248308025 
1304	 0.187073331647225 
1305	 0.187077158641892 
1306	 0.187044698456202 
1307	 0.186991983851569 
1308	 0.186941121102941 
1309	 0.186892490181943 
1310	 0.186837422976903 
1311	 0.186793818643181 
1312	 0.186755648013271 
1313	 0.186714665310622 
1314	 0.186680084864518 
1315	 0.186638446645632 
1316	 0.186592808728114 
1317	 0.18654969291757 
1318	 0.186504234559606 
1319	 0.18645981927891 
1320	 0.186415588393575 
1321	 0.186374378199971 
1322	 0.186335104774823 
1323	 0.186294995484521 
1324	 0.186258521900015 
1325	 0.186218283544036 
1326	 0.186187552896576 
1327	 0.186166587870973 
1328	 0.186139284251762 
1329	 0.186108418221913 
1330	 0.18608460195929 
1331	 0.186051122414074 
1332	 0.186039731903581 
1333	 0.186039344842061 
1334	 0.186050187844643 
1335	 0.1860750091796 
1336	 0.186101049269598 
1337	 0.186146577439249 
1338	 0.186175710736183 
1339	 0.186195633000539 
1340	 0.186222351126876 
1341	 0.186238980956622 
1342	 0.186272069440715 
1343	 0.186316741459802 
1344	 0.186364830831245 
1345	 0.186424042870323 
1346	 0.186486368438297 
1347	 0.186540412811709 
1348	 0.186591124186526 
1349	 0.186631711861857 
1350	 0.186654285183995 
1351	 0.186694534517364 
1352	 0.186739707707488 
1353	 0.18678300233462 
1354	 0.186825624609471 
1355	 0.186879648941131 
1356	 0.186945461298222 
1357	 0.186991801327796 
1358	 0.187039185524758 
1359	 0.187090334022137 
1360	 0.187122586652852 
1361	 0.18716780906958 
1362	 0.187234019468927 
1363	 0.187284339618919 
1364	 0.187328275796399 
1365	 0.187369864264258 
1366	 0.187402910831019 
1367	 0.187436233650308 
1368	 0.187495927054642 
1369	 0.187544715211942 
1370	 0.187593334488244 
1371	 0.187658942410485 
1372	 0.187676891650998 
1373	 0.187681092687655 
1374	 0.187692521696089 
1375	 0.187695699707309 
1376	 0.18769039257229 
1377	 0.187690142303181 
1378	 0.187678034938289 
1379	 0.187639090199455 
1380	 0.187621272355887 
1381	 0.187610583998844 
1382	 0.187598064130109 
1383	 0.18759284821597 
1384	 0.187585530431959 
1385	 0.187584635752902 
1386	 0.187568831299412 
1387	 0.18754301614226 
1388	 0.187520563356937 
1389	 0.187494312599766 
1390	 0.187455941981038 
1391	 0.187435260500941 
1392	 0.187422295342707 
1393	 0.187392829973887 
1394	 0.187359874599809 
1395	 0.187311914058391 
1396	 0.1872555129836 
1397	 0.187213885244276 
1398	 0.187175831788508 
1399	 0.187144581103067 
1400	 0.187134165861642 
1401	 0.187094612376041 
1402	 0.187042914986099 
1403	 0.186987404764091 
1404	 0.186905784887235 
1405	 0.186849881160115 
1406	 0.186812347979025 
1407	 0.186766604639287 
1408	 0.186727321713597 
1409	 0.186681815157823 
1410	 0.186622236467799 
1411	 0.186572481333628 
1412	 0.186521300197228 
1413	 0.186484892982885 
1414	 0.186454142424333 
1415	 0.186432332283215 
1416	 0.186415616413878 
1417	 0.186387409315216 
1418	 0.186358423187503 
1419	 0.186317286058426 
1420	 0.186288746614815 
1421	 0.186281117697594 
1422	 0.186261677940666 
1423	 0.186248010656611 
1424	 0.186225486672817 
1425	 0.186184346000151 
1426	 0.186163167405986 
1427	 0.186146496000392 
1428	 0.186138243217543 
1429	 0.186148944779962 
1430	 0.186143234660351 
1431	 0.186134051377143 
1432	 0.186126026359727 
1433	 0.186105663613153 
1434	 0.18609757237706 
1435	 0.186098347888613 
1436	 0.186100075343093 
1437	 0.186105899618056 
1438	 0.186114506402395 
1439	 0.186128596259728 
1440	 0.186141886878589 
1441	 0.186143214455712 
1442	 0.186142262127673 
1443	 0.18613777551539 
1444	 0.1861388646302 
1445	 0.18616661830487 
1446	 0.18619424823666 
1447	 0.18622325206486 
1448	 0.186254706645156 
1449	 0.186267186112003 
1450	 0.186284278695668 
1451	 0.186304289988854 
1452	 0.186324047211269 
1453	 0.186339695841868 
1454	 0.18635894434182 
1455	 0.186373689415905 
1456	 0.186383158554599 
1457	 0.186394597536036 
1458	 0.186410865810055 
1459	 0.186413578529871 
1460	 0.186402318334843 
1461	 0.186403073325134 
1462	 0.186400175264092 
1463	 0.186403937034894 
1464	 0.186418942972256 
1465	 0.186429720027285 
1466	 0.186443009646423 
1467	 0.186452557402003 
1468	 0.186465001542608 
1469	 0.186467791543782 
1470	 0.186458051054931 
1471	 0.186456563259432 
1472	 0.18645104911618 
1473	 0.186438289898905 
1474	 0.186430213424985 
1475	 0.186421614512205 
1476	 0.186425280512694 
1477	 0.186434536585664 
1478	 0.186444130348653 
1479	 0.186446017663522 
1480	 0.186445715394513 
1481	 0.186454563883456 
1482	 0.186440517449847 
1483	 0.186413938348667 
1484	 0.186402422500603 
1485	 0.186370232292833 
1486	 0.186367060008974 
1487	 0.186401303542149 
1488	 0.186409631008145 
1489	 0.186409559346845 
1490	 0.186415747484282 
1491	 0.186420300306106 
1492	 0.186426060762186 
1493	 0.186437026593882 
1494	 0.186441727994057 
1495	 0.186441136579179 
1496	 0.186443278889668 
1497	 0.186449825407745 
1498	 0.18644998201963 
1499	 0.186452287518811 
1500	 0.186439410675902 
1501	 0.186398710068111 
1502	 0.186384395298761 
1503	 0.186375277041132 
1504	 0.186374796415491 
1505	 0.186375640216178 
1506	 0.186379216465076 
1507	 0.186371635828434 
1508	 0.18634980388269 
1509	 0.186345296543925 
1510	 0.186357251979761 
1511	 0.186354593622272 
1512	 0.186350522440301 
1513	 0.186369036574239 
1514	 0.186373511426788 
1515	 0.186375178847883 
1516	 0.186393856469302 
1517	 0.186391684653202 
1518	 0.186363728525258 
1519	 0.186361759094371 
1520	 0.186371385991591 
1521	 0.186365035977576 
1522	 0.186358918537968 
1523	 0.186355373755475 
1524	 0.186335400447226 
1525	 0.186336881073528 
1526	 0.186355358419788 
1527	 0.18636698904087 
1528	 0.186392095714641 
1529	 0.186400774954931 
1530	 0.1863954557475 
1531	 0.186403550192893 
1532	 0.186405538696548 
1533	 0.186414209128695 
1534	 0.18644268455735 
1535	 0.186455648144873 
1536	 0.186457074688938 
1537	 0.186464083719018 
1538	 0.186478045904938 
1539	 0.186476545652768 
1540	 0.186462637824118 
1541	 0.186460670951442 
1542	 0.186448748745078 
1543	 0.186443965248866 
1544	 0.186457384403868 
1545	 0.186462866551859 
1546	 0.186461141030915 
1547	 0.186463709022476 
1548	 0.186473015552496 
1549	 0.186480092291402 
1550	 0.186489128218972 
1551	 0.186488377742665 
1552	 0.186476783321714 
1553	 0.186463326643548 
1554	 0.186459378834355 
1555	 0.186469032791632 
1556	 0.186480174503487 
1557	 0.186493633072056 
1558	 0.186515356962018 
1559	 0.186524689399294 
1560	 0.186521470662689 
1561	 0.18651341478798 
1562	 0.186504623695916 
1563	 0.186471748105223 
1564	 0.186469320367838 
1565	 0.186482931151127 
1566	 0.186493353904247 
1567	 0.186517766380778 
1568	 0.186527126549545 
1569	 0.186533256011037 
1570	 0.186536022767208 
1571	 0.186535771988409 
1572	 0.186522962834694 
1573	 0.186500595609854 
1574	 0.186481470205935 
1575	 0.186446480368931 
1576	 0.186430266384174 
1577	 0.186435794371711 
1578	 0.186417616598644 
1579	 0.186393402613256 
1580	 0.186368261040234 
1581	 0.186324689105785 
1582	 0.186294390568736 
1583	 0.186264071496029 
1584	 0.186253377438716 
1585	 0.18626076304726 
1586	 0.186257411761024 
1587	 0.186266687210903 
1588	 0.186265436018685 
1589	 0.186251043638262 
1590	 0.186240179091119 
1591	 0.186235805909842 
1592	 0.186224757238061 
1593	 0.18620660737885 
1594	 0.186187418732304 
1595	 0.186154270556171 
1596	 0.186138509272739 
1597	 0.186133981933472 
1598	 0.186126351592272 
1599	 0.186132289041736 
1600	 0.186129806533947 
1601	 0.186118753833179 
1602	 0.186107987308205 
1603	 0.186092194859708 
1604	 0.186083335512653 
1605	 0.18607409153367 
1606	 0.186069677310308 
1607	 0.186068696461192 
1608	 0.186076535716837 
1609	 0.186096110402911 
1610	 0.186106399448182 
1611	 0.18608757414691 
1612	 0.186063560418025 
1613	 0.186033892393706 
1614	 0.18600107084733 
1615	 0.185979850983514 
1616	 0.18596689286805 
1617	 0.185954275154192 
1618	 0.185938760100541 
1619	 0.185931204919408 
1620	 0.185931243551683 
1621	 0.185931197437051 
1622	 0.185931205910562 
1623	 0.185923617148647 
1624	 0.185921900918493 
1625	 0.185907343204572 
1626	 0.185875039009447 
1627	 0.185858562141978 
1628	 0.185847594247481 
1629	 0.185832387434752 
1630	 0.185815231539587 
1631	 0.185807031362386 
1632	 0.185801733325328 
1633	 0.185793969819153 
1634	 0.185793728489766 
1635	 0.18578867579346 
1636	 0.185773369722179 
1637	 0.185772275181514 
1638	 0.185783772627746 
1639	 0.185781430514857 
1640	 0.185781759169656 
1641	 0.185771523220318 
1642	 0.185745823927049 
1643	 0.185732845984322 
1644	 0.18571865527074 
1645	 0.185711031451392 
1646	 0.185709075925284 
1647	 0.185710308241015 
1648	 0.185718087903581 
1649	 0.185721180002571 
1650	 0.185732886309367 
1651	 0.18572632262303 
1652	 0.185709132837047 
1653	 0.185692001387015 
1654	 0.185662853195726 
1655	 0.185640565384397 
1656	 0.185615796345897 
1657	 0.185600889701302 
1658	 0.185591481764132 
1659	 0.185581472334583 
1660	 0.185580778451138 
1661	 0.185572623987013 
1662	 0.185558436167129 
1663	 0.185548829633198 
1664	 0.18554283443896 
1665	 0.185530571598122 
1666	 0.185509417518937 
1667	 0.185505113010129 
1668	 0.185515816556936 
1669	 0.185502213463853 
1670	 0.185483934069952 
1671	 0.185472182570053 
1672	 0.185444820737649 
1673	 0.185424154012606 
1674	 0.185426114532198 
1675	 0.185404610067186 
1676	 0.185343499378197 
1677	 0.185334070455629 
1678	 0.185358253873195 
1679	 0.185351882034556 
1680	 0.185358653801636 
1681	 0.185355911396087 
1682	 0.185315987351526 
1683	 0.185309653794293 
1684	 0.185340269361628 
1685	 0.185338256881862 
1686	 0.185325284298055 
1687	 0.18531482971097 
1688	 0.185290778297137 
1689	 0.185274936112511 
1690	 0.185264923965355 
1691	 0.185254115864787 
1692	 0.185241978090665 
1693	 0.18523076400452 
1694	 0.185227133369135 
1695	 0.185212783810524 
1696	 0.185180840374535 
1697	 0.185174997058949 
1698	 0.185174153098861 
1699	 0.185181539101518 
1700	 0.185228861141531 
1701	 0.185228663901747 
1702	 0.185200815857786 
1703	 0.185187060530356 
1704	 0.185157240024652 
1705	 0.185132443761555 
1706	 0.185117380628144 
1707	 0.185101338004009 
1708	 0.185072028014857 
1709	 0.185059526284844 
1710	 0.185061935688363 
1711	 0.1850607829951 
1712	 0.185067410196853 
1713	 0.185066676022688 
1714	 0.185067066472878 
1715	 0.185062041710398 
1716	 0.185045251275386 
1717	 0.185038616485924 
1718	 0.185039070616247 
1719	 0.185029224478668 
1720	 0.185017954892873 
1721	 0.185007053656373 
1722	 0.184992166986008 
1723	 0.184969705803181 
1724	 0.184945585064751 
1725	 0.18492537705093 
1726	 0.184894028804601 
1727	 0.18487740687271 
1728	 0.184873589725057 
1729	 0.184860989099865 
1730	 0.184853274426788 
1731	 0.184829410540589 
1732	 0.18480558902491 
1733	 0.184766839930703 
1734	 0.184709190545839 
1735	 0.184656212264663 
1736	 0.184585876155642 
1737	 0.184538179255939 
1738	 0.184498256270464 
1739	 0.184462599648919 
1740	 0.184443142262842 
1741	 0.184421049843376 
1742	 0.184399673446573 
1743	 0.184373933086222 
1744	 0.184346611147155 
1745	 0.184327700006649 
1746	 0.18431065744527 
1747	 0.184301820019174 
1748	 0.184288466380784 
1749	 0.184277553451681 
1750	 0.18425975564816 
1751	 0.184222239067046 
1752	 0.184198307345314 
1753	 0.184173199399415 
1754	 0.184115642616525 
1755	 0.18409810106174 
1756	 0.184077932548609 
1757	 0.184021721371686 
1758	 0.184005423226046 
1759	 0.183977346995542 
1760	 0.183945717786196 
1761	 0.183944418826016 
1762	 0.183930030013151 
1763	 0.183927178547491 
1764	 0.183921149462098 
1765	 0.183894653870458 
1766	 0.183889418394174 
1767	 0.183883802165028 
1768	 0.183849865957005 
1769	 0.183820221365374 
1770	 0.183793645765639 
1771	 0.183758214034309 
1772	 0.18372329540803 
1773	 0.183682626607157 
1774	 0.183651434489645 
1775	 0.183627145902743 
1776	 0.183597809081795 
1777	 0.183592301021663 
1778	 0.183575831280916 
1779	 0.183528568199153 
1780	 0.183523993341624 
1781	 0.183536967787267 
1782	 0.183540992938591 
1783	 0.183548275473647 
1784	 0.183554135125402 
1785	 0.183559957214212 
1786	 0.183554719691683 
1787	 0.183561853189732 
1788	 0.183543014809691 
1789	 0.183469884498774 
1790	 0.183451850044028 
1791	 0.18345356296337 
1792	 0.183448393455534 
1793	 0.183485373764113 
1794	 0.183480523113146 
1795	 0.183447454196318 
1796	 0.183419196032894 
1797	 0.183362653167111 
1798	 0.183347229372681 
1799	 0.183349794758068 
1800	 0.183355934701405 
1801	 0.182467462880188 
1802	 0.182495634546706 
1803	 0.182533029682211 
1804	 0.182561530037887 
1805	 0.182591488297422 
1806	 0.182627504557921 
1807	 0.182662333159114 
1808	 0.182684426781154 
1809	 0.182718103958225 
1810	 0.18273465276342 
1811	 0.182732629963669 
1812	 0.182714577072974 
1813	 0.182734574204948 
1814	 0.182728135125455 
1815	 0.182725411505247 
1816	 0.182743771281342 
1817	 0.182746082714253 
1818	 0.182739211816247 
1819	 0.182752858747284 
1820	 0.182782262192518 
1821	 0.182776261903735 
1822	 0.182795470084464 
1823	 0.182781103275874 
1824	 0.182759979441004 
1825	 0.182759854618969 
1826	 0.182752122412512 
1827	 0.182753408656194 
1828	 0.182739387580379 
1829	 0.182707011845731 
1830	 0.182686026148386 
1831	 0.182672229257678 
1832	 0.182642897929816 
1833	 0.182584513263033 
1834	 0.182542149138831 
1835	 0.182508193077774 
1836	 0.18250724839935 
1837	 0.18255289951199 
1838	 0.182592726939056 
1839	 0.182625792998667 
1840	 0.182664786049943 
1841	 0.182678642715195 
1842	 0.182678749105046 
1843	 0.182685214770891 
1844	 0.18267225223326 
1845	 0.182649496653255 
1846	 0.182612008667161 
1847	 0.182586725782294 
1848	 0.182558263428651 
1849	 0.182513386740495 
1850	 0.182490137103845 
1851	 0.182482900642282 
1852	 0.182463101463082 
1853	 0.182450666836203 
1854	 0.18245679972706 
1855	 0.182448645729498 
1856	 0.182442030495119 
1857	 0.182436155336468 
1858	 0.1824137351974 
1859	 0.182371233443526 
1860	 0.182329139117145 
1861	 0.182278495347377 
1862	 0.182222585993076 
1863	 0.182169487000199 
1864	 0.182124939663255 
1865	 0.182083822098043 
1866	 0.182038048892308 
1867	 0.182001772347725 
1868	 0.181982260992681 
1869	 0.181941397308568 
1870	 0.181902461992608 
1871	 0.181870034037522 
1872	 0.181843880468982 
1873	 0.181792085306174 
1874	 0.181754060767759 
1875	 0.18172754447606 
1876	 0.181676002404065 
1877	 0.181626961330395 
1878	 0.181564755878534 
1879	 0.181482908112755 
1880	 0.181406412820513 
1881	 0.181326512054905 
1882	 0.181235529520847 
1883	 0.181145323445469 
1884	 0.181044132219035 
1885	 0.180922203174876 
1886	 0.180786169078931 
1887	 0.180635292832453 
1888	 0.18048071694217 
1889	 0.180325711982927 
1890	 0.180182324778235 
1891	 0.18002808238892 
1892	 0.179875447960447 
1893	 0.179712876777339 
1894	 0.179547742821886 
1895	 0.179359713634332 
1896	 0.179168105900275 
1897	 0.178980707908693 
1898	 0.178773190592638 
1899	 0.178561694897511 
1900	 0.178349909330298 
1901	 0.178134125016915 
1902	 0.177939321958463 
1903	 0.177776176421417 
1904	 0.177583503343273 
1905	 0.17738657209771 
1906	 0.177200216073512 
1907	 0.17699740101344 
1908	 0.176774803845706 
1909	 0.176557988462363 
1910	 0.176322745174966 
1911	 0.176082166943168 
1912	 0.175852876996636 
1913	 0.175620283623549 
1914	 0.175401490633616 
1915	 0.17516793066734 
1916	 0.174925717115775 
1917	 0.174677706663844 
1918	 0.174425892171115 
1919	 0.174180099569239 
1920	 0.173944627211881 
1921	 0.173696594212226 
1922	 0.17345316827916 
1923	 0.173216940956747 
1924	 0.17298369075951 
1925	 0.172748764558797 
1926	 0.172527209893384 
1927	 0.172313937451701 
1928	 0.172103039110756 
1929	 0.171907010036383 
1930	 0.171721448919081 
1931	 0.171553399985262 
1932	 0.171388557147703 
1933	 0.171215901710585 
1934	 0.171069558728055 
1935	 0.170937343738376 
1936	 0.170814595321926 
1937	 0.170707436093864 
1938	 0.17062472853178 
1939	 0.170540998379572 
1940	 0.170457181960898 
1941	 0.170396863478276 
1942	 0.170335015348184 
1943	 0.170297521518879 
1944	 0.170299929439614 
1945	 0.170310674909228 
1946	 0.170318992082346 
1947	 0.17035524915311 
1948	 0.170374482563954 
1949	 0.170373394043562 
1950	 0.170390191624439 
1951	 0.170419942123918 
1952	 0.170448516503454 
1953	 0.170472355786039 
1954	 0.170475935852782 
1955	 0.170472915694707 
1956	 0.170473558940403 
1957	 0.17047524804092 
1958	 0.170481051822348 
1959	 0.170481643421089 
1960	 0.170471301602679 
1961	 0.17048106215888 
1962	 0.170505962499926 
1963	 0.170519613451931 
1964	 0.170547471113342 
1965	 0.170560871861622 
1966	 0.170552074531776 
1967	 0.170525476778116 
1968	 0.170512265857541 
1969	 0.170490788010169 
1970	 0.17047888692408 
1971	 0.170473344676899 
1972	 0.170476174086407 
1973	 0.170496140720492 
1974	 0.170497905288484 
1975	 0.17049120138092 
1976	 0.170494307525276 
1977	 0.170497846208579 
1978	 0.170484039672441 
1979	 0.170482964226792 
1980	 0.170483923040468 
1981	 0.170495397297874 
1982	 0.170508870231292 
1983	 0.170527167641549 
1984	 0.170558278483416 
1985	 0.170585614624202 
1986	 0.170616350579687 
1987	 0.170639544460915 
1988	 0.170652322532734 
1989	 0.170686173597508 
1990	 0.170722967557931 
1991	 0.170744242591586 
1992	 0.170787153273083 
1993	 0.170858926788065 
1994	 0.170901846038675 
1995	 0.170937448000496 
1996	 0.170975125717171 
1997	 0.170998061904704 
1998	 0.171035502148104 
1999	 0.171087579775067 
2000	 0.17112652430846 
2001	 0.171160298720989 
2002	 0.171197376807419 
2003	 0.171224166877118 
2004	 0.171264326177841 
2005	 0.171315258969473 
2006	 0.171385028828229 
2007	 0.171439270496428 
2008	 0.17149413648983 
2009	 0.171553737006239 
2010	 0.171617970461841 
2011	 0.171669460414985 
2012	 0.171725432554547 
2013	 0.171769375364758 
2014	 0.171793740360358 
2015	 0.171815089494157 
2016	 0.171841074173995 
2017	 0.171885442012417 
2018	 0.171936843126012 
2019	 0.172011472938629 
2020	 0.172060582837453 
2021	 0.172112939041682 
2022	 0.172155151019629 
2023	 0.172184496982141 
2024	 0.172203745110419 
2025	 0.172217639012075 
2026	 0.172225004312286 
2027	 0.172211604944486 
2028	 0.17220507409166 
2029	 0.172198014156713 
2030	 0.172187723144569 
2031	 0.172188476596679 
2032	 0.172192602824781 
2033	 0.172198872528052 
2034	 0.172213881502045 
2035	 0.172228110894723 
2036	 0.172248694612494 
2037	 0.172257589603392 
2038	 0.172267272985656 
2039	 0.172269604957235 
2040	 0.172267156098118 
2041	 0.172248998827482 
2042	 0.172220865624899 
2043	 0.172209214657773 
2044	 0.172202026255409 
2045	 0.172200217814879 
2046	 0.172191282211894 
2047	 0.172197502129645 
2048	 0.172182918823086 
2049	 0.17215316697121 
2050	 0.172119099564436 
2051	 0.172063940356375 
2052	 0.172027876443978 
2053	 0.171991154353314 
2054	 0.171960815717002 
2055	 0.171934338692188 
2056	 0.171943925301749 
2057	 0.171913598859577 
2058	 0.171867927734934 
2059	 0.171829192208297 
2060	 0.171773386557214 
2061	 0.171732325345842 
2062	 0.171698962202052 
2063	 0.171671055927778 
2064	 0.171644963229675 
2065	 0.171625418288969 
2066	 0.17161621713951 
2067	 0.171607692727478 
2068	 0.17160110339772 
2069	 0.171603373256581 
2070	 0.171597246225068 
2071	 0.171589463959079 
2072	 0.171588096517476 
2073	 0.171589101816746 
2074	 0.17158385567811 
2075	 0.171582248577444 
2076	 0.171577437917681 
2077	 0.171559542075671 
2078	 0.171552805829311 
2079	 0.171548341864146 
2080	 0.171553862912919 
2081	 0.171567424029276 
2082	 0.171581400377006 
2083	 0.171612206887683 
2084	 0.171630867182118 
2085	 0.17164662121208 
2086	 0.171652215988252 
2087	 0.17167752131944 
2088	 0.171699336320005 
2089	 0.171740520488342 
2090	 0.171823070622577 
2091	 0.171856399462084 
2092	 0.171865499824654 
2093	 0.171894905177628 
2094	 0.171894847841906 
2095	 0.171925094185638 
2096	 0.17200560839968 
2097	 0.172054136234047 
2098	 0.172084092911542 
2099	 0.17212850833754 
2100	 0.172171417118143 
2101	 0.172197031035426 
2102	 0.172254469597434 
2103	 0.172332071717777 
2104	 0.172409799301309 
2105	 0.172491248788743 
2106	 0.172591393875069 
2107	 0.172697333778317 
2108	 0.172823310259787 
2109	 0.172996926226954 
2110	 0.17313397915629 
2111	 0.173281385808494 
2112	 0.173402785187143 
2113	 0.173494385246098 
2114	 0.173567477900697 
2115	 0.173667969346927 
2116	 0.173758752794774 
2117	 0.173877997031918 
2118	 0.174019928976184 
2119	 0.174161641008232 
2120	 0.174328128546859 
2121	 0.174468510349727 
2122	 0.174609935235897 
2123	 0.174739161868015 
2124	 0.17483941291467 
2125	 0.17495955910992 
2126	 0.175091743141352 
2127	 0.175210959132947 
2128	 0.175344694304293 
2129	 0.175452268515675 
2130	 0.175526480749226 
2131	 0.175612388901318 
2132	 0.17569660604265 
2133	 0.175782064771607 
2134	 0.175840111752683 
2135	 0.17589399886148 
2136	 0.175935357544872 
2137	 0.175946151061336 
2138	 0.175962387931114 
2139	 0.175978458270176 
2140	 0.175990345747425 
2141	 0.175976380408807 
2142	 0.175988533012887 
2143	 0.176029311179646 
2144	 0.176048386984519 
2145	 0.176073780331239 
2146	 0.176085111599478 
2147	 0.176092785716968 
2148	 0.176066200768038 
2149	 0.176038056357172 
2150	 0.175994662389904 
2151	 0.175963185727604 
2152	 0.175924371874006 
2153	 0.175881337570269 
2154	 0.175844733000386 
2155	 0.175799919510285 
2156	 0.175750399437137 
2157	 0.175684310906739 
2158	 0.175607622478031 
2159	 0.175534514714866 
2160	 0.175447339893082 
2161	 0.175357894127014 
2162	 0.175276513559782 
2163	 0.175185985775922 
2164	 0.175082435261522 
2165	 0.174970141335692 
2166	 0.174871950903435 
2167	 0.174779576741547 
2168	 0.174684319076527 
2169	 0.17458542913052 
2170	 0.174503558303774 
2171	 0.174437675985942 
2172	 0.17435196183874 
2173	 0.174269708111766 
2174	 0.174184716103704 
2175	 0.174082534270825 
2176	 0.17398490717452 
2177	 0.173904387310618 
2178	 0.173805405593791 
2179	 0.173683250847276 
2180	 0.173574134133005 
2181	 0.173457962986205 
2182	 0.173351767328153 
2183	 0.173244800167849 
2184	 0.17315903966146 
2185	 0.173081597918334 
2186	 0.173020102003219 
2187	 0.172946709427609 
2188	 0.172883961074025 
2189	 0.172813794895848 
2190	 0.172737702973577 
2191	 0.172657961708822 
2192	 0.172583403380115 
2193	 0.172493936760517 
2194	 0.172376505757207 
2195	 0.172285030849771 
2196	 0.172202861220378 
2197	 0.172118365442115 
2198	 0.172023843483158 
2199	 0.171964589940336 
2200	 0.171927698427587 
2201	 0.17188814115025 
2202	 0.171885037822636 
2203	 0.171871412990591 
2204	 0.171840612088087 
2205	 0.171785058840914 
2206	 0.171748412801587 
2207	 0.171722146571574 
2208	 0.171671534440405 
2209	 0.171612635989772 
2210	 0.171555528056583 
2211	 0.171459907729831 
2212	 0.171415337038147 
2213	 0.171405656489402 
2214	 0.171385378335476 
2215	 0.171401733131627 
2216	 0.171382307974882 
2217	 0.171328469167389 
2218	 0.171297537367261 
2219	 0.171257028041573 
2220	 0.171230462658255 
2221	 0.17122172994077 
2222	 0.171220986763745 
2223	 0.171222623573368 
2224	 0.171202482671781 
2225	 0.171189347195469 
2226	 0.171175234291127 
2227	 0.171156462737904 
2228	 0.171144102473868 
2229	 0.171108721038765 
2230	 0.171050671538321 
2231	 0.171016910608743 
2232	 0.170973026815876 
2233	 0.170944573971016 
2234	 0.170943272634448 
2235	 0.170927077930423 
2236	 0.170902706999109 
2237	 0.170881245938132 
2238	 0.170850322451024 
2239	 0.170842011669469 
2240	 0.170852035183854 
2241	 0.170857473603072 
2242	 0.170894001043266 
2243	 0.170897594073327 
2244	 0.170878830803626 
2245	 0.170851998931834 
2246	 0.170824993311766 
2247	 0.170791099130691 
2248	 0.170764954375237 
2249	 0.170748231227897 
2250	 0.17072022882822 
2251	 0.170678700797709 
2252	 0.170659674458476 
2253	 0.170646569772153 
2254	 0.170642459325475 
2255	 0.170659870349602 
2256	 0.170661037855121 
2257	 0.170656590056449 
2258	 0.17066256218716 
2259	 0.170677919534512 
2260	 0.170672407389661 
2261	 0.170655861072082 
2262	 0.170650571562621 
2263	 0.170631955846065 
2264	 0.170623387103565 
2265	 0.170641670313447 
2266	 0.170645513324668 
2267	 0.170649143037544 
2268	 0.170634969611253 
2269	 0.170619031685697 
2270	 0.170569379254973 
2271	 0.170523951695067 
2272	 0.170501504120549 
2273	 0.170495163751824 
2274	 0.17051295626497 
2275	 0.170495718121743 
2276	 0.170465766088918 
2277	 0.170432717220055 
2278	 0.170375745094423 
2279	 0.170334432631039 
2280	 0.170298206849963 
2281	 0.170276678261656 
2282	 0.170276342261523 
2283	 0.170244725214958 
2284	 0.170197406499172 
2285	 0.170167256119124 
2286	 0.170114293052016 
2287	 0.170095108179146 
2288	 0.170125391491883 
2289	 0.170123347826248 
2290	 0.170114752439316 
2291	 0.170101947183351 
2292	 0.170071622027569 
2293	 0.17005168542587 
2294	 0.170055919091906 
2295	 0.170027083263775 
2296	 0.169968217049678 
2297	 0.169927668828822 
2298	 0.169890816861114 
2299	 0.169847228083926 
2300	 0.169877610082042 
2301	 0.169911683703457 
2302	 0.16989370901253 
2303	 0.169876296882286 
2304	 0.169830447277125 
2305	 0.169780025910225 
2306	 0.169736386425386 
2307	 0.169693812760885 
2308	 0.1696643461764 
2309	 0.169649338034265 
2310	 0.169612763368043 
2311	 0.169589974534483 
2312	 0.169546952092029 
2313	 0.169468596147981 
2314	 0.16939913600942 
2315	 0.16933706049446 
2316	 0.169261408610747 
2317	 0.169152530098705 
2318	 0.169093849651725 
2319	 0.169057895718005 
2320	 0.169012589295504 
2321	 0.168990413156322 
2322	 0.168966399349215 
2323	 0.168927497789715 
2324	 0.168903738576569 
2325	 0.168920453836822 
2326	 0.168905651999005 
2327	 0.168869187096351 
2328	 0.168838954341664 
2329	 0.168823063946123 
2330	 0.16876987695447 
2331	 0.168742495739799 
2332	 0.168735384124074 
2333	 0.168695985003672 
2334	 0.168686659909693 
2335	 0.168655719453647 
2336	 0.168597507041462 
2337	 0.168597569667861 
2338	 0.168577651440198 
2339	 0.168544135031977 
2340	 0.168547702224893 
2341	 0.168518055217818 
2342	 0.168444702356085 
2343	 0.168373567644768 
2344	 0.16832606834875 
2345	 0.168271168980836 
2346	 0.168209740016295 
2347	 0.16814265301759 
2348	 0.168074520940358 
2349	 0.168004508510109 
2350	 0.167926826065505 
2351	 0.167854943840936 
2352	 0.167811786248783 
2353	 0.167701151998969 
2354	 0.167548455619193 
2355	 0.167403551465499 
2356	 0.167211509850065 
2357	 0.167069927137464 
2358	 0.166947505701318 
2359	 0.166830154995747 
2360	 0.166719712169258 
2361	 0.166626873452655 
2362	 0.166558918973608 
2363	 0.166498109054853 
2364	 0.166475855361311 
2365	 0.166404315375849 
2366	 0.166315309230985 
2367	 0.166223171215323 
2368	 0.166094802600463 
2369	 0.165985203002635 
2370	 0.165876215777905 
2371	 0.165802539802458 
2372	 0.165711693240869 
2373	 0.165563670456444 
2374	 0.165466980854293 
2375	 0.165302722573472 
2376	 0.165090852728586 
2377	 0.164998990120821 
2378	 0.164919242551898 
2379	 0.164784460826244 
2380	 0.164635774607326 
2381	 0.164492535846748 
2382	 0.164331726175031 
2383	 0.164130742512104 
2384	 0.163940029684557 
2385	 0.163769874965597 
2386	 0.163590138864338 
2387	 0.163445420722387 
2388	 0.163356160729182 
2389	 0.163208185761976 
2390	 0.163043728364194 
2391	 0.162918597954625 
2392	 0.162810096082502 
2393	 0.162713198359211 
2394	 0.16264215441341 
2395	 0.162617067555298 
2396	 0.16251946021079 
2397	 0.162477909107933 
2398	 0.16237354222689 
2399	 0.16208242761418 
2400	 0.161857016516996 
2401	 0.161624192339622 
2402	 0.161509675479887 
2403	 0.161529836629066 
2404	 0.161520770603862 
2405	 0.161540492320093 
2406	 0.161506666378482 
2407	 0.161389155283072 
2408	 0.161246627305163 
2409	 0.161123576882439 
2410	 0.16100174972208 
2411	 0.160973404200405 
2412	 0.161059703089617 
2413	 0.161103802689347 
2414	 0.161167877263146 
2415	 0.161160994447631 
2416	 0.161172079350612 
2417	 0.161224650584138 
2418	 0.161196031759314 
2419	 0.161116003067778 
2420	 0.161028541744557 
2421	 0.160816618368484 
2422	 0.160723467684523 
2423	 0.160698243535656 
2424	 0.160657571337678 
2425	 0.160697598836427 
2426	 0.160632427347518 
2427	 0.160406323001121 
2428	 0.160385351001109 
2429	 0.160492512324979 
2430	 0.160544934573403 
2431	 0.16075574861743 
2432	 0.160834561955299 
2433	 0.160725518795093 
2434	 0.160670612593093 
2435	 0.160619413529986 
2436	 0.160560438507444 
2437	 0.160525374555993 
2438	 0.160415097243094 
2439	 0.160249772881918 
2440	 0.160155807953709 
2441	 0.160011360139013 
2442	 0.159946397485645 
2443	 0.160016423536894 
2444	 0.159945625975821 
2445	 0.15980412367576 
2446	 0.159721103071413 
2447	 0.159609540904667 
2448	 0.159500724336447 
2449	 0.159467585301851 
2450	 0.159394916650573 
2451	 0.159267500383206 
2452	 0.159173314228871 
2453	 0.15908415463587 
2454	 0.158946196630165 
2455	 0.158768801473691 
2456	 0.158591091714493 
2457	 0.158390756232592 
2458	 0.158224513943373 
2459	 0.158078253436372 
2460	 0.157989081214272 
2461	 0.157995705266604 
2462	 0.157879874007058 
2463	 0.15767150229185 
2464	 0.157530725420576 
2465	 0.157336864925763 
2466	 0.15716708491658 
2467	 0.157129043210936 
2468	 0.157094080467709 
2469	 0.156990224938733 
2470	 0.157038512901781 
2471	 0.157016641774589 
2472	 0.156985526448077 
2473	 0.156946651213258 
2474	 0.156876026617472 
2475	 0.156814310854948 
2476	 0.156653974513111 
2477	 0.156491864854214 
2478	 0.156262877444488 
2479	 0.155913193429173 
2480	 0.155652851698081 
2481	 0.155519648989941 
2482	 0.155485980070527 
2483	 0.155365974575696 
2484	 0.155183499870188 
2485	 0.15504594362654 
2486	 0.154846526268451 
2487	 0.154789281370383 
2488	 0.154735095090965 
2489	 0.154384933716154 
2490	 0.154168257205462 
2491	 0.154167390491997 
2492	 0.154254392946618 
2493	 0.154517663573398 
2494	 0.154701883045318 
2495	 0.154718044318518 
2496	 0.154504656644121 
2497	 0.154410356778889 
2498	 0.15438103169954 
2499	 0.154038935167334 
2500	 0.153868529816557 
