Wavelength	LMW600002.asd
350	 0.105642985302858 
351	 0.100336680140331 
352	 9.91304254434814E-02 
353	 0.104286993329562 
354	 0.103144901646266 
355	 0.108555142266617 
356	 0.113270075930091 
357	 0.109592801761837 
358	 0.108765501841743 
359	 0.109400504739726 
360	 0.109906808742347 
361	 0.108921261559851 
362	 0.106542562238908 
363	 0.106154135591141 
364	 0.108084385387031 
365	 0.107463072352938 
366	 0.106905906732782 
367	 0.107403682519907 
368	 0.108993569164208 
369	 0.110214316807472 
370	 0.108174592788803 
371	 0.106052595117724 
372	 0.110085739306953 
373	 0.111656860478471 
374	 0.112858744905767 
375	 0.114522290719332 
376	 0.112733749549399 
377	 0.11092246605186 
378	 0.111485509050087 
379	 0.114914492477815 
380	 0.115881004921558 
381	 0.115544160252756 
382	 0.114940195599343 
383	 0.114777240288566 
384	 0.114610615103931 
385	 0.115361632229342 
386	 0.11705064919864 
387	 0.11769700079669 
388	 0.118564580349342 
389	 0.118947974953423 
390	 0.118139369412131 
391	 0.118057632224925 
392	 0.119178588474484 
393	 0.120798861944363 
394	 0.121480869423249 
395	 0.123834418671899 
396	 0.125466151560406 
397	 0.125252582335921 
398	 0.126698600154153 
399	 0.126531380520737 
400	 0.126091931155651 
401	 0.127541089002407 
402	 0.127679919205297 
403	 0.127683859357995 
404	 0.128525896390309 
405	 0.130591210475016 
406	 0.13108071625159 
407	 0.131435394847286 
408	 0.132666976290093 
409	 0.132416732680421 
410	 0.131988843529868 
411	 0.132266939726848 
412	 0.133729026599212 
413	 0.135888037226716 
414	 0.136649637591535 
415	 0.135989421012653 
416	 0.136574435663795 
417	 0.136594477851193 
418	 0.136928378023061 
419	 0.138432422367644 
420	 0.139960969349449 
421	 0.140464525051267 
422	 0.140471229315318 
423	 0.141351673291558 
424	 0.141868969782202 
425	 0.142201434550057 
426	 0.142571675645099 
427	 0.142959546109307 
428	 0.143205273722753 
429	 0.143423340797168 
430	 0.143826946092104 
431	 0.144663701646289 
432	 0.145362447850252 
433	 0.145678522786117 
434	 0.145738003596805 
435	 0.146260184555359 
436	 0.146908473735405 
437	 0.147287370126641 
438	 0.147358424135607 
439	 0.147920905652588 
440	 0.148702077032077 
441	 0.148957562691256 
442	 0.148885253899858 
443	 0.149306064970392 
444	 0.15015286402584 
445	 0.149946765600149 
446	 0.150078168168463 
447	 0.150543932301763 
448	 0.150997764892732 
449	 0.151460683239332 
450	 0.151937112447279 
451	 0.152368119278428 
452	 0.152650651529993 
453	 0.15286069967349 
454	 0.15321196693186 
455	 0.153746012213324 
456	 0.154054424550098 
457	 0.154221327126673 
458	 0.154459394934119 
459	 0.15496591126262 
460	 0.155291647206827 
461	 0.155569379305756 
462	 0.155945621950752 
463	 0.156515129786687 
464	 0.156868474392939 
465	 0.15714770582518 
466	 0.157532696162661 
467	 0.157643454615658 
468	 0.157945412473241 
469	 0.158443142797421 
470	 0.158767659518242 
471	 0.159038289697004 
472	 0.159385436067217 
473	 0.15982073168327 
474	 0.160067491506234 
475	 0.160260639892946 
476	 0.160468691164686 
477	 0.160729712112775 
478	 0.161045274109282 
479	 0.161355318142405 
480	 0.161623170819134 
481	 0.16184595543829 
482	 0.162223852867257 
483	 0.162663370616407 
484	 0.163041855414712 
485	 0.163527372441343 
486	 0.163768122361882 
487	 0.16380640866612 
488	 0.164019791003941 
489	 0.164560776534728 
490	 0.16509603374195 
491	 0.165389178333686 
492	 0.165662258966931 
493	 0.165803284973975 
494	 0.165946547345815 
495	 0.166301885583644 
496	 0.166764199729842 
497	 0.166983600948312 
498	 0.167002911476064 
499	 0.167476166139075 
500	 0.167798422435091 
501	 0.167962660359862 
502	 0.168143722424572 
503	 0.16849411041759 
504	 0.168816586715098 
505	 0.169080158474189 
506	 0.16941011493825 
507	 0.169692301344995 
508	 0.169909038512961 
509	 0.170092342817333 
510	 0.170358678707463 
511	 0.170579036013902 
512	 0.170792273049745 
513	 0.17109974288865 
514	 0.171288281971805 
515	 0.171501895025149 
516	 0.171787049872347 
517	 0.171947278401164 
518	 0.172228498076483 
519	 0.172495896118317 
520	 0.172593164701199 
521	 0.172946641732041 
522	 0.173215978323336 
523	 0.173325309970253 
524	 0.173514570228179 
525	 0.173718067675185 
526	 0.173857467925952 
527	 0.17394936193309 
528	 0.174350619170877 
529	 0.1746169932394 
530	 0.174747952351508 
531	 0.175018726413606 
532	 0.175215323166968 
533	 0.175442292852165 
534	 0.175727780580041 
535	 0.17584066732615 
536	 0.175975123242745 
537	 0.176157366278914 
538	 0.176352210545535 
539	 0.176581668364082 
540	 0.17680396362558 
541	 0.177004488195388 
542	 0.177211153273996 
543	 0.177351167801205 
544	 0.177493010744042 
545	 0.177709966084522 
546	 0.177948229885334 
547	 0.178074113778377 
548	 0.178152722494451 
549	 0.178402954536498 
550	 0.178621164585547 
551	 0.178776577475035 
552	 0.178901028217231 
553	 0.179101186849108 
554	 0.179303427560372 
555	 0.179483907687294 
556	 0.179649583392359 
557	 0.179843743170204 
558	 0.180029320005123 
559	 0.180205435866928 
560	 0.18046504301132 
561	 0.180555517086253 
562	 0.18059771845499 
563	 0.180790977184157 
564	 0.180990994350125 
565	 0.181075204733191 
566	 0.181080327920966 
567	 0.181214480770014 
568	 0.181442387193298 
569	 0.181705540905972 
570	 0.181947008630177 
571	 0.182162184845126 
572	 0.182305029267651 
573	 0.182397822668099 
574	 0.182505021184943 
575	 0.182539276033777 
576	 0.18264796398353 
577	 0.182875207531704 
578	 0.182963342589639 
579	 0.183051531792725 
580	 0.183126390992424 
581	 0.183136467139163 
582	 0.183203229484955 
583	 0.183298061820355 
584	 0.18340340120727 
585	 0.183537565829411 
586	 0.183714902051301 
587	 0.183893739491022 
588	 0.18402823763093 
589	 0.184139140948475 
590	 0.184189183755671 
591	 0.184257079020644 
592	 0.184509816131572 
593	 0.1846805436444 
594	 0.184725348573439 
595	 0.184698396284579 
596	 0.184793270973305 
597	 0.184769010731351 
598	 0.184695908757302 
599	 0.184781838541934 
600	 0.184820549342676 
601	 0.184843951225833 
602	 0.184892284991401 
603	 0.184979958216467 
604	 0.184958977745665 
605	 0.184935060493398 
606	 0.185067147765852 
607	 0.185268799184734 
608	 0.185379556819089 
609	 0.185420802298139 
610	 0.185619910951398 
611	 0.185782228320976 
612	 0.185881793320291 
613	 0.185938815356135 
614	 0.185981374959169 
615	 0.186031249403158 
616	 0.186090527293951 
617	 0.186145199846027 
618	 0.186175152089837 
619	 0.186211807680001 
620	 0.186280081124607 
621	 0.186379451346448 
622	 0.186468254679602 
623	 0.186515430069898 
624	 0.186513782515594 
625	 0.186564412476571 
626	 0.186623436611783 
627	 0.18666365206077 
628	 0.186695931155544 
629	 0.186741950313318 
630	 0.186796504410472 
631	 0.186849053797128 
632	 0.18690376165127 
633	 0.186946269010817 
634	 0.187006075917078 
635	 0.187134398383094 
636	 0.187116403426849 
637	 0.187132490794704 
638	 0.187285502414727 
639	 0.187318593620677 
640	 0.187336925479752 
641	 0.187393468109363 
642	 0.187507934461623 
643	 0.18760933146845 
644	 0.18766320592157 
645	 0.187686815894773 
646	 0.187765312357643 
647	 0.187820945810256 
648	 0.187871962867359 
649	 0.187947239742387 
650	 0.187995835179811 
651	 0.188070174184053 
652	 0.188161698457604 
653	 0.188210606209895 
654	 0.188263158820277 
655	 0.188302240168751 
656	 0.18833348321292 
657	 0.188451838953835 
658	 0.188573015104186 
659	 0.188633716069124 
660	 0.188607709999247 
661	 0.188660180146818 
662	 0.188736820968557 
663	 0.188809557004009 
664	 0.188924200095239 
665	 0.188946696281971 
666	 0.188958658817098 
667	 0.189052818822813 
668	 0.189082127051912 
669	 0.189171528562217 
670	 0.18928500686516 
671	 0.189264327996993 
672	 0.189317505437077 
673	 0.189395739452182 
674	 0.189446618845692 
675	 0.189522637109393 
676	 0.189566325149938 
677	 0.189579196844934 
678	 0.189594059937971 
679	 0.18965912886911 
680	 0.189710290277593 
681	 0.18974002120072 
682	 0.189827182470102 
683	 0.189876243258196 
684	 0.18989804736759 
685	 0.189932577275982 
686	 0.190022613986059 
687	 0.190067278905435 
688	 0.190068339327856 
689	 0.190101105094606 
690	 0.190164846045082 
691	 0.190201656576988 
692	 0.190198493035643 
693	 0.190250157559416 
694	 0.190298484674756 
695	 0.190323768105361 
696	 0.190323036306217 
697	 0.19030132144374 
698	 0.190329253038726 
699	 0.190408946889729 
700	 0.190467997737042 
701	 0.190491443001063 
702	 0.190496948386294 
703	 0.190501749642305 
704	 0.19049006397843 
705	 0.190504491870485 
706	 0.190557915430483 
707	 0.190634383902839 
708	 0.190648997280824 
709	 0.1905944143578 
710	 0.190533954107303 
711	 0.190618779110424 
712	 0.190646577251919 
713	 0.190630283065126 
714	 0.190632523108444 
715	 0.190659257124429 
716	 0.190652861860755 
717	 0.190641818581105 
718	 0.190701280041784 
719	 0.190656312731057 
720	 0.19059015002127 
721	 0.19055886865484 
722	 0.190484150765831 
723	 0.190496480475833 
724	 0.190537851289266 
725	 0.190515517269571 
726	 0.190521629036483 
727	 0.190524739911402 
728	 0.19049195297265 
729	 0.190401927495939 
730	 0.1903725479083 
731	 0.190374853056961 
732	 0.19036911690699 
733	 0.19036588101683 
734	 0.190320977616573 
735	 0.19024486769074 
736	 0.190176128191603 
737	 0.190162115183127 
738	 0.190126337998928 
739	 0.190059737284828 
740	 0.190034206371886 
741	 0.189978153098185 
742	 0.189934590016528 
743	 0.189930445850414 
744	 0.189887128924083 
745	 0.189810452846341 
746	 0.189718617059838 
747	 0.189636921267964 
748	 0.189569846340374 
749	 0.189543912484974 
750	 0.189529382817125 
751	 0.189431356115304 
752	 0.189366526708172 
753	 0.189324290449175 
754	 0.189274639987284 
755	 0.189219645558105 
756	 0.189197730065564 
757	 0.189170782164384 
758	 0.189077526549209 
759	 0.189005328320291 
760	 0.188910143262519 
761	 0.188798342366917 
762	 0.188751441775718 
763	 0.188704235274276 
764	 0.188611107389365 
765	 0.188478597968374 
766	 0.188449489929334 
767	 0.18841988308663 
768	 0.188344791355665 
769	 0.188227964076393 
770	 0.188180787602715 
771	 0.188122674510941 
772	 0.188023515424125 
773	 0.187934738064551 
774	 0.187860705278743 
775	 0.187806501320399 
776	 0.187762135780691 
777	 0.187681654684995 
778	 0.187592165779531 
779	 0.187510969023091 
780	 0.187439236457152 
781	 0.187302476570217 
782	 0.187202440098125 
783	 0.187157980395676 
784	 0.187088745686137 
785	 0.187032315048713 
786	 0.186971489030827 
787	 0.186885108024914 
788	 0.186759602898189 
789	 0.186656004499491 
790	 0.18656536585852 
791	 0.1864637061306 
792	 0.186411252125213 
793	 0.186328544189883 
794	 0.186197098972024 
795	 0.186059642657471 
796	 0.185934933786254 
797	 0.185855908356969 
798	 0.185804950608036 
799	 0.185668850834759 
800	 0.185622896806741 
801	 0.185597510329865 
802	 0.185484425810745 
803	 0.185326603723416 
804	 0.18525797250715 
805	 0.185225784941156 
806	 0.1850833787405 
807	 0.18499890949197 
808	 0.184877720139417 
809	 0.184721252751383 
810	 0.184684082603241 
811	 0.18459020637428 
812	 0.184482696753425 
813	 0.184411358604597 
814	 0.184307532856088 
815	 0.184178173047088 
816	 0.184050755502491 
817	 0.183959374832451 
818	 0.183919812693355 
819	 0.183831053807761 
820	 0.183686456412661 
821	 0.18356315606721 
822	 0.18343422095152 
823	 0.18336294263311 
824	 0.183335857013124 
825	 0.183198251604045 
826	 0.18308696694199 
827	 0.182995479893503 
828	 0.182891155172288 
829	 0.182791338518167 
830	 0.182655342092422 
831	 0.182508266928074 
832	 0.182405390332581 
833	 0.1823703282962 
834	 0.18230108275086 
835	 0.182192612886405 
836	 0.182129945625793 
837	 0.181992398597385 
838	 0.181890200353565 
839	 0.181851930676493 
840	 0.181706785990604 
841	 0.18157809794133 
842	 0.181441188210382 
843	 0.181285835924807 
844	 0.181281015383498 
845	 0.181237278951041 
846	 0.181142457801579 
847	 0.181061246993796 
848	 0.180960219550081 
849	 0.180855339204812 
850	 0.180753533768688 
851	 0.180651647046098 
852	 0.180551762050826 
853	 0.180454605730333 
854	 0.180358614362395 
855	 0.180259821583845 
856	 0.180211841751216 
857	 0.180155462505716 
858	 0.180040474993814 
859	 0.17990040035819 
860	 0.179825684470052 
861	 0.179782208474948 
862	 0.179701104543089 
863	 0.179593410352717 
864	 0.179498103435119 
865	 0.179426620948793 
866	 0.179362418720613 
867	 0.17923608201928 
868	 0.179161416733971 
869	 0.179138642711613 
870	 0.179043785911989 
871	 0.178915562489532 
872	 0.178811127646297 
873	 0.178749386692632 
874	 0.178682316807431 
875	 0.178630772971994 
876	 0.178563129060633 
877	 0.178461503501168 
878	 0.17836373705582 
879	 0.178384224133542 
880	 0.178355076384789 
881	 0.178126502940686 
882	 0.178047158709253 
883	 0.178045054180359 
884	 0.178008537643691 
885	 0.17785800271401 
886	 0.177818089529649 
887	 0.177787324977214 
888	 0.177712547258935 
889	 0.177611586799231 
890	 0.177553521155035 
891	 0.177488680896188 
892	 0.177404307386033 
893	 0.177349442716646 
894	 0.177245451899155 
895	 0.177177443209392 
896	 0.177189304920293 
897	 0.177196892519864 
898	 0.177167055241299 
899	 0.17707770896003 
900	 0.17695367700499 
901	 0.17691744853841 
902	 0.176915390156218 
903	 0.176883914401948 
904	 0.176796903693431 
905	 0.176782891902922 
906	 0.176752064886438 
907	 0.176684396038955 
908	 0.176604408840485 
909	 0.176565757281602 
910	 0.176460910808905 
911	 0.176368265399415 
912	 0.17643834331842 
913	 0.176411315330532 
914	 0.176304586723854 
915	 0.176210709769092 
916	 0.176235783453884 
917	 0.176190274717685 
918	 0.176177905753017 
919	 0.176226276451273 
920	 0.176232256760003 
921	 0.176122238732398 
922	 0.176004504815485 
923	 0.175958292720036 
924	 0.175965241707102 
925	 0.17597801378662 
926	 0.176003167003416 
927	 0.17601175260899 
928	 0.175891462012836 
929	 0.17587357526663 
930	 0.175929608581922 
931	 0.175965169797264 
932	 0.175907789473609 
933	 0.175848834071533 
934	 0.175791187854433 
935	 0.175727548096482 
936	 0.175700036967393 
937	 0.175686977257888 
938	 0.175679735064112 
939	 0.17566486730024 
940	 0.175595820202262 
941	 0.175562575408161 
942	 0.17557881100043 
943	 0.175620959887569 
944	 0.17567361650876 
945	 0.17566209045347 
946	 0.175628088167981 
947	 0.175630298406454 
948	 0.175533118196519 
949	 0.175506254223292 
950	 0.175512820845943 
951	 0.175450267387179 
952	 0.175485373497564 
953	 0.17552780270052 
954	 0.175519576184894 
955	 0.175469060577406 
956	 0.175575404273306 
957	 0.175600109762831 
958	 0.175543990012617 
959	 0.175546967517584 
960	 0.175526303466019 
961	 0.175563112265992 
962	 0.175602513956829 
963	 0.175534821892916 
964	 0.175502476557124 
965	 0.175452446310795 
966	 0.175478284649669 
967	 0.175684150720832 
968	 0.17561795764807 
969	 0.175574347825101 
970	 0.175622835093081 
971	 0.17564931413734 
972	 0.175680696113885 
973	 0.175709822410383 
974	 0.175721611065066 
975	 0.175711317845108 
976	 0.17575339885286 
977	 0.175786217015458 
978	 0.175772541256443 
979	 0.175718855536374 
980	 0.175718846114975 
981	 0.175743475042123 
982	 0.175752125015424 
983	 0.175716659547976 
984	 0.175669863391557 
985	 0.175684704379938 
986	 0.175723948906042 
987	 0.17571301601015 
988	 0.175731096228841 
989	 0.175829250663692 
990	 0.175883108110179 
991	 0.17578187476901 
992	 0.175876992585323 
993	 0.175954857859397 
994	 0.176022454813563 
995	 0.176131980278984 
996	 0.176054799784242 
997	 0.175986003873586 
998	 0.176034115608188 
999	 0.176180138102647 
1000	 0.17614220634354 
1001	 0.177804994322039 
1002	 0.177803219466852 
1003	 0.177796827777422 
1004	 0.1778056031932 
1005	 0.17778757839823 
1006	 0.177802453090044 
1007	 0.177854530926173 
1008	 0.177871955006624 
1009	 0.177893930091497 
1010	 0.177954636857149 
1011	 0.178023483756477 
1012	 0.178051882902966 
1013	 0.178088389864801 
1014	 0.178083775404344 
1015	 0.178025804435196 
1016	 0.178019108795204 
1017	 0.178021258141192 
1018	 0.178042324778299 
1019	 0.17804646313717 
1020	 0.178078607441283 
1021	 0.178136097622651 
1022	 0.178157926054218 
1023	 0.178169654848347 
1024	 0.17819501047481 
1025	 0.178165471453849 
1026	 0.178112058889311 
1027	 0.178052946162386 
1028	 0.177988491092071 
1029	 0.177972995725465 
1030	 0.178026734186543 
1031	 0.178044777487723 
1032	 0.1780846245488 
1033	 0.178088722902889 
1034	 0.178083801423403 
1035	 0.17802795787448 
1036	 0.178000212904782 
1037	 0.178020930531776 
1038	 0.178010660957516 
1039	 0.178021243588661 
1040	 0.178067960241229 
1041	 0.178057934122472 
1042	 0.178042157337709 
1043	 0.1780747833555 
1044	 0.1780926515646 
1045	 0.178089377084887 
1046	 0.178139822522016 
1047	 0.178202974979036 
1048	 0.178215480035866 
1049	 0.178297675874162 
1050	 0.178372361467524 
1051	 0.178394506747341 
1052	 0.178487435522112 
1053	 0.178618871165971 
1054	 0.178679274634226 
1055	 0.178719387317728 
1056	 0.178760364648309 
1057	 0.178807774446783 
1058	 0.178797514282857 
1059	 0.178844917587673 
1060	 0.178958090322573 
1061	 0.17903125565317 
1062	 0.179045346436987 
1063	 0.179063248259162 
1064	 0.179123595996884 
1065	 0.179215979645918 
1066	 0.179322327146411 
1067	 0.179423882398828 
1068	 0.179483414776922 
1069	 0.179494333760386 
1070	 0.179543778574333 
1071	 0.179623436654056 
1072	 0.179685884345613 
1073	 0.179755265019152 
1074	 0.179796122084955 
1075	 0.17982668811411 
1076	 0.179815674545112 
1077	 0.179810998450469 
1078	 0.179836918047996 
1079	 0.179877055295156 
1080	 0.179921162775187 
1081	 0.179909388483635 
1082	 0.179901924879141 
1083	 0.179894916081874 
1084	 0.179858256619077 
1085	 0.179835621166139 
1086	 0.179814609839164 
1087	 0.179816450728203 
1088	 0.179825506184667 
1089	 0.17985676736908 
1090	 0.179880498783233 
1091	 0.179898283335319 
1092	 0.179877144124082 
1093	 0.179841088837306 
1094	 0.179817367057973 
1095	 0.179792625133129 
1096	 0.179794967127139 
1097	 0.179792602625826 
1098	 0.179762224952456 
1099	 0.179704862977283 
1100	 0.17967960658484 
1101	 0.179625547853902 
1102	 0.179607132817726 
1103	 0.17962720698447 
1104	 0.179650760384945 
1105	 0.17963416950176 
1106	 0.179642570684105 
1107	 0.179662832739506 
1108	 0.17965613922132 
1109	 0.179637259430119 
1110	 0.179649176608684 
1111	 0.179667775228623 
1112	 0.179683793697723 
1113	 0.179694331912434 
1114	 0.179727190249512 
1115	 0.179750074163459 
1116	 0.179761749854827 
1117	 0.179765220861709 
1118	 0.179767069141195 
1119	 0.179769656144744 
1120	 0.179782735975344 
1121	 0.179799356235024 
1122	 0.179817738074906 
1123	 0.179836472870938 
1124	 0.179864127299657 
1125	 0.179875293662006 
1126	 0.179903064779985 
1127	 0.179965489460465 
1128	 0.180000662857786 
1129	 0.180023516981629 
1130	 0.180037989537297 
1131	 0.180037812474053 
1132	 0.180050942674365 
1133	 0.180059916191867 
1134	 0.180071768724578 
1135	 0.180096730439849 
1136	 0.180119340420175 
1137	 0.180119699613961 
1138	 0.180113332332359 
1139	 0.180124254062052 
1140	 0.180136703413952 
1141	 0.180151779700491 
1142	 0.180189557112449 
1143	 0.180200778673051 
1144	 0.180197103070837 
1145	 0.18019362016443 
1146	 0.180185728676007 
1147	 0.180172024245044 
1148	 0.180144001846667 
1149	 0.180131993646454 
1150	 0.180133547766431 
1151	 0.180105567736011 
1152	 0.180099444590549 
1153	 0.180104791488369 
1154	 0.180106151032896 
1155	 0.180108490371789 
1156	 0.1801087583241 
1157	 0.180122737085998 
1158	 0.180107653625652 
1159	 0.180070178620476 
1160	 0.180045740120911 
1161	 0.180003996150168 
1162	 0.179980078832882 
1163	 0.179973042177413 
1164	 0.17996145138186 
1165	 0.179952257984843 
1166	 0.179946692132203 
1167	 0.179926011545265 
1168	 0.179915406431168 
1169	 0.179915799065016 
1170	 0.179934818253904 
1171	 0.179916027881485 
1172	 0.179888359808728 
1173	 0.17986645457921 
1174	 0.179809741305806 
1175	 0.179786826030705 
1176	 0.179794538600079 
1177	 0.179793179747971 
1178	 0.179790615744516 
1179	 0.17979360198146 
1180	 0.179804752397768 
1181	 0.179811576132612 
1182	 0.179809048333164 
1183	 0.179828327441019 
1184	 0.179840975094736 
1185	 0.179855726250313 
1186	 0.179867883618224 
1187	 0.179883311126897 
1188	 0.179893682147918 
1189	 0.179895387919283 
1190	 0.17990620558326 
1191	 0.179919536361095 
1192	 0.17993493138619 
1193	 0.179949752269027 
1194	 0.17997374630089 
1195	 0.180013073545851 
1196	 0.180039124475417 
1197	 0.180057332528547 
1198	 0.180085756257874 
1199	 0.180115469903779 
1200	 0.180139919405346 
1201	 0.180166540968949 
1202	 0.180201291277793 
1203	 0.180236636435595 
1204	 0.180274549815084 
1205	 0.180297199593075 
1206	 0.180320535547099 
1207	 0.180340014928763 
1208	 0.180341002935754 
1209	 0.180349178001295 
1210	 0.18035830029887 
1211	 0.180375846063267 
1212	 0.180393889995001 
1213	 0.180413785401326 
1214	 0.180451534397581 
1215	 0.18047776190588 
1216	 0.180498787238161 
1217	 0.180512163875567 
1218	 0.180526762850488 
1219	 0.180533206608489 
1220	 0.180550969313919 
1221	 0.180574782129613 
1222	 0.18059234147162 
1223	 0.180611186969129 
1224	 0.180631713141726 
1225	 0.180648640120848 
1226	 0.180667092556522 
1227	 0.180699361124504 
1228	 0.180714081781161 
1229	 0.180702057327994 
1230	 0.180715226428654 
1231	 0.180746929622216 
1232	 0.180759459984706 
1233	 0.180769862050498 
1234	 0.180790546188576 
1235	 0.180804376551391 
1236	 0.180794777972335 
1237	 0.180807948415574 
1238	 0.180840975104186 
1239	 0.180862678232089 
1240	 0.180885210507671 
1241	 0.180901934910732 
1242	 0.180921276276348 
1243	 0.180929592637671 
1244	 0.180916866540112 
1245	 0.180921814794683 
1246	 0.180934878761794 
1247	 0.180941036535967 
1248	 0.180945312650983 
1249	 0.180964044723527 
1250	 0.180965241556888 
1251	 0.180971793842827 
1252	 0.180985834750894 
1253	 0.181011005361521 
1254	 0.181029484030917 
1255	 0.181054109880314 
1256	 0.181065590236091 
1257	 0.18107141658361 
1258	 0.181073868944672 
1259	 0.181068771806435 
1260	 0.181063166839976 
1261	 0.181053635948897 
1262	 0.181044995381731 
1263	 0.181026883899861 
1264	 0.181019526870757 
1265	 0.181019791632195 
1266	 0.181018758018556 
1267	 0.181034736826936 
1268	 0.181029222825035 
1269	 0.181022807769675 
1270	 0.181006776838571 
1271	 0.181004965676528 
1272	 0.180998983516471 
1273	 0.18100506701221 
1274	 0.181018021079821 
1275	 0.181044646139335 
1276	 0.181077203302166 
1277	 0.181120341759842 
1278	 0.181190023889921 
1279	 0.181244778444577 
1280	 0.181284142601861 
1281	 0.181349556094688 
1282	 0.181434637780874 
1283	 0.181508364282717 
1284	 0.181577216979987 
1285	 0.181676010083324 
1286	 0.181773341398882 
1287	 0.181855399999522 
1288	 0.181956828458192 
1289	 0.182085072726873 
1290	 0.182190141849565 
1291	 0.182284388841745 
1292	 0.182388353775517 
1293	 0.182499203980944 
1294	 0.182597032928448 
1295	 0.182703211753731 
1296	 0.182782574670653 
1297	 0.182820499670984 
1298	 0.182894342313751 
1299	 0.182996130901829 
1300	 0.18305633922084 
1301	 0.183121523995527 
1302	 0.18316710189375 
1303	 0.183182980934706 
1304	 0.183165473943123 
1305	 0.183162421753483 
1306	 0.183170704495297 
1307	 0.183163191677132 
1308	 0.183134953131984 
1309	 0.18311974802754 
1310	 0.183108991780869 
1311	 0.183088378171581 
1312	 0.183064101172383 
1313	 0.183042889766444 
1314	 0.183020226937638 
1315	 0.182991483545215 
1316	 0.182960470687799 
1317	 0.18293294302729 
1318	 0.182899055472964 
1319	 0.182867042895614 
1320	 0.182844576399149 
1321	 0.182814009248013 
1322	 0.182770491834082 
1323	 0.18273668488403 
1324	 0.182725736596556 
1325	 0.18271075142866 
1326	 0.182685405797281 
1327	 0.18266565128745 
1328	 0.182632328828225 
1329	 0.182572231096224 
1330	 0.182540680830931 
1331	 0.182516955254788 
1332	 0.182511142063167 
1333	 0.182524773049749 
1334	 0.182530433893579 
1335	 0.182543405881545 
1336	 0.182556520636226 
1337	 0.182565118971476 
1338	 0.182581533914608 
1339	 0.182612970339341 
1340	 0.182634760616882 
1341	 0.182657656435729 
1342	 0.182670643073709 
1343	 0.18267152494163 
1344	 0.182676738448014 
1345	 0.182695782864042 
1346	 0.182716352563594 
1347	 0.182745993189829 
1348	 0.182802035466582 
1349	 0.182853940956306 
1350	 0.182892902603799 
1351	 0.182928850042479 
1352	 0.182963524564421 
1353	 0.182994746168864 
1354	 0.183014940336399 
1355	 0.183043376172235 
1356	 0.183078863320237 
1357	 0.18311191390589 
1358	 0.183140764911062 
1359	 0.183175246295112 
1360	 0.183219661139185 
1361	 0.183246066836012 
1362	 0.183260149254266 
1363	 0.183284661501493 
1364	 0.183304349337719 
1365	 0.183328596224174 
1366	 0.183356518645977 
1367	 0.183399199217068 
1368	 0.183430647518621 
1369	 0.183453270631939 
1370	 0.183497314854992 
1371	 0.183522071554801 
1372	 0.183524867050493 
1373	 0.183529289996484 
1374	 0.183523466140463 
1375	 0.183494544574963 
1376	 0.183477667101858 
1377	 0.183471070104744 
1378	 0.183447007263574 
1379	 0.183404170329357 
1380	 0.183381862576268 
1381	 0.183353279725553 
1382	 0.183340738714363 
1383	 0.183352511079919 
1384	 0.18335276522968 
1385	 0.183362793405837 
1386	 0.183357474177186 
1387	 0.183339980097305 
1388	 0.183325345103104 
1389	 0.183310214046068 
1390	 0.183280775902345 
1391	 0.183253537271129 
1392	 0.18322591848186 
1393	 0.183188727012099 
1394	 0.18315679093405 
1395	 0.183111752572873 
1396	 0.183075292748533 
1397	 0.183041126099394 
1398	 0.183006504919879 
1399	 0.182965803764326 
1400	 0.182927336000897 
1401	 0.182888897295947 
1402	 0.182845395431716 
1403	 0.182804364215436 
1404	 0.182764212883501 
1405	 0.18272918221987 
1406	 0.182701037209106 
1407	 0.182659276602336 
1408	 0.182616760170149 
1409	 0.182575271490944 
1410	 0.182514718690924 
1411	 0.18246866493186 
1412	 0.18242919424302 
1413	 0.182400497314643 
1414	 0.182379796017441 
1415	 0.182365177528675 
1416	 0.182344891738204 
1417	 0.182325292664357 
1418	 0.182296012095101 
1419	 0.182258015637857 
1420	 0.182237613034874 
1421	 0.182233964344851 
1422	 0.182234563478375 
1423	 0.182232367912785 
1424	 0.182229123137347 
1425	 0.182225129677093 
1426	 0.182219533649315 
1427	 0.182211148680646 
1428	 0.182206407045252 
1429	 0.182204361252319 
1430	 0.182195938453173 
1431	 0.182190949345879 
1432	 0.182179207106784 
1433	 0.182151614677623 
1434	 0.182137625316041 
1435	 0.182120982556467 
1436	 0.182115271459408 
1437	 0.182126284329702 
1438	 0.182133871950202 
1439	 0.182146482690855 
1440	 0.182156970917523 
1441	 0.182161873878041 
1442	 0.182171433944186 
1443	 0.182177463114799 
1444	 0.182188922221565 
1445	 0.182218887018907 
1446	 0.182235911478582 
1447	 0.182263586609793 
1448	 0.182300737578325 
1449	 0.182310631565464 
1450	 0.182328829434998 
1451	 0.182348219544646 
1452	 0.18235743379085 
1453	 0.182379608326155 
1454	 0.182417281321794 
1455	 0.182438371399549 
1456	 0.182460764929921 
1457	 0.182477761184968 
1458	 0.182488446598679 
1459	 0.182493469882983 
1460	 0.182486289173008 
1461	 0.182486847910811 
1462	 0.182486645534128 
1463	 0.182487764548937 
1464	 0.182495175258624 
1465	 0.182499337712555 
1466	 0.182495716432559 
1467	 0.182498162954558 
1468	 0.182508657313449 
1469	 0.182515772972 
1470	 0.182525431023606 
1471	 0.182528252294399 
1472	 0.182530230698702 
1473	 0.182530460428538 
1474	 0.182529343937811 
1475	 0.182529302951938 
1476	 0.182525726813337 
1477	 0.182521393405272 
1478	 0.182523795842107 
1479	 0.182530799522618 
1480	 0.18253202116201 
1481	 0.182529217235612 
1482	 0.18252074749687 
1483	 0.182495614467061 
1484	 0.182487462115264 
1485	 0.182485063770613 
1486	 0.182483628864228 
1487	 0.182485949285943 
1488	 0.182492121853602 
1489	 0.182499779903509 
1490	 0.182512761025391 
1491	 0.18254004136707 
1492	 0.182552244466846 
1493	 0.182556976397757 
1494	 0.182562917606939 
1495	 0.182566403391528 
1496	 0.182567722648702 
1497	 0.18257051563732 
1498	 0.182570993629178 
1499	 0.182565389705153 
1500	 0.182553414075307 
1501	 0.18253347611567 
1502	 0.182523851532649 
1503	 0.182507308407539 
1504	 0.182507868014275 
1505	 0.18251670201859 
1506	 0.182519864533783 
1507	 0.182527988251148 
1508	 0.182521686206347 
1509	 0.182508068620354 
1510	 0.182513328048831 
1511	 0.182505119382114 
1512	 0.182489996507865 
1513	 0.182499329154343 
1514	 0.182491867413695 
1515	 0.182497105585139 
1516	 0.182521364811497 
1517	 0.182517574984237 
1518	 0.182503715251716 
1519	 0.1824949949816 
1520	 0.182470087941612 
1521	 0.182457263295873 
1522	 0.182448564642267 
1523	 0.18244317145384 
1524	 0.18244181451287 
1525	 0.182442483748434 
1526	 0.182446445464855 
1527	 0.182456637062442 
1528	 0.182473945240013 
1529	 0.18248140917592 
1530	 0.182499908031731 
1531	 0.182504377373543 
1532	 0.182478958483412 
1533	 0.182482432531856 
1534	 0.182502096522863 
1535	 0.182509020907053 
1536	 0.182526386653862 
1537	 0.182536728810221 
1538	 0.182537211038506 
1539	 0.182530554127426 
1540	 0.182516146744678 
1541	 0.182515593628869 
1542	 0.182512853312846 
1543	 0.182507526331208 
1544	 0.182516862612204 
1545	 0.182516786231714 
1546	 0.182496597931417 
1547	 0.182491930147858 
1548	 0.182505476086337 
1549	 0.182511879630308 
1550	 0.18251871625036 
1551	 0.182529905150824 
1552	 0.182531987842286 
1553	 0.182530339876369 
1554	 0.182541465970446 
1555	 0.182543033622583 
1556	 0.182539618551456 
1557	 0.182539840112338 
1558	 0.182522858938304 
1559	 0.1825078396382 
1560	 0.182497408258003 
1561	 0.182483955668765 
1562	 0.182475812216501 
1563	 0.182470118596435 
1564	 0.182476250013653 
1565	 0.182486421211088 
1566	 0.182510882494673 
1567	 0.182564564312669 
1568	 0.182574317755886 
1569	 0.182573846502408 
1570	 0.182564328676383 
1571	 0.182530305501088 
1572	 0.182506559664454 
1573	 0.182485153252683 
1574	 0.182454849963357 
1575	 0.182402249909529 
1576	 0.182377799320541 
1577	 0.182372500188558 
1578	 0.182352361009603 
1579	 0.182336719781195 
1580	 0.18232221228793 
1581	 0.182298580367368 
1582	 0.182280778084745 
1583	 0.182272950190654 
1584	 0.182263212727943 
1585	 0.182244189596834 
1586	 0.18223576475857 
1587	 0.182239574885466 
1588	 0.182238866979015 
1589	 0.182248853732557 
1590	 0.182241688943774 
1591	 0.182219685927571 
1592	 0.182208507224026 
1593	 0.182192784041335 
1594	 0.182174322799637 
1595	 0.182160686428036 
1596	 0.182147833798665 
1597	 0.182138711594464 
1598	 0.182113963418583 
1599	 0.182075657072475 
1600	 0.18205263753861 
1601	 0.182011582777464 
1602	 0.18199523960411 
1603	 0.182012494006669 
1604	 0.182019782499055 
1605	 0.18202928145072 
1606	 0.182043554832863 
1607	 0.182069439849531 
1608	 0.182084550227862 
1609	 0.182074860480757 
1610	 0.182070846754012 
1611	 0.182045424815907 
1612	 0.182013778433449 
1613	 0.181993318199151 
1614	 0.181970280012021 
1615	 0.181955200649652 
1616	 0.181931744028028 
1617	 0.1819220421437 
1618	 0.181930332673162 
1619	 0.181910149838671 
1620	 0.181892325395425 
1621	 0.181876208042869 
1622	 0.181849305543903 
1623	 0.181836543269466 
1624	 0.181836396900091 
1625	 0.181830468825052 
1626	 0.181826243330351 
1627	 0.181818015513562 
1628	 0.181807560554744 
1629	 0.181800527533131 
1630	 0.181792805420045 
1631	 0.181787101755494 
1632	 0.181788131325204 
1633	 0.181777128850009 
1634	 0.181757644568031 
1635	 0.181747115143831 
1636	 0.181733489402632 
1637	 0.181724833344418 
1638	 0.181725247682238 
1639	 0.181719177790761 
1640	 0.181705541592262 
1641	 0.181707069848868 
1642	 0.181724361227593 
1643	 0.181715489596672 
1644	 0.181698802418566 
1645	 0.181690888026484 
1646	 0.181669066795671 
1647	 0.181655571891611 
1648	 0.181658760289367 
1649	 0.181651563834803 
1650	 0.181630800509474 
1651	 0.181622207916221 
1652	 0.181625148134037 
1653	 0.181617834549439 
1654	 0.181607396756017 
1655	 0.181597168144784 
1656	 0.181585922805229 
1657	 0.181570314184119 
1658	 0.18154572004588 
1659	 0.181537058673129 
1660	 0.181536354908582 
1661	 0.181525928434251 
1662	 0.181529013541719 
1663	 0.181511315206288 
1664	 0.181458660230639 
1665	 0.181446862100334 
1666	 0.181458973080073 
1667	 0.181446195352415 
1668	 0.181444910518797 
1669	 0.18142990885738 
1670	 0.181380999721688 
1671	 0.181359296756652 
1672	 0.181362842616466 
1673	 0.181340824258111 
1674	 0.181299717460267 
1675	 0.181285642382046 
1676	 0.181276176619204 
1677	 0.181263795471629 
1678	 0.181271750496206 
1679	 0.181267414778248 
1680	 0.181247995129641 
1681	 0.181233618545516 
1682	 0.18122079700575 
1683	 0.181216178171306 
1684	 0.18120724537291 
1685	 0.181209586952337 
1686	 0.181233996850818 
1687	 0.181240267352301 
1688	 0.181246893087094 
1689	 0.181240066068123 
1690	 0.181211430064388 
1691	 0.181203567214173 
1692	 0.181195728494795 
1693	 0.181192299916148 
1694	 0.181204146709848 
1695	 0.181210225450753 
1696	 0.181212022811547 
1697	 0.181216498710297 
1698	 0.18122720516933 
1699	 0.181231665109858 
1700	 0.1812329640761 
1701	 0.18123120409589 
1702	 0.181234300179162 
1703	 0.181220394039719 
1704	 0.181197830867419 
1705	 0.181169357447957 
1706	 0.181116775167947 
1707	 0.181083229795084 
1708	 0.18105382959565 
1709	 0.181027244405011 
1710	 0.180999191063439 
1711	 0.180996302618289 
1712	 0.181010056638025 
1713	 0.181014403386758 
1714	 0.181048268327722 
1715	 0.181049334878383 
1716	 0.181013117298471 
1717	 0.181012867971609 
1718	 0.181024656899981 
1719	 0.181020328777815 
1720	 0.181031852750821 
1721	 0.181024506423233 
1722	 0.180988051895514 
1723	 0.180971403852864 
1724	 0.180966938974206 
1725	 0.180942506417202 
1726	 0.180910559905787 
1727	 0.180883433923614 
1728	 0.18084875332717 
1729	 0.180814137284225 
1730	 0.180784316875414 
1731	 0.180749107675633 
1732	 0.180702080031534 
1733	 0.18066926974763 
1734	 0.180646060271456 
1735	 0.180617940713629 
1736	 0.180594720616739 
1737	 0.180556390019089 
1738	 0.18050214151472 
1739	 0.180474434366926 
1740	 0.180453851864772 
1741	 0.180429807013277 
1742	 0.180429506097524 
1743	 0.180391797216161 
1744	 0.180320740010402 
1745	 0.180286043328603 
1746	 0.18024969761056 
1747	 0.180241728800426 
1748	 0.180243430167276 
1749	 0.180231660985101 
1750	 0.180202750994572 
1751	 0.180178718425326 
1752	 0.180168668243927 
1753	 0.180138889163422 
1754	 0.180103650551786 
1755	 0.180081283547507 
1756	 0.180037548540678 
1757	 0.180007931676563 
1758	 0.180018319435575 
1759	 0.179993629446172 
1760	 0.179956478605731 
1761	 0.179947800407913 
1762	 0.179910722577727 
1763	 0.179864964681842 
1764	 0.179845137778651 
1765	 0.179816572908496 
1766	 0.179791883076229 
1767	 0.179794243106244 
1768	 0.1798012069815 
1769	 0.17978346704714 
1770	 0.179748022480466 
1771	 0.179706313489667 
1772	 0.179644685632358 
1773	 0.179588043575034 
1774	 0.179548561614337 
1775	 0.179530344618062 
1776	 0.17952973808663 
1777	 0.179522295003699 
1778	 0.179526642877613 
1779	 0.179522178458029 
1780	 0.179492934699978 
1781	 0.179481027325211 
1782	 0.179464234354434 
1783	 0.179459910190991 
1784	 0.179452196192208 
1785	 0.179446724697306 
1786	 0.17943056653114 
1787	 0.17940906402132 
1788	 0.179380427919214 
1789	 0.179333697326654 
1790	 0.179300937866133 
1791	 0.179264591943136 
1792	 0.179236818621704 
1793	 0.17922158133718 
1794	 0.179209222558387 
1795	 0.179203311873188 
1796	 0.179195261089008 
1797	 0.179200939254701 
1798	 0.179190155959677 
1799	 0.179151099876182 
1800	 0.179144759745215 
1801	 0.177627897863048 
1802	 0.177646626104075 
1803	 0.177679713417835 
1804	 0.177710496659217 
1805	 0.177744129004117 
1806	 0.177797814930164 
1807	 0.177838126845294 
1808	 0.177871271408447 
1809	 0.177895696868616 
1810	 0.177924832971115 
1811	 0.177956162563234 
1812	 0.177975234292728 
1813	 0.17798030972321 
1814	 0.17798293820247 
1815	 0.177975607047413 
1816	 0.177965710207948 
1817	 0.177969568228679 
1818	 0.17798545968019 
1819	 0.178001876954069 
1820	 0.178033961311956 
1821	 0.178047962807455 
1822	 0.178013016614647 
1823	 0.17798529579826 
1824	 0.177974603237035 
1825	 0.177938014952451 
1826	 0.177935901885308 
1827	 0.177972142514018 
1828	 0.177984815344483 
1829	 0.177983532980916 
1830	 0.177982130276668 
1831	 0.177996904085247 
1832	 0.177970129085734 
1833	 0.177925424775999 
1834	 0.177908133094585 
1835	 0.177896680271706 
1836	 0.17787725182641 
1837	 0.17786172273045 
1838	 0.177852623560401 
1839	 0.177859496811962 
1840	 0.177882530293771 
1841	 0.177898799284093 
1842	 0.177903751989984 
1843	 0.177920173717278 
1844	 0.177906566529445 
1845	 0.1778733850623 
1846	 0.17785806197729 
1847	 0.177840070186001 
1848	 0.177792862093353 
1849	 0.177760774432084 
1850	 0.177742333455551 
1851	 0.177740754345091 
1852	 0.177719092503183 
1853	 0.177705188415844 
1854	 0.177701434424201 
1855	 0.177709633717527 
1856	 0.177710862752669 
1857	 0.177715277483001 
1858	 0.177719338490033 
1859	 0.177679362144842 
1860	 0.177637551780668 
1861	 0.177579695976921 
1862	 0.177516108102309 
1863	 0.177453887273484 
1864	 0.177417035382523 
1865	 0.17737946070679 
1866	 0.177343745953408 
1867	 0.177309798848111 
1868	 0.177262772525071 
1869	 0.177217308603897 
1870	 0.177185065393182 
1871	 0.177138923684021 
1872	 0.177084357451991 
1873	 0.177029003598952 
1874	 0.176989480027094 
1875	 0.17693456967452 
1876	 0.176885606030438 
1877	 0.176851637529261 
1878	 0.17678883146577 
1879	 0.176714276576538 
1880	 0.176649188459218 
1881	 0.176591844933467 
1882	 0.17651522414778 
1883	 0.176436221088695 
1884	 0.176349664241613 
1885	 0.176242174986151 
1886	 0.176127184885849 
1887	 0.176018904866064 
1888	 0.175900568464717 
1889	 0.175756668698404 
1890	 0.175598695251302 
1891	 0.175435439135588 
1892	 0.175235721449634 
1893	 0.175063691850407 
1894	 0.174904744532933 
1895	 0.174745363749761 
1896	 0.174572496244883 
1897	 0.174393735760788 
1898	 0.174200509292813 
1899	 0.173993243193106 
1900	 0.173775404199327 
1901	 0.173577232978904 
1902	 0.173386598135408 
1903	 0.173204781244323 
1904	 0.173016242112486 
1905	 0.172835654732653 
1906	 0.172660040076123 
1907	 0.172482756996747 
1908	 0.172283829091017 
1909	 0.172086617461426 
1910	 0.171878420484384 
1911	 0.171632922956235 
1912	 0.171400356682148 
1913	 0.171174185092474 
1914	 0.170954294930114 
1915	 0.170726960863672 
1916	 0.170514233535925 
1917	 0.170274985502194 
1918	 0.170009291969031 
1919	 0.169755418675689 
1920	 0.16949565316573 
1921	 0.169246128251211 
1922	 0.16902668292553 
1923	 0.168807663183112 
1924	 0.168586830122215 
1925	 0.168368741010383 
1926	 0.1681534447968 
1927	 0.167933276676377 
1928	 0.167722494542016 
1929	 0.167533418173471 
1930	 0.167355333451543 
1931	 0.167186582942098 
1932	 0.167010009206303 
1933	 0.166840608094624 
1934	 0.166694449184382 
1935	 0.166567315977567 
1936	 0.166476837670545 
1937	 0.166376684729973 
1938	 0.166266458006218 
1939	 0.166195614309402 
1940	 0.166142690865203 
1941	 0.166102505553543 
1942	 0.166094623917844 
1943	 0.166097485520101 
1944	 0.166075027605924 
1945	 0.166042583637547 
1946	 0.166035998422627 
1947	 0.166041064676984 
1948	 0.16604823733833 
1949	 0.166075300811865 
1950	 0.166098525050863 
1951	 0.166129170796675 
1952	 0.166139037726534 
1953	 0.166158780743829 
1954	 0.166188284394171 
1955	 0.16619767296503 
1956	 0.166198327753629 
1957	 0.166204587912946 
1958	 0.166201405933483 
1959	 0.166204485030282 
1960	 0.166226192303647 
1961	 0.166231819466516 
1962	 0.166216970164631 
1963	 0.166219333821085 
1964	 0.166231602233896 
1965	 0.16622621968154 
1966	 0.166219858826513 
1967	 0.166235607327303 
1968	 0.166243965626593 
1969	 0.166236224792367 
1970	 0.166248385928146 
1971	 0.166294624098719 
1972	 0.166305294508585 
1973	 0.166301111637829 
1974	 0.166301704892522 
1975	 0.166285249903948 
1976	 0.166263369321178 
1977	 0.16628386520555 
1978	 0.166324503737513 
1979	 0.166344378820171 
1980	 0.166374178240725 
1981	 0.166404887814758 
1982	 0.166431729906334 
1983	 0.166452588041874 
1984	 0.166481475285425 
1985	 0.16650023376379 
1986	 0.166497127922581 
1987	 0.166507700434 
1988	 0.166520989739712 
1989	 0.166547216916022 
1990	 0.16656154507661 
1991	 0.166581391669806 
1992	 0.166623378690663 
1993	 0.166685354901473 
1994	 0.166735464483474 
1995	 0.166807908329018 
1996	 0.16685520912899 
1997	 0.166868167163724 
1998	 0.166909974392747 
1999	 0.166965274021347 
2000	 0.167013750473054 
2001	 0.167074457718983 
2002	 0.167134051948885 
2003	 0.16716436043756 
2004	 0.167184097217397 
2005	 0.167222125352382 
2006	 0.167254975640427 
2007	 0.16730236666044 
2008	 0.167373886443511 
2009	 0.167430043195626 
2010	 0.167481482684918 
2011	 0.167535280240685 
2012	 0.167584364600618 
2013	 0.167639823652428 
2014	 0.16771351008482 
2015	 0.167764699228075 
2016	 0.167803349139551 
2017	 0.16785409317696 
2018	 0.167889525053103 
2019	 0.16790396665601 
2020	 0.16793610678706 
2021	 0.167974781714543 
2022	 0.168004391363618 
2023	 0.168035241659312 
2024	 0.168060219543682 
2025	 0.168092249157686 
2026	 0.16810268388061 
2027	 0.168092687190738 
2028	 0.168084580952583 
2029	 0.168086435368366 
2030	 0.168067914246067 
2031	 0.168080120175446 
2032	 0.168128130309438 
2033	 0.168148616782458 
2034	 0.168171745396699 
2035	 0.168184620404143 
2036	 0.168179153917232 
2037	 0.1681840760564 
2038	 0.168201199792138 
2039	 0.168196636389563 
2040	 0.168187336323546 
2041	 0.168163730390836 
2042	 0.168136180457244 
2043	 0.168112921575482 
2044	 0.168104587100582 
2045	 0.168122114233628 
2046	 0.168115987144383 
2047	 0.168113167087113 
2048	 0.168095270466363 
2049	 0.168060292710065 
2050	 0.168027558088579 
2051	 0.167985870307852 
2052	 0.167946427818305 
2053	 0.167904690183644 
2054	 0.167864835752341 
2055	 0.167815668771908 
2056	 0.167787085620663 
2057	 0.167751610567793 
2058	 0.167709764276096 
2059	 0.167687045999763 
2060	 0.167675640164674 
2061	 0.167661191745379 
2062	 0.167658611228022 
2063	 0.167652602683739 
2064	 0.167647974086943 
2065	 0.16763890066396 
2066	 0.167623954967636 
2067	 0.167619574115625 
2068	 0.167630162266021 
2069	 0.167613914022326 
2070	 0.16760738095401 
2071	 0.167608817824111 
2072	 0.167604780248904 
2073	 0.167594982160559 
2074	 0.167582599168442 
2075	 0.167564464636912 
2076	 0.167561003290833 
2077	 0.16754951335018 
2078	 0.167555371438963 
2079	 0.16759795647937 
2080	 0.167612786377825 
2081	 0.167619457552433 
2082	 0.167624530414884 
2083	 0.167619704286067 
2084	 0.167605831251007 
2085	 0.167607458505821 
2086	 0.167611509980177 
2087	 0.167627340612884 
2088	 0.167654154055427 
2089	 0.167680338821221 
2090	 0.167712880677643 
2091	 0.167748681653346 
2092	 0.167788170887892 
2093	 0.167828284564164 
2094	 0.167871576898909 
2095	 0.167919079452162 
2096	 0.16797005408839 
2097	 0.168021295068745 
2098	 0.168071712373973 
2099	 0.168132093694609 
2100	 0.168196161524271 
2101	 0.168260872788134 
2102	 0.168331814266418 
2103	 0.168410980027488 
2104	 0.168495667452571 
2105	 0.168575066656028 
2106	 0.168676784446366 
2107	 0.16880186606235 
2108	 0.168918111376198 
2109	 0.169051184302068 
2110	 0.169172850266651 
2111	 0.16928155641832 
2112	 0.169397780368218 
2113	 0.169520798294078 
2114	 0.16962917034052 
2115	 0.169755614410031 
2116	 0.169898413055441 
2117	 0.170016060825202 
2118	 0.170126656495606 
2119	 0.170244339315934 
2120	 0.170345686315152 
2121	 0.170464267340274 
2122	 0.170604434758827 
2123	 0.170730149150846 
2124	 0.170862988416306 
2125	 0.170973966966428 
2126	 0.171081188482619 
2127	 0.171168872989297 
2128	 0.171216153248564 
2129	 0.171284177964398 
2130	 0.171360612866067 
2131	 0.171411785058972 
2132	 0.171490715629127 
2133	 0.171602526390842 
2134	 0.17166714945521 
2135	 0.171722077591582 
2136	 0.171766163353135 
2137	 0.171771678238527 
2138	 0.17180359782618 
2139	 0.17185432617949 
2140	 0.171880391575481 
2141	 0.171903317006797 
2142	 0.171916236399053 
2143	 0.171895676230558 
2144	 0.171898330142962 
2145	 0.171919545189779 
2146	 0.171926063414059 
2147	 0.171935411938522 
2148	 0.171939951438759 
2149	 0.171936567300403 
2150	 0.171920948572832 
2151	 0.171897982214326 
2152	 0.171879123971998 
2153	 0.171834465265678 
2154	 0.171761607934467 
2155	 0.171700718686285 
2156	 0.171628004414272 
2157	 0.171560316936602 
2158	 0.171504844633357 
2159	 0.171432734947904 
2160	 0.171341726736796 
2161	 0.171264173981133 
2162	 0.17119239652019 
2163	 0.171110160790135 
2164	 0.17102467696967 
2165	 0.170949781594828 
2166	 0.170860394467471 
2167	 0.170758423125196 
2168	 0.17065332069819 
2169	 0.170543076986845 
2170	 0.170436660042124 
2171	 0.170311732497133 
2172	 0.170214835613818 
2173	 0.170145598912331 
2174	 0.170053835415518 
2175	 0.169963287783455 
2176	 0.169871003394382 
2177	 0.169762210087534 
2178	 0.16966400735467 
2179	 0.16957681315744 
2180	 0.169485456350027 
2181	 0.169385999534802 
2182	 0.169297779454665 
2183	 0.169215843286187 
2184	 0.169137394822006 
2185	 0.169057503829065 
2186	 0.168990088129588 
2187	 0.168901588421059 
2188	 0.168802448542388 
2189	 0.168704497914087 
2190	 0.168595676514958 
2191	 0.168494275110895 
2192	 0.16838587943347 
2193	 0.168294801823444 
2194	 0.168223030740798 
2195	 0.168131734957613 
2196	 0.168036183084258 
2197	 0.167950271754124 
2198	 0.167841044198967 
2199	 0.167763128849711 
2200	 0.167713302521238 
2201	 0.167666492502341 
2202	 0.16763843113624 
2203	 0.167613646076922 
2204	 0.16757497941828 
2205	 0.167536999514974 
2206	 0.167493203417065 
2207	 0.167427242696905 
2208	 0.167393266062591 
2209	 0.167376444293578 
2210	 0.167353181345604 
2211	 0.167350821567885 
2212	 0.167321463178776 
2213	 0.167270253535089 
2214	 0.167232944052347 
2215	 0.167183536512426 
2216	 0.167156430831092 
2217	 0.167153711882986 
2218	 0.167136241542667 
2219	 0.167129982553259 
2220	 0.167105435696848 
2221	 0.167034739801775 
2222	 0.16702003056284 
2223	 0.167015435886653 
2224	 0.166987813753327 
2225	 0.166976328772168 
2226	 0.166991932131909 
2227	 0.166973902061821 
2228	 0.16692866555876 
2229	 0.166917810267209 
2230	 0.166913961838208 
2231	 0.166908661070158 
2232	 0.166927068119614 
2233	 0.166921279204103 
2234	 0.166903120440246 
2235	 0.166881184781118 
2236	 0.166837258426662 
2237	 0.166820306825364 
2238	 0.166806046432498 
2239	 0.166802498655315 
2240	 0.166827047510812 
2241	 0.166839959636552 
2242	 0.166869822081969 
2243	 0.166864506137995 
2244	 0.166843922684928 
2245	 0.166807323552192 
2246	 0.166740140711606 
2247	 0.166694859543711 
2248	 0.166668332540564 
2249	 0.166664086089755 
2250	 0.166647377360226 
2251	 0.166639691400765 
2252	 0.166631706904392 
2253	 0.166611859111366 
2254	 0.16660934340693 
2255	 0.166633087782452 
2256	 0.16662999209024 
2257	 0.166610222778776 
2258	 0.166611368611253 
2259	 0.16661152127745 
2260	 0.166616467770494 
2261	 0.166646342637936 
2262	 0.166657607133146 
2263	 0.166662236044571 
2264	 0.166655009887232 
2265	 0.166629279994104 
2266	 0.166614476365004 
2267	 0.166593400608891 
2268	 0.166576360164542 
2269	 0.166549981982064 
2270	 0.16655967932704 
2271	 0.166590389872444 
2272	 0.166594555224556 
2273	 0.166594454499703 
2274	 0.166598095105286 
2275	 0.166558471739535 
2276	 0.166469542569043 
2277	 0.166404298035366 
2278	 0.166310406391068 
2279	 0.166259665605824 
2280	 0.166222355741556 
2281	 0.16620321410641 
2282	 0.166241519288624 
2283	 0.166219831831281 
2284	 0.166166124444684 
2285	 0.166140597261545 
2286	 0.166110157812485 
2287	 0.166066073386874 
2288	 0.16602370565223 
2289	 0.165997772662511 
2290	 0.165964663719525 
2291	 0.165929131078505 
2292	 0.165909378247847 
2293	 0.165895175739844 
2294	 0.165874460723405 
2295	 0.165840880005628 
2296	 0.165789141827385 
2297	 0.165808024453858 
2298	 0.16578501932498 
2299	 0.165729941832235 
2300	 0.16572454615854 
2301	 0.165720615301067 
2302	 0.165690477462746 
2303	 0.16571498338746 
2304	 0.165730788765959 
2305	 0.165675460829107 
2306	 0.165628179342243 
2307	 0.165556471640243 
2308	 0.165504359520783 
2309	 0.165444176300972 
2310	 0.165399385407833 
2311	 0.165376668947203 
2312	 0.16532762081763 
2313	 0.165268829413752 
2314	 0.165202002957894 
2315	 0.165108565984802 
2316	 0.165057618002501 
2317	 0.165031385848872 
2318	 0.164991329512747 
2319	 0.164979507465356 
2320	 0.16492335794369 
2321	 0.164795077692771 
2322	 0.164743306913381 
2323	 0.164701236734367 
2324	 0.164702897369824 
2325	 0.164805935744058 
2326	 0.164840320679678 
2327	 0.164856837777575 
2328	 0.164888221419062 
2329	 0.164844734758098 
2330	 0.16479330625102 
2331	 0.164772002348614 
2332	 0.164740999677642 
2333	 0.164753106190927 
2334	 0.164763365908518 
2335	 0.164756813969294 
2336	 0.164750218552858 
2337	 0.164734694856136 
2338	 0.164732731375868 
2339	 0.164745000194427 
2340	 0.164739493356397 
2341	 0.164716215774343 
2342	 0.164648253859092 
2343	 0.164553092436827 
2344	 0.164469087374798 
2345	 0.164375332452902 
2346	 0.164267480183754 
2347	 0.164187808296321 
2348	 0.164110258590092 
2349	 0.16403625785814 
2350	 0.16399585253197 
2351	 0.163924886836044 
2352	 0.163829820594945 
2353	 0.163738775320387 
2354	 0.163631925703783 
2355	 0.163533079573385 
2356	 0.163452588133609 
2357	 0.163371373159277 
2358	 0.163283174772897 
2359	 0.163204913241636 
2360	 0.16314734589521 
2361	 0.163040352557058 
2362	 0.162899867691525 
2363	 0.162793156649124 
2364	 0.162666301769857 
2365	 0.16256282171182 
2366	 0.16251397153506 
2367	 0.162420829289651 
2368	 0.16231367117511 
2369	 0.162188610529694 
2370	 0.162027276869958 
2371	 0.161898102231971 
2372	 0.161737423720257 
2373	 0.161570264687512 
2374	 0.161475859664367 
2375	 0.161366892717087 
2376	 0.161238312543443 
2377	 0.161106879712746 
2378	 0.160942691198076 
2379	 0.160783355716692 
2380	 0.160716278412617 
2381	 0.160627036912642 
2382	 0.16045374759156 
2383	 0.160329704600466 
2384	 0.160168511554034 
2385	 0.159970774792256 
2386	 0.159837902468583 
2387	 0.159674430643255 
2388	 0.159541184219139 
2389	 0.159505826326019 
2390	 0.159462242342871 
2391	 0.15937497687047 
2392	 0.159216416437793 
2393	 0.15907183605128 
2394	 0.158925581432172 
2395	 0.158754147337376 
2396	 0.15869078601151 
2397	 0.158578496652218 
2398	 0.158425403914536 
2399	 0.158380535158787 
2400	 0.158337622020903 
2401	 0.158241022581566 
2402	 0.158184761992568 
2403	 0.15820715983218 
2404	 0.158132075213427 
2405	 0.158019901409305 
2406	 0.157937494609435 
2407	 0.157820899157644 
2408	 0.157794161337527 
2409	 0.157807972279695 
2410	 0.15774397933197 
2411	 0.157668679156592 
2412	 0.157623173700485 
2413	 0.157521654503386 
2414	 0.15749616663674 
2415	 0.157511875172856 
2416	 0.157484380500539 
2417	 0.157413378253797 
2418	 0.157355281163166 
2419	 0.157317418307316 
2420	 0.157288246988656 
2421	 0.15722149094826 
2422	 0.157218670591536 
2423	 0.157276138836766 
2424	 0.157215406719883 
2425	 0.157121506739603 
2426	 0.157037167334277 
2427	 0.156918396176988 
2428	 0.156832133285105 
2429	 0.156755575051619 
2430	 0.156680583781212 
2431	 0.156587153242616 
2432	 0.156460484019266 
2433	 0.15631497272126 
2434	 0.15628246968759 
2435	 0.156314735059505 
2436	 0.156276835830769 
2437	 0.156317755766006 
2438	 0.156236989077468 
2439	 0.156007666806169 
2440	 0.155826713219861 
2441	 0.155577206236135 
2442	 0.155522103413344 
2443	 0.155548559548983 
2444	 0.155553909460026 
2445	 0.155720764808768 
2446	 0.155756080634895 
2447	 0.1557302904723 
2448	 0.155674693544771 
2449	 0.155553420572399 
2450	 0.155462371820325 
2451	 0.155321072392862 
2452	 0.155181645768101 
2453	 0.155107099790311 
2454	 0.155045448129299 
2455	 0.154955720871376 
2456	 0.15486458376935 
2457	 0.154780756066841 
2458	 0.15467139814563 
2459	 0.15455891286744 
2460	 0.154445320791158 
2461	 0.154302187385853 
2462	 0.15421575002912 
2463	 0.154121866408828 
2464	 0.15398843371172 
2465	 0.153950514709572 
2466	 0.153817998516791 
2467	 0.153536477190287 
2468	 0.153381697420023 
2469	 0.153261213393009 
2470	 0.153293209474079 
2471	 0.153311033915629 
2472	 0.153308688659001 
2473	 0.153256847138565 
2474	 0.153108347856215 
2475	 0.153014627438202 
2476	 0.15307483022279 
2477	 0.152894563665854 
2478	 0.152639292899291 
2479	 0.152531344822771 
2480	 0.152281996846587 
2481	 0.152119186719972 
2482	 0.152121767115094 
2483	 0.151919908942578 
2484	 0.15179233862241 
2485	 0.151769317505204 
2486	 0.151578898622913 
2487	 0.15158094285994 
2488	 0.15155401213067 
2489	 0.151351757738007 
2490	 0.151214570257799 
2491	 0.15099569527299 
2492	 0.1507043696176 
2493	 0.150474826152247 
2494	 0.150403635768592 
2495	 0.150437993092581 
2496	 0.150558558469795 
2497	 0.150761075175035 
2498	 0.15090215137596 
2499	 0.150787677427932 
2500	 0.150541143330647 
