Wavelength	LMW7 profile 200004.asd
350	 6.68195697619464E-02 
351	 7.21962877193725E-02 
352	 7.05130205169947E-02 
353	 5.85487152049485E-02 
354	 5.73218957338853E-02 
355	 5.91428401980833E-02 
356	 6.22764190692153E-02 
357	 6.58039264777816E-02 
358	 6.80405776467226E-02 
359	 6.45706227268694E-02 
360	 5.97150202287182E-02 
361	 6.20357297154231E-02 
362	 6.05646554775212E-02 
363	 5.94668596656055E-02 
364	 6.12387504589589E-02 
365	 6.31938544336686E-02 
366	 6.18938145397108E-02 
367	 5.93628755239833E-02 
368	 5.88160068887807E-02 
369	 6.15678217411195E-02 
370	 6.18731172204604E-02 
371	 6.01420284517869E-02 
372	 6.08105211910806E-02 
373	 6.12721768810149E-02 
374	 6.32354166711595E-02 
375	 6.64456822852303E-02 
376	 6.65260713543503E-02 
377	 6.49899385186827E-02 
378	 6.47256127233008E-02 
379	 6.76066460473927E-02 
380	 6.96209577263012E-02 
381	 7.04921128795477E-02 
382	 7.08400178872462E-02 
383	 7.17709707377996E-02 
384	 7.25003353513407E-02 
385	 7.26339318011436E-02 
386	 7.28153153288757E-02 
387	 7.56867625619532E-02 
388	 7.78763790818984E-02 
389	 7.92067841134103E-02 
390	 8.03820632169769E-02 
391	 8.05888891391799E-02 
392	 0.082178849644544 
393	 8.50699591336068E-02 
394	 8.71125441833382E-02 
395	 8.90466860666684E-02 
396	 9.13322084857656E-02 
397	 9.37698187694288E-02 
398	 9.46533797009365E-02 
399	 9.73999544590847E-02 
400	 0.100885452555767 
401	 0.102862583001101 
402	 0.105117610692835 
403	 0.107115669327555 
404	 0.109064991240587 
405	 0.111973486327101 
406	 0.114350824215843 
407	 0.116784309394137 
408	 0.119399008408139 
409	 0.119889936233669 
410	 0.121245617172981 
411	 0.123503226210672 
412	 0.125405416474799 
413	 0.127570501240818 
414	 0.128815343321327 
415	 0.129170613436651 
416	 0.130334557847423 
417	 0.131226265412508 
418	 0.132043530912936 
419	 0.132943530920066 
420	 0.132927015033538 
421	 0.132622435526045 
422	 0.132504328100801 
423	 0.132766220000013 
424	 0.131935440509518 
425	 0.130769512494755 
426	 0.129841720226819 
427	 0.128862520410425 
428	 0.127739395408345 
429	 0.126713927484721 
430	 0.125932288517535 
431	 0.124438633248314 
432	 0.12331213029666 
433	 0.122804359061544 
434	 0.122311642550002 
435	 0.122493656661135 
436	 0.122708414740595 
437	 0.122628920953028 
438	 0.123367673868565 
439	 0.124507305330237 
440	 0.125912592827484 
441	 0.127564554929395 
442	 0.129315041979345 
443	 0.130997861820073 
444	 0.132704433678524 
445	 0.134887216114088 
446	 0.137253830085986 
447	 0.139486545775945 
448	 0.141451384858535 
449	 0.143824697963531 
450	 0.146136431234896 
451	 0.148225238677879 
452	 0.15024215626128 
453	 0.15265200869095 
454	 0.154961006436408 
455	 0.156847413350895 
456	 0.158811909080594 
457	 0.160805845388575 
458	 0.162766271037851 
459	 0.164628524044028 
460	 0.166577631013568 
461	 0.168163030858568 
462	 0.169374709001787 
463	 0.170876580019784 
464	 0.17234771074519 
465	 0.173768459520674 
466	 0.175164467428077 
467	 0.176436423029381 
468	 0.177687868598073 
469	 0.178825189894444 
470	 0.179650647419772 
471	 0.181008362232629 
472	 0.182291073720635 
473	 0.183089800685559 
474	 0.184009557294222 
475	 0.185061621562998 
476	 0.186147839752668 
477	 0.187136111500893 
478	 0.188188535737167 
479	 0.189300747374437 
480	 0.190350362020621 
481	 0.191064127508275 
482	 0.192050898858828 
483	 0.193173581176784 
484	 0.19411911335204 
485	 0.194774130888936 
486	 0.195553385282457 
487	 0.196493874979221 
488	 0.197318579558345 
489	 0.198171853294768 
490	 0.199003872923004 
491	 0.199785785989042 
492	 0.200606865124277 
493	 0.201454494915573 
494	 0.202329275685643 
495	 0.20323748212885 
496	 0.204229373860516 
497	 0.205101561485296 
498	 0.205839164907933 
499	 0.20673652272878 
500	 0.207617738368542 
501	 0.208424671321909 
502	 0.209155870100146 
503	 0.209892252134441 
504	 0.21071510706651 
505	 0.211553886262245 
506	 0.212220599325733 
507	 0.213025322334007 
508	 0.213942247566421 
509	 0.214844333677619 
510	 0.215513776960151 
511	 0.21624483891488 
512	 0.217006065123866 
513	 0.217635016088397 
514	 0.218478390448288 
515	 0.219282555171305 
516	 0.219940041795946 
517	 0.220698267921201 
518	 0.221510499764765 
519	 0.222259070009477 
520	 0.222871643296073 
521	 0.223666134311375 
522	 0.224410549102782 
523	 0.225050476764156 
524	 0.225746530064236 
525	 0.22645731161829 
526	 0.227209553299034 
527	 0.22800195933319 
528	 0.228715718814229 
529	 0.229388001581873 
530	 0.230067037148108 
531	 0.230801148597301 
532	 0.231531756200245 
533	 0.232324512748462 
534	 0.233162785659422 
535	 0.233816196696094 
536	 0.234443072846259 
537	 0.235110357514319 
538	 0.235838236106711 
539	 0.236588172316543 
540	 0.237258171678146 
541	 0.237861514829358 
542	 0.238564367106636 
543	 0.239291760455017 
544	 0.240031535780933 
545	 0.240774282857421 
546	 0.241457796358356 
547	 0.242201462641595 
548	 0.242997698849927 
549	 0.24373181445877 
550	 0.244416144148538 
551	 0.24511352038004 
552	 0.245867571906549 
553	 0.246646533554596 
554	 0.247454791443555 
555	 0.248273947025821 
556	 0.249071523928533 
557	 0.249803916024384 
558	 0.250560886971636 
559	 0.251403255707921 
560	 0.252331867543349 
561	 0.253130697056539 
562	 0.253881051467041 
563	 0.254749537629121 
564	 0.255733776117062 
565	 0.256629107085706 
566	 0.257415983072273 
567	 0.258293409160433 
568	 0.259246651682421 
569	 0.260210625347761 
570	 0.2611515159834 
571	 0.262217866979952 
572	 0.263196238395919 
573	 0.264063791380993 
574	 0.264940145160183 
575	 0.265888788715308 
576	 0.266934229386294 
577	 0.268039959236734 
578	 0.269066980583185 
579	 0.270045856326583 
580	 0.27095100667474 
581	 0.271769907876459 
582	 0.272694245591052 
583	 0.273670890341859 
584	 0.274653125028864 
585	 0.275635331261725 
586	 0.276832966789431 
587	 0.278103778320789 
588	 0.279253756907009 
589	 0.280389080390407 
590	 0.281496555359199 
591	 0.282623480605413 
592	 0.283864218129382 
593	 0.285031302217069 
594	 0.286039715028467 
595	 0.286896421250004 
596	 0.287790493102082 
597	 0.288558883935917 
598	 0.28928222968964 
599	 0.290142128136866 
600	 0.290898661743137 
601	 0.291759293015797 
602	 0.292782401773843 
603	 0.293681020966734 
604	 0.294496649620615 
605	 0.295333452847138 
606	 0.296289377025176 
607	 0.29725290136322 
608	 0.298130466236716 
609	 0.298945216038509 
610	 0.299848408486225 
611	 0.300646175405942 
612	 0.301370464149157 
613	 0.302077473208016 
614	 0.302716955963794 
615	 0.303318025423308 
616	 0.303912465311409 
617	 0.304522291100432 
618	 0.3050659374191 
619	 0.305545709292736 
620	 0.306001948196842 
621	 0.306527361248192 
622	 0.30705376398822 
623	 0.307507806657385 
624	 0.307859874390051 
625	 0.308389104757136 
626	 0.308883305351337 
627	 0.309260547198762 
628	 0.309662166093716 
629	 0.310069324302175 
630	 0.310455167803323 
631	 0.310806244989985 
632	 0.311186105373634 
633	 0.31151368904685 
634	 0.311837660751588 
635	 0.312293464278778 
636	 0.312576237984136 
637	 0.312863076271362 
638	 0.313280276431605 
639	 0.313621673595894 
640	 0.31395610498063 
641	 0.314297655584912 
642	 0.314638691967785 
643	 0.314977264212658 
644	 0.315310251637748 
645	 0.315641494830534 
646	 0.315984941456019 
647	 0.316304200077906 
648	 0.316642844241688 
649	 0.317039432979104 
650	 0.317407382739825 
651	 0.317799229841537 
652	 0.318200679604402 
653	 0.318545124098621 
654	 0.318963612166288 
655	 0.319328229912443 
656	 0.319584977746607 
657	 0.319974589152731 
658	 0.320429380093456 
659	 0.320875364154641 
660	 0.321243714892797 
661	 0.321578195358051 
662	 0.322027077090878 
663	 0.32257219823835 
664	 0.322943249019171 
665	 0.323337038391927 
666	 0.323798710378305 
667	 0.324290039087489 
668	 0.324595013574285 
669	 0.32503547761218 
670	 0.325603469075478 
671	 0.32601903212684 
672	 0.326465053811762 
673	 0.326964795117793 
674	 0.3274812542723 
675	 0.327887899186273 
676	 0.328367312053067 
677	 0.328870663748109 
678	 0.329281088091671 
679	 0.329773765806326 
680	 0.330283028423443 
681	 0.330779068077786 
682	 0.331307601537045 
683	 0.331785410690061 
684	 0.332259715521209 
685	 0.332777665524593 
686	 0.333254056119613 
687	 0.3337361387742 
688	 0.334261127335818 
689	 0.334839451337205 
690	 0.335264492571899 
691	 0.335708141027057 
692	 0.33627418287942 
693	 0.336831307257571 
694	 0.337288833152561 
695	 0.337736505327954 
696	 0.338290880582734 
697	 0.338780671898675 
698	 0.339254091469347 
699	 0.339769392938586 
700	 0.34037248406451 
701	 0.340830902519694 
702	 0.341212854560618 
703	 0.341630717939626 
704	 0.342130148259566 
705	 0.342581513818191 
706	 0.342989998910092 
707	 0.343428191764721 
708	 0.343875920816945 
709	 0.344306503530355 
710	 0.344703769420296 
711	 0.345067537540788 
712	 0.345447400514462 
713	 0.345845267703888 
714	 0.346230595807332 
715	 0.346498735083447 
716	 0.346843025617393 
717	 0.347249739289966 
718	 0.347557434252398 
719	 0.347833516718962 
720	 0.348059848316857 
721	 0.34823121861951 
722	 0.348372967738002 
723	 0.348651555875037 
724	 0.348972658454455 
725	 0.349175468312154 
726	 0.349283145176092 
727	 0.349417556981966 
728	 0.349560470270697 
729	 0.349572258986111 
730	 0.34966382428622 
731	 0.349742141106105 
732	 0.349739500220727 
733	 0.349794159417533 
734	 0.349751123422801 
735	 0.349632191366096 
736	 0.349528731897129 
737	 0.349463713098055 
738	 0.349354382017298 
739	 0.349190961343343 
740	 0.34904956180533 
741	 0.348854346060635 
742	 0.348655975833347 
743	 0.348475763572915 
744	 0.348176288813113 
745	 0.347897622605227 
746	 0.347627742492177 
747	 0.34729658615119 
748	 0.346976809296033 
749	 0.346684263496035 
750	 0.346357193140087 
751	 0.345854168532857 
752	 0.345397695492772 
753	 0.344988821158771 
754	 0.344579306388941 
755	 0.344141870532635 
756	 0.343716864124793 
757	 0.343276266080065 
758	 0.342764977496698 
759	 0.342213058783717 
760	 0.341567463453496 
761	 0.340900889148719 
762	 0.340440420696959 
763	 0.339906459793321 
764	 0.339263275645243 
765	 0.338577724736106 
766	 0.338035729144271 
767	 0.337427632883046 
768	 0.336721703439772 
769	 0.335994703353406 
770	 0.335362884527152 
771	 0.334784868908795 
772	 0.334187584482517 
773	 0.33348675849927 
774	 0.332844671435981 
775	 0.332210324665695 
776	 0.331520895846805 
777	 0.330812154181558 
778	 0.330149879952249 
779	 0.329512325793826 
780	 0.328835349888396 
781	 0.328084434724958 
782	 0.32738577261022 
783	 0.326748897276667 
784	 0.326053278016007 
785	 0.325354574408311 
786	 0.324694502270358 
787	 0.324065357819605 
788	 0.323338209420947 
789	 0.322650055781475 
790	 0.321998410062351 
791	 0.321332179019278 
792	 0.320645013307371 
793	 0.320004470795347 
794	 0.319364716751196 
795	 0.318600130539335 
796	 0.317890338337828 
797	 0.317239695185535 
798	 0.316612996411952 
799	 0.315957671065419 
800	 0.315321635418374 
801	 0.314707483219309 
802	 0.314085067248953 
803	 0.313337747066307 
804	 0.31274038203602 
805	 0.312244607035436 
806	 0.31162221651233 
807	 0.311053169111846 
808	 0.310411195474602 
809	 0.309693976710478 
810	 0.309090648320496 
811	 0.308547063110045 
812	 0.308036539537198 
813	 0.307520403583457 
814	 0.30692335445015 
815	 0.306293945084308 
816	 0.305694077838709 
817	 0.305168119499712 
818	 0.30463558658437 
819	 0.304104379297226 
820	 0.303592857449442 
821	 0.303115163039504 
822	 0.302573579846495 
823	 0.3020380331936 
824	 0.301544033727534 
825	 0.301027324518234 
826	 0.300605029323145 
827	 0.300210604444194 
828	 0.299755631754695 
829	 0.29925696088891 
830	 0.298694207270793 
831	 0.298138026682084 
832	 0.29768643493454 
833	 0.297321684885735 
834	 0.29693344407519 
835	 0.296493116651127 
836	 0.296063537120976 
837	 0.295742163962477 
838	 0.295443293497174 
839	 0.295081690244372 
840	 0.29463140688139 
841	 0.294155930064859 
842	 0.293699442838406 
843	 0.293305122835173 
844	 0.293047289749239 
845	 0.292746885646563 
846	 0.292424316618585 
847	 0.292159168161762 
848	 0.29176980134659 
849	 0.291365574697073 
850	 0.291022551215236 
851	 0.290751805355788 
852	 0.29037623526757 
853	 0.290047913061606 
854	 0.289822040804924 
855	 0.289548291979868 
856	 0.289398840287656 
857	 0.289183193183965 
858	 0.288800643911506 
859	 0.288590689514283 
860	 0.288366603329204 
861	 0.288139211743973 
862	 0.287958177102549 
863	 0.287741648464677 
864	 0.287521785018037 
865	 0.287327328397506 
866	 0.287172532111145 
867	 0.287013388467201 
868	 0.286840316171136 
869	 0.286642010806672 
870	 0.286404609973418 
871	 0.286110536275828 
872	 0.285920091853622 
873	 0.285902267586178 
874	 0.28593851721784 
875	 0.285816041859636 
876	 0.285628066150498 
877	 0.285491235925237 
878	 0.285337483838888 
879	 0.28533594123336 
880	 0.285312142217756 
881	 0.285096230838755 
882	 0.285063936766106 
883	 0.285026946323849 
884	 0.284917790990601 
885	 0.284772476759326 
886	 0.284739564207777 
887	 0.284802578749304 
888	 0.284841872443659 
889	 0.284701680297829 
890	 0.28460155231314 
891	 0.284572680493175 
892	 0.284602213790009 
893	 0.284654416510615 
894	 0.284721566532654 
895	 0.284739547369972 
896	 0.284724003215378 
897	 0.284843579694424 
898	 0.284910697598792 
899	 0.284901727123663 
900	 0.284863705622562 
901	 0.28489195170993 
902	 0.285032151416996 
903	 0.285209783006948 
904	 0.285325469418423 
905	 0.285373492907909 
906	 0.285435849317726 
907	 0.28551366100084 
908	 0.285583219150341 
909	 0.285711289336395 
910	 0.285947954802047 
911	 0.286206542165601 
912	 0.286339511347723 
913	 0.286427904273477 
914	 0.28655624707695 
915	 0.286723669526439 
916	 0.286858423862269 
917	 0.28696753583851 
918	 0.287244956005781 
919	 0.287659557269261 
920	 0.287914512612849 
921	 0.288071965657791 
922	 0.288193863340473 
923	 0.288352014754994 
924	 0.288615480827773 
925	 0.288966040962048 
926	 0.289324721760149 
927	 0.289598070010734 
928	 0.289696477992943 
929	 0.290054783761194 
930	 0.290433407983928 
931	 0.290636781994549 
932	 0.290997025171302 
933	 0.291254114538707 
934	 0.291490647616888 
935	 0.29182121868303 
936	 0.292152704740238 
937	 0.292525665789924 
938	 0.292884076062009 
939	 0.293199808954974 
940	 0.293650028190327 
941	 0.29403056224391 
942	 0.294406006716023 
943	 0.294876555244699 
944	 0.295220179690153 
945	 0.295644980052725 
946	 0.29613677398753 
947	 0.296591497296791 
948	 0.297033800743006 
949	 0.297460871932503 
950	 0.297843927912661 
951	 0.298186253866983 
952	 0.298679661947964 
953	 0.299293953601515 
954	 0.299857278092016 
955	 0.300225549031691 
956	 0.300792971710469 
957	 0.301237917441904 
958	 0.301680785781693 
959	 0.302402493856373 
960	 0.302855388273997 
961	 0.303280615621378 
962	 0.303819698275495 
963	 0.304463361570847 
964	 0.304980666131841 
965	 0.305471492985229 
966	 0.305979099183339 
967	 0.30651366259974 
968	 0.307230890698656 
969	 0.307871731681683 
970	 0.308386979557111 
971	 0.308904021805905 
972	 0.309513121929033 
973	 0.31019078148311 
974	 0.310925792491923 
975	 0.31168395673341 
976	 0.312215852496202 
977	 0.312805609793139 
978	 0.313492724861943 
979	 0.314143813166864 
980	 0.314808307114647 
981	 0.315416141325161 
982	 0.316013626740091 
983	 0.316696908283753 
984	 0.317400230179677 
985	 0.318105578791479 
986	 0.318768961131236 
987	 0.319365635319294 
988	 0.32002261847911 
989	 0.320699518299601 
990	 0.321369060128685 
991	 0.322051468213436 
992	 0.322947802214624 
993	 0.32356859248145 
994	 0.324138576749166 
995	 0.325005040796904 
996	 0.325552881455763 
997	 0.326119436980075 
998	 0.326787146852178 
999	 0.327546615899184 
1000	 0.328505458563315 
1001	 0.331791056265428 
1002	 0.3323929504702 
1003	 0.333082251943331 
1004	 0.333769388615986 
1005	 0.33447892049551 
1006	 0.335178391375108 
1007	 0.3358822525891 
1008	 0.336608294408382 
1009	 0.337329135583312 
1010	 0.337981603599553 
1011	 0.338579737105003 
1012	 0.339195499842371 
1013	 0.33982232070478 
1014	 0.34040834656344 
1015	 0.341028457285926 
1016	 0.341696101684799 
1017	 0.342338236426249 
1018	 0.342947484394783 
1019	 0.343620891766731 
1020	 0.344354283571601 
1021	 0.345040613486307 
1022	 0.34572016792524 
1023	 0.346348223250292 
1024	 0.34689760117366 
1025	 0.347403862099669 
1026	 0.347879954561522 
1027	 0.348460407676749 
1028	 0.349132109765448 
1029	 0.349780595380884 
1030	 0.350420456881589 
1031	 0.351032993451541 
1032	 0.351630352676207 
1033	 0.352157718486773 
1034	 0.352711450421977 
1035	 0.353287414307859 
1036	 0.353806134484062 
1037	 0.354321366541934 
1038	 0.354845520651855 
1039	 0.355357199085977 
1040	 0.355946708289376 
1041	 0.356554292229312 
1042	 0.35707682814826 
1043	 0.357630045279373 
1044	 0.358181646533037 
1045	 0.358724268608494 
1046	 0.359230030108558 
1047	 0.359781024316845 
1048	 0.360309399967253 
1049	 0.360787695056259 
1050	 0.361304508899536 
1051	 0.361841385135748 
1052	 0.362358115345242 
1053	 0.36292754845691 
1054	 0.363481985979969 
1055	 0.364001374667204 
1056	 0.364563020995897 
1057	 0.365115712459685 
1058	 0.365642947307224 
1059	 0.366204401904505 
1060	 0.366802610230672 
1061	 0.367360128843061 
1062	 0.367915613251998 
1063	 0.368512509538744 
1064	 0.369084155204213 
1065	 0.369674054533794 
1066	 0.370304053264739 
1067	 0.370849800406192 
1068	 0.371386417782067 
1069	 0.371942514378658 
1070	 0.372482877006498 
1071	 0.373001703263222 
1072	 0.373555900493209 
1073	 0.374114866350312 
1074	 0.374655757603258 
1075	 0.375205557541805 
1076	 0.375729458280466 
1077	 0.376253169010341 
1078	 0.376793288233077 
1079	 0.377298423823847 
1080	 0.377784753951207 
1081	 0.378249234429225 
1082	 0.378732386386122 
1083	 0.379226820821589 
1084	 0.379748825494294 
1085	 0.380241992598644 
1086	 0.380724458015777 
1087	 0.381207131149057 
1088	 0.381687173015318 
1089	 0.382147131785434 
1090	 0.382599175525765 
1091	 0.383081033624899 
1092	 0.383557636797529 
1093	 0.384017415919976 
1094	 0.384494465524848 
1095	 0.384951889019436 
1096	 0.38537135778144 
1097	 0.385798326397896 
1098	 0.386228965831584 
1099	 0.386662991203359 
1100	 0.387081750950019 
1101	 0.387495501399151 
1102	 0.387916577382845 
1103	 0.3883337173626 
1104	 0.388747962329059 
1105	 0.389166964623331 
1106	 0.389585602854905 
1107	 0.389991706621195 
1108	 0.390413057044608 
1109	 0.390851917038813 
1110	 0.391266025627713 
1111	 0.391693351113759 
1112	 0.39213409655289 
1113	 0.392552648672772 
1114	 0.392968016707109 
1115	 0.393383017772075 
1116	 0.39378725926346 
1117	 0.394191433619351 
1118	 0.394598029530322 
1119	 0.394986959346788 
1120	 0.395407274795946 
1121	 0.395807556291766 
1122	 0.396197848756055 
1123	 0.396612935911124 
1124	 0.397008311931152 
1125	 0.397371566204371 
1126	 0.397782084465896 
1127	 0.398211454671175 
1128	 0.398637143071786 
1129	 0.399092794375449 
1130	 0.399520107422617 
1131	 0.399943266174639 
1132	 0.400349477778041 
1133	 0.400736752993295 
1134	 0.4011274797414 
1135	 0.401532677248544 
1136	 0.401886134013762 
1137	 0.402206960849492 
1138	 0.402558378200592 
1139	 0.402926897232438 
1140	 0.403283010657489 
1141	 0.403661210884106 
1142	 0.404099488209431 
1143	 0.404479901127195 
1144	 0.404812985169922 
1145	 0.405187551228362 
1146	 0.40557243024531 
1147	 0.405948379720031 
1148	 0.406336149936644 
1149	 0.406724354085967 
1150	 0.407116156924796 
1151	 0.407489251892806 
1152	 0.407849295454029 
1153	 0.408229744404107 
1154	 0.408599757763253 
1155	 0.408955460833275 
1156	 0.409311742133974 
1157	 0.40968928591368 
1158	 0.410027794226425 
1159	 0.41032194462937 
1160	 0.41065642262398 
1161	 0.410984876159505 
1162	 0.411330891717379 
1163	 0.411712399096285 
1164	 0.412079468005928 
1165	 0.412446692635757 
1166	 0.412811790823398 
1167	 0.413182370076603 
1168	 0.413535471337561 
1169	 0.413887031210955 
1170	 0.414233484953108 
1171	 0.414578407642746 
1172	 0.414916782434053 
1173	 0.415258577258323 
1174	 0.415595417426899 
1175	 0.415940528924257 
1176	 0.416288631382858 
1177	 0.416636695959765 
1178	 0.417003107121718 
1179	 0.41734839784544 
1180	 0.41766866339969 
1181	 0.418010755752948 
1182	 0.418355189394151 
1183	 0.418697427488836 
1184	 0.419051581291769 
1185	 0.419427885254698 
1186	 0.419788375988066 
1187	 0.420150407199256 
1188	 0.42049788199955 
1189	 0.420833105371957 
1190	 0.421179613834418 
1191	 0.4215307279241 
1192	 0.421863892052197 
1193	 0.422202692359703 
1194	 0.422527124472379 
1195	 0.422823490869001 
1196	 0.423127163152936 
1197	 0.423429925542651 
1198	 0.423732776545576 
1199	 0.424034670452183 
1200	 0.424330268218401 
1201	 0.424638284268958 
1202	 0.424959493407922 
1203	 0.425261567440502 
1204	 0.425559197318473 
1205	 0.425858994312287 
1206	 0.426144372129615 
1207	 0.426442962702339 
1208	 0.42676268805966 
1209	 0.427060747056036 
1210	 0.427352087331891 
1211	 0.427639615894151 
1212	 0.427916994750841 
1213	 0.428191349382045 
1214	 0.428456015360894 
1215	 0.428728570591799 
1216	 0.429002171233503 
1217	 0.429273308457197 
1218	 0.429545909926322 
1219	 0.429830733749365 
1220	 0.43009709647573 
1221	 0.430347901385953 
1222	 0.430612238885478 
1223	 0.430882900031329 
1224	 0.431139641408477 
1225	 0.431401112572817 
1226	 0.431650157409738 
1227	 0.431876866396033 
1228	 0.432113065208934 
1229	 0.432350421296044 
1230	 0.43258739708715 
1231	 0.432833940962149 
1232	 0.433066384997089 
1233	 0.433292137114496 
1234	 0.433516120634974 
1235	 0.433726559501077 
1236	 0.43390968501041 
1237	 0.434128363309441 
1238	 0.434356387625387 
1239	 0.434582839845185 
1240	 0.434837661799605 
1241	 0.43506254415885 
1242	 0.435265881795452 
1243	 0.435478833552411 
1244	 0.435680023693888 
1245	 0.435895987214064 
1246	 0.436132525958696 
1247	 0.43635008562689 
1248	 0.436569358362808 
1249	 0.436776792911949 
1250	 0.43697422148683 
1251	 0.437167039083771 
1252	 0.43736769496663 
1253	 0.437574675284948 
1254	 0.437774178426898 
1255	 0.437970709816074 
1256	 0.438170818624225 
1257	 0.438376049496223 
1258	 0.438566371353224 
1259	 0.438748196626405 
1260	 0.438937834810474 
1261	 0.439131854950144 
1262	 0.439306226664313 
1263	 0.439473237609138 
1264	 0.439642917293047 
1265	 0.439809175351741 
1266	 0.439955462977359 
1267	 0.440093792312167 
1268	 0.440237388127456 
1269	 0.44036136574249 
1270	 0.440441778886969 
1271	 0.440574174471942 
1272	 0.4407250302322 
1273	 0.440873568859376 
1274	 0.441042749221093 
1275	 0.441202191571306 
1276	 0.441352097903683 
1277	 0.441517863431988 
1278	 0.441688410919283 
1279	 0.441867773198414 
1280	 0.442052907532029 
1281	 0.442248614037163 
1282	 0.442457406703814 
1283	 0.442670275353817 
1284	 0.442886638305817 
1285	 0.443126454761764 
1286	 0.443348718883908 
1287	 0.443562413609299 
1288	 0.443779111074274 
1289	 0.443980550958352 
1290	 0.444207638343633 
1291	 0.444446015189527 
1292	 0.444687878058421 
1293	 0.444957924796548 
1294	 0.4451923139947 
1295	 0.445404673743831 
1296	 0.445636192720857 
1297	 0.445854864572084 
1298	 0.446084647375488 
1299	 0.446352203026236 
1300	 0.446582422283478 
1301	 0.446783217357947 
1302	 0.446994224608715 
1303	 0.447202652336872 
1304	 0.447401811279516 
1305	 0.447579252501766 
1306	 0.447756192796198 
1307	 0.447897693612993 
1308	 0.448004977437654 
1309	 0.448126602711032 
1310	 0.448241831426973 
1311	 0.448360212880118 
1312	 0.448473245752091 
1313	 0.448589341085556 
1314	 0.448722852288973 
1315	 0.448820254888399 
1316	 0.448890188829362 
1317	 0.448983715425348 
1318	 0.449071724434826 
1319	 0.449150086334283 
1320	 0.449253430056242 
1321	 0.449326592942472 
1322	 0.449371476076267 
1323	 0.44940622902998 
1324	 0.449450289558384 
1325	 0.449491020373132 
1326	 0.449531837566479 
1327	 0.449568285203717 
1328	 0.449587890718658 
1329	 0.449595106481973 
1330	 0.449614653813209 
1331	 0.449624311595379 
1332	 0.449652658306873 
1333	 0.449708151029435 
1334	 0.449737066939504 
1335	 0.449755728461086 
1336	 0.449782864196914 
1337	 0.449799646642644 
1338	 0.449823085937485 
1339	 0.449864108384629 
1340	 0.449885170615089 
1341	 0.449903789053685 
1342	 0.449909046592822 
1343	 0.449894526909763 
1344	 0.449891902503948 
1345	 0.449877124599818 
1346	 0.449846643638336 
1347	 0.449822576878043 
1348	 0.449801522756022 
1349	 0.449756923844111 
1350	 0.449681696562319 
1351	 0.449599627780113 
1352	 0.449475738487326 
1353	 0.449393349821899 
1354	 0.449320685130605 
1355	 0.449246132714429 
1356	 0.449181399722521 
1357	 0.449122118084007 
1358	 0.449059880862365 
1359	 0.449007925422791 
1360	 0.448956351268478 
1361	 0.448933472797711 
1362	 0.448925236355459 
1363	 0.448925910379828 
1364	 0.448964396140821 
1365	 0.448986634524156 
1366	 0.449008475903543 
1367	 0.449017498041584 
1368	 0.449043646018544 
1369	 0.449059661092867 
1370	 0.449055408755224 
1371	 0.449048968643042 
1372	 0.449010731675845 
1373	 0.448947813955959 
1374	 0.448870651329609 
1375	 0.448779385580615 
1376	 0.448660949613665 
1377	 0.44852616030785 
1378	 0.448358756595093 
1379	 0.448143954762834 
1380	 0.447953757973457 
1381	 0.447729945134918 
1382	 0.447544895962891 
1383	 0.447394567367843 
1384	 0.447229752540489 
1385	 0.447104595556135 
1386	 0.446923683356654 
1387	 0.446733233691656 
1388	 0.446493852568918 
1389	 0.446218648566521 
1390	 0.445899748677138 
1391	 0.44553393516717 
1392	 0.445143966266045 
1393	 0.444696699975484 
1394	 0.444224106583965 
1395	 0.443740904560415 
1396	 0.44324887506825 
1397	 0.442772815959154 
1398	 0.442294240293265 
1399	 0.441833735382526 
1400	 0.441389506860413 
1401	 0.440939940868509 
1402	 0.440497169931085 
1403	 0.440062264390011 
1404	 0.439611325695742 
1405	 0.439203244362913 
1406	 0.438822379117523 
1407	 0.438445920889436 
1408	 0.438065350286541 
1409	 0.437745277130764 
1410	 0.437410756646114 
1411	 0.437183005501839 
1412	 0.437016267901763 
1413	 0.436930828683934 
1414	 0.436947524371647 
1415	 0.437055361129495 
1416	 0.437266346830078 
1417	 0.437532781577086 
1418	 0.437807322994172 
1419	 0.438074611272195 
1420	 0.438324807639836 
1421	 0.438546170067662 
1422	 0.438724056440949 
1423	 0.438874688901156 
1424	 0.438968951378095 
1425	 0.439000993151748 
1426	 0.43901579080419 
1427	 0.438983040965258 
1428	 0.438948914554728 
1429	 0.438895605264403 
1430	 0.438818791635958 
1431	 0.438723687391933 
1432	 0.438610722352501 
1433	 0.438456007775739 
1434	 0.438321773193317 
1435	 0.438182168628513 
1436	 0.438046894842093 
1437	 0.437914932129166 
1438	 0.437783497561175 
1439	 0.43766063003933 
1440	 0.437527682490424 
1441	 0.437372869949286 
1442	 0.437207006177781 
1443	 0.436997336481169 
1444	 0.436772431426919 
1445	 0.436579411974876 
1446	 0.436378286285141 
1447	 0.436164679335928 
1448	 0.435939687675698 
1449	 0.435668204273756 
1450	 0.435368574266481 
1451	 0.435054820225949 
1452	 0.434722170894095 
1453	 0.434369997165138 
1454	 0.433990032137358 
1455	 0.433607901373456 
1456	 0.433220455703759 
1457	 0.43280067518294 
1458	 0.432358453647139 
1459	 0.431910466965854 
1460	 0.431408273732429 
1461	 0.430959542644144 
1462	 0.430516014594086 
1463	 0.430107911013701 
1464	 0.429729564885105 
1465	 0.429369641234045 
1466	 0.429035221954055 
1467	 0.428722257103391 
1468	 0.428416359821364 
1469	 0.428160390522469 
1470	 0.427939168987486 
1471	 0.427741759527166 
1472	 0.427585987778507 
1473	 0.427488734152628 
1474	 0.427452118022769 
1475	 0.427474010811742 
1476	 0.42758147421576 
1477	 0.427749768656773 
1478	 0.427967521156386 
1479	 0.428221666352778 
1480	 0.428503712308033 
1481	 0.428814384154313 
1482	 0.429113325776894 
1483	 0.429421886648383 
1484	 0.429742844124919 
1485	 0.430076821144686 
1486	 0.430391285135059 
1487	 0.430716247337763 
1488	 0.431018977549753 
1489	 0.431317281862813 
1490	 0.431571931280867 
1491	 0.431817262279866 
1492	 0.432028408399503 
1493	 0.432184870098961 
1494	 0.432338020987166 
1495	 0.432476640098401 
1496	 0.432594914268399 
1497	 0.432671435113819 
1498	 0.432772181538009 
1499	 0.432881226485043 
1500	 0.432964852708091 
1501	 0.43305261132073 
1502	 0.433124573257659 
1503	 0.433158900619662 
1504	 0.433208035109105 
1505	 0.433280695451212 
1506	 0.4333237247994 
1507	 0.433367101001206 
1508	 0.433411751902885 
1509	 0.433427374501607 
1510	 0.433454747331483 
1511	 0.433511324309175 
1512	 0.433559629989268 
1513	 0.433609774433057 
1514	 0.433662522836132 
1515	 0.433722054798733 
1516	 0.433775230527917 
1517	 0.43381248176339 
1518	 0.433856393873693 
1519	 0.433891181937679 
1520	 0.433886606883995 
1521	 0.43392282325907 
1522	 0.433987233792099 
1523	 0.434032258642422 
1524	 0.434085183730001 
1525	 0.434126645463559 
1526	 0.434156367426046 
1527	 0.434187069074431 
1528	 0.434213263422471 
1529	 0.434241116860375 
1530	 0.43425273036197 
1531	 0.434301421894583 
1532	 0.434372117286639 
1533	 0.434432817695082 
1534	 0.434533323739768 
1535	 0.434585185561374 
1536	 0.434589497112823 
1537	 0.434625664808856 
1538	 0.43466233013926 
1539	 0.434692871073373 
1540	 0.434731324306499 
1541	 0.434777404200146 
1542	 0.43481844538518 
1543	 0.434851975214954 
1544	 0.434900543650874 
1545	 0.434936672390314 
1546	 0.434937261542941 
1547	 0.434971441780323 
1548	 0.435036239441395 
1549	 0.435080963949471 
1550	 0.435146345536626 
1551	 0.435224255821222 
1552	 0.435265374582893 
1553	 0.435307696570063 
1554	 0.435377214133682 
1555	 0.435438131101557 
1556	 0.435488244067442 
1557	 0.435552113557451 
1558	 0.435614735462888 
1559	 0.43565556397961 
1560	 0.435714346145356 
1561	 0.435801844821208 
1562	 0.435856466825493 
1563	 0.435889580493453 
1564	 0.435941649767191 
1565	 0.435993369193802 
1566	 0.436045404506947 
1567	 0.436097672744063 
1568	 0.436161111657539 
1569	 0.436234456390719 
1570	 0.436286025252929 
1571	 0.436347623920952 
1572	 0.436396129870916 
1573	 0.436411051840068 
1574	 0.436448762952892 
1575	 0.436498662198242 
1576	 0.436536154549986 
1577	 0.436583848024307 
1578	 0.436607526649668 
1579	 0.436616326857028 
1580	 0.436624399895687 
1581	 0.436610703901067 
1582	 0.436608829469945 
1583	 0.436595666693952 
1584	 0.436611938617519 
1585	 0.436648296826915 
1586	 0.436678386120866 
1587	 0.436734551514524 
1588	 0.436774353875862 
1589	 0.436804416055159 
1590	 0.436829741696759 
1591	 0.436847829858516 
1592	 0.436868758941612 
1593	 0.436877913225889 
1594	 0.436896249360795 
1595	 0.436928506971646 
1596	 0.436949367791323 
1597	 0.436961723703994 
1598	 0.436983809606569 
1599	 0.437027256234011 
1600	 0.437035829244091 
1601	 0.437008388949783 
1602	 0.437015147834894 
1603	 0.437009704458752 
1604	 0.437015060468318 
1605	 0.437069330470311 
1606	 0.437101432751008 
1607	 0.4371168649953 
1608	 0.43713453614804 
1609	 0.437146442143075 
1610	 0.437147930920975 
1611	 0.437130165631281 
1612	 0.43710565712267 
1613	 0.437071730327928 
1614	 0.437016726364208 
1615	 0.436975979703527 
1616	 0.436938465913654 
1617	 0.436918669433795 
1618	 0.436943043992787 
1619	 0.43695381979028 
1620	 0.436964258896717 
1621	 0.43696877299531 
1622	 0.436968522437133 
1623	 0.436954094986513 
1624	 0.436935399355001 
1625	 0.436911732196117 
1626	 0.436867367294825 
1627	 0.436845824139041 
1628	 0.436831652239621 
1629	 0.436820955064517 
1630	 0.436822281344408 
1631	 0.436810605351272 
1632	 0.436791072370335 
1633	 0.436789147719352 
1634	 0.436795971129743 
1635	 0.436785492184795 
1636	 0.436786495781848 
1637	 0.43676307610071 
1638	 0.436703064222957 
1639	 0.436678958582099 
1640	 0.436664202326541 
1641	 0.436649324804559 
1642	 0.43664876997589 
1643	 0.436641127589404 
1644	 0.436622178432466 
1645	 0.436624999665009 
1646	 0.43665746191234 
1647	 0.4366398167574 
1648	 0.436614403809814 
1649	 0.436576481025895 
1650	 0.436489183345251 
1651	 0.436443264099105 
1652	 0.436425014933092 
1653	 0.436377249700363 
1654	 0.436319833325858 
1655	 0.436272439267898 
1656	 0.436210586396777 
1657	 0.436166123889972 
1658	 0.436144441256289 
1659	 0.436107556749604 
1660	 0.436060119545734 
1661	 0.436028761271391 
1662	 0.43599694460206 
1663	 0.435980531264403 
1664	 0.435991797325353 
1665	 0.435975479965805 
1666	 0.435961561967634 
1667	 0.435929385210603 
1668	 0.435866969886793 
1669	 0.435825871466784 
1670	 0.435799736707381 
1671	 0.435742377261487 
1672	 0.435674319744628 
1673	 0.435607672353165 
1674	 0.435501157070611 
1675	 0.435443878354766 
1676	 0.435415916867284 
1677	 0.435387551059281 
1678	 0.43538372585615 
1679	 0.435366325693645 
1680	 0.435361508641113 
1681	 0.435324966038505 
1682	 0.43527188072932 
1683	 0.43521568692357 
1684	 0.435119714960249 
1685	 0.435069655497745 
1686	 0.43503794470724 
1687	 0.435010852947962 
1688	 0.435021982582174 
1689	 0.434993153619721 
1690	 0.434951875540466 
1691	 0.434903788887432 
1692	 0.434831623039262 
1693	 0.434772531281267 
1694	 0.43471194190208 
1695	 0.434656651893079 
1696	 0.434595551931701 
1697	 0.434554311225221 
1698	 0.434525155109632 
1699	 0.434503143796451 
1700	 0.434514815686391 
1701	 0.434485686622434 
1702	 0.434458191695651 
1703	 0.434388455799893 
1704	 0.434276526326459 
1705	 0.434167921700515 
1706	 0.434013842393173 
1707	 0.433912230561781 
1708	 0.433825259726631 
1709	 0.433749441995318 
1710	 0.433704018711286 
1711	 0.433655722464968 
1712	 0.433619188372572 
1713	 0.433567769152043 
1714	 0.433522609127737 
1715	 0.433466148635165 
1716	 0.433384331110508 
1717	 0.433322295786774 
1718	 0.433268041513228 
1719	 0.433217877253227 
1720	 0.433186667900746 
1721	 0.433128514719016 
1722	 0.433065848233637 
1723	 0.43298693647453 
1724	 0.432883809763602 
1725	 0.432787507899136 
1726	 0.432688636154404 
1727	 0.432586308529838 
1728	 0.432484607812782 
1729	 0.432359848517643 
1730	 0.432212161357635 
1731	 0.432089457034284 
1732	 0.431962055987146 
1733	 0.431840522740683 
1734	 0.431744003345564 
1735	 0.431623945770913 
1736	 0.431489533080441 
1737	 0.431356928140996 
1738	 0.43120902787353 
1739	 0.431095274858442 
1740	 0.430995011325847 
1741	 0.430884780859017 
1742	 0.430800966140865 
1743	 0.430689202909396 
1744	 0.430551871027414 
1745	 0.430418617564322 
1746	 0.430282600251323 
1747	 0.430156136111984 
1748	 0.430032837515084 
1749	 0.429917895245213 
1750	 0.429790890422464 
1751	 0.429665589312598 
1752	 0.429526956433731 
1753	 0.429371308675336 
1754	 0.429224137119429 
1755	 0.429085823503942 
1756	 0.428926721912773 
1757	 0.428755725614382 
1758	 0.428610322607137 
1759	 0.428462574757358 
1760	 0.428317142909605 
1761	 0.428201563129967 
1762	 0.428064459529888 
1763	 0.427904723522162 
1764	 0.42778103368673 
1765	 0.427662791192576 
1766	 0.427538383856912 
1767	 0.427441161681253 
1768	 0.427315159348622 
1769	 0.427180064534325 
1770	 0.427040655313116 
1771	 0.426883080157554 
1772	 0.426740182371693 
1773	 0.426590253241003 
1774	 0.426497992261005 
1775	 0.426411342563495 
1776	 0.426282098423864 
1777	 0.426187572205879 
1778	 0.426077133611748 
1779	 0.425954289594146 
1780	 0.425865340876015 
1781	 0.425774063252454 
1782	 0.425669926257171 
1783	 0.425574850690131 
1784	 0.425464797221209 
1785	 0.425327979953168 
1786	 0.425205052096629 
1787	 0.42508508364033 
1788	 0.424967167829177 
1789	 0.424865571063625 
1790	 0.424757185539027 
1791	 0.424625452964115 
1792	 0.424517522728393 
1793	 0.424430848951452 
1794	 0.424320075372983 
1795	 0.424227463228094 
1796	 0.424104157700332 
1797	 0.42395536972515 
1798	 0.423783163981705 
1799	 0.423574630525851 
1800	 0.423389422221304 
1801	 0.42226111171544 
1802	 0.422234993005377 
1803	 0.422251732326062 
1804	 0.422252885666629 
1805	 0.422231378895018 
1806	 0.422184222403928 
1807	 0.422137618293044 
1808	 0.422074316777887 
1809	 0.42200739736194 
1810	 0.421917607069563 
1811	 0.421820991309436 
1812	 0.421680289126236 
1813	 0.421529834971769 
1814	 0.421391561173208 
1815	 0.421236193656877 
1816	 0.421050853766579 
1817	 0.420850691098927 
1818	 0.420616409573685 
1819	 0.420394134324274 
1820	 0.42015879231717 
1821	 0.419938058116745 
1822	 0.419680352899755 
1823	 0.419439757814914 
1824	 0.419194835942104 
1825	 0.418866073914008 
1826	 0.418504142377204 
1827	 0.418112509539403 
1828	 0.4176907752383 
1829	 0.417197496987411 
1830	 0.416721816900048 
1831	 0.416258485277023 
1832	 0.415750056326873 
1833	 0.415172914963232 
1834	 0.414584874761842 
1835	 0.413985201948092 
1836	 0.413368709048407 
1837	 0.412730913402342 
1838	 0.412103238471801 
1839	 0.411550392490949 
1840	 0.411028857175437 
1841	 0.410527274130833 
1842	 0.410098485179267 
1843	 0.409744380570417 
1844	 0.409359094616123 
1845	 0.408990321673173 
1846	 0.408709346268091 
1847	 0.408456633041114 
1848	 0.408240581460255 
1849	 0.408097080159905 
1850	 0.408029148824048 
1851	 0.408029301500384 
1852	 0.408079066791347 
1853	 0.408177173942812 
1854	 0.408333288038259 
1855	 0.408499136248368 
1856	 0.408660898458731 
1857	 0.408855013305372 
1858	 0.409050218637276 
1859	 0.409232142831086 
1860	 0.409413361975285 
1861	 0.409593828236383 
1862	 0.409759463499072 
1863	 0.409939571896418 
1864	 0.41012992180784 
1865	 0.410337361609433 
1866	 0.410568584924407 
1867	 0.41078721342569 
1868	 0.411016457546259 
1869	 0.411255035029825 
1870	 0.411491507143748 
1871	 0.411719874253419 
1872	 0.411965287544144 
1873	 0.412185436893068 
1874	 0.412354200130169 
1875	 0.412485426996445 
1876	 0.412546643006788 
1877	 0.412562151735857 
1878	 0.412536705592332 
1879	 0.412450078277974 
1880	 0.412292233388894 
1881	 0.412075339557426 
1882	 0.411787268433246 
1883	 0.411438022591639 
1884	 0.410996837490515 
1885	 0.410492577791867 
1886	 0.409963886725615 
1887	 0.409351974410767 
1888	 0.408695957296736 
1889	 0.407988525838228 
1890	 0.407219024118555 
1891	 0.406414866062672 
1892	 0.405535459009619 
1893	 0.404654248824776 
1894	 0.403754471497922 
1895	 0.402822382699192 
1896	 0.401822623631846 
1897	 0.400800131378261 
1898	 0.399738597616589 
1899	 0.398655270541574 
1900	 0.39758929111351 
1901	 0.3965432847389 
1902	 0.395510456318266 
1903	 0.394494466938118 
1904	 0.393484027613125 
1905	 0.392482079261056 
1906	 0.391507750069527 
1907	 0.390539785446894 
1908	 0.389558470479323 
1909	 0.388617257899808 
1910	 0.38765894556939 
1911	 0.386693106685786 
1912	 0.385749314024841 
1913	 0.384821511400331 
1914	 0.383886054691486 
1915	 0.382994826235218 
1916	 0.382131413942908 
1917	 0.38129176460924 
1918	 0.380479891471131 
1919	 0.379702405106911 
1920	 0.378951071298417 
1921	 0.378239922353152 
1922	 0.377585856450805 
1923	 0.376955905453245 
1924	 0.37633561414713 
1925	 0.375734209777937 
1926	 0.375179054417751 
1927	 0.374636598889165 
1928	 0.374126785343159 
1929	 0.373711918979343 
1930	 0.373302415619933 
1931	 0.372906247131807 
1932	 0.372560459252489 
1933	 0.372219615201657 
1934	 0.371939452263811 
1935	 0.371717178895211 
1936	 0.371547155779283 
1937	 0.371426201528366 
1938	 0.371383214160402 
1939	 0.371345199875143 
1940	 0.371335921731921 
1941	 0.371383109848396 
1942	 0.371436528422231 
1943	 0.371520733486487 
1944	 0.371630231424442 
1945	 0.371724423554915 
1946	 0.371825206234152 
1947	 0.371923949543344 
1948	 0.372035352475644 
1949	 0.372163139754401 
1950	 0.372278880616917 
1951	 0.372400343669136 
1952	 0.37250846256138 
1953	 0.372613687058868 
1954	 0.372741897121334 
1955	 0.3728579236405 
1956	 0.372959751940953 
1957	 0.373056402016096 
1958	 0.373121004930088 
1959	 0.373211635044549 
1960	 0.373317994777396 
1961	 0.373418042699115 
1962	 0.373524981213479 
1963	 0.373634932757349 
1964	 0.373746809413543 
1965	 0.373845074346293 
1966	 0.373959625185135 
1967	 0.374054887065599 
1968	 0.374156372940206 
1969	 0.374243552973248 
1970	 0.374352545572021 
1971	 0.374474880712119 
1972	 0.374600022426106 
1973	 0.37473914593289 
1974	 0.374875750116165 
1975	 0.375024821098524 
1976	 0.37514282684647 
1977	 0.375297708325144 
1978	 0.375427288320554 
1979	 0.375529515826737 
1980	 0.37567246564826 
1981	 0.375800272955888 
1982	 0.375903007037526 
1983	 0.376038531824314 
1984	 0.376200661964924 
1985	 0.376348043381291 
1986	 0.376503215620876 
1987	 0.37665910567955 
1988	 0.37680391449908 
1989	 0.376961690008034 
1990	 0.377141572947444 
1991	 0.377314179582115 
1992	 0.377494914033642 
1993	 0.377695148705385 
1994	 0.377877748417907 
1995	 0.37806342320099 
1996	 0.378227263375071 
1997	 0.378371555638996 
1998	 0.378519391493728 
1999	 0.378643881018918 
2000	 0.378793044846753 
2001	 0.37895312287139 
2002	 0.379114531782311 
2003	 0.37930354157625 
2004	 0.37948208244193 
2005	 0.379674660288661 
2006	 0.379886742579785 
2007	 0.380087144890605 
2008	 0.380276700092751 
2009	 0.380487857418521 
2010	 0.380710358309704 
2011	 0.380929498497018 
2012	 0.381177269760017 
2013	 0.381398866450784 
2014	 0.381599479880572 
2015	 0.381795873228198 
2016	 0.382002968364263 
2017	 0.382221721961721 
2018	 0.382444971889242 
2019	 0.382691590787785 
2020	 0.38291631499957 
2021	 0.383143922852462 
2022	 0.383350577783547 
2023	 0.38354480067427 
2024	 0.383736318434317 
2025	 0.383916036347538 
2026	 0.384087401811562 
2027	 0.384275546429632 
2028	 0.384412562012696 
2029	 0.384542128210082 
2030	 0.384641499492889 
2031	 0.384762910458627 
2032	 0.384852354633897 
2033	 0.385001619711705 
2034	 0.385184350402343 
2035	 0.385366761317015 
2036	 0.385599823970154 
2037	 0.385791194879468 
2038	 0.385987083110091 
2039	 0.386150164437604 
2040	 0.386296237647854 
2041	 0.386394110212443 
2042	 0.38650184462276 
2043	 0.386633069414402 
2044	 0.38676248810775 
2045	 0.386912827595106 
2046	 0.38704461659721 
2047	 0.387183714918116 
2048	 0.387290479381729 
2049	 0.387371689958612 
2050	 0.38745929531568 
2051	 0.387527038839636 
2052	 0.387596935253917 
2053	 0.387663712584713 
2054	 0.387741878257617 
2055	 0.387823437234893 
2056	 0.387903609880965 
2057	 0.387973702251895 
2058	 0.388056524136669 
2059	 0.388114763327162 
2060	 0.388145424496143 
2061	 0.388187840409923 
2062	 0.388199248273043 
2063	 0.388267505735003 
2064	 0.388355836479947 
2065	 0.388461249605029 
2066	 0.388632039064773 
2067	 0.388767852626429 
2068	 0.38892864674424 
2069	 0.389030093216289 
2070	 0.38911440327738 
2071	 0.389176903173186 
2072	 0.389226609857851 
2073	 0.389230936717687 
2074	 0.38926243479494 
2075	 0.389301246851909 
2076	 0.389321879157214 
2077	 0.389314317073495 
2078	 0.389347970874023 
2079	 0.389395817455413 
2080	 0.389437342713756 
2081	 0.389517877352981 
2082	 0.38957149138412 
2083	 0.389611495758361 
2084	 0.389625078145467 
2085	 0.38965194921731 
2086	 0.389680780331349 
2087	 0.38969512501211 
2088	 0.389692479208813 
2089	 0.38971159706533 
2090	 0.389733538326234 
2091	 0.38975177731074 
2092	 0.389783525594459 
2093	 0.389806794775692 
2094	 0.389821733939705 
2095	 0.389833158658604 
2096	 0.389840582045154 
2097	 0.389853401535028 
2098	 0.389855179605063 
2099	 0.389867222340891 
2100	 0.389887779861703 
2101	 0.389928879472003 
2102	 0.389944988398267 
2103	 0.38994842552209 
2104	 0.389969783180258 
2105	 0.389976026308225 
2106	 0.390012995975211 
2107	 0.390069868039115 
2108	 0.390141491978619 
2109	 0.390242208242879 
2110	 0.390331205163322 
2111	 0.390450040118442 
2112	 0.390536918332164 
2113	 0.390609273430252 
2114	 0.390664785507408 
2115	 0.390711688299939 
2116	 0.390720385733486 
2117	 0.390786372484814 
2118	 0.390861896606662 
2119	 0.390950830671264 
2120	 0.391081365467675 
2121	 0.391194044471071 
2122	 0.391304514653259 
2123	 0.391414218855727 
2124	 0.391554459292047 
2125	 0.391642333046396 
2126	 0.391702778735635 
2127	 0.39175534729426 
2128	 0.391781781516681 
2129	 0.391790919899254 
2130	 0.391804371377966 
2131	 0.391785236420502 
2132	 0.391721027388168 
2133	 0.391611701363326 
2134	 0.391497870404985 
2135	 0.391344531557414 
2136	 0.391191892044759 
2137	 0.391040034158617 
2138	 0.390852293856503 
2139	 0.390628808236998 
2140	 0.390408802441639 
2141	 0.390179484460511 
2142	 0.389925788207882 
2143	 0.389652109585965 
2144	 0.389379575078759 
2145	 0.389098990446053 
2146	 0.388791444733039 
2147	 0.388483996409598 
2148	 0.38816098705309 
2149	 0.387779517021571 
2150	 0.387342475331905 
2151	 0.386909700264653 
2152	 0.386432830236846 
2153	 0.385973928505912 
2154	 0.385506959227222 
2155	 0.38504938311807 
2156	 0.384611804524544 
2157	 0.384133248870778 
2158	 0.383652940617173 
2159	 0.383141700021654 
2160	 0.382576613937336 
2161	 0.382028292367106 
2162	 0.381464652827926 
2163	 0.380911702276672 
2164	 0.380363933177318 
2165	 0.379822890046069 
2166	 0.379264770128521 
2167	 0.378696396747675 
2168	 0.378151658416817 
2169	 0.377615028527794 
2170	 0.377055327209541 
2171	 0.376536606388438 
2172	 0.375933897870537 
2173	 0.375261576546496 
2174	 0.374608018923471 
2175	 0.373920974838917 
2176	 0.373235522613235 
2177	 0.372547524931238 
2178	 0.371855711627637 
2179	 0.371143222428977 
2180	 0.370441689568014 
2181	 0.369758699377947 
2182	 0.369056093272259 
2183	 0.36833528546649 
2184	 0.367625969314028 
2185	 0.366905831602733 
2186	 0.36616475525496 
2187	 0.365445233779261 
2188	 0.364724662991009 
2189	 0.364025832457134 
2190	 0.363333990179392 
2191	 0.362663532951691 
2192	 0.362015560293655 
2193	 0.36137408764987 
2194	 0.360734948947079 
2195	 0.360128256941662 
2196	 0.359535099664586 
2197	 0.358973055934362 
2198	 0.35843821831945 
2199	 0.357935020853291 
2200	 0.357447069019147 
2201	 0.357006000879402 
2202	 0.356599061521062 
2203	 0.356239995845696 
2204	 0.355923152108255 
2205	 0.355665558092669 
2206	 0.355408654453601 
2207	 0.355176776182602 
2208	 0.35498894079129 
2209	 0.35480800543711 
2210	 0.354707084564857 
2211	 0.354678394512802 
2212	 0.354671771101981 
2213	 0.354755495533934 
2214	 0.354785835897921 
2215	 0.354842589242683 
2216	 0.354865060581614 
2217	 0.35486498781001 
2218	 0.354841483587767 
2219	 0.354812664139573 
2220	 0.354742629787498 
2221	 0.354611704735758 
2222	 0.354500274882989 
2223	 0.354364890813867 
2224	 0.354240752730726 
2225	 0.354078899521112 
2226	 0.353926620389021 
2227	 0.353699352839666 
2228	 0.353417139197819 
2229	 0.353122779773095 
2230	 0.352778534894589 
2231	 0.352441328417439 
2232	 0.352118033822477 
2233	 0.351713407344179 
2234	 0.351259381726064 
2235	 0.350798705585995 
2236	 0.350275670442244 
2237	 0.349755496585948 
2238	 0.349231763564266 
2239	 0.348696865261243 
2240	 0.348157684195217 
2241	 0.347572464426162 
2242	 0.346989821445515 
2243	 0.346348371149882 
2244	 0.345660771830369 
2245	 0.344912494240008 
2246	 0.344116057929979 
2247	 0.343289344401009 
2248	 0.342454813049096 
2249	 0.341582776453756 
2250	 0.340688360106816 
2251	 0.339757544779526 
2252	 0.338876754430597 
2253	 0.337942044600201 
2254	 0.337118325499932 
2255	 0.336361444539047 
2256	 0.335643374633228 
2257	 0.334962763212301 
2258	 0.334352342557255 
2259	 0.333799482332429 
2260	 0.333309612306879 
2261	 0.332860980583628 
2262	 0.332518438867185 
2263	 0.332234043383743 
2264	 0.332067750426973 
2265	 0.332027012283631 
2266	 0.332053546436841 
2267	 0.332213906693255 
2268	 0.332397351434644 
2269	 0.332646402576667 
2270	 0.332936164579569 
2271	 0.333288393123241 
2272	 0.333692025965545 
2273	 0.334146840309627 
2274	 0.33468164764197 
2275	 0.335248457263089 
2276	 0.335859682430017 
2277	 0.336522999717919 
2278	 0.337267057048954 
2279	 0.337985578674233 
2280	 0.338724030376659 
2281	 0.339503693818474 
2282	 0.340326062010525 
2283	 0.341115579324807 
2284	 0.341975069877696 
2285	 0.34273243281027 
2286	 0.34340100107134 
2287	 0.344096682255669 
2288	 0.344773711445552 
2289	 0.345427597993706 
2290	 0.346107402518378 
2291	 0.346705965049038 
2292	 0.347223311058679 
2293	 0.347755475125213 
2294	 0.348252812820423 
2295	 0.348730654954275 
2296	 0.349194156833792 
2297	 0.34964982616433 
2298	 0.350086612225707 
2299	 0.350531721515011 
2300	 0.350951360038539 
2301	 0.351334967880397 
2302	 0.351751786314074 
2303	 0.352165335858033 
2304	 0.352558907316404 
2305	 0.352999015464759 
2306	 0.35340028794216 
2307	 0.353760986586917 
2308	 0.354108059891396 
2309	 0.354478511861824 
2310	 0.35477589866175 
2311	 0.354984092042403 
2312	 0.355253023475167 
2313	 0.355512414342528 
2314	 0.35578785519113 
2315	 0.356111711040433 
2316	 0.356375915444564 
2317	 0.356620208041027 
2318	 0.356831266817261 
2319	 0.357001259929276 
2320	 0.357180419598835 
2321	 0.357321952793253 
2322	 0.357488438131363 
2323	 0.357690300396835 
2324	 0.357830354625234 
2325	 0.357970402483397 
2326	 0.35807968302457 
2327	 0.35813126829005 
2328	 0.358160976654031 
2329	 0.35825575963403 
2330	 0.358289999703802 
2331	 0.358350302539553 
2332	 0.358445263639112 
2333	 0.358458282022032 
2334	 0.358460597065647 
2335	 0.358434722932266 
2336	 0.358347598657222 
2337	 0.358244789088566 
2338	 0.358171827236808 
2339	 0.358119085365333 
2340	 0.358009005774725 
2341	 0.357893098990089 
2342	 0.357706133399813 
2343	 0.357418575335324 
2344	 0.357188003512291 
2345	 0.356935341990009 
2346	 0.356657216748205 
2347	 0.356400860287593 
2348	 0.356153559775986 
2349	 0.355884845989847 
2350	 0.355634142791467 
2351	 0.355354181975139 
2352	 0.35505079128247 
2353	 0.354724046162325 
2354	 0.354348989843655 
2355	 0.354020849765005 
2356	 0.353713259989784 
2357	 0.353389440028929 
2358	 0.353066371046711 
2359	 0.352745642331386 
2360	 0.352439782854445 
2361	 0.352067081061093 
2362	 0.351701753219006 
2363	 0.35130691328997 
2364	 0.350785747828136 
2365	 0.35034936040667 
2366	 0.349997501550214 
2367	 0.349543471750998 
2368	 0.34904407448984 
2369	 0.348592813566343 
2370	 0.348140987987084 
2371	 0.347615798349628 
2372	 0.347112244868134 
2373	 0.346589193117622 
2374	 0.345987330404637 
2375	 0.345419205663112 
2376	 0.34489033307927 
2377	 0.344274919118749 
2378	 0.343684605362293 
2379	 0.343047167615892 
2380	 0.342283507522321 
2381	 0.341596136494573 
2382	 0.340861701584988 
2383	 0.340122521480638 
2384	 0.33953973645756 
2385	 0.338932083937938 
2386	 0.338288301290626 
2387	 0.337653268342085 
2388	 0.336960466904908 
2389	 0.336233913720213 
2390	 0.335542767754105 
2391	 0.334837784946868 
2392	 0.334100791940315 
2393	 0.333432470563092 
2394	 0.332837352115926 
2395	 0.332198338141135 
2396	 0.331523722012747 
2397	 0.33081559168835 
2398	 0.330004240950561 
2399	 0.329187440467114 
2400	 0.328425806558746 
2401	 0.327774842872919 
2402	 0.327197666471555 
2403	 0.32655684520131 
2404	 0.325939033657922 
2405	 0.325368758310288 
2406	 0.324745182012737 
2407	 0.324181670799706 
2408	 0.323688031827624 
2409	 0.323039437851062 
2410	 0.322416341074606 
2411	 0.321873920266448 
2412	 0.321232404574644 
2413	 0.32072894108921 
2414	 0.320157496458781 
2415	 0.319451306040296 
2416	 0.318873578543737 
2417	 0.318308890715493 
2418	 0.317787519064461 
2419	 0.317390626799437 
2420	 0.316907157423673 
2421	 0.316415953778305 
2422	 0.315901848068685 
2423	 0.315327835096359 
2424	 0.314860284272955 
2425	 0.314433135677905 
2426	 0.313917383503466 
2427	 0.313418992396167 
2428	 0.312964703598353 
2429	 0.312448557005853 
2430	 0.312050503050921 
2431	 0.311811361060805 
2432	 0.311372549488916 
2433	 0.310878244707006 
2434	 0.310356813648881 
2435	 0.309698410991354 
2436	 0.309209842961545 
2437	 0.308807053883865 
2438	 0.308330882787552 
2439	 0.307875098275122 
2440	 0.307417413428883 
2441	 0.306908098730004 
2442	 0.306470759302675 
2443	 0.306173704144756 
2444	 0.30575604470977 
2445	 0.305249593539044 
2446	 0.304781858543026 
2447	 0.304280569208715 
2448	 0.3036991531281 
2449	 0.303112097854849 
2450	 0.302525031332208 
2451	 0.301819014201897 
2452	 0.301300663827669 
2453	 0.300956954186462 
2454	 0.300486114116369 
2455	 0.299997927140207 
2456	 0.299519152261784 
2457	 0.298937950764184 
2458	 0.29850459671448 
2459	 0.298231047560574 
2460	 0.297845649470733 
2461	 0.297439612630429 
2462	 0.297043901508198 
2463	 0.296599651738266 
2464	 0.296276350250388 
2465	 0.296051888177402 
2466	 0.295720852416483 
2467	 0.295353166860667 
2468	 0.295043446597012 
2469	 0.294768546234265 
2470	 0.294674667927088 
2471	 0.294360406747201 
2472	 0.29395848134345 
2473	 0.293586675489956 
2474	 0.293318448813689 
2475	 0.29321755076944 
2476	 0.293150326261056 
2477	 0.292888152551841 
2478	 0.292301001349134 
2479	 0.291750558478881 
2480	 0.291376684914092 
2481	 0.290941415313586 
2482	 0.290715362695234 
2483	 0.290493693703105 
2484	 0.289998656750483 
2485	 0.289561729818228 
2486	 0.289048549943997 
2487	 0.288438300040116 
2488	 0.287790533936855 
2489	 0.287127367432335 
2490	 0.286588419584602 
2491	 0.28612470087335 
2492	 0.285773521267085 
2493	 0.285231430912677 
2494	 0.284655462140249 
2495	 0.284170178148268 
2496	 0.283503504453968 
2497	 0.283027373316228 
2498	 0.282727271344696 
2499	 0.28234314280014 
2500	 0.281836110377222 
