Wavelength	LMW7 profile 200017.asd
350	 7.04379822227241E-02 
351	 7.02673488503962E-02 
352	 6.72955064906574E-02 
353	 6.25937610415015E-02 
354	 6.35712446215954E-02 
355	 0.064324107896684 
356	 6.57643903442078E-02 
357	 0.069041166153078 
358	 7.02919110013167E-02 
359	 6.76908614393699E-02 
360	 0.064353530297284 
361	 6.57098393157425E-02 
362	 6.59648205381956E-02 
363	 6.55042693455612E-02 
364	 0.064875288441438 
365	 6.35889421935166E-02 
366	 6.22359387224311E-02 
367	 6.13852656194168E-02 
368	 6.14704264620537E-02 
369	 6.25308730755671E-02 
370	 6.33074867400307E-02 
371	 0.064161367101281 
372	 6.62849892851593E-02 
373	 6.70650946112533E-02 
374	 6.61803263261796E-02 
375	 6.55095228734867E-02 
376	 7.06070332289621E-02 
377	 6.89348304468234E-02 
378	 6.61559241593334E-02 
379	 0.070060849384827 
380	 7.27699884441702E-02 
381	 7.24953065907152E-02 
382	 7.18504622481253E-02 
383	 7.58323646917738E-02 
384	 7.73602214285246E-02 
385	 7.69656380719331E-02 
386	 7.65996947059488E-02 
387	 7.86842811443451E-02 
388	 8.12806224380544E-02 
389	 8.30510491023454E-02 
390	 8.34574261054344E-02 
391	 8.43111336593306E-02 
392	 8.65238993133487E-02 
393	 8.97123740854263E-02 
394	 9.24855342123736E-02 
395	 9.47613839135634E-02 
396	 9.70551529021036E-02 
397	 0.099629575925041 
398	 0.101944657069346 
399	 0.105356314657459 
400	 0.108978956046529 
401	 0.111452192004679 
402	 0.1137910942717 
403	 0.115906902458046 
404	 0.118247767369333 
405	 0.12177445036013 
406	 0.125253336519715 
407	 0.127747427186544 
408	 0.129142179422538 
409	 0.131039350836992 
410	 0.133250786632323 
411	 0.135717036719735 
412	 0.138366543961953 
413	 0.140944760461704 
414	 0.142746908570945 
415	 0.143771644369682 
416	 0.14492175982445 
417	 0.14489167854917 
418	 0.145063156496343 
419	 0.146391877984128 
420	 0.146274050855103 
421	 0.14569737256795 
422	 0.1454982083899 
423	 0.146127418099498 
424	 0.145488726002064 
425	 0.144103826573338 
426	 0.142708832212176 
427	 0.141780241957856 
428	 0.140565961181176 
429	 0.139351656513132 
430	 0.138461707658056 
431	 0.136642646634394 
432	 0.134923099287405 
433	 0.133926385264592 
434	 0.1337351374771 
435	 0.133413428951722 
436	 0.133554470077998 
437	 0.13449929195906 
438	 0.135055952036386 
439	 0.136359931578793 
440	 0.138348936911076 
441	 0.140374205490271 
442	 0.142331733627248 
443	 0.14453765991671 
444	 0.147030880532426 
445	 0.149345245430078 
446	 0.151973255648514 
447	 0.154849341048646 
448	 0.157689335971375 
449	 0.159992127662973 
450	 0.162654308321581 
451	 0.165665153994829 
452	 0.168249329952838 
453	 0.170952225900729 
454	 0.173637965252995 
455	 0.176136659813179 
456	 0.178450645001161 
457	 0.180835538180765 
458	 0.183223901753651 
459	 0.185409385098726 
460	 0.187483766377777 
461	 0.189336918033791 
462	 0.191043663463822 
463	 0.19295285393471 
464	 0.194741466655586 
465	 0.19646594853509 
466	 0.198195557176983 
467	 0.199611897841706 
468	 0.200965471152331 
469	 0.202354961319163 
470	 0.203748572004115 
471	 0.205289018315885 
472	 0.206653053591165 
473	 0.20770680410368 
474	 0.208897371980879 
475	 0.210263247864119 
476	 0.211487700223124 
477	 0.212261513367168 
478	 0.213624921972005 
479	 0.215032947420102 
480	 0.216199055270541 
481	 0.217385477776105 
482	 0.218589295022093 
483	 0.21969317727579 
484	 0.22063514150656 
485	 0.22171806241699 
486	 0.222831741671169 
487	 0.223874781365772 
488	 0.224788088220591 
489	 0.225951828607822 
490	 0.227104712812959 
491	 0.228069587098043 
492	 0.229171239339463 
493	 0.230109146316916 
494	 0.230956512822581 
495	 0.231949392997116 
496	 0.23312900243587 
497	 0.234227446562828 
498	 0.235187609036117 
499	 0.236312890429931 
500	 0.237257408985135 
501	 0.238137535943458 
502	 0.239147504538864 
503	 0.240190773761661 
504	 0.241250386767649 
505	 0.242258306612581 
506	 0.243115100139346 
507	 0.244097534597535 
508	 0.245116198301287 
509	 0.246062981568309 
510	 0.246988443321405 
511	 0.247882395468066 
512	 0.248804441055406 
513	 0.24982045598363 
514	 0.250685202514079 
515	 0.251525070222227 
516	 0.25245541250901 
517	 0.253513319488344 
518	 0.254488573386547 
519	 0.255318557485169 
520	 0.256064083192395 
521	 0.257105217214054 
522	 0.258089417762886 
523	 0.258926398992294 
524	 0.259839925650441 
525	 0.260742447262899 
526	 0.26161057797911 
527	 0.262456653052871 
528	 0.263373725051009 
529	 0.264250295142605 
530	 0.265098441631513 
531	 0.266002933485378 
532	 0.266856941047186 
533	 0.267725707641466 
534	 0.26863245516715 
535	 0.269451210458067 
536	 0.270337004477839 
537	 0.271242703127345 
538	 0.2720619743105 
539	 0.272876408395398 
540	 0.273722158815483 
541	 0.274603696486992 
542	 0.275489610282544 
543	 0.276360506427857 
544	 0.277195818286546 
545	 0.278007143506476 
546	 0.278936546805721 
547	 0.279794721008142 
548	 0.280610226760581 
549	 0.281588029810347 
550	 0.282476815066935 
551	 0.28334169100048 
552	 0.284264616508181 
553	 0.285220129897446 
554	 0.286163096627734 
555	 0.287092389847109 
556	 0.288035483726451 
557	 0.289036246117738 
558	 0.290079568237904 
559	 0.291134375022469 
560	 0.292164412169296 
561	 0.293071204594009 
562	 0.293908824585193 
563	 0.29479211729852 
564	 0.295824848536652 
565	 0.29678883504104 
566	 0.297709081268229 
567	 0.298897181427093 
568	 0.300127527959212 
569	 0.301303506938965 
570	 0.302412060788196 
571	 0.30361441975954 
572	 0.304832158314548 
573	 0.306001389347377 
574	 0.307068935045877 
575	 0.307988990415331 
576	 0.308937149336207 
577	 0.310009634214731 
578	 0.31105723234013 
579	 0.312140897287153 
580	 0.313300683809202 
581	 0.314567123718249 
582	 0.315955193986003 
583	 0.317301949220351 
584	 0.318539533094045 
585	 0.319761408352604 
586	 0.320889756474965 
587	 0.321932214664022 
588	 0.32293247371496 
589	 0.323967631061075 
590	 0.325018234184077 
591	 0.326087485933154 
592	 0.327199040633208 
593	 0.328228184093351 
594	 0.329262257860535 
595	 0.330402642647839 
596	 0.331690626134805 
597	 0.332998742118371 
598	 0.3342618219783 
599	 0.335461029272906 
600	 0.336614760944116 
601	 0.337663593004316 
602	 0.338607372081475 
603	 0.339573614501469 
604	 0.340442110819942 
605	 0.341259969172386 
606	 0.342119456183172 
607	 0.343017318748011 
608	 0.343873349169776 
609	 0.344687228897635 
610	 0.345555030542533 
611	 0.34647540590091 
612	 0.347398117446145 
613	 0.348274182709288 
614	 0.349134438799804 
615	 0.349884467275462 
616	 0.350530630961002 
617	 0.351153477255954 
618	 0.351830924600609 
619	 0.352473087179339 
620	 0.353032255121049 
621	 0.353601930165033 
622	 0.35418268161348 
623	 0.354726158402729 
624	 0.355192188823649 
625	 0.355761881876144 
626	 0.356286744738048 
627	 0.356720278708695 
628	 0.357183460163216 
629	 0.357698997326119 
630	 0.358185762942748 
631	 0.358587601140612 
632	 0.359083627221998 
633	 0.359474951484844 
634	 0.359805405873152 
635	 0.360301217686394 
636	 0.360659052201289 
637	 0.36105826781278 
638	 0.361585558583149 
639	 0.361882336663662 
640	 0.362255537985063 
641	 0.362671384938825 
642	 0.362981265933312 
643	 0.3634360095524 
644	 0.363929143558118 
645	 0.364368315908861 
646	 0.364730405292923 
647	 0.365084595450896 
648	 0.365449437224575 
649	 0.365836252546241 
650	 0.366296513521685 
651	 0.366783922611545 
652	 0.367231092585911 
653	 0.367569726510774 
654	 0.367982578297278 
655	 0.368410764241093 
656	 0.368794049986301 
657	 0.369169015503377 
658	 0.369672564019202 
659	 0.370211605214859 
660	 0.370613589472859 
661	 0.371055105676488 
662	 0.371583213779339 
663	 0.372154760771723 
664	 0.372617261317664 
665	 0.373033842593778 
666	 0.373491257776029 
667	 0.3740331159373 
668	 0.374481501752508 
669	 0.374980627977432 
670	 0.375533737309089 
671	 0.376023516594327 
672	 0.376505612367087 
673	 0.377028280416232 
674	 0.377598777397556 
675	 0.37812981134657 
676	 0.378693349538238 
677	 0.379220699260324 
678	 0.379631364307201 
679	 0.380201392547511 
680	 0.380766215583558 
681	 0.381289102973506 
682	 0.381950943253507 
683	 0.38251279190804 
684	 0.383032119510999 
685	 0.383598511478442 
686	 0.384111149261465 
687	 0.384661357073999 
688	 0.385258379939186 
689	 0.38584440791999 
690	 0.386326883652926 
691	 0.386799009146717 
692	 0.387346071317847 
693	 0.387997267575158 
694	 0.388554106180087 
695	 0.389057500296166 
696	 0.389604990652838 
697	 0.390035569573363 
698	 0.390562936065091 
699	 0.391200047664042 
700	 0.39173294809566 
701	 0.392244828064161 
702	 0.392718146229207 
703	 0.39314504746087 
704	 0.393594655914038 
705	 0.394022625309156 
706	 0.39444154838306 
707	 0.394889979401091 
708	 0.395368114564568 
709	 0.395813142921328 
710	 0.396200081577507 
711	 0.396567088473415 
712	 0.39692122875829 
713	 0.397281776418947 
714	 0.397655019221299 
715	 0.397992432293693 
716	 0.398320371186477 
717	 0.398642431737522 
718	 0.398940137427075 
719	 0.399159786937272 
720	 0.399341652377603 
721	 0.399513690196362 
722	 0.39963807474446 
723	 0.399918579907234 
724	 0.400211667263747 
725	 0.400326055653913 
726	 0.400500701432582 
727	 0.400624912403528 
728	 0.400649787760134 
729	 0.400608568821767 
730	 0.400706247615063 
731	 0.400772366922275 
732	 0.400688694481283 
733	 0.400630736838549 
734	 0.400546759362018 
735	 0.400422511332848 
736	 0.400273423232798 
737	 0.400228679626191 
738	 0.400075130556549 
739	 0.399787748523747 
740	 0.399569772030342 
741	 0.3994184021786 
742	 0.399211276206749 
743	 0.398860434308689 
744	 0.398432188462665 
745	 0.39806039211878 
746	 0.397739293918662 
747	 0.397382396497508 
748	 0.396892167469983 
749	 0.396465955078833 
750	 0.396119014970927 
751	 0.3956209320731 
752	 0.395079277124751 
753	 0.394540662163274 
754	 0.394021309617244 
755	 0.393483159046765 
756	 0.392959935967042 
757	 0.392401613962423 
758	 0.391745851477958 
759	 0.391170978624032 
760	 0.390534839497643 
761	 0.389808036082369 
762	 0.389135844709056 
763	 0.388534089545823 
764	 0.387899669552005 
765	 0.387159929768935 
766	 0.386407119476821 
767	 0.385734698764709 
768	 0.385070712805411 
769	 0.384289870396184 
770	 0.383569015850261 
771	 0.382877576870131 
772	 0.382149090056986 
773	 0.381303579412787 
774	 0.380520461365031 
775	 0.379785022791794 
776	 0.379044124022396 
777	 0.378270592780477 
778	 0.377513181249828 
779	 0.376742543778588 
780	 0.375909679829919 
781	 0.375073412259568 
782	 0.374341307891781 
783	 0.37365069147688 
784	 0.37277735034681 
785	 0.372015257241383 
786	 0.371316557304869 
787	 0.370565624663601 
788	 0.369621564066917 
789	 0.368856137340495 
790	 0.368175986226528 
791	 0.367361122487225 
792	 0.366561916189893 
793	 0.365845812876894 
794	 0.365143881822847 
795	 0.364297916966592 
796	 0.363525239939152 
797	 0.362831773668953 
798	 0.362144951849545 
799	 0.361310720443483 
800	 0.360551587932198 
801	 0.359891924168752 
802	 0.359252920292466 
803	 0.358421557266714 
804	 0.35765031217587 
805	 0.356991196645509 
806	 0.356350086395002 
807	 0.355625008190923 
808	 0.354879246190309 
809	 0.354169540874873 
810	 0.353510896413494 
811	 0.35292498144806 
812	 0.352308129438074 
813	 0.351608105551807 
814	 0.350991527749948 
815	 0.350327130323526 
816	 0.349651519387219 
817	 0.349044716779484 
818	 0.348418818966404 
819	 0.347822888540143 
820	 0.347248119292092 
821	 0.346638774934691 
822	 0.346075318515624 
823	 0.345480888559082 
824	 0.344852561307923 
825	 0.344345555498242 
826	 0.343802521294719 
827	 0.343288049446007 
828	 0.342845544733771 
829	 0.342260489668687 
830	 0.341595471789372 
831	 0.34096440587748 
832	 0.340473581702526 
833	 0.340020747443567 
834	 0.339580394031832 
835	 0.339133221178466 
836	 0.338664638643529 
837	 0.338175204372067 
838	 0.337712777436347 
839	 0.337274425727209 
840	 0.336760413257672 
841	 0.336270191469444 
842	 0.33579503518498 
843	 0.335338353300894 
844	 0.335050744328441 
845	 0.334712921462809 
846	 0.334307621640802 
847	 0.33391137652834 
848	 0.33350389581235 
849	 0.333141952910633 
850	 0.332803115110127 
851	 0.332404032733285 
852	 0.331987301746891 
853	 0.331698007869739 
854	 0.331494340217227 
855	 0.331060459992868 
856	 0.330780565113169 
857	 0.33052102395962 
858	 0.330153205602453 
859	 0.329878714351259 
860	 0.329610459053322 
861	 0.329334326402549 
862	 0.32906556607658 
863	 0.328849351716042 
864	 0.328540445303192 
865	 0.328218906870925 
866	 0.328057760197371 
867	 0.327803167708883 
868	 0.32763023457697 
869	 0.327529805137964 
870	 0.327281884786124 
871	 0.326921504361095 
872	 0.326617709066904 
873	 0.32649044943154 
874	 0.32653829036946 
875	 0.326510438681892 
876	 0.326330660281964 
877	 0.326055916044317 
878	 0.325929178738572 
879	 0.325905360418052 
880	 0.325809799213324 
881	 0.325550509333026 
882	 0.325573167640821 
883	 0.325604521391362 
884	 0.325460539849802 
885	 0.325121007276491 
886	 0.32508596889437 
887	 0.32518652901866 
888	 0.325210169308902 
889	 0.325009155036846 
890	 0.324925947231916 
891	 0.324914053446352 
892	 0.324945405454832 
893	 0.325066822264501 
894	 0.324997122887531 
895	 0.324908711182796 
896	 0.324948151330854 
897	 0.325045333874176 
898	 0.325120825961233 
899	 0.325157421397762 
900	 0.32516443167324 
901	 0.325155908207242 
902	 0.325172524132011 
903	 0.325260872818181 
904	 0.3254248950857 
905	 0.325522651665881 
906	 0.325658404060603 
907	 0.325836776320288 
908	 0.32600355545454 
909	 0.326083681654861 
910	 0.326210802316005 
911	 0.326380872272389 
912	 0.326500137956226 
913	 0.326588722849195 
914	 0.32672493649383 
915	 0.326919215544052 
916	 0.327112144098253 
917	 0.327225844133683 
918	 0.327450443707741 
919	 0.327824187176881 
920	 0.328166933585275 
921	 0.32834925841963 
922	 0.32848844400705 
923	 0.32868823964875 
924	 0.328954300562073 
925	 0.329246777531051 
926	 0.329527013508018 
927	 0.329806464984826 
928	 0.33018023821257 
929	 0.330533945655773 
930	 0.330810655621067 
931	 0.331038292681188 
932	 0.331396953111373 
933	 0.331687673877051 
934	 0.331925936469507 
935	 0.33220923416331 
936	 0.332680533025379 
937	 0.333058334513527 
938	 0.333368600740856 
939	 0.333745811148147 
940	 0.334300110761073 
941	 0.334746910293157 
942	 0.335119755887138 
943	 0.33554838646301 
944	 0.335962104928385 
945	 0.336397608282792 
946	 0.336876156344346 
947	 0.33737379535643 
948	 0.337724518357102 
949	 0.338080689628467 
950	 0.338537729598727 
951	 0.339111818564931 
952	 0.339662284071904 
953	 0.340209408933472 
954	 0.340677925013739 
955	 0.341033599837535 
956	 0.341741965823778 
957	 0.34235182804363 
958	 0.34279441156222 
959	 0.343273156724182 
960	 0.343849000252806 
961	 0.34440498611198 
962	 0.344989716344088 
963	 0.345685167989162 
964	 0.346074054609106 
965	 0.346484232466036 
966	 0.347080126925356 
967	 0.347830944022822 
968	 0.348555693117845 
969	 0.34919009791465 
970	 0.349724650651508 
971	 0.35022649214917 
972	 0.350990302363822 
973	 0.351661847030857 
974	 0.352272728266065 
975	 0.353086008773898 
976	 0.35390468596625 
977	 0.354541988236645 
978	 0.355102893830358 
979	 0.355813552697171 
980	 0.356433185318093 
981	 0.356991894887387 
982	 0.357549888044767 
983	 0.35818305527035 
984	 0.358994205714359 
985	 0.359798929700291 
986	 0.36054444110351 
987	 0.361283835703266 
988	 0.362125695608577 
989	 0.362784828541259 
990	 0.363296530654268 
991	 0.363882482343579 
992	 0.36471191313558 
993	 0.365369406251031 
994	 0.36603190555219 
995	 0.366967728956673 
996	 0.367605679600995 
997	 0.368333388511266 
998	 0.369154104134048 
999	 0.369957355871054 
1000	 0.37085757991089 
1001	 0.376190538502934 
1002	 0.376821773513629 
1003	 0.377503829069588 
1004	 0.378198093657578 
1005	 0.378837439372934 
1006	 0.379553310129446 
1007	 0.380354169930454 
1008	 0.381136767260945 
1009	 0.381857619631524 
1010	 0.382549414043945 
1011	 0.38321567401729 
1012	 0.38385030441342 
1013	 0.384541891671321 
1014	 0.385257145932451 
1015	 0.385872848220852 
1016	 0.386487757711542 
1017	 0.387136285600175 
1018	 0.387768452557673 
1019	 0.388380011888178 
1020	 0.389069099719107 
1021	 0.38981309059604 
1022	 0.39052104314848 
1023	 0.391165535685546 
1024	 0.391833857059546 
1025	 0.392478842812175 
1026	 0.393098578098337 
1027	 0.393763653800418 
1028	 0.394373028942768 
1029	 0.394947940921215 
1030	 0.395527510538096 
1031	 0.396143338919554 
1032	 0.396749502717283 
1033	 0.397444957381724 
1034	 0.398171265299589 
1035	 0.398856174357036 
1036	 0.399511643286081 
1037	 0.400146053960636 
1038	 0.400792924705687 
1039	 0.401445672370359 
1040	 0.402083884225642 
1041	 0.402718889544599 
1042	 0.403346197811108 
1043	 0.404002652745031 
1044	 0.40466206186796 
1045	 0.405353271172056 
1046	 0.40603513579606 
1047	 0.406715341687399 
1048	 0.407374206488785 
1049	 0.407998180113142 
1050	 0.408637341430209 
1051	 0.409266040026461 
1052	 0.409859939056086 
1053	 0.410549845056139 
1054	 0.411255948722662 
1055	 0.411891444692643 
1056	 0.412562786821306 
1057	 0.413168952578081 
1058	 0.413648415215921 
1059	 0.414208303676857 
1060	 0.414794049918589 
1061	 0.415367793885257 
1062	 0.415921957546481 
1063	 0.416512646041147 
1064	 0.417015261543327 
1065	 0.417506643475779 
1066	 0.418027007837726 
1067	 0.418528954439334 
1068	 0.419087958179547 
1069	 0.419619602724819 
1070	 0.420088953623023 
1071	 0.420496140510638 
1072	 0.420953726372013 
1073	 0.421354723391513 
1074	 0.421792598524434 
1075	 0.422267385037282 
1076	 0.422759004420017 
1077	 0.423234641904764 
1078	 0.423721834163309 
1079	 0.42414462053909 
1080	 0.424525178723782 
1081	 0.42485931050317 
1082	 0.425195848085249 
1083	 0.425563044475431 
1084	 0.425948000852383 
1085	 0.426348581378624 
1086	 0.426789207632354 
1087	 0.427167891015115 
1088	 0.42752544816962 
1089	 0.427895983848316 
1090	 0.428269242660401 
1091	 0.428628905533729 
1092	 0.428976278658426 
1093	 0.42935243450293 
1094	 0.429679077178142 
1095	 0.429994876681761 
1096	 0.43037985457406 
1097	 0.430750104379517 
1098	 0.431133184776101 
1099	 0.431545616516209 
1100	 0.431934395562031 
1101	 0.43229946616638 
1102	 0.432691695648339 
1103	 0.433088804155387 
1104	 0.433485462515802 
1105	 0.433891694625668 
1106	 0.434326742246638 
1107	 0.434762309552589 
1108	 0.435183799413415 
1109	 0.435600502146868 
1110	 0.436045301879158 
1111	 0.436481568002079 
1112	 0.436893446834388 
1113	 0.43734304677363 
1114	 0.437842018375305 
1115	 0.438287432569959 
1116	 0.438711440627311 
1117	 0.439164691210125 
1118	 0.439609384446811 
1119	 0.440040170803101 
1120	 0.440537011822806 
1121	 0.441029604991904 
1122	 0.441456828944522 
1123	 0.441912652971734 
1124	 0.442396944426339 
1125	 0.442887402113422 
1126	 0.443377115700263 
1127	 0.443907739890385 
1128	 0.444401318660138 
1129	 0.444878007939358 
1130	 0.445344201868588 
1131	 0.445795723768466 
1132	 0.4462592175516 
1133	 0.446711639693806 
1134	 0.447161644228693 
1135	 0.447623928556461 
1136	 0.448071736791016 
1137	 0.448523931443609 
1138	 0.448966541822538 
1139	 0.449420781508681 
1140	 0.449892343222005 
1141	 0.450348385373836 
1142	 0.450800320247438 
1143	 0.451250948321438 
1144	 0.451693963164805 
1145	 0.45213908721381 
1146	 0.452594688180581 
1147	 0.453026441197767 
1148	 0.453428357228684 
1149	 0.453860185863142 
1150	 0.454298055513702 
1151	 0.45474431122773 
1152	 0.455157664219075 
1153	 0.455573193133356 
1154	 0.455985657081324 
1155	 0.456363785858712 
1156	 0.45675543726498 
1157	 0.457186358745694 
1158	 0.457568722395432 
1159	 0.457910630305392 
1160	 0.458266705083321 
1161	 0.458601933574877 
1162	 0.458957801860623 
1163	 0.459335289968339 
1164	 0.459695804431457 
1165	 0.460064555310834 
1166	 0.46041870793348 
1167	 0.46075030283978 
1168	 0.461093862535913 
1169	 0.461437138132553 
1170	 0.461784806473371 
1171	 0.462123968835884 
1172	 0.462471082097748 
1173	 0.462797439985325 
1174	 0.463103307285641 
1175	 0.463422664190656 
1176	 0.463744080775207 
1177	 0.464052420392216 
1178	 0.464348350782206 
1179	 0.464665612671924 
1180	 0.46498217971214 
1181	 0.465299317457189 
1182	 0.465632284366076 
1183	 0.465981148240821 
1184	 0.466291667164645 
1185	 0.466575675937598 
1186	 0.466882107403437 
1187	 0.46718076728406 
1188	 0.467486191409191 
1189	 0.467806595701243 
1190	 0.468114845069878 
1191	 0.468410651482646 
1192	 0.468718209455418 
1193	 0.46904561135387 
1194	 0.469346072971222 
1195	 0.469627031451379 
1196	 0.46992252756925 
1197	 0.470214269523886 
1198	 0.470499579087501 
1199	 0.470785692693886 
1200	 0.471084766986107 
1201	 0.471374399515531 
1202	 0.471647676848028 
1203	 0.471935819862328 
1204	 0.47222979108984 
1205	 0.472532890355584 
1206	 0.472850499789526 
1207	 0.473148841356439 
1208	 0.473452947058102 
1209	 0.473747138974516 
1210	 0.47401530993928 
1211	 0.474298939201271 
1212	 0.474598436904643 
1213	 0.474883667642308 
1214	 0.475169658241119 
1215	 0.475445608721442 
1216	 0.475713271758936 
1217	 0.475962522435594 
1218	 0.476233364294753 
1219	 0.476510778768033 
1220	 0.476776964850673 
1221	 0.477046154352936 
1222	 0.47731604126584 
1223	 0.477570023970259 
1224	 0.477842490096157 
1225	 0.478148005830069 
1226	 0.478418328945858 
1227	 0.478674591859731 
1228	 0.478931632724953 
1229	 0.479166237969504 
1230	 0.479410782922794 
1231	 0.479663453828927 
1232	 0.47991550216205 
1233	 0.48016770034431 
1234	 0.480418150283131 
1235	 0.480670329547016 
1236	 0.48091852435357 
1237	 0.481182538081733 
1238	 0.48146549554493 
1239	 0.481722528696555 
1240	 0.48198101144244 
1241	 0.482232732965727 
1242	 0.482458307269825 
1243	 0.482699872557144 
1244	 0.482953547744199 
1245	 0.483200991565581 
1246	 0.483452293271265 
1247	 0.483692835660206 
1248	 0.48392227479627 
1249	 0.484161347586583 
1250	 0.484385190777374 
1251	 0.48461856910938 
1252	 0.484842650069145 
1253	 0.485069297170754 
1254	 0.485285361334294 
1255	 0.485491390757754 
1256	 0.485697930949083 
1257	 0.485900658193043 
1258	 0.486102362867233 
1259	 0.486298588070863 
1260	 0.486499597544258 
1261	 0.486699666214743 
1262	 0.486902892669626 
1263	 0.487104755540117 
1264	 0.487315026121797 
1265	 0.487543730546091 
1266	 0.487755999494337 
1267	 0.487965209036871 
1268	 0.48817071471199 
1269	 0.488377714713816 
1270	 0.488562268983815 
1271	 0.488788184174663 
1272	 0.489035972743367 
1273	 0.489283290570592 
1274	 0.48954193848981 
1275	 0.489811784609175 
1276	 0.490094559088608 
1277	 0.490372929933406 
1278	 0.490673078725092 
1279	 0.490954843559449 
1280	 0.491213058315409 
1281	 0.491488851581097 
1282	 0.491781752325915 
1283	 0.492053623708556 
1284	 0.49232118048648 
1285	 0.492598907071399 
1286	 0.492831083811812 
1287	 0.493027390092144 
1288	 0.493218088152403 
1289	 0.493386659550997 
1290	 0.493541148129829 
1291	 0.493678068223605 
1292	 0.49381045375693 
1293	 0.493932712989329 
1294	 0.494027827005495 
1295	 0.494112368693926 
1296	 0.494177629430317 
1297	 0.494197627313441 
1298	 0.494238431555697 
1299	 0.49429800696563 
1300	 0.494316658051148 
1301	 0.494302442465346 
1302	 0.494309121694434 
1303	 0.494303370947295 
1304	 0.494293511566606 
1305	 0.494303957541228 
1306	 0.494292014063935 
1307	 0.49426162393488 
1308	 0.494191798249913 
1309	 0.49413567816369 
1310	 0.494068502719946 
1311	 0.494024708068528 
1312	 0.493983353342892 
1313	 0.493950019555689 
1314	 0.493930370334266 
1315	 0.493903879073683 
1316	 0.493852232245132 
1317	 0.493858135271006 
1318	 0.493890933089927 
1319	 0.493936693693051 
1320	 0.494049710101696 
1321	 0.494113852868874 
1322	 0.494153986240442 
1323	 0.494199018778781 
1324	 0.494269562051824 
1325	 0.49431133810199 
1326	 0.494373035859084 
1327	 0.494468903623951 
1328	 0.494531400708751 
1329	 0.494597576457498 
1330	 0.494679658770059 
1331	 0.494760459795176 
1332	 0.494876873348324 
1333	 0.495021236860691 
1334	 0.49515904246023 
1335	 0.495309379973288 
1336	 0.495474807565453 
1337	 0.495655228841573 
1338	 0.49582039525627 
1339	 0.496007008032075 
1340	 0.496176037018431 
1341	 0.49631632388334 
1342	 0.496462673890647 
1343	 0.496626568522556 
1344	 0.496761350390767 
1345	 0.496867283848327 
1346	 0.497008143635448 
1347	 0.49712702531132 
1348	 0.497230457678584 
1349	 0.497335726460222 
1350	 0.497413469989746 
1351	 0.497495743729001 
1352	 0.497565996581431 
1353	 0.497643294081385 
1354	 0.497719694686434 
1355	 0.497790990770174 
1356	 0.497858047393085 
1357	 0.497930853217128 
1358	 0.498002215704441 
1359	 0.498082526997743 
1360	 0.498160640941174 
1361	 0.498250007925014 
1362	 0.498342774205968 
1363	 0.498451340127908 
1364	 0.498580426330435 
1365	 0.498708023340894 
1366	 0.498842502529533 
1367	 0.498983607093082 
1368	 0.49912953627635 
1369	 0.499249844617219 
1370	 0.499350361963296 
1371	 0.499436025845785 
1372	 0.499488651547273 
1373	 0.499526699608224 
1374	 0.499551668747654 
1375	 0.499572845954142 
1376	 0.499546760916744 
1377	 0.499495949110883 
1378	 0.499423325456812 
1379	 0.499296083194956 
1380	 0.499198793400656 
1381	 0.49908294436193 
1382	 0.498993511401761 
1383	 0.498952982813868 
1384	 0.498852675806727 
1385	 0.498782293875939 
1386	 0.498622007225351 
1387	 0.4983919463561 
1388	 0.498131004711327 
1389	 0.497828125823969 
1390	 0.497463240158245 
1391	 0.497078934210726 
1392	 0.49667281418036 
1393	 0.4962052186926 
1394	 0.495727951444681 
1395	 0.495218034827731 
1396	 0.494684270069632 
1397	 0.494168476891065 
1398	 0.493652386070656 
1399	 0.493130823015378 
1400	 0.492609394986562 
1401	 0.492084709874196 
1402	 0.491554465251419 
1403	 0.491026082873846 
1404	 0.490487250833404 
1405	 0.489974482459616 
1406	 0.48945883505183 
1407	 0.488971945012639 
1408	 0.488488250980866 
1409	 0.488059016945661 
1410	 0.487623514615484 
1411	 0.487288302031858 
1412	 0.486990720318117 
1413	 0.486801228830457 
1414	 0.486749720506806 
1415	 0.486782597179895 
1416	 0.486943685550249 
1417	 0.487183315676256 
1418	 0.487414850696227 
1419	 0.487638413122673 
1420	 0.487854355171 
1421	 0.488029407721157 
1422	 0.488159622424648 
1423	 0.48827682525592 
1424	 0.488312360329345 
1425	 0.488281465405578 
1426	 0.488206828151538 
1427	 0.488052935027174 
1428	 0.48791480999955 
1429	 0.48774290468465 
1430	 0.487561126524413 
1431	 0.487373655182179 
1432	 0.487163828204071 
1433	 0.486909224286784 
1434	 0.486679717690397 
1435	 0.486445712692962 
1436	 0.48622321168632 
1437	 0.486011390402675 
1438	 0.485800009435269 
1439	 0.485597387014781 
1440	 0.485390222703061 
1441	 0.485172512065972 
1442	 0.484972005237817 
1443	 0.484765881183608 
1444	 0.484544504437422 
1445	 0.484340040843669 
1446	 0.4841101300689 
1447	 0.483856164962677 
1448	 0.483595065639683 
1449	 0.483274223442777 
1450	 0.482931953399148 
1451	 0.482582474868726 
1452	 0.482205347254111 
1453	 0.481819527251565 
1454	 0.481433913389516 
1455	 0.481013654831537 
1456	 0.480579855875594 
1457	 0.480097322331067 
1458	 0.479565917031793 
1459	 0.479041994830482 
1460	 0.478462706201782 
1461	 0.477932564344215 
1462	 0.477412897869257 
1463	 0.476914536359144 
1464	 0.476432399132755 
1465	 0.475967954177973 
1466	 0.475500568360739 
1467	 0.475096952987524 
1468	 0.474707606316423 
1469	 0.474387940798178 
1470	 0.474125270745119 
1471	 0.473918895655706 
1472	 0.473764332626083 
1473	 0.473693767777405 
1474	 0.473694559017101 
1475	 0.473747855866803 
1476	 0.473882317325077 
1477	 0.47407265638422 
1478	 0.474331690283911 
1479	 0.474650546555011 
1480	 0.474991901069835 
1481	 0.475373814968209 
1482	 0.475743051112709 
1483	 0.476123508318974 
1484	 0.476505088109026 
1485	 0.476904464822808 
1486	 0.477270475117208 
1487	 0.477636691000515 
1488	 0.477972411388435 
1489	 0.478294312521124 
1490	 0.478575548716074 
1491	 0.478835372428534 
1492	 0.479059679873651 
1493	 0.479226570593615 
1494	 0.479400264146481 
1495	 0.479553709051484 
1496	 0.479704761680178 
1497	 0.479840644268158 
1498	 0.479978129511469 
1499	 0.480121975307168 
1500	 0.480238060221183 
1501	 0.480342867022376 
1502	 0.480439081608045 
1503	 0.480520020846935 
1504	 0.480578288576572 
1505	 0.48062523599797 
1506	 0.480689182295492 
1507	 0.480732208746587 
1508	 0.480757867863874 
1509	 0.480800864887755 
1510	 0.48083518995238 
1511	 0.48086655471087 
1512	 0.480911127035033 
1513	 0.480963196925743 
1514	 0.481007865129742 
1515	 0.481071416228302 
1516	 0.481132131493902 
1517	 0.481176053076931 
1518	 0.481214457475691 
1519	 0.48124966325304 
1520	 0.481261178537199 
1521	 0.481299719440944 
1522	 0.48134005985689 
1523	 0.481396508523183 
1524	 0.481480258624294 
1525	 0.48154526429674 
1526	 0.481612741840383 
1527	 0.48167879920509 
1528	 0.481738701202685 
1529	 0.481793691071597 
1530	 0.481851626784209 
1531	 0.481906688833482 
1532	 0.481938464995525 
1533	 0.481994938014642 
1534	 0.482070120564049 
1535	 0.482139255161695 
1536	 0.482222598181105 
1537	 0.482296803900239 
1538	 0.482363107371595 
1539	 0.482425446882711 
1540	 0.482487702670153 
1541	 0.482544075663418 
1542	 0.482602463752407 
1543	 0.482646373030076 
1544	 0.482674094416527 
1545	 0.482702121842212 
1546	 0.482712651383932 
1547	 0.482726692829745 
1548	 0.48278094597314 
1549	 0.482855057241606 
1550	 0.482955299245239 
1551	 0.483071261436519 
1552	 0.483153414371511 
1553	 0.483212573325611 
1554	 0.483284108527833 
1555	 0.483369516603919 
1556	 0.483467072389133 
1557	 0.483576183366952 
1558	 0.483670391838362 
1559	 0.483724447352565 
1560	 0.48378450651374 
1561	 0.483826718471407 
1562	 0.483888055087678 
1563	 0.483939798255118 
1564	 0.484025334746181 
1565	 0.48413749776603 
1566	 0.484234431599712 
1567	 0.48434583521223 
1568	 0.484448325731443 
1569	 0.484547233033464 
1570	 0.484626808087233 
1571	 0.484710060290284 
1572	 0.484771333820656 
1573	 0.484796054030949 
1574	 0.484840078138344 
1575	 0.484882541516443 
1576	 0.484927838550402 
1577	 0.484986929451014 
1578	 0.485023909610446 
1579	 0.485038816209234 
1580	 0.485075755822664 
1581	 0.485101415944372 
1582	 0.485151819057416 
1583	 0.48523911425666 
1584	 0.485305965289409 
1585	 0.485375573555839 
1586	 0.48543585815009 
1587	 0.485493301694703 
1588	 0.485537003876259 
1589	 0.485574767448188 
1590	 0.48559973833994 
1591	 0.485596608597945 
1592	 0.485609147404995 
1593	 0.485625144871838 
1594	 0.485636519991768 
1595	 0.485641975258912 
1596	 0.485663921579255 
1597	 0.485694995246334 
1598	 0.485715875924573 
1599	 0.485754841317765 
1600	 0.485777777243584 
1601	 0.485770424012983 
1602	 0.485781046381611 
1603	 0.485797058684002 
1604	 0.485813880688757 
1605	 0.485827131511155 
1606	 0.485860774734796 
1607	 0.485912940051805 
1608	 0.485958328315097 
1609	 0.486019990674107 
1610	 0.486063973107508 
1611	 0.486034145086865 
1612	 0.486001182170393 
1613	 0.485990693920828 
1614	 0.485983812511448 
1615	 0.486024758896299 
1616	 0.486080556408312 
1617	 0.486104176858846 
1618	 0.486120274041707 
1619	 0.486119080323365 
1620	 0.486108640180989 
1621	 0.486112827505798 
1622	 0.486120643098609 
1623	 0.486109941198753 
1624	 0.486101431371599 
1625	 0.48608706544769 
1626	 0.486051599965689 
1627	 0.486029148634976 
1628	 0.486017697687325 
1629	 0.485997357218589 
1630	 0.485962432625277 
1631	 0.485950189034704 
1632	 0.485950883582568 
1633	 0.485945669926505 
1634	 0.485957206583361 
1635	 0.485939447096829 
1636	 0.485907205734551 
1637	 0.485872878046249 
1638	 0.485811396041834 
1639	 0.485788062158647 
1640	 0.485775565493457 
1641	 0.485772094821764 
1642	 0.485791416227676 
1643	 0.485804722756181 
1644	 0.485825662909758 
1645	 0.485833777545921 
1646	 0.485851248846629 
1647	 0.485840274211485 
1648	 0.485798913251375 
1649	 0.485781883916611 
1650	 0.485759045674641 
1651	 0.485743962803355 
1652	 0.485753224492232 
1653	 0.48573271689264 
1654	 0.485705780032201 
1655	 0.485657518854009 
1656	 0.485580172932839 
1657	 0.485521397601088 
1658	 0.485443279462861 
1659	 0.485395984012048 
1660	 0.485373541176976 
1661	 0.485344375912973 
1662	 0.485327984553118 
1663	 0.485303256669126 
1664	 0.485279635838639 
1665	 0.485247444331113 
1666	 0.485206004999213 
1667	 0.485173450094578 
1668	 0.485150396971512 
1669	 0.485101494557092 
1670	 0.485036923238205 
1671	 0.484989668079207 
1672	 0.484921156374562 
1673	 0.484881957518795 
1674	 0.484879084814588 
1675	 0.484856863192235 
1676	 0.484822459162461 
1677	 0.484813829658759 
1678	 0.484824622259611 
1679	 0.484818696951384 
1680	 0.484830638582575 
1681	 0.484815372286125 
1682	 0.484762874155731 
1683	 0.484739406579294 
1684	 0.484721850750967 
1685	 0.484704741061169 
1686	 0.484707843475519 
1687	 0.484688400633437 
1688	 0.484653806980636 
1689	 0.484623895732904 
1690	 0.484584400676962 
1691	 0.484551020504782 
1692	 0.484532059863306 
1693	 0.484489668154742 
1694	 0.484423426455329 
1695	 0.484385537797618 
1696	 0.484353480951144 
1697	 0.48431107345827 
1698	 0.484290428927583 
1699	 0.484245817682672 
1700	 0.484168215548816 
1701	 0.484111547621433 
1702	 0.48406039636836 
1703	 0.484009945665302 
1704	 0.483976765367295 
1705	 0.483912214458006 
1706	 0.483825621201685 
1707	 0.483758727858724 
1708	 0.483687973547489 
1709	 0.483605721468423 
1710	 0.483527317408748 
1711	 0.483454463776345 
1712	 0.483349565372437 
1713	 0.483291100046098 
1714	 0.483278724492617 
1715	 0.483243708155359 
1716	 0.483218501295505 
1717	 0.483183892616334 
1718	 0.483148854128895 
1719	 0.483090297844728 
1720	 0.483027167763045 
1721	 0.482942091412549 
1722	 0.482830385168149 
1723	 0.48271716754528 
1724	 0.482581088843295 
1725	 0.482472043383518 
1726	 0.482360458799468 
1727	 0.482268588764133 
1728	 0.482203174745847 
1729	 0.482118463097814 
1730	 0.482043184638484 
1731	 0.481935923145361 
1732	 0.481817930053421 
1733	 0.481687390711214 
1734	 0.481528118797146 
1735	 0.481381399075322 
1736	 0.481225408572186 
1737	 0.481085262223936 
1738	 0.480943810243107 
1739	 0.480824069190257 
1740	 0.480731876006212 
1741	 0.48061206695152 
1742	 0.48049949383977 
1743	 0.480365240696575 
1744	 0.48019744487476 
1745	 0.480055647455427 
1746	 0.479903778297978 
1747	 0.479815955070021 
1748	 0.479758187232398 
1749	 0.479646335206334 
1750	 0.479525985576788 
1751	 0.479382033390875 
1752	 0.479200448251828 
1753	 0.479040218751645 
1754	 0.478903930089746 
1755	 0.478775065517892 
1756	 0.478605745956936 
1757	 0.478461555813087 
1758	 0.478339812271833 
1759	 0.478185475535721 
1760	 0.478057847413281 
1761	 0.477930302015355 
1762	 0.477780665664655 
1763	 0.477622725441841 
1764	 0.477487100514044 
1765	 0.47736785428126 
1766	 0.477255487806093 
1767	 0.477174864235689 
1768	 0.477065900684252 
1769	 0.476948451078734 
1770	 0.476833544714073 
1771	 0.476721596832081 
1772	 0.476634246118911 
1773	 0.476513534093345 
1774	 0.476403052699069 
1775	 0.476265176005597 
1776	 0.476062148436114 
1777	 0.475937142100017 
1778	 0.475835446579405 
1779	 0.475726975734018 
1780	 0.475671364179556 
1781	 0.475598008730128 
1782	 0.475493429372278 
1783	 0.475381896017583 
1784	 0.475275451030322 
1785	 0.475155313416093 
1786	 0.475030089031698 
1787	 0.474881467044946 
1788	 0.474777997013564 
1789	 0.474698529454954 
1790	 0.474623424656738 
1791	 0.47461399114177 
1792	 0.474528982523075 
1793	 0.474401867960639 
1794	 0.474271466117459 
1795	 0.47410780358675 
1796	 0.473938481745875 
1797	 0.473739656244581 
1798	 0.473570626544776 
1799	 0.473404245026373 
1800	 0.473258829170698 
1801	 0.476740350807898 
1802	 0.476709326674035 
1803	 0.476698914111919 
1804	 0.476681164380772 
1805	 0.476638320487126 
1806	 0.476604064901946 
1807	 0.476555866065941 
1808	 0.476488642612827 
1809	 0.476430433638846 
1810	 0.476350618634132 
1811	 0.476267368786896 
1812	 0.476113046910683 
1813	 0.475966591359888 
1814	 0.47577593756063 
1815	 0.475530318032348 
1816	 0.475334259761421 
1817	 0.475120740897691 
1818	 0.474890060655624 
1819	 0.47465834029846 
1820	 0.474448476631304 
1821	 0.474187660292577 
1822	 0.473899938156547 
1823	 0.473624271197459 
1824	 0.473305377938735 
1825	 0.472931023867751 
1826	 0.472515704176919 
1827	 0.472069513799621 
1828	 0.471588982559043 
1829	 0.471076918217504 
1830	 0.470520032100337 
1831	 0.469926549914305 
1832	 0.469305889900875 
1833	 0.468620346780338 
1834	 0.467886238589181 
1835	 0.467153412467439 
1836	 0.466411889369304 
1837	 0.465677886042957 
1838	 0.464968968204775 
1839	 0.464292439293536 
1840	 0.463636999927995 
1841	 0.463004632447129 
1842	 0.462418215738887 
1843	 0.461900326195995 
1844	 0.461439789789342 
1845	 0.461028011328156 
1846	 0.460687371825784 
1847	 0.460406488007478 
1848	 0.460176125760775 
1849	 0.460022306123742 
1850	 0.459960814111189 
1851	 0.459990587072001 
1852	 0.460069093212265 
1853	 0.460212158960538 
1854	 0.460396339713507 
1855	 0.460571179592452 
1856	 0.460743870709681 
1857	 0.46094261037068 
1858	 0.461176750963296 
1859	 0.461401757677598 
1860	 0.461633733882609 
1861	 0.461888989608868 
1862	 0.462131497811758 
1863	 0.462369195697472 
1864	 0.462642418711223 
1865	 0.462909472340169 
1866	 0.4632014964033 
1867	 0.463501560892802 
1868	 0.463781967786572 
1869	 0.46408983649269 
1870	 0.464415276687768 
1871	 0.464693388486661 
1872	 0.464963575796955 
1873	 0.465194750677594 
1874	 0.465359453185583 
1875	 0.465456735618634 
1876	 0.465493303505611 
1877	 0.46547618942545 
1878	 0.465401999296276 
1879	 0.465252233464984 
1880	 0.465037692427785 
1881	 0.464750016889121 
1882	 0.464414303512719 
1883	 0.464026907032259 
1884	 0.463553444726345 
1885	 0.4630403683587 
1886	 0.462474809021927 
1887	 0.461791242929055 
1888	 0.461070745768843 
1889	 0.460287207349043 
1890	 0.459413882669622 
1891	 0.458512722439678 
1892	 0.457556090325876 
1893	 0.456570011162862 
1894	 0.455543228331438 
1895	 0.454477465396625 
1896	 0.453358311532152 
1897	 0.452207808511285 
1898	 0.451016425392888 
1899	 0.449825713076886 
1900	 0.448623326353465 
1901	 0.447423183598548 
1902	 0.446257919062219 
1903	 0.445101781847971 
1904	 0.443965042621067 
1905	 0.442854701908545 
1906	 0.441798394614637 
1907	 0.440702666933639 
1908	 0.439603477029156 
1909	 0.438531974860713 
1910	 0.437401274138435 
1911	 0.436272118505058 
1912	 0.435179838029827 
1913	 0.434095894470264 
1914	 0.432998952599917 
1915	 0.431947315842521 
1916	 0.430915562870553 
1917	 0.429920010466438 
1918	 0.428975896528584 
1919	 0.428070916775408 
1920	 0.427200695267445 
1921	 0.426359037252375 
1922	 0.425524315415425 
1923	 0.424708070780198 
1924	 0.423934241944611 
1925	 0.423162491552745 
1926	 0.422486198468041 
1927	 0.421865790056523 
1928	 0.421300881184864 
1929	 0.420794254462411 
1930	 0.420337691896368 
1931	 0.419897222354917 
1932	 0.419500055922442 
1933	 0.419149066038318 
1934	 0.418883527167956 
1935	 0.418678554623895 
1936	 0.418545919129154 
1937	 0.418447254735223 
1938	 0.418429694767864 
1939	 0.418418363243757 
1940	 0.418429382674576 
1941	 0.418495299779048 
1942	 0.418576647379835 
1943	 0.418693805454665 
1944	 0.418828373846111 
1945	 0.41893899256457 
1946	 0.419067724172999 
1947	 0.419212227201199 
1948	 0.419344473409207 
1949	 0.41949143399656 
1950	 0.419619315656322 
1951	 0.419745472862351 
1952	 0.419835290759478 
1953	 0.419922175063654 
1954	 0.420023024298465 
1955	 0.4201139933498 
1956	 0.420206409554097 
1957	 0.420308795057029 
1958	 0.420408147902217 
1959	 0.420519339520308 
1960	 0.420651479274713 
1961	 0.420780411368984 
1962	 0.420924642720622 
1963	 0.421053992020561 
1964	 0.421178025410734 
1965	 0.421287563163952 
1966	 0.421410710551203 
1967	 0.421521982312537 
1968	 0.421648663501627 
1969	 0.42178215020148 
1970	 0.421926230191135 
1971	 0.422094539568476 
1972	 0.422235788760031 
1973	 0.422364792690829 
1974	 0.422512464850769 
1975	 0.422642947220197 
1976	 0.42279059961545 
1977	 0.422997071692428 
1978	 0.423175380214428 
1979	 0.423332950745231 
1980	 0.423511731752802 
1981	 0.423661694644963 
1982	 0.423775111045571 
1983	 0.423922559460806 
1984	 0.424070698787669 
1985	 0.424218924635742 
1986	 0.424380524333334 
1987	 0.424543395784562 
1988	 0.424690407475771 
1989	 0.424873522510801 
1990	 0.425070669106378 
1991	 0.425243254810602 
1992	 0.425428286571717 
1993	 0.425626213931518 
1994	 0.425808575840589 
1995	 0.425986330947237 
1996	 0.426160697207 
1997	 0.426309383553067 
1998	 0.42648822284483 
1999	 0.426690339245756 
2000	 0.426881894867939 
2001	 0.427080121646363 
2002	 0.427280277658009 
2003	 0.427494344928901 
2004	 0.427686317811 
2005	 0.427900378491087 
2006	 0.42814507113222 
2007	 0.428368236271482 
2008	 0.428567615456106 
2009	 0.428802070509973 
2010	 0.429062608504845 
2011	 0.429301487285625 
2012	 0.429551714724294 
2013	 0.429794351408951 
2014	 0.430021725705449 
2015	 0.430235300809854 
2016	 0.430469794587815 
2017	 0.430732897514566 
2018	 0.430993548028191 
2019	 0.431260912636833 
2020	 0.431537853735377 
2021	 0.431848039878215 
2022	 0.432114959763482 
2023	 0.432390266641035 
2024	 0.432626170793343 
2025	 0.432805443128271 
2026	 0.433002768551889 
2027	 0.433201650603595 
2028	 0.433366591265807 
2029	 0.433547388695134 
2030	 0.433730741772354 
2031	 0.433917094110446 
2032	 0.434096504999598 
2033	 0.434291375486341 
2034	 0.434497717330117 
2035	 0.434705643646045 
2036	 0.434938172338412 
2037	 0.435136717244646 
2038	 0.435341902454636 
2039	 0.435509224608654 
2040	 0.435639126736113 
2041	 0.435757368229845 
2042	 0.435844390073599 
2043	 0.435961703190004 
2044	 0.436081506622488 
2045	 0.436209526774024 
2046	 0.436331831349894 
2047	 0.436474702619054 
2048	 0.436586770874788 
2049	 0.436669663345812 
2050	 0.436772150482354 
2051	 0.436887895321707 
2052	 0.436973451774056 
2053	 0.437046250673505 
2054	 0.437127623604511 
2055	 0.437192138473487 
2056	 0.437248370714588 
2057	 0.437313439499612 
2058	 0.437394004420601 
2059	 0.437463711993068 
2060	 0.437529449959244 
2061	 0.437583701531201 
2062	 0.437622542871509 
2063	 0.437687597846431 
2064	 0.437738199115313 
2065	 0.437820020774823 
2066	 0.437961323636385 
2067	 0.43806240217658 
2068	 0.438179572254883 
2069	 0.438248455420293 
2070	 0.438309080753702 
2071	 0.438339320172324 
2072	 0.438380149097554 
2073	 0.438400571314759 
2074	 0.43844407958874 
2075	 0.438483594669327 
2076	 0.438546484990556 
2077	 0.438637260282235 
2078	 0.438711634910912 
2079	 0.438805510591309 
2080	 0.438876102622996 
2081	 0.438936368878972 
2082	 0.43898169386584 
2083	 0.439018945522564 
2084	 0.439033374905351 
2085	 0.439044013542173 
2086	 0.439034386463877 
2087	 0.439034794551223 
2088	 0.439027020278293 
2089	 0.439029492692533 
2090	 0.439037956301167 
2091	 0.439042373327458 
2092	 0.439045602064249 
2093	 0.439054264602785 
2094	 0.439061650199657 
2095	 0.439073365332185 
2096	 0.439111692949255 
2097	 0.439119137570823 
2098	 0.439106916132403 
2099	 0.439100363703482 
2100	 0.439078237717964 
2101	 0.43901769639118 
2102	 0.439005302506595 
2103	 0.439001881501177 
2104	 0.43901930256425 
2105	 0.439061706639193 
2106	 0.439110392652058 
2107	 0.439174698712209 
2108	 0.439243365702946 
2109	 0.439325951653311 
2110	 0.439413387018798 
2111	 0.439521558385304 
2112	 0.439609551904501 
2113	 0.439694007929406 
2114	 0.439781621494138 
2115	 0.439847944851687 
2116	 0.439880996644537 
2117	 0.439961617478394 
2118	 0.440044382958693 
2119	 0.440149502028601 
2120	 0.440293861293622 
2121	 0.440418627777641 
2122	 0.440566478552697 
2123	 0.440671732223933 
2124	 0.440755746464554 
2125	 0.440839014047959 
2126	 0.440904836036576 
2127	 0.440953918923249 
2128	 0.441006946760387 
2129	 0.441032520568151 
2130	 0.441023671305479 
2131	 0.441009967877568 
2132	 0.440973135438361 
2133	 0.440939418518989 
2134	 0.440833821030981 
2135	 0.440681878326499 
2136	 0.440516145798734 
2137	 0.440301641735167 
2138	 0.440077202019428 
2139	 0.439835845681178 
2140	 0.439577837306526 
2141	 0.439296393303586 
2142	 0.438990010441266 
2143	 0.438652552174363 
2144	 0.438322252674471 
2145	 0.437980472770327 
2146	 0.437618169562667 
2147	 0.43725443781629 
2148	 0.436887711971386 
2149	 0.436468446376077 
2150	 0.43599410198342 
2151	 0.435543618349283 
2152	 0.4350840835935 
2153	 0.434597237235574 
2154	 0.434102217877924 
2155	 0.433597284578464 
2156	 0.433047695779372 
2157	 0.432526136089246 
2158	 0.432052808631784 
2159	 0.431507688994624 
2160	 0.43093056555562 
2161	 0.430341751611685 
2162	 0.429676059546057 
2163	 0.42905532983272 
2164	 0.428453016726771 
2165	 0.427869001755754 
2166	 0.427244443100754 
2167	 0.426613901109723 
2168	 0.425993626744681 
2169	 0.425348146901457 
2170	 0.424718579818936 
2171	 0.424148314388802 
2172	 0.423480943188109 
2173	 0.422757043852409 
2174	 0.422039041323064 
2175	 0.421275419665263 
2176	 0.420518311416301 
2177	 0.419761976381381 
2178	 0.41899517131292 
2179	 0.418203232061822 
2180	 0.417418649284073 
2181	 0.416640386654227 
2182	 0.415853519067893 
2183	 0.415070839183236 
2184	 0.414265289047797 
2185	 0.413452029923536 
2186	 0.412621750262462 
2187	 0.411795077249701 
2188	 0.410949778960763 
2189	 0.410125084435922 
2190	 0.409285320001995 
2191	 0.408501195347087 
2192	 0.407734780616336 
2193	 0.407003607006291 
2194	 0.406320692502295 
2195	 0.405647361524718 
2196	 0.404989657885689 
2197	 0.404364719496894 
2198	 0.403749975933878 
2199	 0.403192155901131 
2200	 0.402680888094345 
2201	 0.40219659419712 
2202	 0.401758385500547 
2203	 0.401359412891453 
2204	 0.400970475857387 
2205	 0.400593556795457 
2206	 0.400274496378105 
2207	 0.399964110027183 
2208	 0.399760869157202 
2209	 0.399619070700659 
2210	 0.399559633979289 
2211	 0.399631448931675 
2212	 0.39966194101258 
2213	 0.399769427748939 
2214	 0.399823174026896 
2215	 0.399855877138558 
2216	 0.399891239206168 
2217	 0.399948515071035 
2218	 0.399943710225267 
2219	 0.399910997877612 
2220	 0.399854123511325 
2221	 0.399734410098736 
2222	 0.399623766635303 
2223	 0.399515319404453 
2224	 0.399373586047001 
2225	 0.399206404537072 
2226	 0.399028778151079 
2227	 0.398787846738347 
2228	 0.398504334979667 
2229	 0.398192536372886 
2230	 0.397821186575845 
2231	 0.397454757456144 
2232	 0.397076792953341 
2233	 0.396666043454071 
2234	 0.396233694693321 
2235	 0.395774090401984 
2236	 0.395280420090044 
2237	 0.394762937905035 
2238	 0.394235428874683 
2239	 0.393657651111832 
2240	 0.393058796152377 
2241	 0.39239994032011 
2242	 0.391709009416518 
2243	 0.390939081877233 
2244	 0.390098464390992 
2245	 0.389193956090648 
2246	 0.388267606095259 
2247	 0.387260487064506 
2248	 0.386262599702758 
2249	 0.385244829087922 
2250	 0.384204226307152 
2251	 0.383104130762238 
2252	 0.382082146966918 
2253	 0.381075337509559 
2254	 0.380066868416026 
2255	 0.379069821226816 
2256	 0.37812037741497 
2257	 0.377104568595591 
2258	 0.37628590162991 
2259	 0.37557380167259 
2260	 0.374950314826372 
2261	 0.374424865017952 
2262	 0.374030729098558 
2263	 0.37374645980462 
2264	 0.373567925140354 
2265	 0.373556499473575 
2266	 0.373592194446397 
2267	 0.373718023226179 
2268	 0.373911659936513 
2269	 0.37416697122193 
2270	 0.37452824523524 
2271	 0.374976715954514 
2272	 0.375515257178127 
2273	 0.376160045681188 
2274	 0.376888058739211 
2275	 0.377627269159514 
2276	 0.378422171270766 
2277	 0.379243630150309 
2278	 0.380103659437928 
2279	 0.380990601709773 
2280	 0.381942076994499 
2281	 0.382875724874421 
2282	 0.383828175859755 
2283	 0.384771445986231 
2284	 0.385750074222268 
2285	 0.386666774318554 
2286	 0.387588086550939 
2287	 0.388435504328475 
2288	 0.38920259380574 
2289	 0.38995636007441 
2290	 0.390664249051997 
2291	 0.391361288420641 
2292	 0.392036578491785 
2293	 0.39269007350708 
2294	 0.393321532223197 
2295	 0.393920369114917 
2296	 0.394463364094952 
2297	 0.395040110900598 
2298	 0.395592960389635 
2299	 0.396131160688571 
2300	 0.396681373006919 
2301	 0.397178573460272 
2302	 0.397702826058887 
2303	 0.398222931074118 
2304	 0.398696846924997 
2305	 0.399252667863752 
2306	 0.39973403500907 
2307	 0.400152523816112 
2308	 0.400604192741521 
2309	 0.401086159310712 
2310	 0.401484618116013 
2311	 0.40185389902163 
2312	 0.402210967792384 
2313	 0.402487782932045 
2314	 0.402793761737838 
2315	 0.403127915985246 
2316	 0.403433611799618 
2317	 0.403714068908189 
2318	 0.403993298590275 
2319	 0.404286282068505 
2320	 0.404522587423931 
2321	 0.404727593160379 
2322	 0.404912261990847 
2323	 0.405039152724328 
2324	 0.405183078705088 
2325	 0.405344580886098 
2326	 0.405456998001895 
2327	 0.40555500252798 
2328	 0.405603380137491 
2329	 0.405620519229835 
2330	 0.405671567515643 
2331	 0.405764785836208 
2332	 0.405789417661475 
2333	 0.405800667804001 
2334	 0.405827206638087 
2335	 0.405809532629887 
2336	 0.405818838121467 
2337	 0.405809566473248 
2338	 0.405717768775204 
2339	 0.405598943336784 
2340	 0.405453051789581 
2341	 0.40529254003198 
2342	 0.405096066183829 
2343	 0.404837216942037 
2344	 0.404591137381072 
2345	 0.404343240443509 
2346	 0.404080839879681 
2347	 0.403787192559148 
2348	 0.40348879333268 
2349	 0.403182430670219 
2350	 0.402864307859529 
2351	 0.402496663902827 
2352	 0.402112604042544 
2353	 0.401681933349076 
2354	 0.401102722155108 
2355	 0.400700464117717 
2356	 0.400423240518722 
2357	 0.400058728021392 
2358	 0.399705083962684 
2359	 0.399386221454926 
2360	 0.399067588656586 
2361	 0.398684068803267 
2362	 0.398374061846332 
2363	 0.39795876330507 
2364	 0.397354402280349 
2365	 0.396837838017557 
2366	 0.396374381013011 
2367	 0.395848555362365 
2368	 0.395310578898939 
2369	 0.394750696148425 
2370	 0.394169180502851 
2371	 0.393521432623276 
2372	 0.392851030635429 
2373	 0.392144618261611 
2374	 0.39149164036299 
2375	 0.39087973643103 
2376	 0.390255989351112 
2377	 0.389635829459413 
2378	 0.38899220685464 
2379	 0.388217017985726 
2380	 0.387316040478139 
2381	 0.386468629242686 
2382	 0.385571611386259 
2383	 0.38465613303628 
2384	 0.383840178285061 
2385	 0.383096109866374 
2386	 0.382423890582603 
2387	 0.381701446881934 
2388	 0.381041031799425 
2389	 0.380376319178685 
2390	 0.379522896299104 
2391	 0.37868618998618 
2392	 0.377915470117332 
2393	 0.377120214325151 
2394	 0.376395723278245 
2395	 0.375712224498602 
2396	 0.374918111260484 
2397	 0.374071399118569 
2398	 0.373246133402693 
2399	 0.372424605821279 
2400	 0.37169466625108 
2401	 0.371011374477455 
2402	 0.370263453277085 
2403	 0.369557339151403 
2404	 0.368874646295415 
2405	 0.368194473606908 
2406	 0.367527763698999 
2407	 0.366857716366551 
2408	 0.366198616459152 
2409	 0.365489417123044 
2410	 0.364793166083047 
2411	 0.364169653210065 
2412	 0.363494506847798 
2413	 0.362812363358095 
2414	 0.362248161052009 
2415	 0.361609401362174 
2416	 0.360966076682384 
2417	 0.36033894662486 
2418	 0.359709869178503 
2419	 0.359018203057147 
2420	 0.358410806372059 
2421	 0.357873587394069 
2422	 0.35729306424265 
2423	 0.356727388985639 
2424	 0.356177929791204 
2425	 0.355590646653372 
2426	 0.355040203953461 
2427	 0.354570464447515 
2428	 0.354015109711376 
2429	 0.353390348683135 
2430	 0.352858080282475 
2431	 0.352345396880345 
2432	 0.351838119817924 
2433	 0.351423181794573 
2434	 0.350963808333316 
2435	 0.350484771147821 
2436	 0.349887866771423 
2437	 0.349171082338784 
2438	 0.348548644778579 
2439	 0.347889714410909 
2440	 0.347322892310062 
2441	 0.346933172411869 
2442	 0.346411633486456 
2443	 0.345838213088219 
2444	 0.345203930931153 
2445	 0.344429961763661 
2446	 0.343867816654742 
2447	 0.34341588686589 
2448	 0.342834424043234 
2449	 0.34232062790278 
2450	 0.341761998428772 
2451	 0.341031231344104 
2452	 0.340454316447694 
2453	 0.339999171471486 
2454	 0.339473703301687 
2455	 0.338971273254971 
2456	 0.338379317926457 
2457	 0.337688791724921 
2458	 0.337181931863179 
2459	 0.336743085837081 
2460	 0.336267951431188 
2461	 0.335852595868707 
2462	 0.3354405034494 
2463	 0.33495310789179 
2464	 0.334504802582829 
2465	 0.334256652582002 
2466	 0.333849156009593 
2467	 0.333212959809025 
2468	 0.332863371531718 
2469	 0.332637022355847 
2470	 0.332415288307329 
2471	 0.332267671739251 
2472	 0.331936592821419 
2473	 0.33146370677884 
2474	 0.33112728325651 
2475	 0.330801065281701 
2476	 0.33055232697537 
2477	 0.330331836867319 
2478	 0.329895621610711 
2479	 0.329406169820463 
2480	 0.328953235661599 
2481	 0.328472589752535 
2482	 0.328080837917716 
2483	 0.327622970453916 
2484	 0.326899145430108 
2485	 0.326371463393081 
2486	 0.326008973244755 
2487	 0.325475054080139 
2488	 0.325198351620473 
2489	 0.324853181517496 
2490	 0.324186510601397 
2491	 0.323714311920687 
2492	 0.323207061062008 
2493	 0.322518067681718 
2494	 0.321914217417981 
2495	 0.321485654957865 
2496	 0.321081136965631 
2497	 0.320511969836526 
2498	 0.319979042390002 
2499	 0.319223923347758 
2500	 0.318218924192774 
