Wavelength	LMW7 profile 200008.asd
350	 6.35641819176082E-02 
351	 6.59153210326487E-02 
352	 6.14453657679785E-02 
353	 4.98957873881055E-02 
354	 5.86474900955527E-02 
355	 6.91618483503972E-02 
356	 0.070615891023515 
357	 0.061178834704533 
358	 6.49624922596297E-02 
359	 0.064169743582182 
360	 5.88054906400492E-02 
361	 5.99230358484483E-02 
362	 5.88003338655667E-02 
363	 5.86275553440834E-02 
364	 6.12913977894359E-02 
365	 6.48958635611245E-02 
366	 6.26653174494238E-02 
367	 6.06374544181002E-02 
368	 6.47800106862223E-02 
369	 6.64026739873455E-02 
370	 6.52804754037566E-02 
371	 6.27676550286436E-02 
372	 6.12018699185423E-02 
373	 6.21601777707652E-02 
374	 0.064156712006978 
375	 6.59678504502365E-02 
376	 6.78317762368239E-02 
377	 6.63951606783943E-02 
378	 0.065782591272567 
379	 6.96452489837188E-02 
380	 6.99987125543395E-02 
381	 6.78918398814346E-02 
382	 6.74876124665476E-02 
383	 7.37585534381531E-02 
384	 7.44095456670809E-02 
385	 7.32939200518488E-02 
386	 7.39830479211887E-02 
387	 7.48229931108459E-02 
388	 0.076283569108974 
389	 7.78322103871212E-02 
390	 7.90342587633708E-02 
391	 8.13982462966722E-02 
392	 8.31986750969648E-02 
393	 8.42700190999437E-02 
394	 8.59294954136494E-02 
395	 8.98280858145665E-02 
396	 9.25975178775143E-02 
397	 9.28624810767292E-02 
398	 9.53592496733188E-02 
399	 9.72394567363369E-02 
400	 9.93004985265474E-02 
401	 0.102927198819537 
402	 0.105457746126133 
403	 0.107044207614345 
404	 0.108436917497729 
405	 0.110731416325856 
406	 0.115020247832023 
407	 0.118336199126993 
408	 0.119071079233792 
409	 0.121003115305036 
410	 0.122559435987581 
411	 0.123885667678019 
412	 0.125754387445108 
413	 0.127549362862913 
414	 0.128965175049681 
415	 0.12993428309651 
416	 0.130630355671363 
417	 0.1309489836932 
418	 0.131470402578199 
419	 0.132483507075298 
420	 0.132882408915387 
421	 0.13269795350124 
422	 0.1324081078771 
423	 0.132628804030263 
424	 0.132373340929343 
425	 0.13151559523623 
426	 0.130289107808432 
427	 0.129314775222369 
428	 0.128357523462082 
429	 0.127208250079222 
430	 0.125807330990598 
431	 0.124830953844734 
432	 0.12379879342197 
433	 0.122892207917207 
434	 0.122914245504666 
435	 0.122684070792889 
436	 0.122542244604134 
437	 0.122887493302601 
438	 0.12340944141359 
439	 0.1246243630067 
440	 0.126346975474769 
441	 0.128062276035029 
442	 0.129760573556493 
443	 0.13148531165383 
444	 0.133282233174481 
445	 0.135155968189718 
446	 0.137409018549135 
447	 0.139626277230252 
448	 0.14146589533628 
449	 0.143835995863623 
450	 0.146167724098393 
451	 0.148383845056633 
452	 0.150823790173822 
453	 0.152948636810882 
454	 0.155005276957417 
455	 0.157186077675153 
456	 0.159192942533307 
457	 0.161310189300055 
458	 0.163263246907701 
459	 0.164678389134848 
460	 0.16649601910428 
461	 0.16818222546948 
462	 0.169588232543178 
463	 0.171289297087727 
464	 0.172781239541395 
465	 0.174188733318633 
466	 0.175676734446352 
467	 0.176840556798264 
468	 0.178017415010871 
469	 0.179200751464956 
470	 0.180124838529734 
471	 0.181207727674017 
472	 0.182304772508584 
473	 0.183284519804678 
474	 0.184243452909031 
475	 0.185438796491381 
476	 0.186500629692778 
477	 0.186990815832852 
478	 0.188138838030233 
479	 0.189443044399923 
480	 0.190516790010667 
481	 0.191344671461634 
482	 0.192257777786059 
483	 0.19324866077794 
484	 0.19421299563006 
485	 0.195113604941965 
486	 0.195925879188074 
487	 0.196740577499696 
488	 0.197715795098859 
489	 0.198451084589529 
490	 0.199194647348487 
491	 0.200143271845818 
492	 0.201114327441584 
493	 0.201877163912024 
494	 0.202549511127375 
495	 0.203402848778115 
496	 0.204426946688592 
497	 0.205386701501574 
498	 0.206179078069664 
499	 0.206916754182592 
500	 0.207797119437376 
501	 0.208688891313599 
502	 0.209411673810319 
503	 0.21003251189982 
504	 0.210806285200847 
505	 0.211722410053117 
506	 0.212535804360416 
507	 0.213418803004962 
508	 0.214263592995758 
509	 0.214979732379484 
510	 0.215640178460421 
511	 0.216418093139833 
512	 0.217216267010718 
513	 0.217843032045936 
514	 0.218682252719187 
515	 0.219599861489548 
516	 0.220444275115123 
517	 0.22112530782865 
518	 0.221854897703028 
519	 0.222592653894172 
520	 0.22325648940655 
521	 0.22402131291325 
522	 0.224785948711323 
523	 0.225475657372042 
524	 0.226064246534352 
525	 0.226815093120073 
526	 0.227608932564357 
527	 0.228320168681774 
528	 0.229124885268634 
529	 0.229744473901257 
530	 0.230282754346259 
531	 0.231066918331881 
532	 0.231850647063653 
533	 0.232684420437183 
534	 0.23354605501683 
535	 0.234157380244539 
536	 0.234794072449897 
537	 0.235478094887021 
538	 0.236150858711744 
539	 0.236945173035363 
540	 0.237648808238532 
541	 0.238237208525185 
542	 0.238963974524821 
543	 0.239680964766815 
544	 0.240394477189003 
545	 0.241135711415392 
546	 0.241879169128698 
547	 0.242608527138168 
548	 0.243321379442267 
549	 0.24402856622552 
550	 0.244733427732536 
551	 0.245471738709596 
552	 0.246253915128381 
553	 0.247008985218928 
554	 0.247809080570908 
555	 0.2486379553616 
556	 0.249437047878161 
557	 0.250232337484514 
558	 0.251007382619808 
559	 0.251781063032945 
560	 0.252649109753747 
561	 0.25345669190209 
562	 0.254234627082916 
563	 0.255083126527715 
564	 0.256112730788795 
565	 0.257021971538985 
566	 0.257768577095997 
567	 0.258623685335253 
568	 0.25956807282093 
569	 0.260577254912874 
570	 0.261602712651713 
571	 0.26255292553123 
572	 0.263504218647822 
573	 0.264447556870063 
574	 0.265322281783921 
575	 0.266253159484847 
576	 0.267297238349083 
577	 0.268417446025477 
578	 0.269401451989552 
579	 0.270371853352528 
580	 0.271296796851641 
581	 0.272119604775652 
582	 0.27304679239564 
583	 0.274025283405343 
584	 0.275013037054966 
585	 0.276018319603681 
586	 0.277207329816869 
587	 0.278447482651659 
588	 0.279570364715603 
589	 0.280680271239435 
590	 0.281835113378173 
591	 0.283023633079229 
592	 0.284176281876767 
593	 0.285303785548451 
594	 0.286350037686138 
595	 0.287282446633795 
596	 0.288161336894167 
597	 0.288958733838156 
598	 0.28971669772791 
599	 0.290510171797936 
600	 0.291297043817758 
601	 0.292170046071467 
602	 0.293138785447426 
603	 0.294053835854337 
604	 0.294850725770574 
605	 0.295630553033864 
606	 0.296537829780429 
607	 0.297573170370154 
608	 0.298490843046177 
609	 0.299291186334165 
610	 0.300264823667879 
611	 0.301082708945356 
612	 0.301810340991976 
613	 0.30254312981748 
614	 0.303143588092973 
615	 0.303720457082523 
616	 0.30430111450376 
617	 0.304855841001624 
618	 0.305448546768495 
619	 0.305981919632494 
620	 0.30642882686507 
621	 0.306961580904739 
622	 0.307493394898357 
623	 0.307954016078269 
624	 0.308321396956881 
625	 0.308870385286302 
626	 0.309359968113611 
627	 0.309713554615825 
628	 0.310124281035855 
629	 0.310540763273357 
630	 0.310934588085711 
631	 0.311291629930666 
632	 0.311640608621142 
633	 0.311979466257778 
634	 0.312340519205716 
635	 0.312769872413799 
636	 0.313039505309471 
637	 0.313353684603687 
638	 0.313821906678331 
639	 0.314133321447905 
640	 0.314448155738288 
641	 0.314792082908002 
642	 0.315132796797851 
643	 0.315461626803262 
644	 0.3158151383615 
645	 0.316193304721266 
646	 0.316537594125135 
647	 0.316849005654426 
648	 0.317176686922587 
649	 0.317561991805079 
650	 0.317946405170696 
651	 0.318338381384009 
652	 0.318727299822329 
653	 0.319088597348929 
654	 0.319477700420508 
655	 0.319810215609526 
656	 0.320067924862891 
657	 0.32044940667958 
658	 0.320935368159623 
659	 0.321423323691676 
660	 0.321792337813247 
661	 0.322167628923386 
662	 0.32260876392126 
663	 0.323091393562215 
664	 0.323479901499412 
665	 0.323891317342331 
666	 0.324369021385822 
667	 0.324878147535009 
668	 0.325134254350118 
669	 0.325551226805119 
670	 0.326142370782206 
671	 0.32658302558635 
672	 0.326999780068441 
673	 0.327469887488184 
674	 0.328000412479683 
675	 0.328441905060899 
676	 0.328937251838821 
677	 0.329433011090594 
678	 0.329826847531394 
679	 0.330303959795415 
680	 0.330808775507144 
681	 0.331313104475196 
682	 0.331854208478811 
683	 0.33232924858902 
684	 0.33279568822357 
685	 0.333317231802933 
686	 0.333818258063545 
687	 0.334304486065336 
688	 0.334823148383642 
689	 0.335425998636446 
690	 0.335847543064044 
691	 0.33626634520597 
692	 0.336807826094795 
693	 0.337370772455634 
694	 0.337864578890306 
695	 0.338335413285249 
696	 0.338858372679754 
697	 0.339324530230018 
698	 0.33981492197664 
699	 0.340363725889533 
700	 0.340939433682547 
701	 0.341377814947509 
702	 0.341768584666637 
703	 0.342216230291316 
704	 0.342708490878068 
705	 0.343133555041076 
706	 0.343529285641781 
707	 0.343995404307086 
708	 0.344417822916906 
709	 0.344847836776398 
710	 0.345277110840427 
711	 0.345584845751211 
712	 0.345978819163688 
713	 0.346412287727354 
714	 0.346782440023263 
715	 0.347060706699524 
716	 0.347379171441461 
717	 0.347756378239088 
718	 0.348117947095623 
719	 0.348394646058111 
720	 0.34861125870332 
721	 0.348798637945972 
722	 0.348954692512593 
723	 0.349239608249979 
724	 0.349530160176846 
725	 0.349664681807879 
726	 0.349837197034764 
727	 0.349984268949067 
728	 0.35006368070741 
729	 0.350073002156252 
730	 0.350182678615411 
731	 0.350289705283358 
732	 0.350310253723049 
733	 0.350339943356549 
734	 0.350275283429674 
735	 0.350160208891955 
736	 0.350084946716022 
737	 0.350016041004102 
738	 0.349899845139079 
739	 0.349747663518461 
740	 0.349638615207013 
741	 0.349434965214963 
742	 0.349211802267862 
743	 0.349021793390988 
744	 0.348722152714634 
745	 0.348449779966201 
746	 0.348189561150605 
747	 0.347864782185947 
748	 0.347514309282594 
749	 0.347209007455472 
750	 0.346903141554808 
751	 0.346414926548437 
752	 0.345949387932553 
753	 0.345536012927869 
754	 0.345141222732778 
755	 0.344677234358565 
756	 0.344207345988232 
757	 0.343753049784846 
758	 0.343298589952458 
759	 0.342737042360742 
760	 0.342077223291305 
761	 0.341413062715052 
762	 0.34091927284759 
763	 0.340409360201033 
764	 0.33980633306839 
765	 0.339125401746309 
766	 0.338567479154784 
767	 0.337948395271447 
768	 0.337241710702337 
769	 0.336517858440118 
770	 0.335892748935565 
771	 0.335327451423212 
772	 0.334734885379236 
773	 0.333999351662044 
774	 0.333358795935103 
775	 0.332738969893431 
776	 0.332045554278148 
777	 0.331323652464898 
778	 0.330659915453346 
779	 0.330028894229304 
780	 0.329355212187447 
781	 0.328632812814151 
782	 0.327935743394857 
783	 0.327277129149655 
784	 0.326600825851821 
785	 0.325890032249715 
786	 0.325230940720235 
787	 0.324634092495318 
788	 0.323868773110481 
789	 0.323162041592241 
790	 0.322514081669573 
791	 0.321845764380446 
792	 0.321146754893231 
793	 0.320504021153014 
794	 0.319875590564755 
795	 0.319123751872697 
796	 0.318409693128533 
797	 0.317759399321085 
798	 0.31714153175284 
799	 0.316461580866287 
800	 0.315819712603212 
801	 0.31523103241266 
802	 0.314648464488799 
803	 0.313882043874313 
804	 0.313265250452327 
805	 0.312758127727724 
806	 0.312110952638698 
807	 0.311532514082183 
808	 0.310882506992108 
809	 0.310157788036622 
810	 0.309569085159646 
811	 0.309057950186257 
812	 0.308553307736216 
813	 0.30800444896185 
814	 0.307436343590152 
815	 0.306811478769746 
816	 0.306191749978899 
817	 0.30565590285303 
818	 0.305131328552288 
819	 0.304625682623987 
820	 0.304126495916923 
821	 0.303604379720089 
822	 0.303076039787871 
823	 0.302544361328936 
824	 0.302017125107102 
825	 0.301511991117415 
826	 0.301083183702519 
827	 0.3006823046549 
828	 0.300246540662543 
829	 0.299773684961392 
830	 0.299222192750938 
831	 0.298656508088351 
832	 0.298182026529741 
833	 0.297807443965757 
834	 0.297424864494916 
835	 0.296991330594564 
836	 0.296545037596727 
837	 0.296208481285852 
838	 0.29591559041967 
839	 0.295580529429869 
840	 0.295146184796558 
841	 0.294650405293942 
842	 0.294177688269886 
843	 0.293803060375824 
844	 0.293543456639772 
845	 0.293243098132043 
846	 0.292914992504853 
847	 0.292631360359523 
848	 0.292287282035449 
849	 0.29189504654951 
850	 0.291517880376665 
851	 0.291232347926644 
852	 0.290843292252108 
853	 0.290526404377943 
854	 0.290329602029104 
855	 0.290046476005608 
856	 0.289877217907713 
857	 0.289664722514801 
858	 0.289312515396269 
859	 0.289087692311722 
860	 0.288845621640522 
861	 0.288603642384367 
862	 0.288413460172923 
863	 0.288232627202473 
864	 0.288017192036995 
865	 0.287806813445837 
866	 0.287667642446265 
867	 0.287459543896782 
868	 0.287291751109892 
869	 0.287160160380695 
870	 0.286930307616816 
871	 0.28658443411848 
872	 0.286368002340627 
873	 0.286375019865756 
874	 0.286392501017581 
875	 0.286290106549006 
876	 0.286120542703048 
877	 0.285960166022431 
878	 0.285777551300126 
879	 0.28576724964895 
880	 0.285768017442977 
881	 0.285596706562523 
882	 0.285544737997575 
883	 0.285492308813323 
884	 0.285379448402553 
885	 0.285220830208577 
886	 0.285207144862681 
887	 0.285296983710234 
888	 0.285340994989722 
889	 0.285169217731768 
890	 0.285128820411674 
891	 0.28512111720615 
892	 0.285100006139246 
893	 0.285152197771225 
894	 0.28517916813509 
895	 0.285176117982312 
896	 0.285186023591768 
897	 0.285299159695313 
898	 0.285366427414342 
899	 0.285362226977919 
900	 0.285327129866506 
901	 0.285364869427911 
902	 0.285509869418679 
903	 0.285698366316609 
904	 0.285834635164213 
905	 0.285859861507503 
906	 0.285922975637951 
907	 0.286003127157955 
908	 0.28604342380166 
909	 0.286267229708654 
910	 0.286496306285403 
911	 0.286674316341705 
912	 0.286835311318785 
913	 0.286924640214792 
914	 0.287019417374867 
915	 0.287170991074201 
916	 0.28737885170155 
917	 0.287487522810306 
918	 0.287732897736393 
919	 0.288124896216856 
920	 0.288372855849913 
921	 0.288537398293487 
922	 0.288655557581387 
923	 0.288800207624947 
924	 0.289081051413411 
925	 0.289397116951985 
926	 0.289773182460638 
927	 0.290143730748039 
928	 0.290242803033231 
929	 0.29057407104634 
930	 0.290956200041053 
931	 0.291198047362774 
932	 0.291517820827293 
933	 0.291752892633623 
934	 0.291999639294491 
935	 0.292355612385787 
936	 0.292703656723291 
937	 0.293059464909454 
938	 0.29338408458308 
939	 0.293671714068501 
940	 0.294070494124135 
941	 0.294503375781685 
942	 0.29496319700096 
943	 0.295435376740385 
944	 0.295761576633927 
945	 0.296155133532011 
946	 0.296643609811049 
947	 0.297140907773199 
948	 0.297524426715964 
949	 0.297918533933271 
950	 0.29831717715457 
951	 0.298696762045633 
952	 0.299316326029012 
953	 0.299932509596763 
954	 0.300377048278814 
955	 0.300652155679078 
956	 0.301258678002059 
957	 0.301746198172203 
958	 0.302164709329901 
959	 0.302809947625746 
960	 0.303315622410899 
961	 0.303802090264599 
962	 0.304322918877898 
963	 0.304865616455058 
964	 0.305433969502733 
965	 0.305966525316797 
966	 0.306482362674658 
967	 0.307052198085824 
968	 0.307679024813388 
969	 0.308288986127314 
970	 0.30883386529047 
971	 0.309332766650997 
972	 0.310032520066682 
973	 0.310781371536104 
974	 0.311484605704383 
975	 0.312120078509971 
976	 0.312678645362824 
977	 0.313339124712669 
978	 0.314088338231935 
979	 0.314768524248569 
980	 0.315247656439001 
981	 0.315768634858972 
982	 0.316427707793856 
983	 0.317173872510973 
984	 0.31784098684173 
985	 0.318644254142886 
986	 0.31938076059277 
987	 0.31977023725683 
988	 0.320411360449106 
989	 0.321059594236103 
990	 0.321750220729178 
991	 0.322602522448535 
992	 0.323379931651122 
993	 0.324037089705136 
994	 0.324736809159804 
995	 0.325587270459595 
996	 0.326105617599398 
997	 0.326668427448169 
998	 0.327324446936208 
999	 0.328017491932537 
1000	 0.328863697606974 
1001	 0.33224929166568 
1002	 0.332879058486455 
1003	 0.333599768734159 
1004	 0.334293087711887 
1005	 0.335006218484418 
1006	 0.335694790301271 
1007	 0.336378465184164 
1008	 0.337012504233562 
1009	 0.3377440726739 
1010	 0.338433167095198 
1011	 0.339052485558768 
1012	 0.339736349072962 
1013	 0.340363749262989 
1014	 0.340947246614925 
1015	 0.341622037191693 
1016	 0.342304699950124 
1017	 0.342941464499542 
1018	 0.343538393913188 
1019	 0.344151582523776 
1020	 0.344795468688681 
1021	 0.34545419231294 
1022	 0.346136339322288 
1023	 0.346779882024643 
1024	 0.347355388463825 
1025	 0.347893505352856 
1026	 0.34839448817395 
1027	 0.349006856512698 
1028	 0.349713548145505 
1029	 0.350336434689176 
1030	 0.350975034187842 
1031	 0.351586101762137 
1032	 0.352162560322505 
1033	 0.352644309128427 
1034	 0.353216024391706 
1035	 0.353810187639471 
1036	 0.354346277848955 
1037	 0.354910881291537 
1038	 0.355457975973922 
1039	 0.355940363882 
1040	 0.356453298617115 
1041	 0.356965032377526 
1042	 0.35750572389012 
1043	 0.358151432488134 
1044	 0.358723017912377 
1045	 0.359297495354515 
1046	 0.359834157065231 
1047	 0.360344568853281 
1048	 0.36080740062893 
1049	 0.361301081733354 
1050	 0.361811885195068 
1051	 0.362354785297657 
1052	 0.362861650051259 
1053	 0.363390184694675 
1054	 0.364008359283463 
1055	 0.364573210525638 
1056	 0.365110062622139 
1057	 0.365640035769442 
1058	 0.366090629765816 
1059	 0.366643736028522 
1060	 0.367244861646414 
1061	 0.367833744166433 
1062	 0.368446485559132 
1063	 0.369073211091588 
1064	 0.369632420581791 
1065	 0.370203544354585 
1066	 0.370810411358848 
1067	 0.371378088976459 
1068	 0.371934815737321 
1069	 0.372495724671038 
1070	 0.373021087793068 
1071	 0.373495886698555 
1072	 0.374036690099474 
1073	 0.37459149989448 
1074	 0.375116197277334 
1075	 0.375677814287383 
1076	 0.376178607579801 
1077	 0.37665038199356 
1078	 0.377160075959814 
1079	 0.377671371502417 
1080	 0.378230998115691 
1081	 0.378781944383571 
1082	 0.379291909738769 
1083	 0.379797278922991 
1084	 0.38029935154701 
1085	 0.380790245715797 
1086	 0.381237118989738 
1087	 0.381712736261594 
1088	 0.382199179629527 
1089	 0.382682497204831 
1090	 0.383172349024128 
1091	 0.383695606984634 
1092	 0.384143463123557 
1093	 0.384556720833259 
1094	 0.384996078010663 
1095	 0.385418348913975 
1096	 0.385849367153535 
1097	 0.386322614139602 
1098	 0.386774877443852 
1099	 0.387206013075375 
1100	 0.387648930778253 
1101	 0.388118549959126 
1102	 0.38854295066785 
1103	 0.38894869294539 
1104	 0.389344353136557 
1105	 0.389722979565715 
1106	 0.39014089654423 
1107	 0.390552166902067 
1108	 0.390976648165525 
1109	 0.391405503294572 
1110	 0.39182880369431 
1111	 0.392265913361568 
1112	 0.392743393823936 
1113	 0.393155448477123 
1114	 0.393528979862993 
1115	 0.393932177783438 
1116	 0.394312989810969 
1117	 0.394710359921738 
1118	 0.395138345531892 
1119	 0.395553347742654 
1120	 0.395952873927101 
1121	 0.396337185663737 
1122	 0.396747585310401 
1123	 0.397189108549434 
1124	 0.397608456525632 
1125	 0.398041245368628 
1126	 0.398455352603795 
1127	 0.398848509006362 
1128	 0.399246013882701 
1129	 0.399636746360866 
1130	 0.400038973036777 
1131	 0.400443338885006 
1132	 0.400847012688829 
1133	 0.401273129280399 
1134	 0.40167066164861 
1135	 0.402048196013731 
1136	 0.402428256003914 
1137	 0.402789611590428 
1138	 0.403146081502256 
1139	 0.403525338566495 
1140	 0.403914819042035 
1141	 0.404297579476732 
1142	 0.404699188137088 
1143	 0.405084916662914 
1144	 0.405456866766177 
1145	 0.405833711642348 
1146	 0.406209235644412 
1147	 0.406579022209817 
1148	 0.40693360295102 
1149	 0.407309708833657 
1150	 0.407690951079862 
1151	 0.40809233028703 
1152	 0.408477827870733 
1153	 0.408843815170085 
1154	 0.409221533759962 
1155	 0.409594318475195 
1156	 0.409954096678055 
1157	 0.410323465560543 
1158	 0.410675039950093 
1159	 0.410992963365591 
1160	 0.411326089466511 
1161	 0.411650703595736 
1162	 0.412001615126031 
1163	 0.412365460145881 
1164	 0.412733813213574 
1165	 0.413123054662614 
1166	 0.413516371803867 
1167	 0.413900536416805 
1168	 0.414263656436081 
1169	 0.414618401362024 
1170	 0.414963417254314 
1171	 0.415300105926031 
1172	 0.415611166770421 
1173	 0.415948685994693 
1174	 0.4162894168346 
1175	 0.416636047682109 
1176	 0.417003441891039 
1177	 0.417356003643699 
1178	 0.41770376003085 
1179	 0.418050814716195 
1180	 0.418390303148894 
1181	 0.418735435456678 
1182	 0.419082066976903 
1183	 0.419428018997191 
1184	 0.4197851353751 
1185	 0.420153052476464 
1186	 0.420513027059224 
1187	 0.420877948715037 
1188	 0.421236871900312 
1189	 0.421598048094239 
1190	 0.421941886749123 
1191	 0.42228381932591 
1192	 0.422612515610034 
1193	 0.42292419964263 
1194	 0.423231773630877 
1195	 0.423517629858704 
1196	 0.423823382074668 
1197	 0.424125410915733 
1198	 0.424437311979587 
1199	 0.424759122683314 
1200	 0.425105839191657 
1201	 0.425425357364948 
1202	 0.425742516031128 
1203	 0.426053653694389 
1204	 0.426350708472246 
1205	 0.426656051337019 
1206	 0.426967633251552 
1207	 0.427266883756272 
1208	 0.427566657384831 
1209	 0.427854830745645 
1210	 0.428123957892148 
1211	 0.428403612507164 
1212	 0.428688995060899 
1213	 0.42896270436601 
1214	 0.4292365125797 
1215	 0.429504912809409 
1216	 0.429766592020816 
1217	 0.430011507919079 
1218	 0.430271962267268 
1219	 0.430529337050489 
1220	 0.430804830402623 
1221	 0.431102268869783 
1222	 0.431375616046472 
1223	 0.43165938477802 
1224	 0.43192059029128 
1225	 0.432146765126963 
1226	 0.432395660205369 
1227	 0.432657769287692 
1228	 0.432901801913609 
1229	 0.433149253712044 
1230	 0.433385801536763 
1231	 0.433600187236802 
1232	 0.433817205615409 
1233	 0.434032293237711 
1234	 0.434243473655221 
1235	 0.434462577522926 
1236	 0.434678246399535 
1237	 0.434908256355 
1238	 0.435158641927356 
1239	 0.435387256391063 
1240	 0.435616828557326 
1241	 0.435837497108136 
1242	 0.436037007855014 
1243	 0.436251370087983 
1244	 0.43647431511771 
1245	 0.436690075136228 
1246	 0.436904805562991 
1247	 0.437121727761838 
1248	 0.437335466043869 
1249	 0.437548954161523 
1250	 0.437780042238737 
1251	 0.438001462110055 
1252	 0.438202518747612 
1253	 0.43838984141469 
1254	 0.438581881583814 
1255	 0.438752527109709 
1256	 0.438942084468301 
1257	 0.439143525511712 
1258	 0.439343643883359 
1259	 0.439551599018149 
1260	 0.439748417567082 
1261	 0.439953391555977 
1262	 0.440139135710216 
1263	 0.440309278649442 
1264	 0.440474836799155 
1265	 0.440632613312799 
1266	 0.440781198585162 
1267	 0.440915665098737 
1268	 0.441051967854549 
1269	 0.441184159273263 
1270	 0.441297070961534 
1271	 0.441442794367733 
1272	 0.441609871520027 
1273	 0.441754629824428 
1274	 0.441899425753887 
1275	 0.442055216344964 
1276	 0.442195041154684 
1277	 0.442357609478634 
1278	 0.442546808921703 
1279	 0.442731009287274 
1280	 0.44290843651177 
1281	 0.443104183571696 
1282	 0.443316874289727 
1283	 0.443531185962216 
1284	 0.443757230352616 
1285	 0.443984698928598 
1286	 0.444219770813873 
1287	 0.444450580052835 
1288	 0.444671768950462 
1289	 0.444890110279677 
1290	 0.445110155802317 
1291	 0.445311025014196 
1292	 0.445543768681703 
1293	 0.445804882646757 
1294	 0.446036950246055 
1295	 0.446263972900632 
1296	 0.446497441167257 
1297	 0.446716409891649 
1298	 0.446948833750557 
1299	 0.447214379568698 
1300	 0.447448190691481 
1301	 0.447670514616233 
1302	 0.447875796559062 
1303	 0.448064980934018 
1304	 0.448237924031902 
1305	 0.448396253570709 
1306	 0.448552170639794 
1307	 0.448694865784615 
1308	 0.448830560617262 
1309	 0.448969725672993 
1310	 0.449110722219845 
1311	 0.449235998383863 
1312	 0.449364313193976 
1313	 0.449469273639019 
1314	 0.449550721391532 
1315	 0.449635396888805 
1316	 0.449694552335569 
1317	 0.449777727169515 
1318	 0.449878627260358 
1319	 0.449962183813385 
1320	 0.450057740554596 
1321	 0.450135719915785 
1322	 0.450198776873266 
1323	 0.450247850020099 
1324	 0.450288804871596 
1325	 0.450336577213775 
1326	 0.450380869925393 
1327	 0.450420770059504 
1328	 0.450463011300609 
1329	 0.45047789839897 
1330	 0.450494523216287 
1331	 0.45048274694984 
1332	 0.450512916486308 
1333	 0.450571694530438 
1334	 0.450598606467916 
1335	 0.450634635524145 
1336	 0.450657021953141 
1337	 0.450637954235551 
1338	 0.450653798785362 
1339	 0.450689656534735 
1340	 0.450717753141971 
1341	 0.450765889060369 
1342	 0.45079037009156 
1343	 0.450802437447416 
1344	 0.450818270404774 
1345	 0.450811525564364 
1346	 0.450777620312812 
1347	 0.450741537367286 
1348	 0.450702930502778 
1349	 0.450631980868132 
1350	 0.450539340002959 
1351	 0.450451722479505 
1352	 0.450329581958555 
1353	 0.450248860227983 
1354	 0.450194760599943 
1355	 0.450128356482767 
1356	 0.45007273205885 
1357	 0.450008346226203 
1358	 0.449920874707625 
1359	 0.449868568935209 
1360	 0.449819904688689 
1361	 0.449798618773752 
1362	 0.449811927875833 
1363	 0.449817714080182 
1364	 0.449847483746722 
1365	 0.449868054579259 
1366	 0.449884412952793 
1367	 0.449902507480169 
1368	 0.449932621438301 
1369	 0.449933488653934 
1370	 0.44993109873041 
1371	 0.449928913711172 
1372	 0.449894113876628 
1373	 0.44983777336773 
1374	 0.449766622781995 
1375	 0.449681894411185 
1376	 0.44956555516065 
1377	 0.449441474440504 
1378	 0.449266144434969 
1379	 0.449016894093256 
1380	 0.448818130364971 
1381	 0.448584481803835 
1382	 0.448399217792624 
1383	 0.448272060840437 
1384	 0.4481206420338 
1385	 0.448013449957975 
1386	 0.447839864345923 
1387	 0.447649287107701 
1388	 0.447413667305974 
1389	 0.447143208293576 
1390	 0.446808618489971 
1391	 0.446455951639379 
1392	 0.446061861319634 
1393	 0.445595174341703 
1394	 0.445125773136527 
1395	 0.444627947170596 
1396	 0.444137760968888 
1397	 0.443666413811252 
1398	 0.443208764600603 
1399	 0.44274767404304 
1400	 0.442289965828667 
1401	 0.441844208414547 
1402	 0.441403607041546 
1403	 0.440974380167062 
1404	 0.440546496330944 
1405	 0.440147924673113 
1406	 0.439770800543983 
1407	 0.439396057006934 
1408	 0.439015545898967 
1409	 0.438693438052421 
1410	 0.438344292358359 
1411	 0.438113782314043 
1412	 0.437947658018075 
1413	 0.437866776165073 
1414	 0.437905654782258 
1415	 0.438008720210631 
1416	 0.438207971854901 
1417	 0.438469760775281 
1418	 0.438739066563597 
1419	 0.439022523364591 
1420	 0.439289512783972 
1421	 0.43951911948787 
1422	 0.439701174790119 
1423	 0.439850476981915 
1424	 0.43994825839781 
1425	 0.439994621702203 
1426	 0.440005101999145 
1427	 0.439960321009751 
1428	 0.439914316667489 
1429	 0.439831294805189 
1430	 0.439742784121613 
1431	 0.439650245334639 
1432	 0.439526550920794 
1433	 0.439356571395446 
1434	 0.439215741374633 
1435	 0.439064351697652 
1436	 0.438921900791778 
1437	 0.438798634805946 
1438	 0.438669743565014 
1439	 0.4385430631454 
1440	 0.438409901606238 
1441	 0.438263018111254 
1442	 0.438100551457333 
1443	 0.437899603449539 
1444	 0.43767748621124 
1445	 0.437471915019502 
1446	 0.437259659303417 
1447	 0.437056799326904 
1448	 0.436843184291166 
1449	 0.436590526223344 
1450	 0.436313199757114 
1451	 0.435996733714771 
1452	 0.435628385559904 
1453	 0.435277796156576 
1454	 0.434905823149673 
1455	 0.434522377442197 
1456	 0.434147363086447 
1457	 0.433731478571991 
1458	 0.433273756744434 
1459	 0.432827824027793 
1460	 0.43235111187189 
1461	 0.431903861327289 
1462	 0.431451091630035 
1463	 0.431038045286327 
1464	 0.430644228613753 
1465	 0.430273116648068 
1466	 0.429923116364004 
1467	 0.429608869084522 
1468	 0.429321384780666 
1469	 0.429062729761461 
1470	 0.428834241904009 
1471	 0.428633268150071 
1472	 0.428467536995262 
1473	 0.428365195353881 
1474	 0.42834330497559 
1475	 0.428392815065264 
1476	 0.428499966529367 
1477	 0.428655092206464 
1478	 0.428877404253545 
1479	 0.429133155684622 
1480	 0.42943221598304 
1481	 0.429762129913108 
1482	 0.430058037853298 
1483	 0.430340641474821 
1484	 0.430651302494521 
1485	 0.430958642382101 
1486	 0.431282893367235 
1487	 0.431660631923491 
1488	 0.431968327588228 
1489	 0.432263382619196 
1490	 0.432513396535515 
1491	 0.43271439858914 
1492	 0.432911748586283 
1493	 0.433081049871139 
1494	 0.433239973357258 
1495	 0.433388076186995 
1496	 0.433513899307822 
1497	 0.433600693806421 
1498	 0.433706857851369 
1499	 0.433810312611464 
1500	 0.433901434790321 
1501	 0.434003702284547 
1502	 0.434086773218134 
1503	 0.434146432181367 
1504	 0.434205300286683 
1505	 0.434255203505776 
1506	 0.434312589713674 
1507	 0.434361736622485 
1508	 0.434401028225685 
1509	 0.43442593954264 
1510	 0.434435471636946 
1511	 0.434463672315607 
1512	 0.434497417198512 
1513	 0.434552264249471 
1514	 0.434611316136886 
1515	 0.434670088802554 
1516	 0.434731962959853 
1517	 0.434767489443584 
1518	 0.434790268282239 
1519	 0.434822320033799 
1520	 0.434830183693011 
1521	 0.434854916879925 
1522	 0.434898216606241 
1523	 0.434940012588774 
1524	 0.434976473747336 
1525	 0.435025009552894 
1526	 0.435089517238247 
1527	 0.435140636524245 
1528	 0.435195601321649 
1529	 0.435235890994606 
1530	 0.435263422439105 
1531	 0.43529851682059 
1532	 0.43531194550278 
1533	 0.435359992550897 
1534	 0.435442376955545 
1535	 0.435499431510209 
1536	 0.435570830772324 
1537	 0.435619473987326 
1538	 0.435640535508764 
1539	 0.435665617386472 
1540	 0.435674115472318 
1541	 0.435702014443067 
1542	 0.435735796517964 
1543	 0.435772320155273 
1544	 0.435830060782045 
1545	 0.435874319605252 
1546	 0.435905245646878 
1547	 0.435943167805447 
1548	 0.435998418481664 
1549	 0.436045081435683 
1550	 0.436110112266665 
1551	 0.436173737592153 
1552	 0.436229965366152 
1553	 0.436280573310126 
1554	 0.436316603914354 
1555	 0.436371844527895 
1556	 0.436436620626332 
1557	 0.436498661843956 
1558	 0.436565984978293 
1559	 0.436630988458972 
1560	 0.436683527649655 
1561	 0.436713831556811 
1562	 0.436764815031056 
1563	 0.436816630661397 
1564	 0.436873619297014 
1565	 0.436941466454381 
1566	 0.437008191007466 
1567	 0.437082605502278 
1568	 0.437143082871147 
1569	 0.437199076928408 
1570	 0.437248521575882 
1571	 0.437290791916445 
1572	 0.437329893143107 
1573	 0.437361732453266 
1574	 0.437398018404441 
1575	 0.437430085311685 
1576	 0.437460220149816 
1577	 0.437501909931432 
1578	 0.43752338254219 
1579	 0.437523232371117 
1580	 0.437539554770681 
1581	 0.437552764088159 
1582	 0.437570479732521 
1583	 0.437602495320732 
1584	 0.437622101255912 
1585	 0.437617788289583 
1586	 0.437646099642144 
1587	 0.437698350683153 
1588	 0.437735805611802 
1589	 0.437805046084394 
1590	 0.43783261137351 
1591	 0.437798440494674 
1592	 0.437815862649352 
1593	 0.437854814529281 
1594	 0.437874262996883 
1595	 0.437907865793658 
1596	 0.437942870474709 
1597	 0.43796278957499 
1598	 0.437981186785796 
1599	 0.438034220413967 
1600	 0.438045600858023 
1601	 0.437995973302995 
1602	 0.437985405189835 
1603	 0.437971944054252 
1604	 0.437971424559055 
1605	 0.438004322079986 
1606	 0.438030187200789 
1607	 0.438060467996167 
1608	 0.438087185504315 
1609	 0.438098987551596 
1610	 0.438098987122097 
1611	 0.438060328760568 
1612	 0.438022571068082 
1613	 0.437976589372653 
1614	 0.437921203063261 
1615	 0.437911875693413 
1616	 0.437898527666831 
1617	 0.437888953944846 
1618	 0.437918907447325 
1619	 0.43791109358989 
1620	 0.437893789539541 
1621	 0.437892321097265 
1622	 0.437897523237211 
1623	 0.437889321776357 
1624	 0.43788578551752 
1625	 0.437870298140556 
1626	 0.43783903976873 
1627	 0.437819623021444 
1628	 0.437800374857128 
1629	 0.43778453403247 
1630	 0.437766208389192 
1631	 0.437762710090958 
1632	 0.437766072287542 
1633	 0.437778404100384 
1634	 0.437822530733497 
1635	 0.437810850569703 
1636	 0.43778296626949 
1637	 0.43774711589508 
1638	 0.437660069827232 
1639	 0.43762682037744 
1640	 0.437618110836 
1641	 0.437601137024076 
1642	 0.437600471385479 
1643	 0.437590525013129 
1644	 0.437577278239278 
1645	 0.437559409971076 
1646	 0.437538500382133 
1647	 0.437522252976783 
1648	 0.43750185247091 
1649	 0.437485433375947 
1650	 0.437481554111725 
1651	 0.437459927181201 
1652	 0.437439669600238 
1653	 0.437391102979916 
1654	 0.437312781309466 
1655	 0.437257669340918 
1656	 0.437181992130338 
1657	 0.437138788939711 
1658	 0.4371300322686 
1659	 0.437102037867741 
1660	 0.437074456423391 
1661	 0.437050983300857 
1662	 0.437028078419592 
1663	 0.437001984588636 
1664	 0.436981055313906 
1665	 0.436954712915802 
1666	 0.436922012635287 
1667	 0.436888395998388 
1668	 0.436866077495019 
1669	 0.436814580252356 
1670	 0.436732439271513 
1671	 0.436678992298979 
1672	 0.4366242119027 
1673	 0.436568521670986 
1674	 0.436529620572731 
1675	 0.436484060157139 
1676	 0.436413711242573 
1677	 0.436378099942441 
1678	 0.436376378978587 
1679	 0.436350651529204 
1680	 0.436340864498546 
1681	 0.436296738385087 
1682	 0.436214964812762 
1683	 0.436158152146931 
1684	 0.436089653797326 
1685	 0.436040843455427 
1686	 0.436013888725149 
1687	 0.435980348936895 
1688	 0.435947859728468 
1689	 0.435919610178823 
1690	 0.435902618285145 
1691	 0.435871372351092 
1692	 0.435846456160541 
1693	 0.435797060352006 
1694	 0.435717829196752 
1695	 0.435659270439138 
1696	 0.435589439920955 
1697	 0.435541841525086 
1698	 0.435509146127744 
1699	 0.435485628044853 
1700	 0.435497209654975 
1701	 0.435458565204438 
1702	 0.435414442564443 
1703	 0.435349084466267 
1704	 0.435235271252482 
1705	 0.435141725657575 
1706	 0.435045621388843 
1707	 0.434960510967741 
1708	 0.4348693555306 
1709	 0.434800623982582 
1710	 0.43474850339944 
1711	 0.434703849508672 
1712	 0.434683610103239 
1713	 0.434638547524996 
1714	 0.43459795402693 
1715	 0.434537842637224 
1716	 0.434445887437676 
1717	 0.434385949281811 
1718	 0.434342439399686 
1719	 0.434273230636003 
1720	 0.434205910494327 
1721	 0.434136203916496 
1722	 0.434035645848758 
1723	 0.43396454318199 
1724	 0.433937489282281 
1725	 0.433844698871463 
1726	 0.433719609624478 
1727	 0.433613557999295 
1728	 0.433477404000704 
1729	 0.433361664673014 
1730	 0.4332754612798 
1731	 0.433171158497235 
1732	 0.433057949685743 
1733	 0.432931973297119 
1734	 0.432805962059179 
1735	 0.43266262229964 
1736	 0.432492430872387 
1737	 0.432338453729216 
1738	 0.432169282839065 
1739	 0.432046509714588 
1740	 0.43195102639457 
1741	 0.431843566521091 
1742	 0.431771692653308 
1743	 0.431653325124316 
1744	 0.431499308136397 
1745	 0.431369141129229 
1746	 0.4312363681375 
1747	 0.431114282550466 
1748	 0.430994628376934 
1749	 0.430871766466254 
1750	 0.430743798414402 
1751	 0.430612459137934 
1752	 0.43049191148823 
1753	 0.430363426161183 
1754	 0.430195845704396 
1755	 0.430051410689203 
1756	 0.429902540835358 
1757	 0.429752485454205 
1758	 0.429637665501987 
1759	 0.429490917522181 
1760	 0.429346016835278 
1761	 0.429205390654289 
1762	 0.429063108023611 
1763	 0.428949429150287 
1764	 0.428814984294728 
1765	 0.428682534021324 
1766	 0.428564362638876 
1767	 0.428443542294116 
1768	 0.428329337474953 
1769	 0.428197097401963 
1770	 0.428049045588725 
1771	 0.427885199137116 
1772	 0.427711605129212 
1773	 0.427582791599997 
1774	 0.427497862967429 
1775	 0.427396552825348 
1776	 0.427283436758396 
1777	 0.427160024229605 
1778	 0.427005345864853 
1779	 0.426891917801864 
1780	 0.426810258906573 
1781	 0.426710950779592 
1782	 0.426628713465052 
1783	 0.426542852567686 
1784	 0.426451577884841 
1785	 0.426382927310372 
1786	 0.426278300097359 
1787	 0.426147788529421 
1788	 0.426017795735657 
1789	 0.425859866857315 
1790	 0.425729806836555 
1791	 0.425600875559021 
1792	 0.425474189397092 
1793	 0.425374952867267 
1794	 0.425257041044882 
1795	 0.425144700867665 
1796	 0.424999565005398 
1797	 0.42482906046547 
1798	 0.424660435596465 
1799	 0.424452237180627 
1800	 0.424290327849921 
1801	 0.423237239856122 
1802	 0.423191886460009 
1803	 0.423204881055462 
1804	 0.423186492497617 
1805	 0.423145833148552 
1806	 0.423112959772085 
1807	 0.423039491359614 
1808	 0.422974622153735 
1809	 0.422925674284185 
1810	 0.42285132389942 
1811	 0.422779611133105 
1812	 0.422652599361424 
1813	 0.422514435795447 
1814	 0.422354228977079 
1815	 0.422152309538316 
1816	 0.4219599000992 
1817	 0.421762889437464 
1818	 0.42154149294286 
1819	 0.421331711614142 
1820	 0.421132618927794 
1821	 0.420934833206841 
1822	 0.420682202727124 
1823	 0.420420900644328 
1824	 0.420122000062874 
1825	 0.41976158821182 
1826	 0.41943849720449 
1827	 0.419083238929683 
1828	 0.418669943864013 
1829	 0.418229558431047 
1830	 0.417752772632596 
1831	 0.417218110411861 
1832	 0.416660008669284 
1833	 0.416066050468756 
1834	 0.415452398755677 
1835	 0.414876787580236 
1836	 0.414289775371236 
1837	 0.413705461450205 
1838	 0.413134120472319 
1839	 0.412593049116762 
1840	 0.412047447314524 
1841	 0.411528882105845 
1842	 0.411062105641172 
1843	 0.410658536485571 
1844	 0.410281251351399 
1845	 0.409927357565881 
1846	 0.409627205673764 
1847	 0.409369557656157 
1848	 0.409159848241152 
1849	 0.409031837135286 
1850	 0.408964201212216 
1851	 0.408974768672156 
1852	 0.409024626751988 
1853	 0.409131372721513 
1854	 0.409248989992109 
1855	 0.409393886866427 
1856	 0.4095795284105 
1857	 0.409773961404509 
1858	 0.40998135083518 
1859	 0.410150896902299 
1860	 0.410332676180518 
1861	 0.410509364095807 
1862	 0.410696114101617 
1863	 0.410880051175484 
1864	 0.411100740532049 
1865	 0.411334224023632 
1866	 0.411525629195258 
1867	 0.411718836476408 
1868	 0.41197019015342 
1869	 0.412206289834084 
1870	 0.412456235946032 
1871	 0.412693898281798 
1872	 0.412957493753076 
1873	 0.413136052825877 
1874	 0.413305820544747 
1875	 0.413471722826991 
1876	 0.413546739864056 
1877	 0.41356919910127 
1878	 0.41352957523271 
1879	 0.413428123778663 
1880	 0.413259365455011 
1881	 0.413033305489258 
1882	 0.412738279120832 
1883	 0.412389772275887 
1884	 0.411932292284504 
1885	 0.411426423689038 
1886	 0.410884615805152 
1887	 0.410276673072299 
1888	 0.409623163241629 
1889	 0.408888139872789 
1890	 0.408115989885455 
1891	 0.407309913705844 
1892	 0.406434741973208 
1893	 0.405551643432522 
1894	 0.404657411705635 
1895	 0.403714119764688 
1896	 0.402712762895062 
1897	 0.401672436603091 
1898	 0.40059606539235 
1899	 0.399547661477009 
1900	 0.398494279610928 
1901	 0.39743621702277 
1902	 0.396411960215365 
1903	 0.395408803933041 
1904	 0.394402461724602 
1905	 0.393404548524165 
1906	 0.392459163764328 
1907	 0.391492188719482 
1908	 0.390494927656547 
1909	 0.389532721279136 
1910	 0.388545282018292 
1911	 0.387562130348314 
1912	 0.386632522596735 
1913	 0.385718530935577 
1914	 0.384830587796996 
1915	 0.383954413068231 
1916	 0.383099542173166 
1917	 0.382256652659383 
1918	 0.381433225241806 
1919	 0.380632511928885 
1920	 0.379901912322535 
1921	 0.379201356456168 
1922	 0.378513466709336 
1923	 0.377859029527109 
1924	 0.3772386013085 
1925	 0.376633203315373 
1926	 0.37608043420978 
1927	 0.375570169224133 
1928	 0.37510216630671 
1929	 0.374670681223931 
1930	 0.374235822188084 
1931	 0.373833517944679 
1932	 0.373474913266104 
1933	 0.373136751752898 
1934	 0.372881462220106 
1935	 0.372672503653153 
1936	 0.372518218799949 
1937	 0.372405290378042 
1938	 0.372362855174449 
1939	 0.372331713773189 
1940	 0.372333271737953 
1941	 0.372377935825417 
1942	 0.372431944996142 
1943	 0.372512771541353 
1944	 0.372634319405064 
1945	 0.372754014855007 
1946	 0.372862355969766 
1947	 0.37297986620696 
1948	 0.373096055584583 
1949	 0.373192362198365 
1950	 0.373303334777452 
1951	 0.373432242995563 
1952	 0.373556484155478 
1953	 0.373672806382802 
1954	 0.37379994849117 
1955	 0.373911411383313 
1956	 0.374004312725724 
1957	 0.374093412221601 
1958	 0.374156952827297 
1959	 0.374235920655032 
1960	 0.374303059811917 
1961	 0.374401836669348 
1962	 0.374522671165652 
1963	 0.374639835081244 
1964	 0.374783233389418 
1965	 0.374917297187325 
1966	 0.375027612413308 
1967	 0.375104067717527 
1968	 0.375185837930227 
1969	 0.37523078492108 
1970	 0.375322399254326 
1971	 0.375429579677498 
1972	 0.375548766457375 
1973	 0.375698964822012 
1974	 0.375838794579175 
1975	 0.375990977885785 
1976	 0.376118944499686 
1977	 0.376267285300175 
1978	 0.376388830145661 
1979	 0.376502818180531 
1980	 0.376660773751277 
1981	 0.376803035618439 
1982	 0.376951198028034 
1983	 0.377093029006412 
1984	 0.377232370286609 
1985	 0.377367463771847 
1986	 0.377486968899102 
1987	 0.377627331385134 
1988	 0.377768533654737 
1989	 0.37793137845273 
1990	 0.378103012571391 
1991	 0.378281854786584 
1992	 0.378462220562225 
1993	 0.37865959494198 
1994	 0.378837513568137 
1995	 0.379012761260374 
1996	 0.379177521532485 
1997	 0.37932608965817 
1998	 0.379478034864001 
1999	 0.379620849250088 
2000	 0.379777912765442 
2001	 0.379943518310011 
2002	 0.380096678560421 
2003	 0.380286404515232 
2004	 0.380467567140825 
2005	 0.380651803751349 
2006	 0.380845514804768 
2007	 0.381043681779785 
2008	 0.381225594423369 
2009	 0.381441884968033 
2010	 0.381689438386543 
2011	 0.381921986759287 
2012	 0.382186368329684 
2013	 0.382417329417837 
2014	 0.382617900218442 
2015	 0.382824728811702 
2016	 0.383044548161009 
2017	 0.38325181798828 
2018	 0.383474489914593 
2019	 0.383723331674175 
2020	 0.383948311270256 
2021	 0.384179268837419 
2022	 0.384381949788859 
2023	 0.384571598531932 
2024	 0.384750111578712 
2025	 0.384886277006918 
2026	 0.385043025284168 
2027	 0.385217714176194 
2028	 0.385369078868399 
2029	 0.385507573796665 
2030	 0.385641610256622 
2031	 0.385776483648752 
2032	 0.385875712458078 
2033	 0.386020071973709 
2034	 0.386183351573666 
2035	 0.386360850022773 
2036	 0.386579711559236 
2037	 0.386763979139113 
2038	 0.38696602921107 
2039	 0.387129928075756 
2040	 0.387255453959179 
2041	 0.387375030929475 
2042	 0.387486647876477 
2043	 0.387617820853091 
2044	 0.387746955631411 
2045	 0.387897144886889 
2046	 0.388014550086807 
2047	 0.388125645310058 
2048	 0.388219948171154 
2049	 0.388281092630642 
2050	 0.388360823868383 
2051	 0.38843655616979 
2052	 0.388514379848232 
2053	 0.388600245383522 
2054	 0.388684169469136 
2055	 0.388767143154086 
2056	 0.388853445596585 
2057	 0.388920918086524 
2058	 0.388975237845793 
2059	 0.389040586002858 
2060	 0.389096164939065 
2061	 0.389158430004694 
2062	 0.389221105055948 
2063	 0.389303942789472 
2064	 0.389390034211097 
2065	 0.389485096092819 
2066	 0.389616633352296 
2067	 0.389727575725802 
2068	 0.389847806643746 
2069	 0.389930668906105 
2070	 0.390020252310045 
2071	 0.390115815434422 
2072	 0.390167496467918 
2073	 0.390189096464023 
2074	 0.390220783798706 
2075	 0.390217035143219 
2076	 0.390238749394077 
2077	 0.390269134852195 
2078	 0.390312295018837 
2079	 0.390379923684056 
2080	 0.390421219312139 
2081	 0.390454120016801 
2082	 0.390496371981893 
2083	 0.390532701269045 
2084	 0.390556112405797 
2085	 0.390591466334159 
2086	 0.390655658477792 
2087	 0.390680102726152 
2088	 0.390670780092041 
2089	 0.390696582650152 
2090	 0.390733503764811 
2091	 0.390749870283076 
2092	 0.39077816764642 
2093	 0.39079020004221 
2094	 0.390771095828848 
2095	 0.390765991642714 
2096	 0.39074346270707 
2097	 0.390756814136475 
2098	 0.390799628987879 
2099	 0.390836638104802 
2100	 0.390856100473889 
2101	 0.390896390559718 
2102	 0.390910699300233 
2103	 0.390878436301531 
2104	 0.3908844248471 
2105	 0.39089039052724 
2106	 0.390932650598402 
2107	 0.390998666666501 
2108	 0.391068470010184 
2109	 0.391170228437231 
2110	 0.391271172368689 
2111	 0.391394230380358 
2112	 0.391484546690909 
2113	 0.391578286216997 
2114	 0.391655662609091 
2115	 0.391708383426814 
2116	 0.391710585724883 
2117	 0.391761762839385 
2118	 0.391807111575107 
2119	 0.391886503683909 
2120	 0.392001118685486 
2121	 0.39210036365201 
2122	 0.392221155307665 
2123	 0.392321511523204 
2124	 0.392414297946591 
2125	 0.392501789275407 
2126	 0.392596647054763 
2127	 0.392661493998514 
2128	 0.392734099458687 
2129	 0.392751307704709 
2130	 0.392713851078828 
2131	 0.392670316953524 
2132	 0.392606770910417 
2133	 0.39250634331851 
2134	 0.392398755882362 
2135	 0.392294138692311 
2136	 0.392141444080013 
2137	 0.391934786808079 
2138	 0.391750140905777 
2139	 0.39155890237356 
2140	 0.391344513341235 
2141	 0.391130045870117 
2142	 0.390890635483263 
2143	 0.390615431257326 
2144	 0.390338662674299 
2145	 0.390072247967606 
2146	 0.389765284270581 
2147	 0.389444152725637 
2148	 0.389080063907552 
2149	 0.38869299475493 
2150	 0.388266789428319 
2151	 0.387828027006684 
2152	 0.387354045090169 
2153	 0.386887839613783 
2154	 0.386396801959807 
2155	 0.385921904096056 
2156	 0.38546937130969 
2157	 0.384979501385723 
2158	 0.384463868119078 
2159	 0.383960567504158 
2160	 0.383452305342179 
2161	 0.382925397572358 
2162	 0.382401758942517 
2163	 0.381867767857339 
2164	 0.381301266425983 
2165	 0.380740278246528 
2166	 0.380181824527076 
2167	 0.37963011653932 
2168	 0.379068682969006 
2169	 0.378510171664044 
2170	 0.377928045285871 
2171	 0.377349113341054 
2172	 0.376730837386689 
2173	 0.376075519601313 
2174	 0.375422092196386 
2175	 0.374740977317653 
2176	 0.37406366498023 
2177	 0.373382194618551 
2178	 0.372696932895023 
2179	 0.372005125365775 
2180	 0.371310073005803 
2181	 0.37061118403852 
2182	 0.36991053465404 
2183	 0.369202184745144 
2184	 0.368493595106189 
2185	 0.36778219830837 
2186	 0.367064092490211 
2187	 0.366353086348582 
2188	 0.365639600287584 
2189	 0.364931052692217 
2190	 0.364223422683039 
2191	 0.363528078794255 
2192	 0.362818944844274 
2193	 0.362156471325455 
2194	 0.361501543731106 
2195	 0.360896380049895 
2196	 0.360349735739077 
2197	 0.359803216391172 
2198	 0.359287062320358 
2199	 0.358786957406904 
2200	 0.358270534663505 
2201	 0.357816610966836 
2202	 0.357415163016828 
2203	 0.357027815104643 
2204	 0.356689429046604 
2205	 0.356403300550652 
2206	 0.356144265325567 
2207	 0.355912341665759 
2208	 0.355733966205908 
2209	 0.355598695641801 
2210	 0.355506091309843 
2211	 0.355475153474693 
2212	 0.355450164954368 
2213	 0.355477986121636 
2214	 0.355494102096957 
2215	 0.355531632555094 
2216	 0.355555648148228 
2217	 0.355611342417771 
2218	 0.355610685385386 
2219	 0.355586769118533 
2220	 0.355535167160721 
2221	 0.355437892526659 
2222	 0.35532417131482 
2223	 0.355203467639616 
2224	 0.355079472198765 
2225	 0.354920106503075 
2226	 0.354752259079771 
2227	 0.354527398643728 
2228	 0.354261344135219 
2229	 0.353970102135764 
2230	 0.353632938874386 
2231	 0.353283666559591 
2232	 0.352914655760724 
2233	 0.352519329180833 
2234	 0.352097387030204 
2235	 0.351646511426046 
2236	 0.351160539145558 
2237	 0.350658878276821 
2238	 0.350143987760542 
2239	 0.349591540606763 
2240	 0.349023260865691 
2241	 0.348407476333567 
2242	 0.347735592006913 
2243	 0.347047113530852 
2244	 0.346336247762132 
2245	 0.345577692183518 
2246	 0.344809578262804 
2247	 0.34399147056344 
2248	 0.343158613060779 
2249	 0.34228446629869 
2250	 0.34141145186078 
2251	 0.340504233090506 
2252	 0.339638504272084 
2253	 0.338754269280463 
2254	 0.337925376788325 
2255	 0.337113219871966 
2256	 0.336364772963305 
2257	 0.33563441600901 
2258	 0.335004954946063 
2259	 0.334441965028228 
2260	 0.333957761030463 
2261	 0.333553044928647 
2262	 0.333220904079925 
2263	 0.332958453806251 
2264	 0.332788019229987 
2265	 0.332693544594437 
2266	 0.332697350755448 
2267	 0.332827399240379 
2268	 0.3329985482412 
2269	 0.333252702628871 
2270	 0.333564843571164 
2271	 0.333941915583976 
2272	 0.334385299766062 
2273	 0.334856549984819 
2274	 0.335404976789265 
2275	 0.335998479610712 
2276	 0.336644074478741 
2277	 0.337302841646761 
2278	 0.338029473890069 
2279	 0.338756066702721 
2280	 0.339482419146491 
2281	 0.340258222908011 
2282	 0.34111518392128 
2283	 0.34190502790716 
2284	 0.342713356994018 
2285	 0.343474407784737 
2286	 0.344181900976926 
2287	 0.344895540815515 
2288	 0.345621660760855 
2289	 0.346274571746279 
2290	 0.346898314212039 
2291	 0.347483039363476 
2292	 0.34800260674215 
2293	 0.348507411004961 
2294	 0.348971154178017 
2295	 0.349429027448306 
2296	 0.349845913575131 
2297	 0.350257545187379 
2298	 0.350745726386908 
2299	 0.351196308830534 
2300	 0.351652537823315 
2301	 0.352127097622067 
2302	 0.352531873964533 
2303	 0.352950233563198 
2304	 0.353351799627703 
2305	 0.353761379986534 
2306	 0.354156974272881 
2307	 0.354540111121644 
2308	 0.354898132553853 
2309	 0.355257897564924 
2310	 0.355572761339883 
2311	 0.355841436975731 
2312	 0.356134543815267 
2313	 0.356414299711822 
2314	 0.35667403693504 
2315	 0.356938422786532 
2316	 0.357179234889443 
2317	 0.357380616530292 
2318	 0.35759530722177 
2319	 0.357827981544196 
2320	 0.358005430846556 
2321	 0.358145405633117 
2322	 0.358301215221525 
2323	 0.358408368615672 
2324	 0.358555740205239 
2325	 0.35877682014368 
2326	 0.358914863959044 
2327	 0.35902948787305 
2328	 0.359113016150898 
2329	 0.359134413235343 
2330	 0.359172411404282 
2331	 0.359234321206608 
2332	 0.359267922257805 
2333	 0.359288295576595 
2334	 0.359249025715563 
2335	 0.35916054316806 
2336	 0.359084309463768 
2337	 0.359020758225196 
2338	 0.358941941473922 
2339	 0.358810579177026 
2340	 0.358702365975637 
2341	 0.358617873018516 
2342	 0.358449766302565 
2343	 0.358255527134487 
2344	 0.358044355674816 
2345	 0.35777750551042 
2346	 0.357390033759141 
2347	 0.357078079923293 
2348	 0.356772257405683 
2349	 0.356485239537954 
2350	 0.356234391260575 
2351	 0.355952313508182 
2352	 0.355684971051818 
2353	 0.355346701486535 
2354	 0.354911133062682 
2355	 0.354584538276666 
2356	 0.354290299975515 
2357	 0.353989840042046 
2358	 0.353770821698621 
2359	 0.353465122336016 
2360	 0.35309940764145 
2361	 0.352732590726933 
2362	 0.352358870226654 
2363	 0.35195424318229 
2364	 0.351472988704823 
2365	 0.351048383510158 
2366	 0.350653444580812 
2367	 0.350226354974691 
2368	 0.349846705907297 
2369	 0.349411883100348 
2370	 0.348938631556151 
2371	 0.348398177887128 
2372	 0.347868544352931 
2373	 0.347291720996285 
2374	 0.34672627116695 
2375	 0.346190544986608 
2376	 0.345634432677909 
2377	 0.345112421955599 
2378	 0.344528396729199 
2379	 0.343819279853238 
2380	 0.343105642990943 
2381	 0.342341052646208 
2382	 0.341536888981539 
2383	 0.340879193686575 
2384	 0.340238231400512 
2385	 0.339573706833942 
2386	 0.338961832123217 
2387	 0.338280633731339 
2388	 0.337621320134147 
2389	 0.336957624573998 
2390	 0.336303491165361 
2391	 0.335715755010929 
2392	 0.334995028389021 
2393	 0.334319385320975 
2394	 0.333717974077682 
2395	 0.333031728056791 
2396	 0.332439958211609 
2397	 0.33182949856635 
2398	 0.331081349205075 
2399	 0.330285427174372 
2400	 0.329441949090194 
2401	 0.328635085943651 
2402	 0.327933393059743 
2403	 0.327345748252598 
2404	 0.326790340229558 
2405	 0.326233403798795 
2406	 0.325614754163439 
2407	 0.324936627671519 
2408	 0.32438584254837 
2409	 0.323871623410412 
2410	 0.323306157351134 
2411	 0.322743879651721 
2412	 0.322193885579343 
2413	 0.321566222765503 
2414	 0.320891849155069 
2415	 0.320321042088415 
2416	 0.319755624917065 
2417	 0.319148948228452 
2418	 0.318584943443278 
2419	 0.318105875186495 
2420	 0.317600896302726 
2421	 0.317060423616823 
2422	 0.316539982515341 
2423	 0.316044356405691 
2424	 0.315579740870697 
2425	 0.315141825003007 
2426	 0.314697105013395 
2427	 0.314305615877729 
2428	 0.313853739275533 
2429	 0.313352532327142 
2430	 0.312877370402826 
2431	 0.312391282025057 
2432	 0.311923506290576 
2433	 0.311458954835536 
2434	 0.310980932513542 
2435	 0.310527810966085 
2436	 0.310038827797005 
2437	 0.309510684599459 
2438	 0.309045004104351 
2439	 0.308569496938207 
2440	 0.308093773962595 
2441	 0.307677870522338 
2442	 0.307219635590878 
2443	 0.306759278010782 
2444	 0.306298314975632 
2445	 0.305854709042906 
2446	 0.305370892696551 
2447	 0.304812099948451 
2448	 0.304264366224572 
2449	 0.303677774363149 
2450	 0.303140541923766 
2451	 0.302637969509631 
2452	 0.302114789148032 
2453	 0.301650780272134 
2454	 0.301166088941787 
2455	 0.300622063051693 
2456	 0.300059375820475 
2457	 0.299489614303165 
2458	 0.298972110242277 
2459	 0.298407655100039 
2460	 0.297991793796635 
2461	 0.297659291231944 
2462	 0.297333814937929 
2463	 0.297115077570592 
2464	 0.296927126040699 
2465	 0.296855110685487 
2466	 0.296690469209317 
2467	 0.296518844165337 
2468	 0.29623364701671 
2469	 0.295829561801613 
2470	 0.295556298254072 
2471	 0.295085100440736 
2472	 0.294709176396771 
2473	 0.294373493049024 
2474	 0.293942066279457 
2475	 0.293718182879535 
2476	 0.293482748342928 
2477	 0.293054887416095 
2478	 0.292656537059199 
2479	 0.292271273729279 
2480	 0.29187326069153 
2481	 0.291530618776835 
2482	 0.291164508090161 
2483	 0.290831006652562 
2484	 0.290520780782336 
2485	 0.290112970005553 
2486	 0.289574042152144 
2487	 0.289037241424299 
2488	 0.288480095930942 
2489	 0.287846317178439 
2490	 0.287351708944526 
2491	 0.286812124552252 
2492	 0.286173828714205 
2493	 0.285748857532866 
2494	 0.285450074425238 
2495	 0.285269397501577 
2496	 0.285144234092679 
2497	 0.284683233705318 
2498	 0.284043088181241 
2499	 0.283370197766076 
2500	 0.282493311331922 
