Wavelength	LMW7 profile 200019.asd
350	 6.09689311347365E-02 
351	 6.78800496509148E-02 
352	 6.82611989885293E-02 
353	 5.90480079703319E-02 
354	 6.17216006163171E-02 
355	 6.28610649978932E-02 
356	 6.26449804974629E-02 
357	 6.36420050382493E-02 
358	 6.40187988014395E-02 
359	 6.49545528792829E-02 
360	 6.54494652535502E-02 
361	 6.35303662864171E-02 
362	 6.29769694704032E-02 
363	 6.34744846788578E-02 
364	 0.064007528215764 
365	 6.32768272255684E-02 
366	 6.32914246033569E-02 
367	 6.35082709061026E-02 
368	 0.062961178365635 
369	 6.15422879782597E-02 
370	 6.32214574361738E-02 
371	 6.58720728654192E-02 
372	 6.39739992821965E-02 
373	 0.06416199020044 
374	 6.58917391065034E-02 
375	 6.76196756964283E-02 
376	 6.79347730351784E-02 
377	 6.61028152550833E-02 
378	 6.68512226063926E-02 
379	 7.30239358989566E-02 
380	 7.32609674726876E-02 
381	 7.05819809834176E-02 
382	 6.97915587862715E-02 
383	 7.54311279225984E-02 
384	 7.61830753603504E-02 
385	 7.62016463488271E-02 
386	 7.83219293428025E-02 
387	 7.82699290840014E-02 
388	 8.03730453568699E-02 
389	 8.28355599385068E-02 
390	 8.31066456907841E-02 
391	 8.46963641133403E-02 
392	 8.65656442468064E-02 
393	 8.88395946449239E-02 
394	 9.25671576562513E-02 
395	 9.45845081015185E-02 
396	 9.61394656121273E-02 
397	 9.85757354775563E-02 
398	 0.102053737172346 
399	 0.104742185958768 
400	 0.107463069984305 
401	 0.111487832756914 
402	 0.114790766049715 
403	 0.116767167003419 
404	 0.118539719253674 
405	 0.122631374386577 
406	 0.12468815583973 
407	 0.127142779541448 
408	 0.131522373755977 
409	 0.133712188530242 
410	 0.135108595503978 
411	 0.136987039326838 
412	 0.140066164443068 
413	 0.141433132652268 
414	 0.142408444556152 
415	 0.14371835788158 
416	 0.144834173071258 
417	 0.145351837730882 
418	 0.145802829114106 
419	 0.146619120767498 
420	 0.14716344334669 
421	 0.146994131924961 
422	 0.146549314828136 
423	 0.146691256796511 
424	 0.146507565980351 
425	 0.145417906699158 
426	 0.143622888376366 
427	 0.142556021877109 
428	 0.141728883647143 
429	 0.140540503617407 
430	 0.138672336942374 
431	 0.137496421845064 
432	 0.136096285208365 
433	 0.134609091388321 
434	 0.134219969544629 
435	 0.134247380770468 
436	 0.134429903752508 
437	 0.134779904565955 
438	 0.135779174027872 
439	 0.137386625117315 
440	 0.139302368605586 
441	 0.141159924491458 
442	 0.143262221149491 
443	 0.145541433553425 
444	 0.147890068321754 
445	 0.15016661624108 
446	 0.152781561565227 
447	 0.155610554904077 
448	 0.15839436053937 
449	 0.161028182808597 
450	 0.163885084452385 
451	 0.166900042842534 
452	 0.169640639222977 
453	 0.172279857741571 
454	 0.17486845813475 
455	 0.177421512078433 
456	 0.179930721336034 
457	 0.182219713196665 
458	 0.184352818967757 
459	 0.186490639701166 
460	 0.188651263363145 
461	 0.190464517314758 
462	 0.192053320144878 
463	 0.194268771479991 
464	 0.196234972908898 
465	 0.197912355094106 
466	 0.199493285134951 
467	 0.201076524324194 
468	 0.202663583094244 
469	 0.204099600580758 
470	 0.205156201087025 
471	 0.206394802752196 
472	 0.207887429974997 
473	 0.209461138051289 
474	 0.210563740218961 
475	 0.2117347715526 
476	 0.213006921492011 
477	 0.214207021411695 
478	 0.215386968374316 
479	 0.216664100750351 
480	 0.217940977524654 
481	 0.218807417789827 
482	 0.220029380547685 
483	 0.22136094534325 
484	 0.222402900266788 
485	 0.223355430430437 
486	 0.224403357690846 
487	 0.225499038740875 
488	 0.226420099703038 
489	 0.227371824084154 
490	 0.228427772509024 
491	 0.229587618517834 
492	 0.230757455961883 
493	 0.231756292746163 
494	 0.232720802543883 
495	 0.233899597844462 
496	 0.235130229623233 
497	 0.236104880370304 
498	 0.23688284801417 
499	 0.23808504136963 
500	 0.239084666701022 
501	 0.239991764743574 
502	 0.241047313992077 
503	 0.242073749213505 
504	 0.2430658723089 
505	 0.244005696887309 
506	 0.244869761082897 
507	 0.245883103522833 
508	 0.246951536842308 
509	 0.247950297687897 
510	 0.248849401545332 
511	 0.249781263086013 
512	 0.250714345556847 
513	 0.251559599924435 
514	 0.25255685720229 
515	 0.253535044303284 
516	 0.254422344919223 
517	 0.255395266198109 
518	 0.256321332841741 
519	 0.257213508822151 
520	 0.25812415269088 
521	 0.259052966953494 
522	 0.259981589601805 
523	 0.260895592050404 
524	 0.261787165519119 
525	 0.262669809058709 
526	 0.263567386104295 
527	 0.264491914519082 
528	 0.265435986028627 
529	 0.266222861849881 
530	 0.266981126241421 
531	 0.268002301139016 
532	 0.268948503971341 
533	 0.269837616842466 
534	 0.270716076505745 
535	 0.271566830962338 
536	 0.272479319880484 
537	 0.273382200016187 
538	 0.27417673731022 
539	 0.275072109311862 
540	 0.27589804859843 
541	 0.276654668997211 
542	 0.277604013483174 
543	 0.278542022515546 
544	 0.27944933980812 
545	 0.280342206965094 
546	 0.281168981124595 
547	 0.282010751745282 
548	 0.282916051420729 
549	 0.283893369189952 
550	 0.284759534840217 
551	 0.285605169097897 
552	 0.286532779938701 
553	 0.287553813014078 
554	 0.288470973730315 
555	 0.289371752285059 
556	 0.290454292668802 
557	 0.291414816190915 
558	 0.292400680596933 
559	 0.293471045778039 
560	 0.294442042296386 
561	 0.295408686289341 
562	 0.296337641756377 
563	 0.297198932498709 
564	 0.298208800612001 
565	 0.29920601341642 
566	 0.300179973371055 
567	 0.301311363395564 
568	 0.302532963303228 
569	 0.303719092616121 
570	 0.304813762957355 
571	 0.306046748892688 
572	 0.30730738457426 
573	 0.308514517895056 
574	 0.309608756100132 
575	 0.310533730957425 
576	 0.311470168376466 
577	 0.312539748808209 
578	 0.313669617038101 
579	 0.314777696989972 
580	 0.315914323941921 
581	 0.317177979507298 
582	 0.318531518768902 
583	 0.319891344038642 
584	 0.321187903607612 
585	 0.322381990731299 
586	 0.323527631778988 
587	 0.324596389603883 
588	 0.32557571589881 
589	 0.326618461771069 
590	 0.327703465979821 
591	 0.328803082246847 
592	 0.329891288718969 
593	 0.330922917883237 
594	 0.331971194654882 
595	 0.333118356774248 
596	 0.334425097529098 
597	 0.335758045636185 
598	 0.337057084550062 
599	 0.33830228789763 
600	 0.339393595849432 
601	 0.340419795425039 
602	 0.341420454864109 
603	 0.342306038205712 
604	 0.343169048852172 
605	 0.344060742769943 
606	 0.344989617801552 
607	 0.345820176555893 
608	 0.34664375892168 
609	 0.34751275618409 
610	 0.348419824422147 
611	 0.349326046960934 
612	 0.350224521305038 
613	 0.351106347489113 
614	 0.351945623487598 
615	 0.352701712315885 
616	 0.353378120213743 
617	 0.354011399594019 
618	 0.35465420623668 
619	 0.355272941772228 
620	 0.355845198218682 
621	 0.356393324594341 
622	 0.35697379965994 
623	 0.357550974674485 
624	 0.358070015260234 
625	 0.358646630226008 
626	 0.35914025366796 
627	 0.359531696248504 
628	 0.359984514268008 
629	 0.360512758593395 
630	 0.361001892006134 
631	 0.361366653397993 
632	 0.361790812489483 
633	 0.362196911933869 
634	 0.362614864893216 
635	 0.363143887740771 
636	 0.363437703500348 
637	 0.36381499184104 
638	 0.364430521236925 
639	 0.364746411378472 
640	 0.365082469761941 
641	 0.365462814400511 
642	 0.365806057316425 
643	 0.366281083321421 
644	 0.366752179603707 
645	 0.367138320946959 
646	 0.36747502849578 
647	 0.36789520689255 
648	 0.368313932594002 
649	 0.368642759736915 
650	 0.369070829265878 
651	 0.369557888346974 
652	 0.370043305758844 
653	 0.370463359269902 
654	 0.370932883720486 
655	 0.371350128560012 
656	 0.371668743128232 
657	 0.37206304450061 
658	 0.372570245977492 
659	 0.37309541974008 
660	 0.373500878268129 
661	 0.373905806857904 
662	 0.374417200223536 
663	 0.37500452110779 
664	 0.375444158322921 
665	 0.37583872687696 
666	 0.376284394193209 
667	 0.376828221998225 
668	 0.377305663358169 
669	 0.377847363057892 
670	 0.378411037505633 
671	 0.378824516056299 
672	 0.37937097618793 
673	 0.379960754256744 
674	 0.380501227912715 
675	 0.381051414592932 
676	 0.38161428474797 
677	 0.382137802031541 
678	 0.3825792934052 
679	 0.383139049752925 
680	 0.383713109136679 
681	 0.384266749083154 
682	 0.384892454724201 
683	 0.385448574429593 
684	 0.385976139092807 
685	 0.386536933585951 
686	 0.387081060057975 
687	 0.387616435798611 
688	 0.388173648717394 
689	 0.388783623131763 
690	 0.389282210040169 
691	 0.389759793533679 
692	 0.390303902990423 
693	 0.390933949250888 
694	 0.39147214333048 
695	 0.391976546266859 
696	 0.392549595871117 
697	 0.392982037501191 
698	 0.393512376188287 
699	 0.394174636209842 
700	 0.394763121022244 
701	 0.395220116063066 
702	 0.395650505663476 
703	 0.396140416606184 
704	 0.396613492732363 
705	 0.397046169335947 
706	 0.397455774465442 
707	 0.39788366037965 
708	 0.398359805282098 
709	 0.398801032557683 
710	 0.399196324319766 
711	 0.399657200619342 
712	 0.400060518733644 
713	 0.400400128877583 
714	 0.400714228492277 
715	 0.401068401911894 
716	 0.401422351195902 
717	 0.401736405753173 
718	 0.401981429352489 
719	 0.402227354145306 
720	 0.402456570634537 
721	 0.402653365012511 
722	 0.402823271495962 
723	 0.403086605191791 
724	 0.403322603390904 
725	 0.403393055230982 
726	 0.403524464776836 
727	 0.403659840117105 
728	 0.403731621610013 
729	 0.403688292349277 
730	 0.403738846175984 
731	 0.40378453068836 
732	 0.403730616668107 
733	 0.403628314670181 
734	 0.403507674243901 
735	 0.403402049100372 
736	 0.40333150435478 
737	 0.403266185676345 
738	 0.403074646472153 
739	 0.402770037520927 
740	 0.402527287412817 
741	 0.402410884253028 
742	 0.402229300859795 
743	 0.401848207174708 
744	 0.401429185619054 
745	 0.401071911631151 
746	 0.400748452313772 
747	 0.400368102013627 
748	 0.399917876693871 
749	 0.399531058735385 
750	 0.39917854784723 
751	 0.398628031002675 
752	 0.398088816185457 
753	 0.39756839767584 
754	 0.397037013028474 
755	 0.396496728224834 
756	 0.395970837334447 
757	 0.395404901024747 
758	 0.394737158039604 
759	 0.394163402670522 
760	 0.393507739577421 
761	 0.392765916131717 
762	 0.392183000978332 
763	 0.391544003775646 
764	 0.390832155629571 
765	 0.390088660785162 
766	 0.389366991687061 
767	 0.38871905992029 
768	 0.388050891377777 
769	 0.387235825555262 
770	 0.386494009287163 
771	 0.385793972884342 
772	 0.385074208673919 
773	 0.384269959597671 
774	 0.383477359371721 
775	 0.382713393534591 
776	 0.381970248814327 
777	 0.381230611977816 
778	 0.380487558828419 
779	 0.379686301057583 
780	 0.378784612095955 
781	 0.377933085907183 
782	 0.37719048374507 
783	 0.376479053356074 
784	 0.375605843003182 
785	 0.37483775407936 
786	 0.374150478884805 
787	 0.373435866843887 
788	 0.372502264625771 
789	 0.371724421625214 
790	 0.37102517643111 
791	 0.37020177608713 
792	 0.369383527271072 
793	 0.368680712759171 
794	 0.368004018257612 
795	 0.367127751122565 
796	 0.366371204697647 
797	 0.365673163502406 
798	 0.364930676647783 
799	 0.364073054740687 
800	 0.363305956207172 
801	 0.362642142949818 
802	 0.361992105954904 
803	 0.361136095956552 
804	 0.360358034758416 
805	 0.359704217338427 
806	 0.35905686049635 
807	 0.358363203872494 
808	 0.357634005825706 
809	 0.356906730943059 
810	 0.356234287173239 
811	 0.355632894042838 
812	 0.355028766179949 
813	 0.354365827505035 
814	 0.353694513228238 
815	 0.35300761414305 
816	 0.352344916826087 
817	 0.351739863123351 
818	 0.351089165586067 
819	 0.350478593623947 
820	 0.34990480291518 
821	 0.349289116544728 
822	 0.348723270332048 
823	 0.348131339923454 
824	 0.347495664902962 
825	 0.346932930645678 
826	 0.346387941510304 
827	 0.345882007243075 
828	 0.345418652230787 
829	 0.344898652806808 
830	 0.344245998797638 
831	 0.343587133613061 
832	 0.343103991067643 
833	 0.342649111527802 
834	 0.342187711966397 
835	 0.341711970923509 
836	 0.341233829801799 
837	 0.340731320996491 
838	 0.340298215922132 
839	 0.339919685376022 
840	 0.339369965772183 
841	 0.338884402263625 
842	 0.338441818178368 
843	 0.338005009693671 
844	 0.337736528780749 
845	 0.33738809680426 
846	 0.336946582923366 
847	 0.336511007851545 
848	 0.336080452284333 
849	 0.335703894125593 
850	 0.335337314401852 
851	 0.334881778657676 
852	 0.334541660646185 
853	 0.334303747509013 
854	 0.334069690638683 
855	 0.333678016311025 
856	 0.333395567292679 
857	 0.333072420166178 
858	 0.332624740223134 
859	 0.332389385380583 
860	 0.332189430365969 
861	 0.331927852544242 
862	 0.331588655928138 
863	 0.331390370938267 
864	 0.331070428661209 
865	 0.330738779389917 
866	 0.330658374376 
867	 0.330375944362953 
868	 0.330182021353232 
869	 0.33009299765421 
870	 0.329804167692683 
871	 0.329461972556398 
872	 0.329196595293317 
873	 0.32908428196901 
874	 0.329115114705277 
875	 0.32904169137847 
876	 0.328848577858599 
877	 0.328606454955939 
878	 0.328405352487395 
879	 0.328398565100672 
880	 0.32837499130404 
881	 0.328133174106725 
882	 0.328082545488397 
883	 0.328108836206725 
884	 0.328036947102362 
885	 0.327755374729983 
886	 0.327672507737737 
887	 0.327727738292148 
888	 0.327742058505623 
889	 0.327528852450171 
890	 0.327498612699128 
891	 0.327494885125695 
892	 0.3274761493204 
893	 0.327615122792664 
894	 0.327524009849498 
895	 0.3274394660555 
896	 0.327517056184481 
897	 0.327542160201267 
898	 0.327620417950393 
899	 0.327660778278909 
900	 0.327613254131334 
901	 0.327661142876715 
902	 0.327704565472246 
903	 0.327784454254469 
904	 0.327944571800969 
905	 0.328067960424334 
906	 0.328191064069169 
907	 0.328351802079094 
908	 0.328548442233258 
909	 0.328582098250845 
910	 0.32869954776739 
911	 0.32889701031826 
912	 0.329012664237757 
913	 0.329140406221568 
914	 0.329300106290193 
915	 0.329493875626028 
916	 0.329702255123236 
917	 0.329805268602004 
918	 0.330003428995975 
919	 0.330360958682704 
920	 0.33072768256742 
921	 0.330938497622462 
922	 0.331038924714488 
923	 0.331161819025305 
924	 0.331482622024685 
925	 0.331861005419179 
926	 0.332210359585188 
927	 0.332498439865579 
928	 0.332769596689454 
929	 0.333089917104054 
930	 0.333337917272217 
931	 0.333497665752684 
932	 0.333906036826751 
933	 0.334219345833143 
934	 0.334457720767 
935	 0.334757039849669 
936	 0.335260607764649 
937	 0.335673568319615 
938	 0.336001685712818 
939	 0.336361289413089 
940	 0.336846188978364 
941	 0.337310908025411 
942	 0.337720027855543 
943	 0.338097163429163 
944	 0.338468814394884 
945	 0.338985625044903 
946	 0.339555097746445 
947	 0.339998863038633 
948	 0.340312372427651 
949	 0.340715319128769 
950	 0.341210129764182 
951	 0.341698212739106 
952	 0.342235849318938 
953	 0.34285575539337 
954	 0.343353103305729 
955	 0.343571483473028 
956	 0.344298199253654 
957	 0.344907194299782 
958	 0.345321071833354 
959	 0.34583650310438 
960	 0.346465447651124 
961	 0.347118993977659 
962	 0.347718702116572 
963	 0.348224496975656 
964	 0.348709621410124 
965	 0.34915740292069 
966	 0.349675609443543 
967	 0.350400018685765 
968	 0.351135543724324 
969	 0.351774151092997 
970	 0.352358458934195 
971	 0.353013397716772 
972	 0.353722474624484 
973	 0.35437149103962 
974	 0.355031759688563 
975	 0.355838250264695 
976	 0.356504636725717 
977	 0.357136216007215 
978	 0.357818501397182 
979	 0.358560728775343 
980	 0.359162216591963 
981	 0.359719610413121 
982	 0.360330174003214 
983	 0.36104747646797 
984	 0.361796702144261 
985	 0.36248383709618 
986	 0.363158895600518 
987	 0.363923529292629 
988	 0.364694969880402 
989	 0.365473032703807 
990	 0.366161071096336 
991	 0.366712174270527 
992	 0.367509205737534 
993	 0.368142990593794 
994	 0.368762737042033 
995	 0.369648118490765 
996	 0.370472672554242 
997	 0.371156151995382 
998	 0.371862893115647 
999	 0.372751020231754 
1000	 0.373592892476583 
1001	 0.379114905994236 
1002	 0.379860889203541 
1003	 0.380635854568364 
1004	 0.381375329097767 
1005	 0.382167879916446 
1006	 0.382913295110255 
1007	 0.383648705260534 
1008	 0.384247354870488 
1009	 0.384865375024432 
1010	 0.385510119238823 
1011	 0.386138663808235 
1012	 0.386807997868521 
1013	 0.387521191962969 
1014	 0.388280200591222 
1015	 0.388985314211406 
1016	 0.389665897135489 
1017	 0.390355445149139 
1018	 0.391043638675043 
1019	 0.39168463098362 
1020	 0.392337630017722 
1021	 0.39298513926896 
1022	 0.39362638418429 
1023	 0.394300519987608 
1024	 0.394958647587896 
1025	 0.395613341595392 
1026	 0.396218894620127 
1027	 0.396723047354799 
1028	 0.397307053388659 
1029	 0.397968497125963 
1030	 0.398627217138399 
1031	 0.399317508317185 
1032	 0.400092337291907 
1033	 0.400820373148772 
1034	 0.401477655357725 
1035	 0.402097498204402 
1036	 0.402673548384605 
1037	 0.403259347580126 
1038	 0.403839989709715 
1039	 0.404489742986548 
1040	 0.405180015635679 
1041	 0.405807829920203 
1042	 0.406488986371572 
1043	 0.407199897198329 
1044	 0.407878874938349 
1045	 0.408551345575554 
1046	 0.409265731620117 
1047	 0.409931649561493 
1048	 0.410563473099973 
1049	 0.411229247350526 
1050	 0.411898612006134 
1051	 0.412584853404819 
1052	 0.413230748106839 
1053	 0.413863851779953 
1054	 0.414546498831155 
1055	 0.41516390483323 
1056	 0.415749097164882 
1057	 0.416332277297825 
1058	 0.416855068034133 
1059	 0.417424350253107 
1060	 0.418000215441782 
1061	 0.418624067439326 
1062	 0.419221837452196 
1063	 0.419770435640543 
1064	 0.420278514981685 
1065	 0.420800711577956 
1066	 0.421336753139685 
1067	 0.421911907001435 
1068	 0.42245412891612 
1069	 0.422912152857935 
1070	 0.423369431182403 
1071	 0.423742279511417 
1072	 0.424198658541861 
1073	 0.424709210518796 
1074	 0.425175214212958 
1075	 0.425645594334103 
1076	 0.426113895414713 
1077	 0.426564876575003 
1078	 0.4269385227206 
1079	 0.427345995450758 
1080	 0.427771951483907 
1081	 0.428126813082063 
1082	 0.428534272239183 
1083	 0.42892327891497 
1084	 0.429312171565332 
1085	 0.429684328630805 
1086	 0.430028259702707 
1087	 0.430388857012762 
1088	 0.430767904898853 
1089	 0.431100402828905 
1090	 0.431419350765985 
1091	 0.431809834251184 
1092	 0.432163625321008 
1093	 0.432534956123348 
1094	 0.432947376605702 
1095	 0.433346272321931 
1096	 0.433743167477243 
1097	 0.434119370454337 
1098	 0.434479456316782 
1099	 0.434803559591606 
1100	 0.435164186884274 
1101	 0.435498820794575 
1102	 0.435895174847284 
1103	 0.43635217873302 
1104	 0.436774923498165 
1105	 0.437223846267239 
1106	 0.437703796201875 
1107	 0.438130940720884 
1108	 0.438580823293478 
1109	 0.438999603865591 
1110	 0.439373006119387 
1111	 0.439794906369433 
1112	 0.440203639429378 
1113	 0.440663477034235 
1114	 0.441211095806172 
1115	 0.44167632606855 
1116	 0.442118378063397 
1117	 0.442564959492488 
1118	 0.442976610602592 
1119	 0.443387171006377 
1120	 0.443852129522289 
1121	 0.444334576569865 
1122	 0.444786382472209 
1123	 0.445232538416432 
1124	 0.445691019799138 
1125	 0.446133071089639 
1126	 0.446609697485166 
1127	 0.447112086741997 
1128	 0.4476069968762 
1129	 0.448128977320102 
1130	 0.448606532853515 
1131	 0.449064993945003 
1132	 0.449533763475889 
1133	 0.44996918804243 
1134	 0.450428573559869 
1135	 0.450918753619907 
1136	 0.451387244318513 
1137	 0.451835879087152 
1138	 0.452302695949809 
1139	 0.452775832321257 
1140	 0.453256580407417 
1141	 0.453722349878565 
1142	 0.454199905877011 
1143	 0.454654375025089 
1144	 0.455090721220654 
1145	 0.455518226450925 
1146	 0.455934196077347 
1147	 0.45635149991499 
1148	 0.456735183429296 
1149	 0.45715336474264 
1150	 0.457593650522938 
1151	 0.458040433787045 
1152	 0.458470990843599 
1153	 0.458908529399435 
1154	 0.459317408004087 
1155	 0.459694284563368 
1156	 0.460077020618586 
1157	 0.460460508039057 
1158	 0.460827234232609 
1159	 0.461177893703558 
1160	 0.461536168821332 
1161	 0.4618745952929 
1162	 0.462232899003033 
1163	 0.462602385148717 
1164	 0.462971309597007 
1165	 0.463342262823517 
1166	 0.46373793664279 
1167	 0.464109155699553 
1168	 0.464483334866478 
1169	 0.464842776407476 
1170	 0.465200152183702 
1171	 0.465533677799573 
1172	 0.46584698514564 
1173	 0.466163004801448 
1174	 0.466466390026576 
1175	 0.466768973771502 
1176	 0.467062448044589 
1177	 0.46736879182285 
1178	 0.467660712066915 
1179	 0.467978668447655 
1180	 0.468337472962988 
1181	 0.468670379834933 
1182	 0.469014001642875 
1183	 0.469336300741295 
1184	 0.469647734340215 
1185	 0.469930971300929 
1186	 0.470239353518202 
1187	 0.470553828634693 
1188	 0.470857598071559 
1189	 0.471163053839497 
1190	 0.471465098493786 
1191	 0.47174348166665 
1192	 0.472053051423568 
1193	 0.472398659125364 
1194	 0.472711525167071 
1195	 0.473024904054321 
1196	 0.473330684261262 
1197	 0.473603051726664 
1198	 0.473891130956498 
1199	 0.47418471504435 
1200	 0.474493314405335 
1201	 0.474781576746574 
1202	 0.475068906075782 
1203	 0.475348034541425 
1204	 0.47560332990021 
1205	 0.475888477906879 
1206	 0.476195186579717 
1207	 0.47647708961445 
1208	 0.476750932922939 
1209	 0.477041683258481 
1210	 0.477327408862783 
1211	 0.47761280125883 
1212	 0.477928902091837 
1213	 0.478220395702672 
1214	 0.478484764453602 
1215	 0.478755103544052 
1216	 0.479023443200152 
1217	 0.47928434740682 
1218	 0.479558922191791 
1219	 0.479846806885692 
1220	 0.480111863039832 
1221	 0.480373013030758 
1222	 0.480635212257188 
1223	 0.480872670235436 
1224	 0.481137628376223 
1225	 0.481428712553366 
1226	 0.481703010073429 
1227	 0.481994710468323 
1228	 0.482255759052624 
1229	 0.482477698099588 
1230	 0.482726937086697 
1231	 0.482977377008964 
1232	 0.483224311065735 
1233	 0.483475984162948 
1234	 0.483746673769976 
1235	 0.484005290926262 
1236	 0.484249154801866 
1237	 0.484508483901783 
1238	 0.484790515149092 
1239	 0.485044436086846 
1240	 0.485281401206969 
1241	 0.485533525967742 
1242	 0.485785341082694 
1243	 0.486028504629936 
1244	 0.486276086910177 
1245	 0.486521640233325 
1246	 0.486756255382629 
1247	 0.486992124913742 
1248	 0.487230093380096 
1249	 0.48747889934098 
1250	 0.487705159476842 
1251	 0.487910528765929 
1252	 0.488132222279458 
1253	 0.488354858888573 
1254	 0.488566434063537 
1255	 0.48878180868892 
1256	 0.488990549721763 
1257	 0.48917431967567 
1258	 0.489385747592161 
1259	 0.489613506469367 
1260	 0.489832090931113 
1261	 0.490075533350781 
1262	 0.490285719481052 
1263	 0.490462823922275 
1264	 0.490660968955354 
1265	 0.490852987679699 
1266	 0.491044845965222 
1267	 0.491242706830847 
1268	 0.491445211657434 
1269	 0.491662800060246 
1270	 0.49187646013282 
1271	 0.492111591214675 
1272	 0.492370818114276 
1273	 0.49263183486845 
1274	 0.492902947153076 
1275	 0.493172657652257 
1276	 0.493453050980095 
1277	 0.493734338288685 
1278	 0.494008320156723 
1279	 0.494293463459822 
1280	 0.494605280729515 
1281	 0.494893578387134 
1282	 0.495180995649026 
1283	 0.495455608436676 
1284	 0.495729505087044 
1285	 0.495964055067097 
1286	 0.496200947780457 
1287	 0.496423127886596 
1288	 0.496606230503977 
1289	 0.49676222178828 
1290	 0.496896915811246 
1291	 0.496987767613401 
1292	 0.497096347788955 
1293	 0.49719539802575 
1294	 0.497280468304126 
1295	 0.497360031108096 
1296	 0.497432067995572 
1297	 0.497482749883604 
1298	 0.497540180774634 
1299	 0.497625405076824 
1300	 0.497659223315446 
1301	 0.497641441358912 
1302	 0.497653869979703 
1303	 0.49766727757516 
1304	 0.497653499230115 
1305	 0.497650967082852 
1306	 0.497650572594403 
1307	 0.497609039885599 
1308	 0.49754492627737 
1309	 0.497497150721492 
1310	 0.497451150787337 
1311	 0.497414334096035 
1312	 0.497375415891367 
1313	 0.497347500180999 
1314	 0.497324263527203 
1315	 0.497311359061634 
1316	 0.497290066151636 
1317	 0.49731449343257 
1318	 0.497387334084791 
1319	 0.497433591525479 
1320	 0.497507025983606 
1321	 0.497555883598654 
1322	 0.497569149696356 
1323	 0.49759062848915 
1324	 0.49766553145441 
1325	 0.497731242337866 
1326	 0.49781364409212 
1327	 0.497903935635729 
1328	 0.497957058262285 
1329	 0.498016823136473 
1330	 0.498092608647512 
1331	 0.498160997167848 
1332	 0.498272182330181 
1333	 0.498410703864716 
1334	 0.498555330326353 
1335	 0.498731777420369 
1336	 0.498899520944029 
1337	 0.49907069071021 
1338	 0.49924363894502 
1339	 0.499433751928149 
1340	 0.499600423744448 
1341	 0.499772837118467 
1342	 0.499917120521822 
1343	 0.500035486366308 
1344	 0.500144490219224 
1345	 0.500246793542442 
1346	 0.500352687778034 
1347	 0.500485191275432 
1348	 0.500601128848398 
1349	 0.500711592216479 
1350	 0.500806543392371 
1351	 0.50088483313117 
1352	 0.50093093647465 
1353	 0.501007046731197 
1354	 0.501080637965705 
1355	 0.50115685923583 
1356	 0.501251996374817 
1357	 0.501329515933468 
1358	 0.501392791567876 
1359	 0.501469751085712 
1360	 0.501536142439194 
1361	 0.501623338248315 
1362	 0.501727065023107 
1363	 0.501830418838223 
1364	 0.50194722997042 
1365	 0.502065444234493 
1366	 0.502182940303968 
1367	 0.502300906769591 
1368	 0.502457080609573 
1369	 0.502592813569545 
1370	 0.502712610900443 
1371	 0.502820328388236 
1372	 0.502864256393533 
1373	 0.502875439193711 
1374	 0.502870970854529 
1375	 0.502824758822027 
1376	 0.502791702249907 
1377	 0.502752523489527 
1378	 0.502695751388426 
1379	 0.502626006267702 
1380	 0.502559458946257 
1381	 0.502481324523048 
1382	 0.502398828245703 
1383	 0.502339551671741 
1384	 0.502230506122963 
1385	 0.502111090437014 
1386	 0.501943478105488 
1387	 0.501748359547549 
1388	 0.501499523676108 
1389	 0.501207634459445 
1390	 0.50087432931439 
1391	 0.500491259312184 
1392	 0.500060534304865 
1393	 0.499592657091815 
1394	 0.499107062346836 
1395	 0.498584529988595 
1396	 0.498067578906146 
1397	 0.497549781635531 
1398	 0.497022599759012 
1399	 0.49649409708813 
1400	 0.495962097370182 
1401	 0.49543717541618 
1402	 0.494910183915 
1403	 0.494393292003124 
1404	 0.493873690820029 
1405	 0.493375700526799 
1406	 0.492889602561267 
1407	 0.492405764971305 
1408	 0.491916449318708 
1409	 0.491477378841412 
1410	 0.490998944248234 
1411	 0.490652401618297 
1412	 0.490363855377457 
1413	 0.490170620325407 
1414	 0.490113675907332 
1415	 0.490143911504671 
1416	 0.490275948180886 
1417	 0.490473056495773 
1418	 0.490688410267696 
1419	 0.490912687085948 
1420	 0.491123561552119 
1421	 0.491309977544587 
1422	 0.491457455877847 
1423	 0.491563161977953 
1424	 0.491610412432656 
1425	 0.491605115512379 
1426	 0.491551028962391 
1427	 0.491433750881271 
1428	 0.491308992998487 
1429	 0.491131627438369 
1430	 0.490956179453092 
1431	 0.490774725652219 
1432	 0.490554937251691 
1433	 0.490294830057083 
1434	 0.490051049240678 
1435	 0.489764926838697 
1436	 0.489526000719232 
1437	 0.489314548116502 
1438	 0.489105397620303 
1439	 0.488919098420813 
1440	 0.488736412572315 
1441	 0.488537667194403 
1442	 0.488332215180654 
1443	 0.488105265353625 
1444	 0.487862452650419 
1445	 0.487621006831283 
1446	 0.487376711021031 
1447	 0.487126315085033 
1448	 0.486849691342715 
1449	 0.48652688491024 
1450	 0.486182079565364 
1451	 0.485823353328188 
1452	 0.485432868320162 
1453	 0.485037109943025 
1454	 0.484638390933316 
1455	 0.4842045101555 
1456	 0.48375161760813 
1457	 0.483264385815439 
1458	 0.482731359539669 
1459	 0.482214740413373 
1460	 0.481664217459174 
1461	 0.481141420268248 
1462	 0.480630178714948 
1463	 0.480127235484011 
1464	 0.47961839869008 
1465	 0.479141765219521 
1466	 0.478657491792045 
1467	 0.478238949548378 
1468	 0.477846012427879 
1469	 0.47751861311722 
1470	 0.477238588574404 
1471	 0.477033760745587 
1472	 0.476884647377548 
1473	 0.476794070909719 
1474	 0.47677613201855 
1475	 0.476832956492279 
1476	 0.476950680181737 
1477	 0.477128890936731 
1478	 0.477415090898018 
1479	 0.477738808437342 
1480	 0.478100131253846 
1481	 0.478518175248302 
1482	 0.478894256717482 
1483	 0.479257197393261 
1484	 0.479639453548592 
1485	 0.480030784749904 
1486	 0.480404740845026 
1487	 0.480796615522566 
1488	 0.48114463155359 
1489	 0.481481131756886 
1490	 0.481766718287459 
1491	 0.482024935904692 
1492	 0.482242953204029 
1493	 0.482392454758789 
1494	 0.482558453004606 
1495	 0.48269470044333 
1496	 0.482842197746731 
1497	 0.482995637614532 
1498	 0.483137267630429 
1499	 0.483284391392308 
1500	 0.483405597215609 
1501	 0.483512922131302 
1502	 0.483603940059737 
1503	 0.483666525890353 
1504	 0.483728386135834 
1505	 0.483789215492722 
1506	 0.48385973767236 
1507	 0.483933243400263 
1508	 0.483987757882546 
1509	 0.484031762645926 
1510	 0.484059601733296 
1511	 0.484080507332212 
1512	 0.484104812430844 
1513	 0.484138686565582 
1514	 0.484178276053516 
1515	 0.484231893088891 
1516	 0.484292229383938 
1517	 0.484335225894994 
1518	 0.484373338063169 
1519	 0.484409943679399 
1520	 0.484429914427149 
1521	 0.484466605306033 
1522	 0.484505047715064 
1523	 0.484554851547807 
1524	 0.484620641267324 
1525	 0.484678298613444 
1526	 0.484744126494599 
1527	 0.484802854092253 
1528	 0.484847876604907 
1529	 0.484902497342919 
1530	 0.484959555071698 
1531	 0.485020078843516 
1532	 0.485088705551704 
1533	 0.485154597489146 
1534	 0.48522282784515 
1535	 0.485289844558627 
1536	 0.485352125338579 
1537	 0.485421469829299 
1538	 0.485504679272309 
1539	 0.485566435549002 
1540	 0.485614371789883 
1541	 0.485672443825198 
1542	 0.485725604238589 
1543	 0.485772852652372 
1544	 0.485837478531903 
1545	 0.485881216981992 
1546	 0.485893218128965 
1547	 0.485917019441345 
1548	 0.485961699578165 
1549	 0.48601132187734 
1550	 0.486091006985121 
1551	 0.486190941325521 
1552	 0.48629092582266 
1553	 0.486386061494085 
1554	 0.486499840721903 
1555	 0.486599614303554 
1556	 0.48668865376709 
1557	 0.486797798223129 
1558	 0.486872168753726 
1559	 0.486930472720924 
1560	 0.486983702973365 
1561	 0.487006022886682 
1562	 0.487070568072187 
1563	 0.487144484403125 
1564	 0.487229727790134 
1565	 0.487347040610264 
1566	 0.487447764014132 
1567	 0.487538918417438 
1568	 0.487640233747955 
1569	 0.487757657343132 
1570	 0.487846452064524 
1571	 0.487938269010064 
1572	 0.48800797601318 
1573	 0.488046581387887 
1574	 0.488093096724445 
1575	 0.48812399801406 
1576	 0.488166904104569 
1577	 0.488213278735502 
1578	 0.48826250169402 
1579	 0.488322081190001 
1580	 0.488370282035094 
1581	 0.488411339890914 
1582	 0.48845899558185 
1583	 0.488499982793566 
1584	 0.488554085301062 
1585	 0.488611107884012 
1586	 0.488680110044557 
1587	 0.488787287125959 
1588	 0.488846988835547 
1589	 0.488899499040999 
1590	 0.48893392267299 
1591	 0.488919115833447 
1592	 0.488920367499354 
1593	 0.488916124830313 
1594	 0.488925521092658 
1595	 0.488941107609542 
1596	 0.488956374217705 
1597	 0.488984192363983 
1598	 0.489006047284888 
1599	 0.489031126458271 
1600	 0.489041763806899 
1601	 0.489035531861976 
1602	 0.489043093092041 
1603	 0.489043037716581 
1604	 0.489050371127854 
1605	 0.489065968317821 
1606	 0.489093293604603 
1607	 0.489127294844541 
1608	 0.489172013866441 
1609	 0.489199797714674 
1610	 0.48922586999721 
1611	 0.489241751507831 
1612	 0.489244105370873 
1613	 0.489250456033721 
1614	 0.489258767192332 
1615	 0.489262340060434 
1616	 0.489262289856837 
1617	 0.489271418174669 
1618	 0.489296282209041 
1619	 0.489317757221056 
1620	 0.489327109715332 
1621	 0.489327279576915 
1622	 0.489322371533238 
1623	 0.489313158253441 
1624	 0.489289047929949 
1625	 0.489272646925727 
1626	 0.489257964267462 
1627	 0.489244493697555 
1628	 0.489229881967571 
1629	 0.489217242202225 
1630	 0.489209495442095 
1631	 0.489196495845187 
1632	 0.48918092642324 
1633	 0.489162464055066 
1634	 0.489144266651704 
1635	 0.489118389262519 
1636	 0.489082514329422 
1637	 0.489058438931656 
1638	 0.48903029687082 
1639	 0.489014799224417 
1640	 0.489013219146679 
1641	 0.48900574751485 
1642	 0.488992798705404 
1643	 0.489003127656138 
1644	 0.489027665471905 
1645	 0.489044179655961 
1646	 0.489090196790453 
1647	 0.489085118205162 
1648	 0.489035582526666 
1649	 0.489027910456136 
1650	 0.489018176422061 
1651	 0.489007683727742 
1652	 0.489030768077981 
1653	 0.489012579535976 
1654	 0.48896121212878 
1655	 0.488920832159002 
1656	 0.488879322263527 
1657	 0.488825633395716 
1658	 0.488744853061629 
1659	 0.488706614985127 
1660	 0.488680715460014 
1661	 0.488654379441613 
1662	 0.488666025842872 
1663	 0.488643454443637 
1664	 0.48860421600683 
1665	 0.488554986110858 
1666	 0.488484531835324 
1667	 0.48843457294356 
1668	 0.488382310296932 
1669	 0.488329021332532 
1670	 0.488291760130779 
1671	 0.488241872306735 
1672	 0.488184689096296 
1673	 0.488114734819745 
1674	 0.48801784695392 
1675	 0.487969068474673 
1676	 0.487913495930206 
1677	 0.487901262707256 
1678	 0.487965475780614 
1679	 0.487975760650352 
1680	 0.487989846527599 
1681	 0.487974883250082 
1682	 0.487922069518843 
1683	 0.487888083329015 
1684	 0.487833346701472 
1685	 0.487813809576169 
1686	 0.487821094717448 
1687	 0.487816011004058 
1688	 0.48783608395016 
1689	 0.48782244977828 
1690	 0.487780506823201 
1691	 0.487754659377938 
1692	 0.487725095429618 
1693	 0.487690741617648 
1694	 0.487666337690272 
1695	 0.487624570681544 
1696	 0.487564133221939 
1697	 0.487509341808139 
1698	 0.487444525742793 
1699	 0.487395894163416 
1700	 0.487358575366971 
1701	 0.487306490496549 
1702	 0.487265175557049 
1703	 0.487202116589051 
1704	 0.48712011161842 
1705	 0.48703795076937 
1706	 0.486945549311321 
1707	 0.486854718408101 
1708	 0.486757883488063 
1709	 0.486658953755328 
1710	 0.486543761226534 
1711	 0.486464243056602 
1712	 0.486387995453543 
1713	 0.486340014476724 
1714	 0.486347630605739 
1715	 0.486307347169537 
1716	 0.486258111214377 
1717	 0.486212945651337 
1718	 0.486153998018958 
1719	 0.486088454877116 
1720	 0.486030059924643 
1721	 0.485953800961182 
1722	 0.485852790491511 
1723	 0.485765694969363 
1724	 0.48569156377827 
1725	 0.485583283871271 
1726	 0.485442445739075 
1727	 0.485346947619504 
1728	 0.485252039721125 
1729	 0.485160322677122 
1730	 0.485118727520268 
1731	 0.485013440997277 
1732	 0.484871895992253 
1733	 0.484731809572519 
1734	 0.484566389678517 
1735	 0.484410106226057 
1736	 0.484244139461699 
1737	 0.48409458286667 
1738	 0.483944574566985 
1739	 0.48381960776785 
1740	 0.483712408954701 
1741	 0.48360574554095 
1742	 0.483521663782828 
1743	 0.483411631672252 
1744	 0.483290748558295 
1745	 0.483172036558374 
1746	 0.483039568964313 
1747	 0.48295451656988 
1748	 0.482873039819087 
1749	 0.482783099459876 
1750	 0.482663543046348 
1751	 0.482521332368184 
1752	 0.482358780192611 
1753	 0.482184305110595 
1754	 0.482033517982911 
1755	 0.481915476322266 
1756	 0.481778768329894 
1757	 0.48163473919218 
1758	 0.481514787833109 
1759	 0.481381287393289 
1760	 0.481242079130136 
1761	 0.481115156683884 
1762	 0.48099279268671 
1763	 0.480852070151919 
1764	 0.480717187098515 
1765	 0.480616372760145 
1766	 0.480517880229061 
1767	 0.480432101351769 
1768	 0.480337116855481 
1769	 0.480224459893923 
1770	 0.480107873707527 
1771	 0.479994469924571 
1772	 0.47988917364699 
1773	 0.4797569953173 
1774	 0.479620461244027 
1775	 0.479476626766916 
1776	 0.479307917521742 
1777	 0.479181515962052 
1778	 0.47907926565671 
1779	 0.478975432934801 
1780	 0.478892121005248 
1781	 0.478786367268515 
1782	 0.478681814817071 
1783	 0.478573064065515 
1784	 0.478461280588688 
1785	 0.478368209828044 
1786	 0.47826097948538 
1787	 0.47812502007742 
1788	 0.478006643670646 
1789	 0.477897582926301 
1790	 0.477807819636504 
1791	 0.477738653787934 
1792	 0.477641443354414 
1793	 0.477556613591817 
1794	 0.477437790037965 
1795	 0.477287694991611 
1796	 0.477139472787738 
1797	 0.47696469363192 
1798	 0.476812429005755 
1799	 0.476663598292905 
1800	 0.476515575590114 
1801	 0.479992263399394 
1802	 0.479956918091914 
1803	 0.479945433344077 
1804	 0.479898009268876 
1805	 0.479874812736817 
1806	 0.479850858720534 
1807	 0.479807184362876 
1808	 0.479742012552105 
1809	 0.479658682090729 
1810	 0.479572622482868 
1811	 0.479486067304102 
1812	 0.47935777754377 
1813	 0.47921018797164 
1814	 0.479033480028503 
1815	 0.478787900170095 
1816	 0.478561651269017 
1817	 0.478345879600587 
1818	 0.478124748979975 
1819	 0.477912484851634 
1820	 0.477734505163644 
1821	 0.477508027796281 
1822	 0.47724274046851 
1823	 0.476960913194197 
1824	 0.476620044268751 
1825	 0.47624078540127 
1826	 0.475849231066896 
1827	 0.475412297343207 
1828	 0.474917365227024 
1829	 0.474373251798966 
1830	 0.473790106718367 
1831	 0.473151872548814 
1832	 0.472477289214576 
1833	 0.471780305084168 
1834	 0.471046345459019 
1835	 0.47029827376928 
1836	 0.469563409637276 
1837	 0.468814282723595 
1838	 0.468087221128496 
1839	 0.467407159059692 
1840	 0.466759227934537 
1841	 0.466122329491448 
1842	 0.465536004595594 
1843	 0.46501025605436 
1844	 0.464530953770171 
1845	 0.464084601998689 
1846	 0.463713341224511 
1847	 0.463450712333834 
1848	 0.463248827737773 
1849	 0.463113507575977 
1850	 0.463064946933778 
1851	 0.463123494201826 
1852	 0.463191516843985 
1853	 0.46330663776407 
1854	 0.463497577880448 
1855	 0.463687891349252 
1856	 0.463896249300175 
1857	 0.464109994637869 
1858	 0.464332392325722 
1859	 0.464569863974912 
1860	 0.464793360036749 
1861	 0.465009280211565 
1862	 0.465235670421326 
1863	 0.465474667169226 
1864	 0.465685716345978 
1865	 0.465950498347626 
1866	 0.466243468504175 
1867	 0.466497033654151 
1868	 0.466831221485211 
1869	 0.46716248040439 
1870	 0.467456472075993 
1871	 0.467732792247725 
1872	 0.468032725095058 
1873	 0.468238692318172 
1874	 0.468387170881116 
1875	 0.468513826924687 
1876	 0.468568764051612 
1877	 0.468589153578262 
1878	 0.46856205284898 
1879	 0.468445501150482 
1880	 0.468247689017775 
1881	 0.467964186965885 
1882	 0.467623410607749 
1883	 0.467204117821824 
1884	 0.466725772054442 
1885	 0.466198568372244 
1886	 0.465620118568321 
1887	 0.464950319932365 
1888	 0.464234629026558 
1889	 0.463460886618261 
1890	 0.462604671945765 
1891	 0.461705564969601 
1892	 0.460734020093437 
1893	 0.459732678879607 
1894	 0.458674945045937 
1895	 0.457607130052332 
1896	 0.456475665651166 
1897	 0.455292045165102 
1898	 0.454092331708743 
1899	 0.452901228843544 
1900	 0.451708604308915 
1901	 0.450553594576672 
1902	 0.449419131489703 
1903	 0.448311848446256 
1904	 0.447190259915086 
1905	 0.446078312889513 
1906	 0.445005639174491 
1907	 0.443901901380962 
1908	 0.442811840535159 
1909	 0.441744063447517 
1910	 0.440634298811008 
1911	 0.439538641142497 
1912	 0.438445865351134 
1913	 0.437356524634279 
1914	 0.43624665610428 
1915	 0.435191035110081 
1916	 0.434150552836746 
1917	 0.433133772817637 
1918	 0.432172777911832 
1919	 0.431238133208971 
1920	 0.430318793118329 
1921	 0.429446149558198 
1922	 0.428607724987116 
1923	 0.427818702786862 
1924	 0.427065269293185 
1925	 0.426349171233206 
1926	 0.425682730857206 
1927	 0.425053691230387 
1928	 0.424468814557557 
1929	 0.423949394484091 
1930	 0.423472755758648 
1931	 0.423040477346198 
1932	 0.422652539394589 
1933	 0.422296427761653 
1934	 0.422019358200678 
1935	 0.42180658121664 
1936	 0.421667916475522 
1937	 0.421565985012507 
1938	 0.42153302431173 
1939	 0.421529159424098 
1940	 0.421574007659576 
1941	 0.42164576887079 
1942	 0.42173162717135 
1943	 0.421870779365775 
1944	 0.422004432480587 
1945	 0.422106950491852 
1946	 0.422234474432112 
1947	 0.422382910409964 
1948	 0.422513107964045 
1949	 0.422667512989321 
1950	 0.422784170521365 
1951	 0.422880329069298 
1952	 0.422956085475244 
1953	 0.423028767610908 
1954	 0.423097360024049 
1955	 0.423177709764312 
1956	 0.423272546871752 
1957	 0.423377645765801 
1958	 0.423491978349797 
1959	 0.423599044084098 
1960	 0.423718186733261 
1961	 0.423843074320369 
1962	 0.423959655031283 
1963	 0.424091154751049 
1964	 0.424245151823158 
1965	 0.42438486014712 
1966	 0.42454248172696 
1967	 0.424687880617646 
1968	 0.424814747861033 
1969	 0.424921308466192 
1970	 0.425049879272439 
1971	 0.425171194268582 
1972	 0.425301744820272 
1973	 0.425454855821317 
1974	 0.425594768818317 
1975	 0.425729687763042 
1976	 0.425843758834755 
1977	 0.425986868593176 
1978	 0.426155725772935 
1979	 0.426334741977138 
1980	 0.426538896898645 
1981	 0.426705967310281 
1982	 0.426859690378636 
1983	 0.427016593938097 
1984	 0.427138685789623 
1985	 0.42729251035096 
1986	 0.427466583194235 
1987	 0.42764303614165 
1988	 0.427829613976657 
1989	 0.428028680558227 
1990	 0.428210352964775 
1991	 0.428393829097072 
1992	 0.42856496794788 
1993	 0.428724977845006 
1994	 0.428878950912321 
1995	 0.429013031376509 
1996	 0.429165895781835 
1997	 0.429308903410103 
1998	 0.429476762294975 
1999	 0.42967562469895 
2000	 0.429865251090236 
2001	 0.43006141503184 
2002	 0.430251278648852 
2003	 0.430463578479087 
2004	 0.430663735476662 
2005	 0.430873766669356 
2006	 0.431100795728657 
2007	 0.431322062304644 
2008	 0.431526857154081 
2009	 0.431758320762466 
2010	 0.43201441236189 
2011	 0.432255903973043 
2012	 0.432509067168881 
2013	 0.432755106885116 
2014	 0.433001505636823 
2015	 0.433216192219603 
2016	 0.433459074557397 
2017	 0.433721183450293 
2018	 0.433975960282162 
2019	 0.434243110032598 
2020	 0.434499752983636 
2021	 0.434748453866442 
2022	 0.435002987999922 
2023	 0.435270191172672 
2024	 0.435520641205286 
2025	 0.435783041066302 
2026	 0.436007720667603 
2027	 0.436208413758953 
2028	 0.436386814374314 
2029	 0.436564703091117 
2030	 0.436707368453066 
2031	 0.436890653853956 
2032	 0.437077884909208 
2033	 0.437283772903647 
2034	 0.437514527861095 
2035	 0.437741762413395 
2036	 0.438012668623633 
2037	 0.438221213834141 
2038	 0.438417823569967 
2039	 0.438580938899092 
2040	 0.438691123418709 
2041	 0.438786501354168 
2042	 0.438884899913377 
2043	 0.439010600951159 
2044	 0.439129429638299 
2045	 0.439266507191097 
2046	 0.439376715934995 
2047	 0.439490363292317 
2048	 0.43957147601132 
2049	 0.439608953179731 
2050	 0.439677455470268 
2051	 0.43974679810756 
2052	 0.439802543597536 
2053	 0.439854695159751 
2054	 0.439925622264766 
2055	 0.43998311574736 
2056	 0.440054250618606 
2057	 0.44014025188225 
2058	 0.44027433816491 
2059	 0.440347162167622 
2060	 0.440392074663019 
2061	 0.440453397552028 
2062	 0.440481053379848 
2063	 0.440550027561274 
2064	 0.440656877608078 
2065	 0.440747116585823 
2066	 0.440855684892724 
2067	 0.440944504207977 
2068	 0.441043378029983 
2069	 0.44108723236466 
2070	 0.441149640489196 
2071	 0.441200919429824 
2072	 0.441256083781996 
2073	 0.441314940387632 
2074	 0.441359724535179 
2075	 0.441382533614622 
2076	 0.441435445416847 
2077	 0.441496461677833 
2078	 0.441550818628785 
2079	 0.441632605033992 
2080	 0.44169173604882 
2081	 0.44171748278242 
2082	 0.441762292167677 
2083	 0.441823158994327 
2084	 0.441870577866546 
2085	 0.441906414693621 
2086	 0.441951182874385 
2087	 0.441963447648966 
2088	 0.441934877166713 
2089	 0.441936492117939 
2090	 0.441927479406573 
2091	 0.441936688925088 
2092	 0.441973763598824 
2093	 0.441993146731228 
2094	 0.442011962892703 
2095	 0.442026811268571 
2096	 0.442034251431439 
2097	 0.442040737036011 
2098	 0.4420390386761 
2099	 0.442044113071666 
2100	 0.442060983152111 
2101	 0.442084865566496 
2102	 0.442102168968177 
2103	 0.442121210901045 
2104	 0.442156943505405 
2105	 0.442183508056955 
2106	 0.442238015703259 
2107	 0.442326732832244 
2108	 0.442406274215826 
2109	 0.442482171408699 
2110	 0.442580238453848 
2111	 0.44273049449855 
2112	 0.442821757146407 
2113	 0.442894334176161 
2114	 0.442964921241138 
2115	 0.443021901921704 
2116	 0.443014914879111 
2117	 0.443086653532115 
2118	 0.443187989201244 
2119	 0.443303517147429 
2120	 0.443460629181447 
2121	 0.443592355507494 
2122	 0.443742935170955 
2123	 0.443867503221248 
2124	 0.443992271690607 
2125	 0.44407880789278 
2126	 0.444139213159171 
2127	 0.444190336753989 
2128	 0.444217261521554 
2129	 0.444221364250801 
2130	 0.444201251282562 
2131	 0.44419255115714 
2132	 0.444134048684109 
2133	 0.444043045752109 
2134	 0.443923113924102 
2135	 0.443781758882871 
2136	 0.443596808430347 
2137	 0.443364169070778 
2138	 0.443126293306584 
2139	 0.442854276901059 
2140	 0.442571887535337 
2141	 0.442288972944144 
2142	 0.441960592475938 
2143	 0.441566727988274 
2144	 0.441209869797274 
2145	 0.440861741719489 
2146	 0.440481548223604 
2147	 0.440114619126862 
2148	 0.439721901027789 
2149	 0.439304818898382 
2150	 0.438833614141816 
2151	 0.438384612523081 
2152	 0.437939399547691 
2153	 0.437473814780546 
2154	 0.436990666992042 
2155	 0.436511344497345 
2156	 0.436033602622445 
2157	 0.435534028178197 
2158	 0.435033309910868 
2159	 0.434503554979656 
2160	 0.433959862659636 
2161	 0.433381434677252 
2162	 0.432759713259867 
2163	 0.432145108866287 
2164	 0.431517134402558 
2165	 0.430858772612383 
2166	 0.430211789243022 
2167	 0.429559254073306 
2168	 0.428928635963001 
2169	 0.428302072361237 
2170	 0.427670587006403 
2171	 0.42708239047643 
2172	 0.42642308697679 
2173	 0.425730737322704 
2174	 0.425016594685172 
2175	 0.424257501697957 
2176	 0.42349988386618 
2177	 0.422717247854743 
2178	 0.4219351165669 
2179	 0.421134547055772 
2180	 0.420345368890912 
2181	 0.419565648132617 
2182	 0.418774385251362 
2183	 0.417989725147956 
2184	 0.417186495865739 
2185	 0.416372913473553 
2186	 0.415541569344584 
2187	 0.414701283317227 
2188	 0.413826212090438 
2189	 0.413004955120883 
2190	 0.412178343354076 
2191	 0.411395629927058 
2192	 0.410656540347114 
2193	 0.409932086698578 
2194	 0.409219891331333 
2195	 0.408541960642663 
2196	 0.407902784461068 
2197	 0.407276196435201 
2198	 0.406667785873445 
2199	 0.406093593050189 
2200	 0.405538277550649 
2201	 0.405018351227194 
2202	 0.404536187350679 
2203	 0.404071193157283 
2204	 0.403668750504472 
2205	 0.403305398670704 
2206	 0.402987482491988 
2207	 0.402704691788709 
2208	 0.402512933036781 
2209	 0.402372095924089 
2210	 0.402310234214809 
2211	 0.402379729531055 
2212	 0.402412819119978 
2213	 0.402506624556529 
2214	 0.402565195301248 
2215	 0.402635524879854 
2216	 0.402676415598512 
2217	 0.402709873989636 
2218	 0.4027148154625 
2219	 0.402710813953016 
2220	 0.402657598491259 
2221	 0.402539748523488 
2222	 0.402451170859052 
2223	 0.4023213190659 
2224	 0.402155270842477 
2225	 0.401988746228894 
2226	 0.401828724870848 
2227	 0.401609810366256 
2228	 0.401369503459726 
2229	 0.401070496862385 
2230	 0.400716869684548 
2231	 0.400345640984894 
2232	 0.399920090487524 
2233	 0.399494357354693 
2234	 0.399060070658907 
2235	 0.398587333452247 
2236	 0.398087962752253 
2237	 0.397561541972115 
2238	 0.397003421550857 
2239	 0.396418061036394 
2240	 0.395839062260962 
2241	 0.395174648543419 
2242	 0.394453123798031 
2243	 0.393686544155252 
2244	 0.392854866989652 
2245	 0.391968324597087 
2246	 0.391064179129013 
2247	 0.390095406741405 
2248	 0.389105153388908 
2249	 0.388063365453348 
2250	 0.387011137219603 
2251	 0.385914188042637 
2252	 0.384849016426984 
2253	 0.383749850223739 
2254	 0.382706892720938 
2255	 0.381660961060798 
2256	 0.380701155348707 
2257	 0.379738116760344 
2258	 0.378938854565719 
2259	 0.378246143746586 
2260	 0.377642989903198 
2261	 0.377145760380974 
2262	 0.376760990026067 
2263	 0.376472826808272 
2264	 0.37629019232361 
2265	 0.376249545176153 
2266	 0.376276813860299 
2267	 0.376404981770898 
2268	 0.376604286738218 
2269	 0.376883722826535 
2270	 0.37726743571073 
2271	 0.377709001490056 
2272	 0.378207483619254 
2273	 0.37881624993184 
2274	 0.379511938879566 
2275	 0.380265701983311 
2276	 0.381146985137295 
2277	 0.381985057472534 
2278	 0.382851187409787 
2279	 0.383750858123574 
2280	 0.384676986674882 
2281	 0.385600900708702 
2282	 0.386582827702364 
2283	 0.387518044546242 
2284	 0.388445266887438 
2285	 0.389351168712439 
2286	 0.390243614773044 
2287	 0.391111578780123 
2288	 0.391968467236503 
2289	 0.392766332032194 
2290	 0.393539616219109 
2291	 0.394273334600403 
2292	 0.394968068800043 
2293	 0.395603128665787 
2294	 0.396156175861785 
2295	 0.396718525485745 
2296	 0.397216146548039 
2297	 0.397741461315411 
2298	 0.398276543244278 
2299	 0.398806710078253 
2300	 0.399349934754015 
2301	 0.399857171139402 
2302	 0.400349296417883 
2303	 0.40087983057346 
2304	 0.401396792570933 
2305	 0.401904670013825 
2306	 0.402401770798914 
2307	 0.402903657032665 
2308	 0.403386345293257 
2309	 0.403873276974868 
2310	 0.404293388997954 
2311	 0.404681298533004 
2312	 0.405053472151978 
2313	 0.405368147784076 
2314	 0.405663488655222 
2315	 0.405946270773372 
2316	 0.406216038968766 
2317	 0.406430498167185 
2318	 0.406673411470026 
2319	 0.406948977969082 
2320	 0.407172914820599 
2321	 0.407370414675506 
2322	 0.407562860722193 
2323	 0.407720055939848 
2324	 0.407885298061166 
2325	 0.408095974894306 
2326	 0.408207565004682 
2327	 0.408253803107634 
2328	 0.408298619160707 
2329	 0.408266710049594 
2330	 0.408296028380882 
2331	 0.408439987524129 
2332	 0.408514292399126 
2333	 0.408553187647541 
2334	 0.408543834618881 
2335	 0.408400824669004 
2336	 0.408314471958246 
2337	 0.408291846227704 
2338	 0.408181195898042 
2339	 0.408034446647732 
2340	 0.407872246392511 
2341	 0.407777523487001 
2342	 0.407688913150234 
2343	 0.407572003706444 
2344	 0.40747646663951 
2345	 0.407256986893027 
2346	 0.406871891738185 
2347	 0.406542791063158 
2348	 0.406162643724523 
2349	 0.405844506114476 
2350	 0.405567831160854 
2351	 0.405234439050195 
2352	 0.404907663213169 
2353	 0.404543651048649 
2354	 0.404097242649753 
2355	 0.403690698011788 
2356	 0.403306948210534 
2357	 0.402940978239171 
2358	 0.402555714025708 
2359	 0.402222088469162 
2360	 0.401977340470924 
2361	 0.401640349142935 
2362	 0.401366761639748 
2363	 0.400913759639358 
2364	 0.400262841679599 
2365	 0.399684918150563 
2366	 0.399013880084698 
2367	 0.398410163413345 
2368	 0.3978866493521 
2369	 0.397321629325332 
2370	 0.396779117291538 
2371	 0.396155943881477 
2372	 0.395457424132764 
2373	 0.394830942248137 
2374	 0.394180930786337 
2375	 0.393486623094756 
2376	 0.392843053765391 
2377	 0.392131893126925 
2378	 0.391366347238093 
2379	 0.390592244467672 
2380	 0.389759839059093 
2381	 0.388934738072127 
2382	 0.388180130451798 
2383	 0.387441144072618 
2384	 0.386693899378158 
2385	 0.385981456742182 
2386	 0.385187757395602 
2387	 0.384387181591185 
2388	 0.38367701301583 
2389	 0.382919646071537 
2390	 0.3821827012573 
2391	 0.381469058101144 
2392	 0.380709948576398 
2393	 0.379909640861813 
2394	 0.379055345594626 
2395	 0.378230942937199 
2396	 0.377390603742825 
2397	 0.376574678294048 
2398	 0.375883168311587 
2399	 0.375119713243477 
2400	 0.374308250224633 
2401	 0.373565452282438 
2402	 0.372852223811587 
2403	 0.372153725443415 
2404	 0.371448811010849 
2405	 0.370790587659355 
2406	 0.370108609082052 
2407	 0.369389819313876 
2408	 0.368693358368677 
2409	 0.368032502195066 
2410	 0.367408532571588 
2411	 0.366793505670059 
2412	 0.366261697394514 
2413	 0.365629235123694 
2414	 0.364813998815248 
2415	 0.364069333204255 
2416	 0.363355635666196 
2417	 0.362564850326621 
2418	 0.361915335758098 
2419	 0.361380822497115 
2420	 0.360836692495962 
2421	 0.360419621579854 
2422	 0.359903065195683 
2423	 0.359378984282395 
2424	 0.358865865884492 
2425	 0.358231540699112 
2426	 0.357687704651705 
2427	 0.35723520859107 
2428	 0.356745303771518 
2429	 0.356310494952275 
2430	 0.355803403596722 
2431	 0.355236485169131 
2432	 0.354711514560552 
2433	 0.354185607213205 
2434	 0.353596901205221 
2435	 0.352962336390195 
2436	 0.352429806645321 
2437	 0.351907717118971 
2438	 0.35131523546664 
2439	 0.350789047441359 
2440	 0.350211345624238 
2441	 0.349497141267545 
2442	 0.348933710824325 
2443	 0.348494870283771 
2444	 0.347954413055752 
2445	 0.347386690217528 
2446	 0.346880981236649 
2447	 0.346422210116055 
2448	 0.345849494398082 
2449	 0.345249708146483 
2450	 0.344615500760133 
2451	 0.343826515258586 
2452	 0.343117586122243 
2453	 0.342497067043354 
2454	 0.341899037180095 
2455	 0.341280777456411 
2456	 0.340706318673226 
2457	 0.340176840777081 
2458	 0.339641945316031 
2459	 0.33909053529049 
2460	 0.33863999139445 
2461	 0.338293474916678 
2462	 0.337957186838526 
2463	 0.337691746938621 
2464	 0.337310365562305 
2465	 0.336895202975349 
2466	 0.336530932295305 
2467	 0.336132218908705 
2468	 0.335768378323825 
2469	 0.335432910682755 
2470	 0.334889883566071 
2471	 0.334502489090542 
2472	 0.333935617654843 
2473	 0.333576965185858 
2474	 0.333443219060256 
2475	 0.333235229797337 
2476	 0.333072089547509 
2477	 0.332972127815487 
2478	 0.332683839945338 
2479	 0.332212359170043 
2480	 0.331859201488128 
2481	 0.331483764936382 
2482	 0.331104381052178 
2483	 0.330822867136387 
2484	 0.330412908789958 
2485	 0.329840570807807 
2486	 0.329237574428378 
2487	 0.32868966936186 
2488	 0.328083221550483 
2489	 0.327562217156857 
2490	 0.327240904348505 
2491	 0.326779596768494 
2492	 0.326401481617964 
2493	 0.326052869744802 
2494	 0.325312269552984 
2495	 0.324702480912168 
2496	 0.324157082915293 
2497	 0.323341473585745 
2498	 0.322751259964725 
2499	 0.322150475092781 
2500	 0.321217277014698 
