Wavelength	LMW7 profile 200009.asd
350	 6.77010077847109E-02 
351	 6.57964658425164E-02 
352	 6.26554164685206E-02 
353	 5.95409827415926E-02 
354	 0.060011274612056 
355	 6.46041677522955E-02 
356	 6.76628718668575E-02 
357	 6.52874666786566E-02 
358	 6.72993354743557E-02 
359	 0.065553288801656 
360	 6.05287630953837E-02 
361	 0.058282645954065 
362	 5.70165025021649E-02 
363	 6.00711528164799E-02 
364	 6.54774542783223E-02 
365	 6.20199264231985E-02 
366	 5.87628211865774E-02 
367	 5.83293857208215E-02 
368	 0.060634774442244 
369	 6.29057820306836E-02 
370	 6.28927891162721E-02 
371	 6.19386886403339E-02 
372	 6.35039212567453E-02 
373	 6.60002403890878E-02 
374	 6.69342140245709E-02 
375	 6.56299890207818E-02 
376	 6.45210282797237E-02 
377	 6.38944763299929E-02 
378	 6.56112114294249E-02 
379	 7.00851965256877E-02 
380	 7.09987637740848E-02 
381	 6.96955515968926E-02 
382	 6.84135914009655E-02 
383	 6.95535324279379E-02 
384	 0.071461760819188 
385	 7.25927859076161E-02 
386	 7.30094526237946E-02 
387	 7.59078191068529E-02 
388	 7.70697256048786E-02 
389	 7.82423524207059E-02 
390	 8.15703246859958E-02 
391	 8.14254794433185E-02 
392	 8.19943476632974E-02 
393	 8.49821893689652E-02 
394	 8.92596266437649E-02 
395	 8.92458525756356E-02 
396	 8.96017824243511E-02 
397	 9.31841594733322E-02 
398	 9.54143303023652E-02 
399	 9.75820456978618E-02 
400	 0.100081933150215 
401	 0.102881941965708 
402	 0.105066504365411 
403	 0.107026056446929 
404	 0.109229094034253 
405	 0.112072194558522 
406	 0.114495211310986 
407	 0.116676684687906 
408	 0.118729844768301 
409	 0.119780004790357 
410	 0.1215930524433 
411	 0.124050015053641 
412	 0.126149290376336 
413	 0.127708654224638 
414	 0.128783064999344 
415	 0.129481985596211 
416	 0.129896308662396 
417	 0.130970458873493 
418	 0.132198670302775 
419	 0.132867184732632 
420	 0.132926770130155 
421	 0.132295244821798 
422	 0.131863600878373 
423	 0.132774718767543 
424	 0.131814664457969 
425	 0.130460727861206 
426	 0.12981606703884 
427	 0.129239419751006 
428	 0.128329937252295 
429	 0.127296049035035 
430	 0.126398236040783 
431	 0.124900721368263 
432	 0.123817492000806 
433	 0.123329606172329 
434	 0.122770988964603 
435	 0.122403480973672 
436	 0.122431890472655 
437	 0.122927237789679 
438	 0.123627746316622 
439	 0.12481212861187 
440	 0.126291449317509 
441	 0.127690565901561 
442	 0.129134042547674 
443	 0.130994582742736 
444	 0.133228688928301 
445	 0.135133641332931 
446	 0.137246423060747 
447	 0.139526160503546 
448	 0.141755074690836 
449	 0.143650921495365 
450	 0.145951495465004 
451	 0.14857921332025 
452	 0.150770811143716 
453	 0.152784164587275 
454	 0.154916338738212 
455	 0.15725111214999 
456	 0.159361320620742 
457	 0.161191860877011 
458	 0.162955669880076 
459	 0.16491481665068 
460	 0.166664508001837 
461	 0.168117223030219 
462	 0.169431046138948 
463	 0.171052061081302 
464	 0.172676287989575 
465	 0.174087036289742 
466	 0.175227931871548 
467	 0.176567446435418 
468	 0.177788716537289 
469	 0.178861867317356 
470	 0.179996206495756 
471	 0.181098065782197 
472	 0.182214210654064 
473	 0.183353250729505 
474	 0.184371013586931 
475	 0.185415207347621 
476	 0.186430093850052 
477	 0.187307219780391 
478	 0.188226706373764 
479	 0.189242842018139 
480	 0.190278548305847 
481	 0.191090579378431 
482	 0.192065554110685 
483	 0.193109975399649 
484	 0.194066538556411 
485	 0.19513994080755 
486	 0.195981527608917 
487	 0.196621157814607 
488	 0.197405373933567 
489	 0.198313073187217 
490	 0.199273573238845 
491	 0.200203626893624 
492	 0.201018231993525 
493	 0.201814480818361 
494	 0.202631150781097 
495	 0.203477826204558 
496	 0.204374902241255 
497	 0.205250065966188 
498	 0.206081858177238 
499	 0.206939752755926 
500	 0.207700069190912 
501	 0.208461318503606 
502	 0.2093255028363 
503	 0.210105640337748 
504	 0.21093197280181 
505	 0.2117382522691 
506	 0.21230098047234 
507	 0.213203537152177 
508	 0.214152528440177 
509	 0.2148818370274 
510	 0.215681956568117 
511	 0.216398657516718 
512	 0.217096668462869 
513	 0.217927836423958 
514	 0.21870453080778 
515	 0.219473032403735 
516	 0.220272557208141 
517	 0.221088461620351 
518	 0.22187037846812 
519	 0.222552887611795 
520	 0.223125789712977 
521	 0.223848069405513 
522	 0.224622475749878 
523	 0.225400795489356 
524	 0.22620677763019 
525	 0.226798602181192 
526	 0.227356737507311 
527	 0.228079424556413 
528	 0.228926062015895 
529	 0.229678915927049 
530	 0.230347899530005 
531	 0.231088057369733 
532	 0.231819943508044 
533	 0.232562913448017 
534	 0.233321231990038 
535	 0.234037044068623 
536	 0.234777961089677 
537	 0.23546602950714 
538	 0.23602840979151 
539	 0.236846934478727 
540	 0.237553374309113 
541	 0.238077450729748 
542	 0.238814679598039 
543	 0.239590695036017 
544	 0.240356097399917 
545	 0.241091452395822 
546	 0.241774896782491 
547	 0.242503727261308 
548	 0.243262205299541 
549	 0.243945995518114 
550	 0.244688415370383 
551	 0.245457779236692 
552	 0.246215621998686 
553	 0.246987895884269 
554	 0.247766159776578 
555	 0.248545408551312 
556	 0.2493233957003 
557	 0.250114381167578 
558	 0.250909151354424 
559	 0.251724070511814 
560	 0.252641780426772 
561	 0.253385844800394 
562	 0.25408488860703 
563	 0.254975540896527 
564	 0.256049720755077 
565	 0.256963037230622 
566	 0.25768176082407 
567	 0.258536709594033 
568	 0.259458575478948 
569	 0.260460249273536 
570	 0.261520100603541 
571	 0.262478297481289 
572	 0.263373778100275 
573	 0.264258137947093 
574	 0.265185852773332 
575	 0.266131214682211 
576	 0.267190426758431 
577	 0.268344198546506 
578	 0.269277340346453 
579	 0.270217889193871 
580	 0.271151252390963 
581	 0.271996399099943 
582	 0.272931727228389 
583	 0.273906722026576 
584	 0.274889655869019 
585	 0.275906542757234 
586	 0.277062330240207 
587	 0.278271818220589 
588	 0.279419882543279 
589	 0.280543029544125 
590	 0.281693626624635 
591	 0.28288345317276 
592	 0.284084338059517 
593	 0.285200421973708 
594	 0.286217002733396 
595	 0.287148611982753 
596	 0.288041792584672 
597	 0.288807439739359 
598	 0.289532473527686 
599	 0.290374188683658 
600	 0.291130779789807 
601	 0.291983749437693 
602	 0.292983899392479 
603	 0.293882649262522 
604	 0.294704930793211 
605	 0.295550218243634 
606	 0.296514488661144 
607	 0.297481658804902 
608	 0.298356534783302 
609	 0.299173489659785 
610	 0.30010820813136 
611	 0.300916150940552 
612	 0.30163626596529 
613	 0.302342679446219 
614	 0.302988594164885 
615	 0.303588095451513 
616	 0.304168879363112 
617	 0.304761458930301 
618	 0.30534397675376 
619	 0.305863879544307 
620	 0.306320807530265 
621	 0.306831105792065 
622	 0.307349343930306 
623	 0.307807102851512 
624	 0.308169584164067 
625	 0.308711084498173 
626	 0.309203616082622 
627	 0.309563449705432 
628	 0.309948396034164 
629	 0.31036953070924 
630	 0.310794350335526 
631	 0.311181937617462 
632	 0.31152698036707 
633	 0.311852414784818 
634	 0.312214213196959 
635	 0.31267497580649 
636	 0.312949790969835 
637	 0.313250405801347 
638	 0.313703950015155 
639	 0.314011248234494 
640	 0.314326170480014 
641	 0.31467167754095 
642	 0.315014163504365 
643	 0.315347175196773 
644	 0.315684434881859 
645	 0.316032360925519 
646	 0.31638318802362 
647	 0.316733174197177 
648	 0.317100845609521 
649	 0.317498782006204 
650	 0.317889509915425 
651	 0.318270750359571 
652	 0.318620826181422 
653	 0.318912322278024 
654	 0.319336006411616 
655	 0.319739821626194 
656	 0.320026805377304 
657	 0.320391540872451 
658	 0.32079980002461 
659	 0.3212323494705 
660	 0.321663850784354 
661	 0.3220132475101 
662	 0.322460037195976 
663	 0.323015880310535 
664	 0.323415976360529 
665	 0.323811130375299 
666	 0.324263759490697 
667	 0.324755350579701 
668	 0.325012027996726 
669	 0.325424181835366 
670	 0.325993048195216 
671	 0.326398409214113 
672	 0.326864556942927 
673	 0.327384112881428 
674	 0.327902754125829 
675	 0.328339421022604 
676	 0.328834769604445 
677	 0.329327867769674 
678	 0.329706859284812 
679	 0.330163683528316 
680	 0.330672204042634 
681	 0.331201421545781 
682	 0.331742638049222 
683	 0.332203524796057 
684	 0.332652683004607 
685	 0.333169555592992 
686	 0.333710878024755 
687	 0.33421356193112 
688	 0.334704550211629 
689	 0.335260242630671 
690	 0.335712962457316 
691	 0.33616131443097 
692	 0.336681278082679 
693	 0.337236650588306 
694	 0.337711670406498 
695	 0.338184723584934 
696	 0.338759652207579 
697	 0.339237234717008 
698	 0.33968200652097 
699	 0.340175934533657 
700	 0.34079112573577 
701	 0.341264758776558 
702	 0.341651735846727 
703	 0.342066297504612 
704	 0.342591767215046 
705	 0.343027440419861 
706	 0.34340043972715 
707	 0.343846110776763 
708	 0.344297367307303 
709	 0.344744330463077 
710	 0.345159639770171 
711	 0.345481770147431 
712	 0.345855813056385 
713	 0.346264042099375 
714	 0.346639587376613 
715	 0.346912634969135 
716	 0.347248671721186 
717	 0.347646487420405 
718	 0.347979813489492 
719	 0.348240379847975 
720	 0.348455275876104 
721	 0.348639312766063 
722	 0.348749821820867 
723	 0.349062229516976 
724	 0.349411326989356 
725	 0.349550197098429 
726	 0.349667733584775 
727	 0.349824760962683 
728	 0.349972260484844 
729	 0.349979310836746 
730	 0.350071061691078 
731	 0.350163549041606 
732	 0.350181434542456 
733	 0.350219106041544 
734	 0.350152120162977 
735	 0.350020649485659 
736	 0.349924495110607 
737	 0.34986333590852 
738	 0.349777640094967 
739	 0.349636496890615 
740	 0.349448082935282 
741	 0.349254720790795 
742	 0.349071917841438 
743	 0.348877999024227 
744	 0.348560878649644 
745	 0.348301339377085 
746	 0.348058931424474 
747	 0.347711346119672 
748	 0.3473748782702 
749	 0.347078956915758 
750	 0.346768452764093 
751	 0.346302149053232 
752	 0.345812072661788 
753	 0.345382714726198 
754	 0.345020054846908 
755	 0.344540507495737 
756	 0.34406283480222 
757	 0.343613562493248 
758	 0.343158630411144 
759	 0.342605106985367 
760	 0.34194899889907 
761	 0.341282484209071 
762	 0.340794893595527 
763	 0.340291893388704 
764	 0.339685192045031 
765	 0.338989049736876 
766	 0.338434249731715 
767	 0.337831286801671 
768	 0.33713573588762 
769	 0.336400436634316 
770	 0.335777098744719 
771	 0.335216496334838 
772	 0.334622627182095 
773	 0.333878133883031 
774	 0.333237926607944 
775	 0.332608536776208 
776	 0.331893031108539 
777	 0.331205996677676 
778	 0.330556020761032 
779	 0.329906956245315 
780	 0.329209770054532 
781	 0.328495310867054 
782	 0.327815408284881 
783	 0.327155355676742 
784	 0.326436744290451 
785	 0.325762079419003 
786	 0.325128950389947 
787	 0.32448879359621 
788	 0.323718116722573 
789	 0.323037482941606 
790	 0.322419996595664 
791	 0.321756796194811 
792	 0.321062372241063 
793	 0.320402760056706 
794	 0.319742143332757 
795	 0.318974515129497 
796	 0.318287294365448 
797	 0.317648398308147 
798	 0.31700877843328 
799	 0.31635624009156 
800	 0.31570430931359 
801	 0.315090111435764 
802	 0.314509374043703 
803	 0.313758362932882 
804	 0.313157376680303 
805	 0.312660016565262 
806	 0.312015945560122 
807	 0.311436250837281 
808	 0.310793286980589 
809	 0.310079808031739 
810	 0.309480475720001 
811	 0.308938740310132 
812	 0.3084238432401 
813	 0.307899285703874 
814	 0.307309602592143 
815	 0.306678906663628 
816	 0.306076780825986 
817	 0.305564399703847 
818	 0.305050754744212 
819	 0.304532214921579 
820	 0.304009326322137 
821	 0.303483220003014 
822	 0.302955078760875 
823	 0.302439863883933 
824	 0.301934856113594 
825	 0.301405187681924 
826	 0.300971189734158 
827	 0.300580024108316 
828	 0.300143540722511 
829	 0.299627747554626 
830	 0.299088142847328 
831	 0.298560233800172 
832	 0.298070842804836 
833	 0.297669987510011 
834	 0.297277731894873 
835	 0.296867234253652 
836	 0.296472804602672 
837	 0.296105765518484 
838	 0.295790111568334 
839	 0.295482101633254 
840	 0.295026816878094 
841	 0.294540357809158 
842	 0.294083969086396 
843	 0.293698955263856 
844	 0.293424728639662 
845	 0.293105502435835 
846	 0.292789150389837 
847	 0.292569485794594 
848	 0.292205661010966 
849	 0.29179847243184 
850	 0.291423420047024 
851	 0.29110257406692 
852	 0.290734000083824 
853	 0.290441260384358 
854	 0.290243513191335 
855	 0.289969558305805 
856	 0.289796734732203 
857	 0.28957926126273 
858	 0.289225607380176 
859	 0.288967364889743 
860	 0.288727252040176 
861	 0.28849457591358 
862	 0.28828276679079 
863	 0.288129972333848 
864	 0.287928211369957 
865	 0.287710979309603 
866	 0.287573933838158 
867	 0.287364468258798 
868	 0.28718221062754 
869	 0.28703455568189 
870	 0.286816752678082 
871	 0.286498572453878 
872	 0.286286790871842 
873	 0.286274467917012 
874	 0.286312608728195 
875	 0.286210448978357 
876	 0.286036411649111 
877	 0.285880147005553 
878	 0.285660787212151 
879	 0.285669752105207 
880	 0.285694530885307 
881	 0.285489554775546 
882	 0.285473593945667 
883	 0.285427469241296 
884	 0.285276795898289 
885	 0.285081447505941 
886	 0.28509949958348 
887	 0.285184631682885 
888	 0.285195966671311 
889	 0.285062891787662 
890	 0.285017956343545 
891	 0.284999042895082 
892	 0.284995971026112 
893	 0.285098754918743 
894	 0.285070321681915 
895	 0.285052037892699 
896	 0.285138301859277 
897	 0.285203475979417 
898	 0.285236350468813 
899	 0.285260614560367 
900	 0.285301756251387 
901	 0.285350178084388 
902	 0.28544897928392 
903	 0.285581007799146 
904	 0.285704731594279 
905	 0.28578178851454 
906	 0.285852774194032 
907	 0.285909680795558 
908	 0.285954634903507 
909	 0.286161137284233 
910	 0.286381821475513 
911	 0.286538925221944 
912	 0.286637259048702 
913	 0.286794515721573 
914	 0.286962262358953 
915	 0.287118866611052 
916	 0.28727709536517 
917	 0.287379154667775 
918	 0.28762435051685 
919	 0.288001786498025 
920	 0.288239701351753 
921	 0.288400635163982 
922	 0.288530983614342 
923	 0.288684974455076 
924	 0.288919374465382 
925	 0.289275712415501 
926	 0.289662227797802 
927	 0.289972152800049 
928	 0.290134067282082 
929	 0.290431808860344 
930	 0.290776784240196 
931	 0.29106167502122 
932	 0.291381015175182 
933	 0.291636581221191 
934	 0.291877144060689 
935	 0.292178651865834 
936	 0.292567698682092 
937	 0.29291691985652 
938	 0.293238935632457 
939	 0.293594660520909 
940	 0.294026435036391 
941	 0.294406982725828 
942	 0.294807726227228 
943	 0.295297498892502 
944	 0.295590981183301 
945	 0.29602086139164 
946	 0.296521353911054 
947	 0.296904094852514 
948	 0.297360602685347 
949	 0.297739736428944 
950	 0.298091084680137 
951	 0.298546816544228 
952	 0.299058895414148 
953	 0.299666459835312 
954	 0.300234514187921 
955	 0.300618865995826 
956	 0.301161210414138 
957	 0.301623131015772 
958	 0.302067334393301 
959	 0.302683591255597 
960	 0.303172831479877 
961	 0.303621651388381 
962	 0.304139772668675 
963	 0.304778089907056 
964	 0.305291264161107 
965	 0.305764642776224 
966	 0.306289496527357 
967	 0.306913918022731 
968	 0.307521787156579 
969	 0.308121509693929 
970	 0.30868341595978 
971	 0.309183098502005 
972	 0.309797137609781 
973	 0.310521825268137 
974	 0.31126978312319 
975	 0.311926729261767 
976	 0.312491158951281 
977	 0.313179343631884 
978	 0.313956019570419 
979	 0.314626772328233 
980	 0.315193518515105 
981	 0.315671295159408 
982	 0.316213262303493 
983	 0.316980841549534 
984	 0.317772034233734 
985	 0.318504569785459 
986	 0.319121522286374 
987	 0.319641211993489 
988	 0.320324990472756 
989	 0.320987119568468 
990	 0.32161211624978 
991	 0.322288963675797 
992	 0.323094574876887 
993	 0.323785372137102 
994	 0.324512897600905 
995	 0.325422887847318 
996	 0.325858633414837 
997	 0.326443450474561 
998	 0.327137160685595 
999	 0.327774998720323 
1000	 0.32882771085386 
1001	 0.332197724788615 
1002	 0.332816514397817 
1003	 0.333469811937899 
1004	 0.334121207442302 
1005	 0.334827124587245 
1006	 0.335499084946782 
1007	 0.336131069997196 
1008	 0.336781834101606 
1009	 0.337501422659243 
1010	 0.338215088176344 
1011	 0.338913485003511 
1012	 0.339595932205852 
1013	 0.340177241175998 
1014	 0.340748221050335 
1015	 0.341305215167541 
1016	 0.341844320145387 
1017	 0.342474625137788 
1018	 0.343187929467807 
1019	 0.343859888118044 
1020	 0.344502916092475 
1021	 0.345238830954575 
1022	 0.345880103223503 
1023	 0.346452003198268 
1024	 0.347131216310891 
1025	 0.347728975263652 
1026	 0.348257089526112 
1027	 0.348870737146324 
1028	 0.349450124397988 
1029	 0.350054373853986 
1030	 0.350711560666202 
1031	 0.351312354831417 
1032	 0.351905202379662 
1033	 0.352474647940582 
1034	 0.353002067043394 
1035	 0.353506441223667 
1036	 0.354051190579424 
1037	 0.354639375533173 
1038	 0.355236653280226 
1039	 0.355768212849209 
1040	 0.35627680172247 
1041	 0.356811672416068 
1042	 0.357317398723085 
1043	 0.357881968590877 
1044	 0.358445469372889 
1045	 0.359061052552964 
1046	 0.359593495277577 
1047	 0.36011304119114 
1048	 0.360616459375198 
1049	 0.361130821336543 
1050	 0.361654807498697 
1051	 0.362164133763557 
1052	 0.362712983796393 
1053	 0.363216200810622 
1054	 0.363707694310143 
1055	 0.364257020167294 
1056	 0.364816085511231 
1057	 0.36538174421569 
1058	 0.365981521784739 
1059	 0.366553828057821 
1060	 0.367119448851981 
1061	 0.367699746703021 
1062	 0.368204218560406 
1063	 0.368712654390013 
1064	 0.369303759256412 
1065	 0.369841302145191 
1066	 0.370388665047265 
1067	 0.371015772531363 
1068	 0.371607085266731 
1069	 0.372144070595054 
1070	 0.372690696235657 
1071	 0.373233006210828 
1072	 0.373799545611944 
1073	 0.374390673482361 
1074	 0.374936385969315 
1075	 0.375477667918355 
1076	 0.375999600421553 
1077	 0.376525598106466 
1078	 0.376995336457362 
1079	 0.377504024127392 
1080	 0.37805141011221 
1081	 0.378585137869626 
1082	 0.379093831810994 
1083	 0.379587646152353 
1084	 0.380088695532521 
1085	 0.380573524728771 
1086	 0.381000759710528 
1087	 0.381483578776384 
1088	 0.382015615582737 
1089	 0.382484661286536 
1090	 0.382939475532694 
1091	 0.383415445267621 
1092	 0.383868616194027 
1093	 0.38433057951835 
1094	 0.384809463003284 
1095	 0.385244644324606 
1096	 0.385631243564418 
1097	 0.386036806459915 
1098	 0.386463306540951 
1099	 0.386906364450824 
1100	 0.387336748655618 
1101	 0.387784287297878 
1102	 0.388222686465463 
1103	 0.388662613462123 
1104	 0.389069730062511 
1105	 0.389465724081604 
1106	 0.389879052728678 
1107	 0.390294573606204 
1108	 0.390700329420137 
1109	 0.391114314170187 
1110	 0.391553025940228 
1111	 0.391974637004554 
1112	 0.392366151477006 
1113	 0.392785807087581 
1114	 0.393243789596681 
1115	 0.393653418432435 
1116	 0.394028778337493 
1117	 0.394444333506684 
1118	 0.394876966142558 
1119	 0.395268497855199 
1120	 0.395694110767284 
1121	 0.396104167875607 
1122	 0.396475261498879 
1123	 0.396866338111649 
1124	 0.397263931838254 
1125	 0.397663009194978 
1126	 0.398086752971429 
1127	 0.398528097854623 
1128	 0.39895702596845 
1129	 0.399416944288985 
1130	 0.399838011282318 
1131	 0.400235354005841 
1132	 0.400631381806506 
1133	 0.400992060987555 
1134	 0.401382392246299 
1135	 0.401789990578522 
1136	 0.402193799372742 
1137	 0.402577724449831 
1138	 0.402961643348764 
1139	 0.403339699743603 
1140	 0.403681162806488 
1141	 0.40405880667736 
1142	 0.40446869216338 
1143	 0.404854336760392 
1144	 0.405234973544062 
1145	 0.405612901983578 
1146	 0.405979075812766 
1147	 0.406349962330467 
1148	 0.406708682616231 
1149	 0.40709425729746 
1150	 0.407508545373983 
1151	 0.407908343516615 
1152	 0.408276959477007 
1153	 0.408650526981923 
1154	 0.409026929094566 
1155	 0.409384792096042 
1156	 0.409737473183437 
1157	 0.410113337770691 
1158	 0.410457610799852 
1159	 0.410755830210436 
1160	 0.411081521642217 
1161	 0.411393409776434 
1162	 0.411747358603408 
1163	 0.41213957566318 
1164	 0.412509467077775 
1165	 0.412891881985205 
1166	 0.413286671923143 
1167	 0.41363998893647 
1168	 0.413999824059964 
1169	 0.414360385564973 
1170	 0.414733786254713 
1171	 0.415078982755177 
1172	 0.415408913441637 
1173	 0.415744320614778 
1174	 0.416068886018617 
1175	 0.416397255392029 
1176	 0.416719505215612 
1177	 0.417058497198211 
1178	 0.417396889261654 
1179	 0.417747725682831 
1180	 0.418131205519537 
1181	 0.418492924323349 
1182	 0.418840267822572 
1183	 0.419207002497752 
1184	 0.419555642107551 
1185	 0.419886760462406 
1186	 0.420240717821322 
1187	 0.420599153954728 
1188	 0.420959627259114 
1189	 0.421341591552896 
1190	 0.42169619423211 
1191	 0.422047387874199 
1192	 0.422383018144191 
1193	 0.422695750440958 
1194	 0.423014474120054 
1195	 0.423319397061834 
1196	 0.423634643054048 
1197	 0.423975014371803 
1198	 0.424283341272045 
1199	 0.424578916991576 
1200	 0.424861205633456 
1201	 0.425157471943249 
1202	 0.425429964838619 
1203	 0.42573409390882 
1204	 0.426070856007143 
1205	 0.426385653789156 
1206	 0.426705979404972 
1207	 0.427008502280163 
1208	 0.427295786426895 
1209	 0.427589981102821 
1210	 0.427873147215693 
1211	 0.428163673136528 
1212	 0.42848092385347 
1213	 0.428764897962103 
1214	 0.429031748792379 
1215	 0.429294718475069 
1216	 0.42954628098424 
1217	 0.429762659850967 
1218	 0.430024638801174 
1219	 0.430302642923386 
1220	 0.430575834617732 
1221	 0.43087220246055 
1222	 0.431147318485371 
1223	 0.431412140060582 
1224	 0.431675915032738 
1225	 0.431941091138177 
1226	 0.432194005458194 
1227	 0.432445577238489 
1228	 0.432680286325029 
1229	 0.432883107926841 
1230	 0.433108550666334 
1231	 0.433335309653126 
1232	 0.433561911655624 
1233	 0.43379387717635 
1234	 0.434047928605411 
1235	 0.434274505090621 
1236	 0.434482567741448 
1237	 0.434706878933587 
1238	 0.434935095371344 
1239	 0.435154977822976 
1240	 0.435374246658476 
1241	 0.435598111202337 
1242	 0.435822356553749 
1243	 0.436037425014485 
1244	 0.43625552687216 
1245	 0.436470385210335 
1246	 0.436667262483448 
1247	 0.436875109689004 
1248	 0.437090105052172 
1249	 0.437309416999054 
1250	 0.437527667910783 
1251	 0.437739295634905 
1252	 0.437951809413686 
1253	 0.43817264400973 
1254	 0.438365128049992 
1255	 0.438540392402269 
1256	 0.438723465481332 
1257	 0.438882691268475 
1258	 0.439066224350153 
1259	 0.439262031919492 
1260	 0.439465193430074 
1261	 0.43970623199994 
1262	 0.439896199567173 
1263	 0.440058157178183 
1264	 0.440236222673207 
1265	 0.440393115171053 
1266	 0.440549683411079 
1267	 0.440734775381166 
1268	 0.440898376257213 
1269	 0.44103471194194 
1270	 0.441129320479996 
1271	 0.441256639199011 
1272	 0.441377395915271 
1273	 0.441509400071336 
1274	 0.441656157608929 
1275	 0.44179881806272 
1276	 0.441924937620708 
1277	 0.442086155194639 
1278	 0.442269363071772 
1279	 0.442452742755819 
1280	 0.442650880990958 
1281	 0.44286002099352 
1282	 0.443080518416261 
1283	 0.443296543615079 
1284	 0.443518804044989 
1285	 0.44375821190747 
1286	 0.443970876128192 
1287	 0.444194966186482 
1288	 0.444403009453971 
1289	 0.444594923497972 
1290	 0.444813119106536 
1291	 0.445022809475969 
1292	 0.445263846755811 
1293	 0.445556423707355 
1294	 0.445799012154094 
1295	 0.446031825168401 
1296	 0.446262470733807 
1297	 0.446461419720631 
1298	 0.446683050188609 
1299	 0.446923757835791 
1300	 0.447150961621347 
1301	 0.447385088146224 
1302	 0.447600476224242 
1303	 0.447806548646072 
1304	 0.448002046896385 
1305	 0.448183737363665 
1306	 0.448333842265478 
1307	 0.448474732323095 
1308	 0.448590468619764 
1309	 0.448710369851307 
1310	 0.448815450620728 
1311	 0.44893069400076 
1312	 0.449043113301559 
1313	 0.449163207502151 
1314	 0.449295170976215 
1315	 0.449402562687293 
1316	 0.449503924816171 
1317	 0.449605134831062 
1318	 0.449692836997926 
1319	 0.449780511806002 
1320	 0.449875241916265 
1321	 0.449955420729579 
1322	 0.450037121222815 
1323	 0.450081851069435 
1324	 0.450131564038844 
1325	 0.450173575993997 
1326	 0.450184214304196 
1327	 0.45023539471424 
1328	 0.450274986084808 
1329	 0.450269974974752 
1330	 0.450272168392722 
1331	 0.450244498839733 
1332	 0.450261048628265 
1333	 0.450296667558226 
1334	 0.450327205895864 
1335	 0.450383461190473 
1336	 0.450421400752515 
1337	 0.450442358729467 
1338	 0.450466984675098 
1339	 0.450504564296675 
1340	 0.450521078979535 
1341	 0.450525368835404 
1342	 0.450524329792051 
1343	 0.45050755585893 
1344	 0.450492340512227 
1345	 0.450494534613095 
1346	 0.450489653459445 
1347	 0.450486951791595 
1348	 0.450475987009743 
1349	 0.450401790438406 
1350	 0.450306681099965 
1351	 0.450224506646242 
1352	 0.450111667843856 
1353	 0.450027135167224 
1354	 0.449961781004518 
1355	 0.449894311003317 
1356	 0.449828479707472 
1357	 0.449763134563724 
1358	 0.44969417282989 
1359	 0.449651630616186 
1360	 0.449623303142287 
1361	 0.449590061616311 
1362	 0.449563488060254 
1363	 0.44955533042914 
1364	 0.449545418638487 
1365	 0.449551613083622 
1366	 0.449588638995429 
1367	 0.449629089754758 
1368	 0.449661231599573 
1369	 0.449667315521003 
1370	 0.449668508361227 
1371	 0.449651419353881 
1372	 0.449603392649286 
1373	 0.44955597867584 
1374	 0.449479387142545 
1375	 0.449385372137593 
1376	 0.449255836174056 
1377	 0.449097229166012 
1378	 0.448928803968202 
1379	 0.448722226656758 
1380	 0.448527300193376 
1381	 0.448301948774711 
1382	 0.448118906118222 
1383	 0.447959039450319 
1384	 0.447793789636136 
1385	 0.447688023150777 
1386	 0.447516427664434 
1387	 0.447328506903493 
1388	 0.447091833174059 
1389	 0.446821732787665 
1390	 0.44650053499022 
1391	 0.446148740074044 
1392	 0.445747638647849 
1393	 0.445292532769001 
1394	 0.444840621406668 
1395	 0.444369997002817 
1396	 0.443880435931315 
1397	 0.443403673227594 
1398	 0.442925860818157 
1399	 0.442459156952216 
1400	 0.441988830400206 
1401	 0.441542486727761 
1402	 0.441116851927682 
1403	 0.440684868068951 
1404	 0.440248372789285 
1405	 0.439846443034657 
1406	 0.439457574555192 
1407	 0.439083465547084 
1408	 0.438709340483777 
1409	 0.43839061149121 
1410	 0.438058740249942 
1411	 0.437831700248274 
1412	 0.437653182884161 
1413	 0.437583356647549 
1414	 0.437619065283857 
1415	 0.437708009933888 
1416	 0.437902183337229 
1417	 0.438163234739402 
1418	 0.43844658416121 
1419	 0.43873709505235 
1420	 0.439019096189243 
1421	 0.439260734105798 
1422	 0.439434378918381 
1423	 0.439573406782444 
1424	 0.439657085799339 
1425	 0.439670055607516 
1426	 0.439682715903434 
1427	 0.439651385965393 
1428	 0.439618830157766 
1429	 0.439576121986475 
1430	 0.439503362667212 
1431	 0.439413648779543 
1432	 0.439298827835506 
1433	 0.439142241252687 
1434	 0.4390000248055 
1435	 0.438830016902436 
1436	 0.438689356415592 
1437	 0.438572826972201 
1438	 0.438440917460289 
1439	 0.438323752834305 
1440	 0.438187225028683 
1441	 0.438018575019266 
1442	 0.437837225012667 
1443	 0.43763291282795 
1444	 0.43742627990464 
1445	 0.437234721888937 
1446	 0.437026461102914 
1447	 0.43680827018653 
1448	 0.436586981734889 
1449	 0.436339066872634 
1450	 0.436058485880224 
1451	 0.435750313569247 
1452	 0.435411726513603 
1453	 0.435064600557776 
1454	 0.43469194639253 
1455	 0.434303355324367 
1456	 0.433911070014714 
1457	 0.433483289007562 
1458	 0.433000454989891 
1459	 0.432548337532976 
1460	 0.432074836700387 
1461	 0.431633738451432 
1462	 0.431206879595699 
1463	 0.430803400654117 
1464	 0.43041647431128 
1465	 0.430043901611464 
1466	 0.429678513494465 
1467	 0.429355528622601 
1468	 0.429051655616227 
1469	 0.428788408971842 
1470	 0.428565165836839 
1471	 0.428367884596852 
1472	 0.4282028475015 
1473	 0.428113110482655 
1474	 0.42809240665628 
1475	 0.428131325748032 
1476	 0.428256714596322 
1477	 0.428416486493083 
1478	 0.428630286171599 
1479	 0.428895004903627 
1480	 0.429191117425545 
1481	 0.429519919707519 
1482	 0.429809722813947 
1483	 0.430091072148373 
1484	 0.43040168404439 
1485	 0.430700452285424 
1486	 0.4310122124927 
1487	 0.431383376052795 
1488	 0.431686447348889 
1489	 0.431964028541768 
1490	 0.432212570462292 
1491	 0.432432724011596 
1492	 0.432631010458236 
1493	 0.432793284492933 
1494	 0.432949332797339 
1495	 0.433085476236472 
1496	 0.433213311027282 
1497	 0.433318641963952 
1498	 0.433426829045543 
1499	 0.433538351950336 
1500	 0.433625702415814 
1501	 0.433695887979746 
1502	 0.433770864583004 
1503	 0.433831182877977 
1504	 0.433886521017004 
1505	 0.433956084853558 
1506	 0.434027494757206 
1507	 0.434079093721462 
1508	 0.434111979349656 
1509	 0.434139540566812 
1510	 0.434157143873868 
1511	 0.434194103068044 
1512	 0.434236094142272 
1513	 0.434278235308396 
1514	 0.434326310696146 
1515	 0.434380327626966 
1516	 0.434439399824671 
1517	 0.434485220462052 
1518	 0.43453754824406 
1519	 0.434572078974072 
1520	 0.434576844508681 
1521	 0.434615132081531 
1522	 0.434670843633563 
1523	 0.434708881360263 
1524	 0.434748980444448 
1525	 0.434790359379056 
1526	 0.434815316845138 
1527	 0.434854247828778 
1528	 0.434921725513466 
1529	 0.434955500425749 
1530	 0.434957148475804 
1531	 0.434997619973359 
1532	 0.435033681699159 
1533	 0.435092431046422 
1534	 0.435212011513686 
1535	 0.435276621736712 
1536	 0.435321446043684 
1537	 0.435359786785268 
1538	 0.435364857059387 
1539	 0.435381528034472 
1540	 0.435385248395551 
1541	 0.435417846799081 
1542	 0.435474304122678 
1543	 0.43551657523395 
1544	 0.435585412143523 
1545	 0.435627720286961 
1546	 0.435629855678083 
1547	 0.435651990435207 
1548	 0.435706951202565 
1549	 0.435757889839895 
1550	 0.435842364895073 
1551	 0.435921802244986 
1552	 0.435962971753342 
1553	 0.435993076704769 
1554	 0.436039487346382 
1555	 0.436106731419852 
1556	 0.436181691865934 
1557	 0.436269651904112 
1558	 0.436347234949199 
1559	 0.436391714932608 
1560	 0.43643679963596 
1561	 0.436465895014433 
1562	 0.436515044631447 
1563	 0.436560132830061 
1564	 0.4366170696756 
1565	 0.43669245107438 
1566	 0.436753310168055 
1567	 0.436810894089919 
1568	 0.436866730169786 
1569	 0.43692534040955 
1570	 0.436969281813528 
1571	 0.437000761355677 
1572	 0.437045591738484 
1573	 0.437082245189835 
1574	 0.437127145804363 
1575	 0.43718877377509 
1576	 0.437236315174948 
1577	 0.437290735228529 
1578	 0.437318021554942 
1579	 0.437328516595388 
1580	 0.437335886359821 
1581	 0.437310319073169 
1582	 0.437313792280751 
1583	 0.437332673560982 
1584	 0.437346667240408 
1585	 0.437361764918205 
1586	 0.437384390077339 
1587	 0.437401870964017 
1588	 0.437436625864042 
1589	 0.437511876803476 
1590	 0.437547822275211 
1591	 0.437567356939464 
1592	 0.437591573812492 
1593	 0.437588998768673 
1594	 0.437600518510065 
1595	 0.437621260250104 
1596	 0.437650811447611 
1597	 0.43769543888723 
1598	 0.437722990597159 
1599	 0.437767577645788 
1600	 0.437781443229695 
1601	 0.437749273826931 
1602	 0.437741638348887 
1603	 0.43772013831738 
1604	 0.437720718084104 
1605	 0.43775129761319 
1606	 0.43777385968033 
1607	 0.437804120482188 
1608	 0.437837021912525 
1609	 0.437852314662157 
1610	 0.43785396072349 
1611	 0.437823247961045 
1612	 0.437793685687375 
1613	 0.437762059874782 
1614	 0.437716060813158 
1615	 0.43769635341175 
1616	 0.437671831570793 
1617	 0.437649854050614 
1618	 0.437666819491344 
1619	 0.437659165268407 
1620	 0.437652971481635 
1621	 0.437663627950388 
1622	 0.437684177699124 
1623	 0.43767474862678 
1624	 0.437676089237849 
1625	 0.43765031983914 
1626	 0.437580580613981 
1627	 0.437552260278433 
1628	 0.437535405031188 
1629	 0.4375179548758 
1630	 0.437510481488369 
1631	 0.437496399962247 
1632	 0.437475807468213 
1633	 0.437474532484342 
1634	 0.437489309939796 
1635	 0.437482071431207 
1636	 0.437486246461458 
1637	 0.437459786336714 
1638	 0.437395723104986 
1639	 0.437361343633208 
1640	 0.437324004983622 
1641	 0.437300559349742 
1642	 0.437294174740582 
1643	 0.437280951794848 
1644	 0.437267048361736 
1645	 0.437261360885965 
1646	 0.437267479291997 
1647	 0.437256202353064 
1648	 0.437246642707535 
1649	 0.437225435537149 
1650	 0.43718299470176 
1651	 0.437155088468396 
1652	 0.437144727768353 
1653	 0.437096540608038 
1654	 0.437020004264403 
1655	 0.436974725524282 
1656	 0.436920439878641 
1657	 0.436870954603839 
1658	 0.436845054174428 
1659	 0.436814549060108 
1660	 0.436761046193897 
1661	 0.436739664924056 
1662	 0.436760024825131 
1663	 0.436744169927799 
1664	 0.436723819871329 
1665	 0.436694633754707 
1666	 0.436642610942555 
1667	 0.436604746937075 
1668	 0.436582903560023 
1669	 0.436528863489894 
1670	 0.4364427544994 
1671	 0.436398336706499 
1672	 0.436355293013513 
1673	 0.436316298489872 
1674	 0.436323756478752 
1675	 0.436286308341342 
1676	 0.436200397895553 
1677	 0.436158920927474 
1678	 0.436130098530038 
1679	 0.436099150362926 
1680	 0.436106882765755 
1681	 0.436062180813733 
1682	 0.43598009526617 
1683	 0.435913829017448 
1684	 0.435817283024834 
1685	 0.435758663995492 
1686	 0.435721190833724 
1687	 0.435690803777979 
1688	 0.435688057500403 
1689	 0.435661590182185 
1690	 0.435637304854037 
1691	 0.435603168789502 
1692	 0.435552796063622 
1693	 0.435507391596621 
1694	 0.435462405387946 
1695	 0.435412005426509 
1696	 0.435352819404172 
1697	 0.435302328856005 
1698	 0.43525446595676 
1699	 0.435207227271122 
1700	 0.435164211045384 
1701	 0.435116196806512 
1702	 0.435074743595912 
1703	 0.435012189247639 
1704	 0.434949116687141 
1705	 0.434865239493191 
1706	 0.434730490782147 
1707	 0.434654168249112 
1708	 0.434597107155087 
1709	 0.43453207320353 
1710	 0.434499538898059 
1711	 0.434449824054572 
1712	 0.43437515839662 
1713	 0.434322867653597 
1714	 0.434295023217776 
1715	 0.434245959381769 
1716	 0.434187848723734 
1717	 0.434134364321895 
1718	 0.434074748797002 
1719	 0.434013929109246 
1720	 0.433962756354408 
1721	 0.433895994561852 
1722	 0.433818173251871 
1723	 0.4337445657627 
1724	 0.43367415217782 
1725	 0.433578015712139 
1726	 0.433472235328389 
1727	 0.43335388988339 
1728	 0.433200629673035 
1729	 0.433079889415384 
1730	 0.432974063721893 
1731	 0.432853460997346 
1732	 0.432737841012433 
1733	 0.432616197400084 
1734	 0.432482958239736 
1735	 0.432343226206348 
1736	 0.432201820794302 
1737	 0.432068814735173 
1738	 0.431920190352365 
1739	 0.431800854462646 
1740	 0.431709901691422 
1741	 0.431597237987798 
1742	 0.431485165491623 
1743	 0.431378047319202 
1744	 0.431271353385162 
1745	 0.4311456805051 
1746	 0.431015680812306 
1747	 0.43087873206118 
1748	 0.430738676329163 
1749	 0.430617096951365 
1750	 0.430514263103628 
1751	 0.430381755697369 
1752	 0.430234270609964 
1753	 0.43007234349734 
1754	 0.429890414435677 
1755	 0.429746219136983 
1756	 0.429603979268794 
1757	 0.429459614628329 
1758	 0.429345193417887 
1759	 0.429228659855099 
1760	 0.429116686134271 
1761	 0.428995986782158 
1762	 0.428857886912226 
1763	 0.42870432908562 
1764	 0.428546792656569 
1765	 0.42843391619546 
1766	 0.428318439921734 
1767	 0.428177652632403 
1768	 0.428055103988848 
1769	 0.427919058023781 
1770	 0.427793860436329 
1771	 0.427701997431646 
1772	 0.42758437088305 
1773	 0.427437641993564 
1774	 0.427290262349616 
1775	 0.427123962841854 
1776	 0.426965961235021 
1777	 0.426867728974927 
1778	 0.426785186978468 
1779	 0.426710477420199 
1780	 0.426633905107558 
1781	 0.426526362187004 
1782	 0.426423269151638 
1783	 0.426305560723573 
1784	 0.426190931163746 
1785	 0.426064981355102 
1786	 0.425943555928207 
1787	 0.425838500809527 
1788	 0.425719940478798 
1789	 0.425579671855072 
1790	 0.425474911329587 
1791	 0.425381825185123 
1792	 0.425280387880634 
1793	 0.425218741371813 
1794	 0.425116591473232 
1795	 0.424987506678465 
1796	 0.424842380577513 
1797	 0.424668672905745 
1798	 0.424502761793433 
1799	 0.424320217827518 
1800	 0.424149569832719 
1801	 0.422962035910963 
1802	 0.422944528788059 
1803	 0.422973160252675 
1804	 0.422977569554542 
1805	 0.422965573341028 
1806	 0.422922325806575 
1807	 0.422841455731485 
1808	 0.422780694919534 
1809	 0.422736051663711 
1810	 0.422642415006217 
1811	 0.422531770365658 
1812	 0.422426926511136 
1813	 0.422256569058628 
1814	 0.422076087578756 
1815	 0.421896481732973 
1816	 0.421698062016146 
1817	 0.421498309157729 
1818	 0.421288446158655 
1819	 0.42106343915457 
1820	 0.420830885932408 
1821	 0.420595032653563 
1822	 0.420331278171012 
1823	 0.420080269799772 
1824	 0.419828852566416 
1825	 0.419505337662132 
1826	 0.419148624498969 
1827	 0.418772728303237 
1828	 0.418374123753511 
1829	 0.41796579994454 
1830	 0.417503853308751 
1831	 0.417022680485288 
1832	 0.416478983981546 
1833	 0.415863319981118 
1834	 0.415230282340386 
1835	 0.41461515844504 
1836	 0.414007999108327 
1837	 0.413410982674151 
1838	 0.412823174625361 
1839	 0.412274525469466 
1840	 0.411740559018271 
1841	 0.411238968183823 
1842	 0.410781050501864 
1843	 0.410353713516928 
1844	 0.409979463079163 
1845	 0.409653436292233 
1846	 0.409365214389738 
1847	 0.409142490109824 
1848	 0.408952651878564 
1849	 0.408802442167871 
1850	 0.408722773199562 
1851	 0.408704671889433 
1852	 0.40874650318886 
1853	 0.408841762498106 
1854	 0.408975868454678 
1855	 0.409148647837982 
1856	 0.40933800784106 
1857	 0.409558320018186 
1858	 0.409776112080547 
1859	 0.409963261037044 
1860	 0.410158177570713 
1861	 0.410354239004615 
1862	 0.410530593104182 
1863	 0.41069960369362 
1864	 0.41088285367046 
1865	 0.411082090725284 
1866	 0.411276391402738 
1867	 0.411483921448858 
1868	 0.41173374944788 
1869	 0.411971712636588 
1870	 0.412218933956831 
1871	 0.41245418085137 
1872	 0.41270624004863 
1873	 0.412911873732802 
1874	 0.41309174545508 
1875	 0.413233681700398 
1876	 0.413299922099159 
1877	 0.413317408687805 
1878	 0.413283553617375 
1879	 0.4131927532148 
1880	 0.41303243587031 
1881	 0.412818157807087 
1882	 0.412538391978724 
1883	 0.412206165462677 
1884	 0.411760676125047 
1885	 0.411272384011225 
1886	 0.410728863990963 
1887	 0.410115680782225 
1888	 0.409478815391446 
1889	 0.408759392097094 
1890	 0.40798767485664 
1891	 0.407172060879775 
1892	 0.406255235339209 
1893	 0.405358168019727 
1894	 0.404451803167298 
1895	 0.403506242963611 
1896	 0.402514902723595 
1897	 0.401503752488411 
1898	 0.400453217470129 
1899	 0.399390007900058 
1900	 0.398319424315103 
1901	 0.39727453622466 
1902	 0.396246840193004 
1903	 0.395226226389723 
1904	 0.394216841914386 
1905	 0.393235514321165 
1906	 0.392272817572 
1907	 0.391269547456907 
1908	 0.39025845058768 
1909	 0.389288482109523 
1910	 0.388295200457841 
1911	 0.387330733597407 
1912	 0.386442928426225 
1913	 0.385547450157537 
1914	 0.384665742722233 
1915	 0.383797039160176 
1916	 0.382942168326452 
1917	 0.382094868460451 
1918	 0.381288908002689 
1919	 0.380498145143353 
1920	 0.379749811066478 
1921	 0.379043548206853 
1922	 0.378351843380554 
1923	 0.377711813220084 
1924	 0.377095435951928 
1925	 0.37650908626846 
1926	 0.375961071104825 
1927	 0.375448745441139 
1928	 0.374955015247908 
1929	 0.374514390061655 
1930	 0.374096898264682 
1931	 0.373700929514017 
1932	 0.37335219685779 
1933	 0.373040507740841 
1934	 0.372790608491168 
1935	 0.372583659396088 
1936	 0.37243641438132 
1937	 0.372319399620621 
1938	 0.372245442821889 
1939	 0.372198583062486 
1940	 0.372192791628757 
1941	 0.372206829696528 
1942	 0.372260553508604 
1943	 0.372365674734651 
1944	 0.3724733188985 
1945	 0.372595822533967 
1946	 0.372718488096342 
1947	 0.372846074490521 
1948	 0.372975196744528 
1949	 0.373138047579403 
1950	 0.373255118283815 
1951	 0.373354852824362 
1952	 0.373438579527302 
1953	 0.373498364932392 
1954	 0.373565022637389 
1955	 0.373666577669683 
1956	 0.373750991013864 
1957	 0.373848937953934 
1958	 0.373963237126242 
1959	 0.374062746041496 
1960	 0.374169138876731 
1961	 0.374265651138277 
1962	 0.374351869761423 
1963	 0.374439797632196 
1964	 0.374522914600383 
1965	 0.374588689204263 
1966	 0.374682430791821 
1967	 0.37478417207421 
1968	 0.374896444760035 
1969	 0.375029794070885 
1970	 0.375154076131835 
1971	 0.375285122883672 
1972	 0.375412716492042 
1973	 0.375533446937939 
1974	 0.375666571467709 
1975	 0.375807272902685 
1976	 0.375944519174292 
1977	 0.376105112032136 
1978	 0.376237842049952 
1979	 0.376354855442437 
1980	 0.376451148338189 
1981	 0.376568676190813 
1982	 0.376676986440601 
1983	 0.376804354341013 
1984	 0.376962961627651 
1985	 0.3771011253393 
1986	 0.377209180087788 
1987	 0.37735317432847 
1988	 0.377506153307066 
1989	 0.377673175788751 
1990	 0.377875452824055 
1991	 0.378078275844562 
1992	 0.378261937832133 
1993	 0.378447339829747 
1994	 0.378612697963411 
1995	 0.378751629540594 
1996	 0.378902102736988 
1997	 0.379048457299364 
1998	 0.379193643182142 
1999	 0.379332456906351 
2000	 0.37948876381492 
2001	 0.379658956273033 
2002	 0.379797072649084 
2003	 0.379993276282946 
2004	 0.380191391584391 
2005	 0.380383842945706 
2006	 0.380587377329936 
2007	 0.380793507747754 
2008	 0.380976245767235 
2009	 0.381199815358584 
2010	 0.381468888925169 
2011	 0.381701527258355 
2012	 0.38194647879029 
2013	 0.382175336872721 
2014	 0.382361706355784 
2015	 0.382578122984409 
2016	 0.382795942591456 
2017	 0.38301777723926 
2018	 0.383242388797278 
2019	 0.383477098405632 
2020	 0.38369548480851 
2021	 0.383919497691826 
2022	 0.384125591552222 
2023	 0.384332601726826 
2024	 0.384512528082409 
2025	 0.384661155330219 
2026	 0.384810631425592 
2027	 0.384948123830584 
2028	 0.38506245298765 
2029	 0.385195565522062 
2030	 0.385331928626832 
2031	 0.385472170650592 
2032	 0.385611513313846 
2033	 0.38576315250768 
2034	 0.385919025610471 
2035	 0.386089883459552 
2036	 0.386289196179932 
2037	 0.386461499607551 
2038	 0.386644512863849 
2039	 0.386801181354013 
2040	 0.38691704428347 
2041	 0.387052735384139 
2042	 0.387194507090274 
2043	 0.387331158507336 
2044	 0.387465998626947 
2045	 0.387615090979835 
2046	 0.387741736686609 
2047	 0.38786550002593 
2048	 0.387960931885471 
2049	 0.388021808401138 
2050	 0.388107260130836 
2051	 0.388157875524143 
2052	 0.388247828585339 
2053	 0.388417169477276 
2054	 0.388520699825342 
2055	 0.388583328702418 
2056	 0.388680746780696 
2057	 0.388746192307994 
2058	 0.388761129872043 
2059	 0.388807337242151 
2060	 0.38886594422073 
2061	 0.388924468567938 
2062	 0.388967651495474 
2063	 0.389039246548401 
2064	 0.389127993526253 
2065	 0.389225375926715 
2066	 0.389351537414544 
2067	 0.389463291562427 
2068	 0.389597127767417 
2069	 0.389696528901526 
2070	 0.389786810210284 
2071	 0.389867879453716 
2072	 0.389923929968776 
2073	 0.389953694555677 
2074	 0.38998749724452 
2075	 0.389984075825933 
2076	 0.390023684269118 
2077	 0.390085821135246 
2078	 0.390138103100766 
2079	 0.39022068403713 
2080	 0.390271786852594 
2081	 0.390291656827477 
2082	 0.390325005246881 
2083	 0.390359477269687 
2084	 0.39038586997971 
2085	 0.390405549062335 
2086	 0.390426840316293 
2087	 0.390441880480825 
2088	 0.390436971503799 
2089	 0.390451596343932 
2090	 0.390477417492267 
2091	 0.390497202985991 
2092	 0.390518466114555 
2093	 0.390540494017192 
2094	 0.39056635549357 
2095	 0.390585657898041 
2096	 0.390607378666273 
2097	 0.390620477989316 
2098	 0.390616555868166 
2099	 0.390622707729666 
2100	 0.390630572330992 
2101	 0.390635503252257 
2102	 0.390649612444466 
2103	 0.390669259721375 
2104	 0.39069320080154 
2105	 0.390720189873424 
2106	 0.390755565772054 
2107	 0.390772854156265 
2108	 0.390846252742005 
2109	 0.390967889719595 
2110	 0.391068526137992 
2111	 0.391228764469613 
2112	 0.391333201249068 
2113	 0.391393144141908 
2114	 0.391447970038501 
2115	 0.391504777959745 
2116	 0.391535896710053 
2117	 0.391592753679365 
2118	 0.391659803875721 
2119	 0.391728985047439 
2120	 0.391795222770252 
2121	 0.391886218465638 
2122	 0.391998893108684 
2123	 0.392100910697606 
2124	 0.392242516391364 
2125	 0.392331652968461 
2126	 0.39239145714867 
2127	 0.392444456790004 
2128	 0.392468188724812 
2129	 0.392484938374334 
2130	 0.392506880775528 
2131	 0.392508980309693 
2132	 0.39246087388624 
2133	 0.392382888801544 
2134	 0.392277700565716 
2135	 0.392130581394703 
2136	 0.391961833704558 
2137	 0.391750913180717 
2138	 0.39155808982925 
2139	 0.391351597364769 
2140	 0.391125349599458 
2141	 0.390908579663351 
2142	 0.39066313528404 
2143	 0.390368840737298 
2144	 0.390087519259142 
2145	 0.389818309115487 
2146	 0.389519106825332 
2147	 0.38921450333747 
2148	 0.38889583713982 
2149	 0.388509759511303 
2150	 0.388068346620324 
2151	 0.387637539525578 
2152	 0.38716320032798 
2153	 0.386687903665646 
2154	 0.386203892049784 
2155	 0.385727885096258 
2156	 0.385236532993955 
2157	 0.384741673829419 
2158	 0.384275011142295 
2159	 0.383766535634634 
2160	 0.383208552681681 
2161	 0.382671670559812 
2162	 0.38212539372432 
2163	 0.38158545824324 
2164	 0.381062454375902 
2165	 0.380532693942436 
2166	 0.379976132868936 
2167	 0.379400501610081 
2168	 0.378836820293442 
2169	 0.378261451472074 
2170	 0.37768074146884 
2171	 0.377129727386241 
2172	 0.376516410986533 
2173	 0.375853081462071 
2174	 0.375200150433404 
2175	 0.374516781003329 
2176	 0.373841428278145 
2177	 0.373180648405174 
2178	 0.372495139226804 
2179	 0.371791805608156 
2180	 0.371081265177649 
2181	 0.370332263210927 
2182	 0.369611545486724 
2183	 0.368897022474363 
2184	 0.368196599924973 
2185	 0.367480958301323 
2186	 0.366779097312527 
2187	 0.366057247073441 
2188	 0.36529829306665 
2189	 0.364583745724471 
2190	 0.363877612871798 
2191	 0.363193781960638 
2192	 0.362526963909571 
2193	 0.361885222164892 
2194	 0.361249737927067 
2195	 0.360656055503782 
2196	 0.36012377681065 
2197	 0.359567201110606 
2198	 0.35898916404356 
2199	 0.358482864073527 
2200	 0.35798353415123 
2201	 0.35753754537756 
2202	 0.357181700637439 
2203	 0.356836869657976 
2204	 0.356504111274484 
2205	 0.356169671958534 
2206	 0.355918200032761 
2207	 0.355710752405444 
2208	 0.355538544346208 
2209	 0.355430653604124 
2210	 0.355344497752227 
2211	 0.355284067889257 
2212	 0.355255714539586 
2213	 0.355304461469741 
2214	 0.355313436965599 
2215	 0.3553263910217 
2216	 0.355342222334619 
2217	 0.355380615608648 
2218	 0.355366564199912 
2219	 0.355336209498651 
2220	 0.355290826360689 
2221	 0.355189263367141 
2222	 0.355113081145291 
2223	 0.355008706675932 
2224	 0.35488491009348 
2225	 0.354717263144708 
2226	 0.35450925026944 
2227	 0.354263248548953 
2228	 0.353976626030126 
2229	 0.353682812904816 
2230	 0.353352834408713 
2231	 0.353004649191704 
2232	 0.352652817229745 
2233	 0.352257080158066 
2234	 0.351814030794188 
2235	 0.351363236837338 
2236	 0.350888477209539 
2237	 0.350390714877324 
2238	 0.34988630291011 
2239	 0.349334824522778 
2240	 0.348745341903738 
2241	 0.34813397532377 
2242	 0.347489022535778 
2243	 0.346808272370082 
2244	 0.346099648285825 
2245	 0.345366766872838 
2246	 0.344580536249642 
2247	 0.343736110151004 
2248	 0.342907245997858 
2249	 0.342051906867445 
2250	 0.341186370450756 
2251	 0.340302002548797 
2252	 0.339445466386469 
2253	 0.338556887113722 
2254	 0.337727068605462 
2255	 0.336908226061246 
2256	 0.336170749887864 
2257	 0.335468705080588 
2258	 0.334840762523688 
2259	 0.334290713442559 
2260	 0.33379003962466 
2261	 0.333288948500237 
2262	 0.332950255842905 
2263	 0.332737993349263 
2264	 0.332579995513133 
2265	 0.332552871511692 
2266	 0.332577605444201 
2267	 0.332662066932083 
2268	 0.332806786677262 
2269	 0.333030782553287 
2270	 0.333311867179286 
2271	 0.333669990240484 
2272	 0.334096515146752 
2273	 0.334616466627694 
2274	 0.335190640399958 
2275	 0.335783259527319 
2276	 0.336427920579598 
2277	 0.337079981078059 
2278	 0.337757705930995 
2279	 0.338465812815488 
2280	 0.339191657214479 
2281	 0.339953528686478 
2282	 0.340777884143052 
2283	 0.341577227010559 
2284	 0.342428925159222 
2285	 0.343207297737557 
2286	 0.343976495490184 
2287	 0.344671596037135 
2288	 0.34527756708055 
2289	 0.345902267740227 
2290	 0.346491345768363 
2291	 0.347078293687911 
2292	 0.347676673048893 
2293	 0.348240612689778 
2294	 0.348796259588571 
2295	 0.349285057858192 
2296	 0.34970062149835 
2297	 0.350136619991271 
2298	 0.350543563273952 
2299	 0.350948095901048 
2300	 0.351441365107453 
2301	 0.351908880726295 
2302	 0.35233491899738 
2303	 0.352793679364092 
2304	 0.353211998903265 
2305	 0.353607291758514 
2306	 0.353959813281468 
2307	 0.354259317658778 
2308	 0.354602824487589 
2309	 0.354930020277872 
2310	 0.355249470461607 
2311	 0.355606980849872 
2312	 0.355928897563162 
2313	 0.356198082595489 
2314	 0.356479004893092 
2315	 0.356789994159077 
2316	 0.357033616541642 
2317	 0.357242884546112 
2318	 0.357435571965184 
2319	 0.357571615811776 
2320	 0.357729849083435 
2321	 0.357871610930075 
2322	 0.358016515198813 
2323	 0.358209745893988 
2324	 0.358329620016646 
2325	 0.358380584718715 
2326	 0.358469477970826 
2327	 0.358551823611947 
2328	 0.358589347554738 
2329	 0.358663176290775 
2330	 0.358731090125617 
2331	 0.358783642154578 
2332	 0.358818419737076 
2333	 0.358849476207361 
2334	 0.358872359021232 
2335	 0.358837588552701 
2336	 0.358771640190842 
2337	 0.358712865382697 
2338	 0.358662114188264 
2339	 0.358584674753247 
2340	 0.358444074806392 
2341	 0.358275985292938 
2342	 0.35805439882739 
2343	 0.357753204507879 
2344	 0.35755561939673 
2345	 0.357365193462979 
2346	 0.357202052062474 
2347	 0.35697959038404 
2348	 0.356791708436832 
2349	 0.356520111067328 
2350	 0.356146199636137 
2351	 0.355853501006506 
2352	 0.355586966443179 
2353	 0.355257894075401 
2354	 0.35490906431881 
2355	 0.354578126962747 
2356	 0.354217575373588 
2357	 0.353873048146329 
2358	 0.353555143548866 
2359	 0.353210412370829 
2360	 0.352842926802634 
2361	 0.352471419244447 
2362	 0.352134473858724 
2363	 0.351751534841495 
2364	 0.351330573566064 
2365	 0.350884171363374 
2366	 0.350372528353259 
2367	 0.349908517179654 
2368	 0.349439907698083 
2369	 0.348979549665563 
2370	 0.348574143342062 
2371	 0.34811978020102 
2372	 0.347606867813875 
2373	 0.347110506760504 
2374	 0.346600460765008 
2375	 0.346047016485176 
2376	 0.345492533292356 
2377	 0.344864919071282 
2378	 0.3441444258998 
2379	 0.343437703611082 
2380	 0.342711293685219 
2381	 0.342008560818966 
2382	 0.341353351825429 
2383	 0.340679117596937 
2384	 0.339997347118117 
2385	 0.339331276952415 
2386	 0.338677552609202 
2387	 0.338072168757935 
2388	 0.337499497764754 
2389	 0.33681166308981 
2390	 0.336108778456336 
2391	 0.335449328745719 
2392	 0.334762855336337 
2393	 0.334107791436583 
2394	 0.333446122330627 
2395	 0.332816883599996 
2396	 0.332153540379463 
2397	 0.331423250616751 
2398	 0.330671246594122 
2399	 0.329813746500325 
2400	 0.328990938541026 
2401	 0.328206899731123 
2402	 0.327505575477638 
2403	 0.326903743799172 
2404	 0.326232039562528 
2405	 0.325587947143906 
2406	 0.324986780302837 
2407	 0.324392490433414 
2408	 0.323854396683508 
2409	 0.323317335800913 
2410	 0.322733597650168 
2411	 0.32214890525794 
2412	 0.321595232047269 
2413	 0.321089898369534 
2414	 0.320619928772623 
2415	 0.320124024226877 
2416	 0.319579237976748 
2417	 0.318937728879052 
2418	 0.318358685405239 
2419	 0.317786389430481 
2420	 0.317242397899108 
2421	 0.316749572995201 
2422	 0.316240513951626 
2423	 0.31569690050609 
2424	 0.315172781202386 
2425	 0.314627732715367 
2426	 0.314135798221626 
2427	 0.313744586567141 
2428	 0.313325216900709 
2429	 0.312913578531639 
2430	 0.312548363598631 
2431	 0.31217044292672 
2432	 0.311760329869889 
2433	 0.31142451586431 
2434	 0.311003307785893 
2435	 0.310508327662974 
2436	 0.310003266805045 
2437	 0.309479131686572 
2438	 0.308927027463574 
2439	 0.308246999886333 
2440	 0.307760969476647 
2441	 0.307377057125686 
2442	 0.306904515057785 
2443	 0.306533743576682 
2444	 0.306150723632871 
2445	 0.30572099387349 
2446	 0.30529701143881 
2447	 0.304918951162237 
2448	 0.304372324962974 
2449	 0.303689294320651 
2450	 0.303042835709139 
2451	 0.302349767760896 
2452	 0.301778689772548 
2453	 0.3012614886464 
2454	 0.300735702968132 
2455	 0.300212281467166 
2456	 0.299629326134064 
2457	 0.298959344623093 
2458	 0.298490313369388 
2459	 0.298150384887689 
2460	 0.297843682052776 
2461	 0.297726305499896 
2462	 0.29743396422875 
2463	 0.297027230180031 
2464	 0.296734925015795 
2465	 0.296496488145669 
2466	 0.296182970227462 
2467	 0.295801325997223 
2468	 0.295446689249999 
2469	 0.29506142863897 
2470	 0.294892639684053 
2471	 0.294750270719174 
2472	 0.294591006282271 
2473	 0.294236509772027 
2474	 0.293847039611905 
2475	 0.293537926401307 
2476	 0.293275126863715 
2477	 0.292975557120672 
2478	 0.292529630449094 
2479	 0.292065592634632 
2480	 0.291641115298872 
2481	 0.291344139060796 
2482	 0.291003666890203 
2483	 0.290562488083948 
2484	 0.29021777474308 
2485	 0.289670289338353 
2486	 0.289098808860333 
2487	 0.288795055609809 
2488	 0.288434295070519 
2489	 0.287943487367913 
2490	 0.287504938836537 
2491	 0.287050105240788 
2492	 0.286534641167844 
2493	 0.286125347496115 
2494	 0.285636299644649 
2495	 0.285255858814493 
2496	 0.285113333020441 
2497	 0.284629698224713 
2498	 0.284137213907767 
2499	 0.283749953723045 
2500	 0.282859449482303 
