Wavelength	LMW700002.asd
350	 6.54743628689233E-02 
351	 6.04749042172403E-02 
352	 5.43161482362061E-02 
353	 5.00498120229587E-02 
354	 6.03667713365117E-02 
355	 6.51308314742463E-02 
356	 6.32348511072034E-02 
357	 5.97631619001126E-02 
358	 6.24918079286648E-02 
359	 6.38146436029674E-02 
360	 6.30935969406708E-02 
361	 6.37831702591806E-02 
362	 5.85971557056448E-02 
363	 5.72130558432777E-02 
364	 6.20146507882146E-02 
365	 6.13162814716934E-02 
366	 5.90045472156186E-02 
367	 5.82439424674626E-02 
368	 6.05619630129573E-02 
369	 6.16914547232652E-02 
370	 6.16655049163158E-02 
371	 6.07286940687821E-02 
372	 5.94433981038629E-02 
373	 6.08952443403863E-02 
374	 6.21423986655421E-02 
375	 0.061736982904298 
376	 0.06211868778448 
377	 6.29688286942604E-02 
378	 6.48447532367693E-02 
379	 6.73721945668669E-02 
380	 6.58205800592117E-02 
381	 6.36146643140364E-02 
382	 6.40887334864625E-02 
383	 6.92705335735636E-02 
384	 6.92223917480773E-02 
385	 0.068602366453648 
386	 7.06296672037863E-02 
387	 7.17030066755456E-02 
388	 7.22362050673461E-02 
389	 0.072909998220596 
390	 7.42926115483542E-02 
391	 7.56090938795961E-02 
392	 0.07689074284511 
393	 7.83903373861865E-02 
394	 8.04007079144175E-02 
395	 8.09134442669402E-02 
396	 8.23346827091527E-02 
397	 8.55908038018013E-02 
398	 8.70906635831838E-02 
399	 8.76939630089277E-02 
400	 8.87813269490466E-02 
401	 9.13226840783939E-02 
402	 9.26488806281192E-02 
403	 9.35258801157506E-02 
404	 9.45669827968369E-02 
405	 9.59683907812961E-02 
406	 9.75881389920262E-02 
407	 0.099445950617398 
408	 0.101213874749303 
409	 0.101528904609904 
410	 0.101951584031905 
411	 0.103042825051149 
412	 0.104721856562108 
413	 0.10634740245496 
414	 0.107044833291747 
415	 0.107057405659857 
416	 0.108002058637153 
417	 0.108380779741759 
418	 0.108995131408474 
419	 0.110376103923255 
420	 0.110336287811119 
421	 0.109713473147548 
422	 0.109400776085856 
423	 0.110059587549652 
424	 0.109940635356683 
425	 0.109195204614166 
426	 0.108404188190385 
427	 0.108492894309682 
428	 0.1080444214502 
429	 0.107337429883029 
430	 0.106940092105882 
431	 0.105854887669336 
432	 0.10505731127504 
433	 0.104925526023792 
434	 0.105158643211941 
435	 0.105020002054948 
436	 0.104904743957639 
437	 0.105190691141451 
438	 0.105553281828228 
439	 0.106267599221466 
440	 0.107201358480588 
441	 0.108056909106115 
442	 0.108976206094779 
443	 0.110040500460316 
444	 0.111252207412283 
445	 0.112512024625549 
446	 0.113598737835268 
447	 0.114772668142238 
448	 0.116269726406652 
449	 0.11758057806298 
450	 0.119050772205666 
451	 0.120592749463452 
452	 0.121764408294788 
453	 0.122980482155821 
454	 0.124094637896928 
455	 0.125024001486334 
456	 0.12605135049042 
457	 0.127292768747561 
458	 0.128487920256771 
459	 0.129283837617749 
460	 0.130141926033672 
461	 0.13094472563091 
462	 0.131721420010244 
463	 0.132784998222824 
464	 0.133598850191607 
465	 0.134255189592798 
466	 0.134949375357938 
467	 0.135512056102514 
468	 0.136037202434922 
469	 0.136588076513657 
470	 0.137181387949935 
471	 0.137572065393745 
472	 0.137917476240815 
473	 0.13840832381858 
474	 0.139189187740611 
475	 0.139785045875931 
476	 0.140135839583094 
477	 0.140405374411486 
478	 0.140806993574917 
479	 0.141296070839871 
480	 0.141833410733806 
481	 0.142429393605948 
482	 0.142970787712697 
483	 0.143461322389484 
484	 0.143911388330726 
485	 0.144200139228338 
486	 0.144448031340016 
487	 0.144760875090211 
488	 0.145209051675669 
489	 0.145579174679737 
490	 0.145947524479348 
491	 0.146385189254125 
492	 0.146841699152143 
493	 0.14710955925997 
494	 0.14731217626525 
495	 0.147703777361371 
496	 0.148201343049187 
497	 0.148540326459355 
498	 0.148757903534621 
499	 0.149363419586338 
500	 0.149883067484322 
501	 0.150233420251478 
502	 0.150499558902099 
503	 0.150951697743083 
504	 0.151409089678741 
505	 0.151779269709627 
506	 0.152071538628452 
507	 0.152353435053276 
508	 0.152707999832508 
509	 0.153139071259259 
510	 0.153440114975337 
511	 0.153793332898573 
512	 0.15417524243401 
513	 0.154474723865224 
514	 0.154830291451518 
515	 0.155261510086219 
516	 0.155729823780439 
517	 0.156131298208721 
518	 0.15643508076183 
519	 0.156680387093065 
520	 0.156938548011976 
521	 0.157275267937469 
522	 0.157655652525803 
523	 0.158053857190583 
524	 0.158460359770194 
525	 0.158761434028837 
526	 0.159021476132365 
527	 0.159321671558707 
528	 0.15965424529309 
529	 0.160018707430103 
530	 0.160394972925579 
531	 0.16074866977471 
532	 0.161013599712271 
533	 0.161373126306302 
534	 0.161874869816964 
535	 0.16221867475414 
536	 0.162515815499513 
537	 0.162818723116451 
538	 0.163156589736839 
539	 0.163499227649633 
540	 0.163927006557924 
541	 0.164414507781752 
542	 0.164790689629628 
543	 0.165051101232476 
544	 0.165327558220331 
545	 0.165740636064925 
546	 0.166210857256485 
547	 0.166600447690124 
548	 0.166962215688049 
549	 0.167493429850876 
550	 0.16789754749985 
551	 0.168279064973382 
552	 0.16876241724741 
553	 0.169340760943404 
554	 0.169871944253651 
555	 0.170356036988875 
556	 0.170866967542042 
557	 0.171372399768234 
558	 0.171926252829586 
559	 0.172537062559597 
560	 0.173121844169075 
561	 0.173711814261222 
562	 0.174284674302234 
563	 0.174829570549869 
564	 0.175491934788144 
565	 0.176121748992341 
566	 0.176709890936805 
567	 0.177421643572635 
568	 0.178208951752013 
569	 0.179029215519263 
570	 0.179848094297915 
571	 0.180656924105346 
572	 0.18156833054183 
573	 0.182519412996141 
574	 0.183327666320919 
575	 0.184005161740115 
576	 0.18480500724161 
577	 0.18581804722881 
578	 0.18670400322312 
579	 0.18761315776309 
580	 0.188565677257934 
581	 0.189544031417496 
582	 0.190613465156036 
583	 0.191723023328704 
584	 0.192830893181632 
585	 0.193929048159739 
586	 0.194993327250439 
587	 0.196024538703715 
588	 0.197034815984932 
589	 0.198039254124579 
590	 0.199089013321924 
591	 0.200177911279824 
592	 0.201251340837258 
593	 0.202336453380012 
594	 0.203432530805782 
595	 0.204544155332842 
596	 0.205714467122682 
597	 0.20688317771819 
598	 0.208043366619487 
599	 0.209206956322788 
600	 0.210230294287244 
601	 0.211216434951421 
602	 0.212221907961438 
603	 0.21317406294546 
604	 0.214062495717452 
605	 0.214944031221835 
606	 0.215875792168696 
607	 0.216766383339088 
608	 0.217594215923982 
609	 0.218414722634123 
610	 0.219362190149476 
611	 0.2202324962799 
612	 0.221034610826268 
613	 0.221805297579761 
614	 0.222488483953212 
615	 0.223185279722183 
616	 0.22387440377042 
617	 0.224456994577531 
618	 0.225055525890734 
619	 0.225593616503566 
620	 0.226058752028128 
621	 0.2266464210971 
622	 0.227178202306616 
623	 0.227613118778625 
624	 0.227990611460671 
625	 0.228484552092215 
626	 0.228960303656749 
627	 0.229344742117669 
628	 0.229678131020694 
629	 0.23009979426214 
630	 0.230569694331202 
631	 0.230995352080755 
632	 0.231302416708763 
633	 0.231610632743233 
634	 0.231977737204838 
635	 0.23239608709329 
636	 0.232716797577495 
637	 0.233053547595303 
638	 0.233464577438575 
639	 0.233750649897904 
640	 0.234042905610279 
641	 0.234380050895158 
642	 0.234752259017025 
643	 0.235117344519081 
644	 0.235485874551328 
645	 0.235863048502905 
646	 0.236239297356039 
647	 0.236568877471495 
648	 0.236852145273917 
649	 0.237128269404364 
650	 0.237521890122669 
651	 0.2379388299607 
652	 0.238312901528417 
653	 0.238619374406895 
654	 0.239004987272413 
655	 0.239399826269755 
656	 0.239754478525708 
657	 0.240172592160834 
658	 0.240630682692519 
659	 0.241066665911713 
660	 0.241422566018755 
661	 0.241846949223812 
662	 0.242297216829035 
663	 0.242743820988339 
664	 0.243205081567584 
665	 0.243620549718691 
666	 0.244064964841331 
667	 0.244593357117424 
668	 0.245000372535106 
669	 0.245470173458113 
670	 0.246024002333103 
671	 0.246536403489882 
672	 0.246956982590363 
673	 0.247466931131889 
674	 0.248129875998782 
675	 0.248633257890561 
676	 0.249172438404377 
677	 0.249710946083238 
678	 0.250158341765075 
679	 0.250756497206069 
680	 0.251380615924597 
681	 0.251969023909296 
682	 0.25258595901065 
683	 0.25319780093521 
684	 0.253798751993696 
685	 0.254395794971686 
686	 0.255013999512282 
687	 0.255643571838729 
688	 0.256278765129306 
689	 0.256918727318436 
690	 0.257584665464562 
691	 0.25822428259338 
692	 0.258835102296253 
693	 0.259540762472397 
694	 0.26021742191703 
695	 0.260859271813881 
696	 0.261503234225873 
697	 0.262149472054577 
698	 0.262870325066865 
699	 0.263645980578553 
700	 0.264358767140768 
701	 0.265009942360753 
702	 0.265672042508572 
703	 0.2663741251097 
704	 0.266964190344951 
705	 0.267626487546553 
706	 0.268329051405987 
707	 0.268949449318986 
708	 0.269651036518583 
709	 0.270312329016903 
710	 0.270903749640949 
711	 0.271568922045579 
712	 0.272265030326222 
713	 0.272902776703989 
714	 0.273441917814928 
715	 0.274079254006217 
716	 0.274699552374472 
717	 0.275277469851758 
718	 0.275856482609779 
719	 0.276438169827188 
720	 0.276963904347154 
721	 0.277410458017866 
722	 0.277826578239069 
723	 0.278335474331118 
724	 0.278883385300586 
725	 0.279360112719547 
726	 0.279735104178005 
727	 0.280118639667404 
728	 0.280504801642632 
729	 0.280783399270796 
730	 0.281132929094933 
731	 0.28146069579353 
732	 0.281691353372811 
733	 0.281901640792415 
734	 0.282169703432692 
735	 0.28240625226408 
736	 0.282494005524598 
737	 0.282624664276386 
738	 0.282766654524886 
739	 0.282888241377474 
740	 0.282974813248845 
741	 0.28295827283655 
742	 0.282910635179492 
743	 0.282886038525002 
744	 0.282805450831471 
745	 0.282679172806648 
746	 0.28255580418093 
747	 0.282470333588508 
748	 0.282212244751201 
749	 0.281998429335172 
750	 0.28186732271991 
751	 0.281601079301458 
752	 0.28128090906107 
753	 0.280936761045566 
754	 0.280590887566767 
755	 0.280266217992787 
756	 0.279971757950875 
757	 0.279638131925023 
758	 0.279182686285945 
759	 0.278744160879902 
760	 0.278235911527634 
761	 0.277679735299047 
762	 0.277251752689643 
763	 0.276799588768009 
764	 0.276312992934119 
765	 0.275809687439527 
766	 0.275284964834236 
767	 0.274742579172591 
768	 0.274171818686787 
769	 0.273574785757821 
770	 0.273102566869495 
771	 0.272590699305641 
772	 0.271973946910085 
773	 0.27134080317938 
774	 0.270728003577009 
775	 0.270132187916491 
776	 0.269533003207155 
777	 0.268893404877948 
778	 0.268308319345362 
779	 0.267718756062875 
780	 0.26703068134928 
781	 0.26641298919619 
782	 0.265839120059964 
783	 0.265248339030846 
784	 0.264572751348408 
785	 0.264007395973777 
786	 0.263445895519288 
787	 0.262799719615924 
788	 0.262160160851583 
789	 0.261550168784066 
790	 0.260961094063137 
791	 0.260369991200496 
792	 0.25977314047351 
793	 0.259201658976831 
794	 0.258617892014816 
795	 0.257942364238268 
796	 0.257346176200481 
797	 0.256825636530599 
798	 0.25630811337359 
799	 0.255646616302467 
800	 0.255080770534023 
801	 0.254585199690655 
802	 0.254055385789581 
803	 0.253417758396694 
804	 0.252894611195041 
805	 0.2524585283205 
806	 0.251936978217754 
807	 0.251423347094469 
808	 0.250874536691779 
809	 0.250308150095601 
810	 0.24982922549571 
811	 0.249329410508349 
812	 0.248845784151799 
813	 0.248411178602429 
814	 0.247966630523605 
815	 0.24746184562757 
816	 0.246945481970357 
817	 0.246494016901542 
818	 0.2460687632261 
819	 0.245667194692836 
820	 0.24527654430047 
821	 0.244876018020488 
822	 0.244464051418047 
823	 0.244078377394414 
824	 0.243714154963523 
825	 0.243289232393653 
826	 0.2428834541016 
827	 0.242525576986421 
828	 0.242203484163446 
829	 0.241824176419592 
830	 0.241464385011394 
831	 0.241123788630515 
832	 0.240768094391051 
833	 0.240405915860621 
834	 0.240092221372286 
835	 0.239837105239788 
836	 0.239599625812356 
837	 0.239301100434469 
838	 0.238980800685147 
839	 0.238679440920038 
840	 0.238401999752405 
841	 0.238157134741977 
842	 0.237894502907692 
843	 0.2375907558636 
844	 0.237348730349619 
845	 0.237199507022314 
846	 0.237053601793309 
847	 0.236806710480373 
848	 0.236623911830308 
849	 0.236445113118492 
850	 0.23624320248515 
851	 0.236031862449181 
852	 0.235812014486538 
853	 0.235637210246065 
854	 0.23550985806134 
855	 0.235352301720072 
856	 0.235276598969625 
857	 0.235199669317142 
858	 0.235040715718591 
859	 0.234828415698432 
860	 0.234731336977173 
861	 0.234663615266733 
862	 0.234504967041851 
863	 0.234440264456103 
864	 0.234339664468902 
865	 0.234255512976952 
866	 0.234308108238384 
867	 0.234226244830671 
868	 0.234162401631667 
869	 0.234147320972143 
870	 0.234058377127268 
871	 0.233966533320998 
872	 0.233908518473875 
873	 0.233913909849648 
874	 0.2340074922729 
875	 0.234059937206688 
876	 0.234063809215426 
877	 0.234059391445446 
878	 0.234113080011004 
879	 0.234222764319777 
880	 0.234277635084328 
881	 0.234211779636797 
882	 0.234299370410293 
883	 0.234381049628246 
884	 0.234426334586274 
885	 0.234488395171115 
886	 0.234607811172016 
887	 0.234793287724565 
888	 0.234951211639295 
889	 0.23494423944629 
890	 0.235015765084449 
891	 0.235172193178392 
892	 0.235391360797391 
893	 0.235647646032648 
894	 0.235713617713148 
895	 0.235758930681533 
896	 0.235942388251644 
897	 0.236250105646997 
898	 0.236514475511762 
899	 0.236706684579987 
900	 0.2368452087304 
901	 0.236935371316936 
902	 0.237162527295104 
903	 0.237455789619053 
904	 0.237692264532297 
905	 0.237937693260724 
906	 0.238198146947894 
907	 0.238500450991447 
908	 0.238844775362888 
909	 0.239063171613138 
910	 0.239299677505406 
911	 0.239603311281498 
912	 0.239935026863456 
913	 0.240222053003731 
914	 0.240489631378943 
915	 0.240809804170948 
916	 0.241248978925615 
917	 0.241508412795047 
918	 0.241846096608895 
919	 0.242346647079429 
920	 0.242810736049046 
921	 0.243187920105626 
922	 0.243488965565543 
923	 0.243789442228625 
924	 0.244221315803623 
925	 0.24468302421625 
926	 0.245183953625648 
927	 0.245680494878698 
928	 0.245997786892307 
929	 0.24650577235051 
930	 0.247066375832664 
931	 0.247510958889252 
932	 0.247922617659096 
933	 0.24836853048243 
934	 0.248892146082045 
935	 0.249481169902559 
936	 0.25000690866739 
937	 0.250557946097722 
938	 0.251114907797479 
939	 0.251641953754379 
940	 0.252174836674286 
941	 0.252690270358081 
942	 0.253303360133888 
943	 0.254072444564672 
944	 0.254637931091926 
945	 0.255201327617586 
946	 0.255866741832399 
947	 0.25661376718963 
948	 0.25714629713155 
949	 0.257718437869295 
950	 0.258348301962657 
951	 0.258962691707559 
952	 0.259745414253043 
953	 0.260478459225525 
954	 0.261119690014248 
955	 0.261755918330781 
956	 0.262491190712105 
957	 0.263216273979939 
958	 0.263922064931405 
959	 0.26466806246117 
960	 0.265466358292633 
961	 0.26625285372532 
962	 0.267047287084632 
963	 0.267888024782006 
964	 0.268575874925839 
965	 0.269271835733326 
966	 0.270060852106202 
967	 0.270929377213165 
968	 0.271745231872251 
969	 0.27254784448878 
970	 0.273325950830379 
971	 0.274072155419242 
972	 0.275070564253686 
973	 0.276051843272615 
974	 0.276911905753964 
975	 0.277712905773833 
976	 0.278556519620055 
977	 0.279402333491701 
978	 0.280294416470467 
979	 0.281276696650661 
980	 0.282063104027136 
981	 0.282817230098219 
982	 0.283638898711075 
983	 0.284534187963997 
984	 0.285362399091569 
985	 0.286318424015046 
986	 0.287287610533674 
987	 0.288058269465954 
988	 0.288907419422213 
989	 0.289868259880665 
990	 0.290818943615008 
991	 0.291656240338969 
992	 0.292745312270957 
993	 0.293496698973403 
994	 0.294290517214244 
995	 0.295604594165888 
996	 0.296400995325274 
997	 0.297178351557389 
998	 0.298095199581209 
999	 0.29909805780317 
1000	 0.299959448295582 
1001	 0.30420992754361 
1002	 0.305014477656391 
1003	 0.305849575269439 
1004	 0.306732719309768 
1005	 0.307699057778009 
1006	 0.308586360309326 
1007	 0.309450230070732 
1008	 0.310372250296937 
1009	 0.311202199899696 
1010	 0.312016335725907 
1011	 0.312873607195679 
1012	 0.313657708218885 
1013	 0.31446695222672 
1014	 0.315281116009512 
1015	 0.316072291620009 
1016	 0.316894390416736 
1017	 0.31769126075375 
1018	 0.318464777121305 
1019	 0.319268324343746 
1020	 0.320084829761888 
1021	 0.320872273756808 
1022	 0.321664368935459 
1023	 0.322413332554317 
1024	 0.323124085401623 
1025	 0.323839808846166 
1026	 0.324581499488174 
1027	 0.325373270952065 
1028	 0.326146626128889 
1029	 0.326875823878239 
1030	 0.327607544598063 
1031	 0.328324150141731 
1032	 0.329001677022246 
1033	 0.329722703541253 
1034	 0.330487078181945 
1035	 0.331205863736257 
1036	 0.331975479861322 
1037	 0.332773282380682 
1038	 0.333496368024884 
1039	 0.334184859127288 
1040	 0.334869347872495 
1041	 0.335517087336946 
1042	 0.336188400414403 
1043	 0.336947017524384 
1044	 0.337659055149412 
1045	 0.338365549040396 
1046	 0.339053934637778 
1047	 0.339795241220717 
1048	 0.340503642867899 
1049	 0.341172427666115 
1050	 0.341885570472809 
1051	 0.34259884914734 
1052	 0.343223768589211 
1053	 0.343923718773198 
1054	 0.34466192463917 
1055	 0.345287924730097 
1056	 0.34597054234783 
1057	 0.346633301134543 
1058	 0.347257410223676 
1059	 0.347886783366237 
1060	 0.348529188918249 
1061	 0.349159474652882 
1062	 0.349763134804804 
1063	 0.350402603007209 
1064	 0.351039242046637 
1065	 0.351635818636899 
1066	 0.352216208319948 
1067	 0.352787381676344 
1068	 0.353354424113544 
1069	 0.353912168866359 
1070	 0.354458266341957 
1071	 0.354987568618169 
1072	 0.355538535314586 
1073	 0.356103259384735 
1074	 0.356625266445232 
1075	 0.357114027955154 
1076	 0.35765854175769 
1077	 0.358172987495885 
1078	 0.358648812009891 
1079	 0.359216960769873 
1080	 0.359717514296495 
1081	 0.360154621684211 
1082	 0.360616903786827 
1083	 0.361097315402493 
1084	 0.36157898743223 
1085	 0.362065247917884 
1086	 0.362585365514214 
1087	 0.363068606525187 
1088	 0.363540307807367 
1089	 0.363957416212619 
1090	 0.364414359699533 
1091	 0.364903885998653 
1092	 0.365371389033625 
1093	 0.365879274800149 
1094	 0.366411344423513 
1095	 0.36689438816762 
1096	 0.367371990009155 
1097	 0.367869539958994 
1098	 0.368369554758512 
1099	 0.368854853763148 
1100	 0.369356253786092 
1101	 0.369871435279347 
1102	 0.370401850260467 
1103	 0.370942564223854 
1104	 0.37148065875059 
1105	 0.372010157329478 
1106	 0.372546032781367 
1107	 0.373083968246963 
1108	 0.373610731251559 
1109	 0.374154028728288 
1110	 0.374696418400722 
1111	 0.375260202878026 
1112	 0.375821278052395 
1113	 0.376395772054712 
1114	 0.377021508825912 
1115	 0.37759784457723 
1116	 0.378145478092596 
1117	 0.378704330976469 
1118	 0.379249662824824 
1119	 0.379786102950939 
1120	 0.38039873528832 
1121	 0.380995506997468 
1122	 0.38154835889403 
1123	 0.382139881609008 
1124	 0.382741527406705 
1125	 0.383324980264766 
1126	 0.38392904765012 
1127	 0.384586817079522 
1128	 0.385197120395991 
1129	 0.3857883903291 
1130	 0.386363265083897 
1131	 0.386915976542993 
1132	 0.387488172075276 
1133	 0.388049798271888 
1134	 0.388603816397658 
1135	 0.389161857523543 
1136	 0.38973098480636 
1137	 0.390265484953935 
1138	 0.390814052065396 
1139	 0.391366148111593 
1140	 0.39191628019075 
1141	 0.392479651116826 
1142	 0.393069285820406 
1143	 0.39362778601988 
1144	 0.394189149069803 
1145	 0.394733883842654 
1146	 0.395250570856835 
1147	 0.395764820112063 
1148	 0.396272683022722 
1149	 0.39678258424737 
1150	 0.397281401393543 
1151	 0.39778507060933 
1152	 0.398299234987849 
1153	 0.398803813133093 
1154	 0.399299405589426 
1155	 0.399793046821146 
1156	 0.400268388811341 
1157	 0.400734514936727 
1158	 0.401187967378204 
1159	 0.401620848403393 
1160	 0.402062710714031 
1161	 0.402500095752783 
1162	 0.40293577719921 
1163	 0.403374635347435 
1164	 0.403805483990329 
1165	 0.404235018968475 
1166	 0.404654507433819 
1167	 0.405063436199056 
1168	 0.405479455049493 
1169	 0.405884049890402 
1170	 0.406284238630755 
1171	 0.406673365702402 
1172	 0.407050963574302 
1173	 0.407432856370741 
1174	 0.407815966393565 
1175	 0.408184676868372 
1176	 0.408549046571154 
1177	 0.408910908464136 
1178	 0.409246678430453 
1179	 0.409604297919932 
1180	 0.409975398939991 
1181	 0.410344535102584 
1182	 0.41073086514262 
1183	 0.411111099117958 
1184	 0.411461918644103 
1185	 0.411800418905949 
1186	 0.412134278583275 
1187	 0.412432926628451 
1188	 0.412766397793114 
1189	 0.413121407739368 
1190	 0.413454159507251 
1191	 0.413800588615833 
1192	 0.41411820909061 
1193	 0.414402221148639 
1194	 0.41470260693395 
1195	 0.414994949885077 
1196	 0.415292392330643 
1197	 0.415607418505357 
1198	 0.415905678149519 
1199	 0.416196742585627 
1200	 0.416479396729771 
1201	 0.416766132574642 
1202	 0.417045204163877 
1203	 0.417327730243349 
1204	 0.417612414255805 
1205	 0.417898357303484 
1206	 0.418183362636306 
1207	 0.418467908680131 
1208	 0.418763579284352 
1209	 0.419043092308054 
1210	 0.419315835984741 
1211	 0.419582155696603 
1212	 0.419843216454415 
1213	 0.420093476356262 
1214	 0.420335892692772 
1215	 0.420570861232164 
1216	 0.420797408992546 
1217	 0.421002485614548 
1218	 0.421237251841339 
1219	 0.421477913580272 
1220	 0.42171880623202 
1221	 0.421975360755716 
1222	 0.422225220290826 
1223	 0.422480022307165 
1224	 0.422715285332577 
1225	 0.42294735151207 
1226	 0.423172664964528 
1227	 0.423374222325574 
1228	 0.423585809266613 
1229	 0.423801675039471 
1230	 0.424017229019723 
1231	 0.424237390412352 
1232	 0.424448335471461 
1233	 0.424655603141671 
1234	 0.424864734317934 
1235	 0.42506081006961 
1236	 0.425233363530533 
1237	 0.425439904432864 
1238	 0.425660305226405 
1239	 0.42587077492763 
1240	 0.42610414650312 
1241	 0.426311164695832 
1242	 0.426490088224557 
1243	 0.426685238552625 
1244	 0.426886453633769 
1245	 0.427079116929491 
1246	 0.427282183321208 
1247	 0.427465352803036 
1248	 0.427636102876363 
1249	 0.427793969227791 
1250	 0.427932994810003 
1251	 0.428084333392544 
1252	 0.428254320851533 
1253	 0.428435681929038 
1254	 0.428613642881266 
1255	 0.42881479143573 
1256	 0.428993669664743 
1257	 0.429163156092442 
1258	 0.429324659489274 
1259	 0.429483934930028 
1260	 0.429630835990276 
1261	 0.429758406023599 
1262	 0.429891754911428 
1263	 0.430003268666163 
1264	 0.430143130165111 
1265	 0.430302211670037 
1266	 0.430457796091968 
1267	 0.430623756172748 
1268	 0.430800376269705 
1269	 0.430973080144902 
1270	 0.431145001182329 
1271	 0.431310776453075 
1272	 0.431481342330683 
1273	 0.431640492519297 
1274	 0.431763053909589 
1275	 0.431943294132126 
1276	 0.432146663701272 
1277	 0.432357324447933 
1278	 0.432630827886328 
1279	 0.432843947318951 
1280	 0.433016661003786 
1281	 0.433214513972855 
1282	 0.433410614539034 
1283	 0.433590508337202 
1284	 0.433777427448689 
1285	 0.433966318270956 
1286	 0.434106336412954 
1287	 0.434234361696732 
1288	 0.434340036263755 
1289	 0.43442609524148 
1290	 0.434499371870464 
1291	 0.434547729400593 
1292	 0.434594190579261 
1293	 0.434637511845549 
1294	 0.434655874606187 
1295	 0.434642712794311 
1296	 0.434645262372338 
1297	 0.434642015779358 
1298	 0.434635236211725 
1299	 0.434653300528578 
1300	 0.434627061599896 
1301	 0.43456490971553 
1302	 0.434503597733228 
1303	 0.434409469622337 
1304	 0.434334118957018 
1305	 0.434264745533318 
1306	 0.434189411563921 
1307	 0.434120525653306 
1308	 0.434027217655796 
1309	 0.433954637891157 
1310	 0.433888196259478 
1311	 0.433816351540852 
1312	 0.433750501741285 
1313	 0.433683428323286 
1314	 0.433602978821091 
1315	 0.433537650091243 
1316	 0.433469759682738 
1317	 0.433433052810502 
1318	 0.433410097328532 
1319	 0.433403729494316 
1320	 0.433448460334438 
1321	 0.433455701504494 
1322	 0.433449805206105 
1323	 0.433441793737865 
1324	 0.433459639810085 
1325	 0.433481928746409 
1326	 0.433504821674914 
1327	 0.433552834619582 
1328	 0.433592586125937 
1329	 0.433632554379742 
1330	 0.43368343437614 
1331	 0.433747623468755 
1332	 0.43383125430062 
1333	 0.433914470966582 
1334	 0.434020753198179 
1335	 0.434161561718575 
1336	 0.434304109567267 
1337	 0.434456892323274 
1338	 0.434603059448069 
1339	 0.434767310517052 
1340	 0.434915044864857 
1341	 0.435060324075678 
1342	 0.43519265541942 
1343	 0.435321673353224 
1344	 0.43542362093871 
1345	 0.435545468380935 
1346	 0.435663528256532 
1347	 0.43577218690717 
1348	 0.43591919037049 
1349	 0.436028741960357 
1350	 0.436114802046677 
1351	 0.436212992512336 
1352	 0.436293909017405 
1353	 0.436407777524113 
1354	 0.436544566638259 
1355	 0.436662150514385 
1356	 0.436802090329116 
1357	 0.436912042556863 
1358	 0.436990251274979 
1359	 0.437087720375344 
1360	 0.43717339403375 
1361	 0.437279948182859 
1362	 0.437409309244383 
1363	 0.437521618250338 
1364	 0.437637615230316 
1365	 0.437753427059856 
1366	 0.437861531302154 
1367	 0.437962012185096 
1368	 0.438095493611015 
1369	 0.438206327446043 
1370	 0.438309397615374 
1371	 0.438408155886131 
1372	 0.438456645018325 
1373	 0.438504961112279 
1374	 0.438533502229785 
1375	 0.438545692249221 
1376	 0.438525429857596 
1377	 0.438483950075976 
1378	 0.438429555071196 
1379	 0.438333170970728 
1380	 0.438258406371188 
1381	 0.438185075959041 
1382	 0.438105990553255 
1383	 0.438045089858479 
1384	 0.437942926203404 
1385	 0.437842495269821 
1386	 0.437693230240796 
1387	 0.437502542309422 
1388	 0.437284264932284 
1389	 0.437032395604128 
1390	 0.436754538234456 
1391	 0.43645546279947 
1392	 0.436132716237173 
1393	 0.435762929845629 
1394	 0.435379926850488 
1395	 0.434956909287219 
1396	 0.434503220559762 
1397	 0.434055231677678 
1398	 0.433598170659139 
1399	 0.433123112347926 
1400	 0.432638044624234 
1401	 0.432142865788256 
1402	 0.431621580259102 
1403	 0.431118087880835 
1404	 0.430604330140704 
1405	 0.430113033670228 
1406	 0.429643897857528 
1407	 0.429160292293058 
1408	 0.428668281882784 
1409	 0.428202026131791 
1410	 0.427726995878912 
1411	 0.427283191099316 
1412	 0.426857211826336 
1413	 0.426467069598454 
1414	 0.426118939050293 
1415	 0.425780433113453 
1416	 0.425466501742143 
1417	 0.42520119791193 
1418	 0.424942095137193 
1419	 0.424688500626137 
1420	 0.424451225050488 
1421	 0.424223584235064 
1422	 0.423999567725822 
1423	 0.423763202252051 
1424	 0.423527352345811 
1425	 0.423296022902811 
1426	 0.423063931644208 
1427	 0.422818075655223 
1428	 0.422592874888303 
1429	 0.422378460559121 
1430	 0.422172761032565 
1431	 0.421975774137088 
1432	 0.421780830805702 
1433	 0.421592786781991 
1434	 0.421415663616602 
1435	 0.421236964096023 
1436	 0.421076134375372 
1437	 0.42094154845146 
1438	 0.420797445245994 
1439	 0.420658340714377 
1440	 0.420521891583421 
1441	 0.420368254963174 
1442	 0.4202214596553 
1443	 0.420059024454882 
1444	 0.419892871148034 
1445	 0.419764574527107 
1446	 0.419632961801748 
1447	 0.41951629949171 
1448	 0.419403502293217 
1449	 0.419264995720317 
1450	 0.419108499505492 
1451	 0.418940670739247 
1452	 0.418745354910167 
1453	 0.418581942164726 
1454	 0.41842311514269 
1455	 0.418256069770718 
1456	 0.418108097909553 
1457	 0.417930612100765 
1458	 0.417717936998858 
1459	 0.417534134973946 
1460	 0.417350893376567 
1461	 0.417176316882608 
1462	 0.417005794268595 
1463	 0.416857318078279 
1464	 0.41671220698242 
1465	 0.416592698288326 
1466	 0.41649159234686 
1467	 0.416421341695087 
1468	 0.416371203795884 
1469	 0.416343963063361 
1470	 0.416350810278766 
1471	 0.416371538887438 
1472	 0.416393161806729 
1473	 0.416467228268543 
1474	 0.416586925094287 
1475	 0.416739442442903 
1476	 0.416929538924012 
1477	 0.417141245936948 
1478	 0.417369809057445 
1479	 0.41759586472335 
1480	 0.417837455282101 
1481	 0.418104861189899 
1482	 0.41835079125506 
1483	 0.418584535116134 
1484	 0.418839329964785 
1485	 0.419095171585385 
1486	 0.419358734611008 
1487	 0.419643276192095 
1488	 0.419908240799495 
1489	 0.420183966495522 
1490	 0.420421723339161 
1491	 0.420638967872218 
1492	 0.420854779901759 
1493	 0.421041618143082 
1494	 0.421231868789457 
1495	 0.421431699158175 
1496	 0.421606425504536 
1497	 0.421761593768974 
1498	 0.421912674013221 
1499	 0.422047511651714 
1500	 0.422179448411994 
1501	 0.422300292432477 
1502	 0.422429697295239 
1503	 0.422554926192874 
1504	 0.422683699722308 
1505	 0.422831560118452 
1506	 0.422973395270013 
1507	 0.423098796837261 
1508	 0.423229588605798 
1509	 0.423373767169054 
1510	 0.423513158142659 
1511	 0.423646357343352 
1512	 0.423787165206001 
1513	 0.423934638620726 
1514	 0.424063070711278 
1515	 0.424226932010419 
1516	 0.424403912510656 
1517	 0.424529190809088 
1518	 0.424621554168139 
1519	 0.424730086526854 
1520	 0.42480807680725 
1521	 0.424910005243922 
1522	 0.425036252709433 
1523	 0.425143967940363 
1524	 0.425233768646686 
1525	 0.425349182674745 
1526	 0.425478121114972 
1527	 0.425592582009834 
1528	 0.425713064242597 
1529	 0.425833687015137 
1530	 0.425938870791725 
1531	 0.426059754949498 
1532	 0.426206259916361 
1533	 0.426330441766885 
1534	 0.426449850249812 
1535	 0.426562715229711 
1536	 0.426662139824818 
1537	 0.426760218789278 
1538	 0.426853023660024 
1539	 0.42694111744334 
1540	 0.427019143843833 
1541	 0.427106356294902 
1542	 0.427206198450994 
1543	 0.427287482946228 
1544	 0.427354950568956 
1545	 0.427433240469325 
1546	 0.427496919023207 
1547	 0.427574746356886 
1548	 0.427679334011688 
1549	 0.427776495235873 
1550	 0.427864682262494 
1551	 0.42795244147446 
1552	 0.428026203386099 
1553	 0.428086977937767 
1554	 0.428170920763535 
1555	 0.428257856578972 
1556	 0.428366031305747 
1557	 0.428503329165436 
1558	 0.428614650411061 
1559	 0.428727390387321 
1560	 0.428830195124335 
1561	 0.428910321655511 
1562	 0.429012232444996 
1563	 0.429122781647421 
1564	 0.429228374201245 
1565	 0.429340459972296 
1566	 0.429448445864481 
1567	 0.429553226759985 
1568	 0.429656068478919 
1569	 0.42977094215172 
1570	 0.429852104275742 
1571	 0.429913211300273 
1572	 0.429977303615827 
1573	 0.43001603468085 
1574	 0.430073061003067 
1575	 0.430137955550224 
1576	 0.430203513176076 
1577	 0.430278491233462 
1578	 0.43034130528526 
1579	 0.430403887437737 
1580	 0.430457995511799 
1581	 0.430496726650598 
1582	 0.430544042721425 
1583	 0.430587948207399 
1584	 0.430642889476854 
1585	 0.43070391632034 
1586	 0.430763444679036 
1587	 0.430835656326781 
1588	 0.430895791709271 
1589	 0.430962017286065 
1590	 0.431005625636401 
1591	 0.431020138596791 
1592	 0.431052766229462 
1593	 0.431076197622226 
1594	 0.431107701667024 
1595	 0.431138907533628 
1596	 0.431194380642859 
1597	 0.43127328493892 
1598	 0.431340662782611 
1599	 0.431445865683522 
1600	 0.431511265723195 
1601	 0.431538712269163 
1602	 0.431569275235023 
1603	 0.431582407994363 
1604	 0.431598823033408 
1605	 0.431597742472005 
1606	 0.431619616158606 
1607	 0.431663391149696 
1608	 0.431689053918303 
1609	 0.431724366358395 
1610	 0.431787066234307 
1611	 0.431787470807717 
1612	 0.431791589241466 
1613	 0.431809292757809 
1614	 0.431804885949454 
1615	 0.431833074495548 
1616	 0.431874126734937 
1617	 0.431915082703119 
1618	 0.431958362577402 
1619	 0.431992748995164 
1620	 0.432033862178865 
1621	 0.432055984917334 
1622	 0.432060949496309 
1623	 0.432079582159174 
1624	 0.432094365900805 
1625	 0.432110848609995 
1626	 0.43213238427788 
1627	 0.432152692475434 
1628	 0.432165818216404 
1629	 0.43219595391671 
1630	 0.432242472918837 
1631	 0.432268417936863 
1632	 0.432297375702389 
1633	 0.43231370365179 
1634	 0.432312812872241 
1635	 0.432315747694746 
1636	 0.432312388999923 
1637	 0.43232071304677 
1638	 0.432330019001915 
1639	 0.432339215310568 
1640	 0.432358726360487 
1641	 0.43237005809434 
1642	 0.432370207656343 
1643	 0.432384708288338 
1644	 0.432400250447934 
1645	 0.432430564006048 
1646	 0.432488378905792 
1647	 0.432504613785433 
1648	 0.432514604114323 
1649	 0.432516298670884 
1650	 0.432477038791001 
1651	 0.432475750436423 
1652	 0.432501903661148 
1653	 0.432501380338695 
1654	 0.432499991514604 
1655	 0.432492154726846 
1656	 0.432461238286882 
1657	 0.432453390263487 
1658	 0.432456269252969 
1659	 0.432457307660525 
1660	 0.432463215386999 
1661	 0.432473240600741 
1662	 0.432486949246682 
1663	 0.432499480632907 
1664	 0.432526061633221 
1665	 0.432529514351263 
1666	 0.432516979099828 
1667	 0.432511863927141 
1668	 0.432508845813596 
1669	 0.432482705495962 
1670	 0.432449336721902 
1671	 0.432410572210915 
1672	 0.432336202025238 
1673	 0.432296006655987 
1674	 0.432267366418043 
1675	 0.432250821351707 
1676	 0.432241198707664 
1677	 0.432256683577572 
1678	 0.432302544054516 
1679	 0.432334875091936 
1680	 0.432398959853389 
1681	 0.432415621816835 
1682	 0.432401167165683 
1683	 0.432392088411779 
1684	 0.432343764713828 
1685	 0.432343699251227 
1686	 0.432375164418409 
1687	 0.432387856132349 
1688	 0.432429158962959 
1689	 0.432429571285532 
1690	 0.432381276216847 
1691	 0.432375487221467 
1692	 0.432374664787385 
1693	 0.432378530403061 
1694	 0.432418554505024 
1695	 0.432421756782176 
1696	 0.432409541687031 
1697	 0.432384060186562 
1698	 0.432332157685625 
1699	 0.432297857630071 
1700	 0.432265379581684 
1701	 0.432219254864545 
1702	 0.432178475686697 
1703	 0.432122545146584 
1704	 0.432037140178807 
1705	 0.431976111663159 
1706	 0.431912960545689 
1707	 0.431871279340363 
1708	 0.431846252283936 
1709	 0.431825475789842 
1710	 0.431832406119493 
1711	 0.431812496328517 
1712	 0.431780013877605 
1713	 0.431757387896033 
1714	 0.43173647870248 
1715	 0.431695251438784 
1716	 0.431637909927949 
1717	 0.431613953648076 
1718	 0.431588711609019 
1719	 0.431564034380474 
1720	 0.43158136682294 
1721	 0.431557078781331 
1722	 0.43149339578178 
1723	 0.431453657045673 
1724	 0.431415256449436 
1725	 0.431378174050004 
1726	 0.43134963998871 
1727	 0.431310845314397 
1728	 0.43127677577259 
1729	 0.431215982101259 
1730	 0.431142582546507 
1731	 0.431056385156648 
1732	 0.430954320508928 
1733	 0.430839882063546 
1734	 0.430698270357202 
1735	 0.430582732174582 
1736	 0.430470216001694 
1737	 0.430346155407357 
1738	 0.430225806508691 
1739	 0.430114663729282 
1740	 0.429989996267989 
1741	 0.429879062675979 
1742	 0.429799847386928 
1743	 0.429699848253118 
1744	 0.429578806177115 
1745	 0.429473013089213 
1746	 0.429372589616441 
1747	 0.429266544015719 
1748	 0.429196127117079 
1749	 0.429115192379984 
1750	 0.428997637211565 
1751	 0.428896973974333 
1752	 0.4287991161755 
1753	 0.428712939728642 
1754	 0.428636386170102 
1755	 0.428554700857468 
1756	 0.428451975277248 
1757	 0.428310375330454 
1758	 0.428177701397253 
1759	 0.428034645013394 
1760	 0.427888859288653 
1761	 0.427789328308906 
1762	 0.427704820568673 
1763	 0.427633866280495 
1764	 0.427577549507051 
1765	 0.427504619335639 
1766	 0.427444747909301 
1767	 0.42740139564265 
1768	 0.427363811974489 
1769	 0.42735031579523 
1770	 0.42729543552025 
1771	 0.427191230253666 
1772	 0.427057398656345 
1773	 0.426894181473188 
1774	 0.426776792791804 
1775	 0.426678665875978 
1776	 0.426587270567497 
1777	 0.426533007278789 
1778	 0.426459495672834 
1779	 0.426418423283352 
1780	 0.426397278570334 
1781	 0.426327264961246 
1782	 0.426278001977136 
1783	 0.426245728878805 
1784	 0.42618745537794 
1785	 0.426132476634818 
1786	 0.426072166700907 
1787	 0.425982313218376 
1788	 0.42590476632585 
1789	 0.425826968689811 
1790	 0.425768729829218 
1791	 0.425720939197386 
1792	 0.425662140140666 
1793	 0.425636187717361 
1794	 0.425588965269884 
1795	 0.42550936712323 
1796	 0.425444812967829 
1797	 0.425380387355779 
1798	 0.425313459017205 
1799	 0.425249291217536 
1800	 0.42518515128974 
1801	 0.42727432244857 
1802	 0.427286521153883 
1803	 0.427301346030147 
1804	 0.42731168850345 
1805	 0.427309557464108 
1806	 0.427309489774374 
1807	 0.427297076516003 
1808	 0.427284518889168 
1809	 0.427296708824567 
1810	 0.427254948822694 
1811	 0.427188028076874 
1812	 0.42711395326992 
1813	 0.427006462866148 
1814	 0.42686780894287 
1815	 0.426745294873458 
1816	 0.4266433733415 
1817	 0.426540742593524 
1818	 0.426434677491674 
1819	 0.426345062111111 
1820	 0.426285759224047 
1821	 0.426189166192669 
1822	 0.426076246954006 
1823	 0.425963579126909 
1824	 0.425812275575702 
1825	 0.425636981146625 
1826	 0.425466452301779 
1827	 0.425290244332018 
1828	 0.4250785800646 
1829	 0.424862737190433 
1830	 0.424595386866492 
1831	 0.424291008008473 
1832	 0.42395293070524 
1833	 0.423564529105133 
1834	 0.423180570726501 
1835	 0.4228119652782 
1836	 0.422434370981877 
1837	 0.422059169815859 
1838	 0.421699969150517 
1839	 0.421364332369864 
1840	 0.421038435383492 
1841	 0.420712186174231 
1842	 0.420414300130343 
1843	 0.420141556765088 
1844	 0.419865037758284 
1845	 0.419618073808017 
1846	 0.419421927590623 
1847	 0.419244339572781 
1848	 0.419074283056434 
1849	 0.418937622046673 
1850	 0.418842362692228 
1851	 0.418782146232822 
1852	 0.418743285335223 
1853	 0.418741185741522 
1854	 0.418772517215443 
1855	 0.418810620854699 
1856	 0.41883510737179 
1857	 0.418852518978746 
1858	 0.418827278359047 
1859	 0.4187539257186 
1860	 0.418676273050295 
1861	 0.418584032901628 
1862	 0.418463155719495 
1863	 0.418318394223153 
1864	 0.418148081486775 
1865	 0.417982479142871 
1866	 0.417822437671229 
1867	 0.417641061485558 
1868	 0.417489977143693 
1869	 0.417316706209487 
1870	 0.417096887823316 
1871	 0.416840527727397 
1872	 0.416573743074803 
1873	 0.416242016501189 
1874	 0.415859818608682 
1875	 0.415446320266499 
1876	 0.414975771243781 
1877	 0.414454485578676 
1878	 0.413833491391772 
1879	 0.413115848314724 
1880	 0.412320848856024 
1881	 0.411424426828657 
1882	 0.410465594033105 
1883	 0.409443536910662 
1884	 0.408321001673258 
1885	 0.407120569174623 
1886	 0.405856525259144 
1887	 0.404483308831182 
1888	 0.403079764073175 
1889	 0.401616390524151 
1890	 0.400077570379324 
1891	 0.398524311628362 
1892	 0.396931593682265 
1893	 0.39529609794558 
1894	 0.393615806223111 
1895	 0.391929272196049 
1896	 0.390171635099372 
1897	 0.388355791030388 
1898	 0.386540594476543 
1899	 0.384745466275689 
1900	 0.38299066093767 
1901	 0.381297022519099 
1902	 0.379649482200853 
1903	 0.378043739813279 
1904	 0.376498413133034 
1905	 0.374997456708845 
1906	 0.373590007453706 
1907	 0.372203007459978 
1908	 0.370871031236366 
1909	 0.369604370722378 
1910	 0.368310201846997 
1911	 0.36707534832654 
1912	 0.365901519826689 
1913	 0.364767281800289 
1914	 0.363664609921382 
1915	 0.362619102912792 
1916	 0.361618997228953 
1917	 0.360672537487867 
1918	 0.359800421697804 
1919	 0.358984860377362 
1920	 0.35823239744193 
1921	 0.357543045642518 
1922	 0.356881850432671 
1923	 0.356260774065977 
1924	 0.35569917436017 
1925	 0.355196704234767 
1926	 0.354739846062971 
1927	 0.354330156632319 
1928	 0.353968125839241 
1929	 0.353677513897076 
1930	 0.35342882544126 
1931	 0.353212207711211 
1932	 0.353061144890096 
1933	 0.35293395715115 
1934	 0.352846214393963 
1935	 0.352832081164703 
1936	 0.352898284391219 
1937	 0.352980200830552 
1938	 0.353121770973198 
1939	 0.3532827415479 
1940	 0.353467006549221 
1941	 0.353682069087901 
1942	 0.353945123332491 
1943	 0.354245831358284 
1944	 0.354577333687856 
1945	 0.354920043202974 
1946	 0.355258274357109 
1947	 0.355606075052982 
1948	 0.355953174339322 
1949	 0.356304329279974 
1950	 0.356653369889523 
1951	 0.35700529544449 
1952	 0.357359989514068 
1953	 0.357705804971217 
1954	 0.358031888557783 
1955	 0.358363873245974 
1956	 0.358705035225709 
1957	 0.35904717213961 
1958	 0.359383746656497 
1959	 0.359749184391165 
1960	 0.360139672428914 
1961	 0.360514122082933 
1962	 0.360893135606897 
1963	 0.361288766560298 
1964	 0.361707519690933 
1965	 0.362074671278568 
1966	 0.362467393306051 
1967	 0.36286473749961 
1968	 0.36323821589952 
1969	 0.363563863806651 
1970	 0.363943530208248 
1971	 0.364338243022653 
1972	 0.364738445082967 
1973	 0.365169212873421 
1974	 0.365586601280659 
1975	 0.366003640414197 
1976	 0.366421604180788 
1977	 0.366847996298878 
1978	 0.367233928126795 
1979	 0.367614193750742 
1980	 0.368013956103181 
1981	 0.368406405188412 
1982	 0.368785444312906 
1983	 0.369186158666755 
1984	 0.369602997678166 
1985	 0.370008653259285 
1986	 0.370418028550855 
1987	 0.370828282867643 
1988	 0.371240040311075 
1989	 0.371641319985358 
1990	 0.372045577284452 
1991	 0.372475228487976 
1992	 0.37290289686713 
1993	 0.37335093808323 
1994	 0.373769044104772 
1995	 0.374178473155971 
1996	 0.374583610191334 
1997	 0.374971870918811 
1998	 0.375361143286064 
1999	 0.375762498093683 
2000	 0.376145473171365 
2001	 0.376511486358606 
2002	 0.376860416262085 
2003	 0.377242002332591 
2004	 0.377619328670691 
2005	 0.378010334164034 
2006	 0.378418909848398 
2007	 0.378840171729391 
2008	 0.379274794524137 
2009	 0.37970000144769 
2010	 0.380155761585927 
2011	 0.38057910960448 
2012	 0.380969942017542 
2013	 0.38137417701555 
2014	 0.381791930336266 
2015	 0.382167768539378 
2016	 0.382559722069925 
2017	 0.38297454436906 
2018	 0.383386953455605 
2019	 0.383819718563293 
2020	 0.384221848435094 
2021	 0.384621397311086 
2022	 0.385007925718361 
2023	 0.385375376212282 
2024	 0.385730302380992 
2025	 0.386075176057943 
2026	 0.386412541967024 
2027	 0.386718966063476 
2028	 0.387043627099785 
2029	 0.387366033881525 
2030	 0.38768580853267 
2031	 0.388019318440779 
2032	 0.38836866327572 
2033	 0.388695542124736 
2034	 0.389028389385765 
2035	 0.389345700316506 
2036	 0.389630519007669 
2037	 0.389936282464428 
2038	 0.390262547546828 
2039	 0.390564513267474 
2040	 0.390857698817713 
2041	 0.391154699563049 
2042	 0.391422977133513 
2043	 0.391682774464009 
2044	 0.391939186417846 
2045	 0.392188570889494 
2046	 0.392434977074798 
2047	 0.392674200332002 
2048	 0.392909922224325 
2049	 0.393142762986971 
2050	 0.393372499967678 
2051	 0.393593301572805 
2052	 0.393816432073188 
2053	 0.394022555383727 
2054	 0.394253755091258 
2055	 0.394504132597383 
2056	 0.394753722656698 
2057	 0.394992549137 
2058	 0.395243356823037 
2059	 0.395481652937403 
2060	 0.395699588622157 
2061	 0.395928882208647 
2062	 0.396173578767592 
2063	 0.396396501016045 
2064	 0.396604945116591 
2065	 0.396815764132142 
2066	 0.397011855433254 
2067	 0.397221196047256 
2068	 0.397453488020289 
2069	 0.397654139848103 
2070	 0.397857866434274 
2071	 0.398071477263038 
2072	 0.39824999650371 
2073	 0.39841431433933 
2074	 0.398554585944887 
2075	 0.398650617578992 
2076	 0.398777647679927 
2077	 0.398888987132203 
2078	 0.399023170545285 
2079	 0.399207929784707 
2080	 0.39934231714174 
2081	 0.399451190032096 
2082	 0.399564771664372 
2083	 0.399649297828782 
2084	 0.399736001627429 
2085	 0.399854849033946 
2086	 0.399998198695692 
2087	 0.400137551475833 
2088	 0.400296924750621 
2089	 0.400441548845545 
2090	 0.400591553613899 
2091	 0.400722974447656 
2092	 0.400841895651403 
2093	 0.400962855635379 
2094	 0.401072664028567 
2095	 0.401182672198677 
2096	 0.401292762696035 
2097	 0.401401849700813 
2098	 0.401497277525066 
2099	 0.40160549532267 
2100	 0.401723259362599 
2101	 0.401854396816535 
2102	 0.401970570157605 
2103	 0.4020896500891 
2104	 0.40220871160622 
2105	 0.402298803958677 
2106	 0.402438395169461 
2107	 0.402608006602416 
2108	 0.402776567637058 
2109	 0.402977835976632 
2110	 0.403163540778955 
2111	 0.403349131554775 
2112	 0.403527182016828 
2113	 0.403691183552807 
2114	 0.403875908762329 
2115	 0.404043473215345 
2116	 0.40419110640055 
2117	 0.404373432459942 
2118	 0.404561416511441 
2119	 0.404765780912876 
2120	 0.405001672443903 
2121	 0.405223402317888 
2122	 0.405466562400193 
2123	 0.405670887407879 
2124	 0.405857213323512 
2125	 0.406039823878579 
2126	 0.406214351937146 
2127	 0.406358063379162 
2128	 0.40648561328345 
2129	 0.406603518362457 
2130	 0.406689859480301 
2131	 0.406772846203302 
2132	 0.406829430927579 
2133	 0.406878814625285 
2134	 0.406906803273918 
2135	 0.406905199997513 
2136	 0.406892678297304 
2137	 0.406884344080559 
2138	 0.406829952818075 
2139	 0.406736413992117 
2140	 0.406631826336223 
2141	 0.406502498600945 
2142	 0.406352649020338 
2143	 0.406172258748108 
2144	 0.40599185070066 
2145	 0.405774928606729 
2146	 0.405578401506541 
2147	 0.405399928285976 
2148	 0.405218679608912 
2149	 0.404996650369003 
2150	 0.404766561981913 
2151	 0.404515279998567 
2152	 0.404218061133955 
2153	 0.403936474666394 
2154	 0.403660850342975 
2155	 0.4033673333266 
2156	 0.403058102613614 
2157	 0.402745054669727 
2158	 0.402426398938544 
2159	 0.402096426132195 
2160	 0.401780791625335 
2161	 0.401415288027552 
2162	 0.401003380547964 
2163	 0.400601925878162 
2164	 0.400166945905712 
2165	 0.399730725666647 
2166	 0.399315370147188 
2167	 0.398914338708936 
2168	 0.398520455824089 
2169	 0.398148825114339 
2170	 0.397743333637341 
2171	 0.397342191809832 
2172	 0.396921044018714 
2173	 0.396462576984341 
2174	 0.396018111032653 
2175	 0.395571865354084 
2176	 0.395129033965765 
2177	 0.394687732144745 
2178	 0.394242874778604 
2179	 0.393787089778204 
2180	 0.393350326425957 
2181	 0.39292389472624 
2182	 0.392490871389814 
2183	 0.392068335750832 
2184	 0.391646318626497 
2185	 0.391224190958115 
2186	 0.390789240580648 
2187	 0.390370547959061 
2188	 0.389965074731462 
2189	 0.389559840463981 
2190	 0.389153758068891 
2191	 0.388753723031982 
2192	 0.388371155986493 
2193	 0.387967925161181 
2194	 0.387536181949932 
2195	 0.387146914802521 
2196	 0.38675912509426 
2197	 0.386393485700382 
2198	 0.386065378357195 
2199	 0.385746401521328 
2200	 0.385436143282519 
2201	 0.38513883827212 
2202	 0.384877110633081 
2203	 0.384596620350416 
2204	 0.384329951712414 
2205	 0.384067655237004 
2206	 0.383815100806878 
2207	 0.383561534012901 
2208	 0.383335616986721 
2209	 0.383126225009069 
2210	 0.382932248905215 
2211	 0.382753790755431 
2212	 0.382600028544022 
2213	 0.382486855447645 
2214	 0.382343292728345 
2215	 0.382207586594089 
2216	 0.382071496394121 
2217	 0.38192530138101 
2218	 0.381769609995165 
2219	 0.381635152194533 
2220	 0.38146867060499 
2221	 0.381255025278388 
2222	 0.381062294749881 
2223	 0.380890116790898 
2224	 0.380676275879575 
2225	 0.380450469658668 
2226	 0.38023521494692 
2227	 0.379956949684711 
2228	 0.379622355373714 
2229	 0.379300710511347 
2230	 0.378957352218043 
2231	 0.378598865816314 
2232	 0.378228850402261 
2233	 0.377850386554275 
2234	 0.377455093501346 
2235	 0.377045408761453 
2236	 0.376634946899804 
2237	 0.376190465660236 
2238	 0.37570962455204 
2239	 0.375224123365296 
2240	 0.374717851456496 
2241	 0.374210631172368 
2242	 0.37369811363805 
2243	 0.373170123086208 
2244	 0.372633017505279 
2245	 0.37207969121498 
2246	 0.371525862018508 
2247	 0.37093999822025 
2248	 0.370344898211225 
2249	 0.369735742629453 
2250	 0.369116405058396 
2251	 0.368450021770847 
2252	 0.367861854972163 
2253	 0.367281351914641 
2254	 0.366746016669265 
2255	 0.366277097016904 
2256	 0.365789005315772 
2257	 0.365262834586211 
2258	 0.364862712781105 
2259	 0.364503810720836 
2260	 0.364218369228228 
2261	 0.364045475818736 
2262	 0.363900679678608 
2263	 0.363777860447626 
2264	 0.363737123958645 
2265	 0.363795260109068 
2266	 0.363867215682866 
2267	 0.363972116041658 
2268	 0.364157079024108 
2269	 0.364412202220525 
2270	 0.364688278751787 
2271	 0.365035693873304 
2272	 0.36542619141558 
2273	 0.365765814858802 
2274	 0.366112822384583 
2275	 0.366458940345365 
2276	 0.366780495145323 
2277	 0.367161356635311 
2278	 0.367563157019883 
2279	 0.36798588277095 
2280	 0.368463383383504 
2281	 0.368912457208563 
2282	 0.369365351556728 
2283	 0.369816447094655 
2284	 0.370279607327386 
2285	 0.370715508012759 
2286	 0.371127253019936 
2287	 0.371555497115141 
2288	 0.371988928990686 
2289	 0.372391458430779 
2290	 0.372799095931782 
2291	 0.373191398231547 
2292	 0.373525322702731 
2293	 0.373896725977079 
2294	 0.374321307145922 
2295	 0.374678550777608 
2296	 0.374986396561455 
2297	 0.375335173439555 
2298	 0.37565230356273 
2299	 0.375964361502245 
2300	 0.376358472382615 
2301	 0.376683498985033 
2302	 0.376959123534977 
2303	 0.377245805795343 
2304	 0.377509605356642 
2305	 0.377806714860957 
2306	 0.378086729429747 
2307	 0.378395303563117 
2308	 0.378652459071505 
2309	 0.37888703301088 
2310	 0.379092773300262 
2311	 0.379265228059014 
2312	 0.379421911455997 
2313	 0.379544980686049 
2314	 0.379661320968022 
2315	 0.379741148162059 
2316	 0.379861805225103 
2317	 0.379967325614898 
2318	 0.380118704822556 
2319	 0.380373389980877 
2320	 0.380511629807612 
2321	 0.380603819373669 
2322	 0.380709407563006 
2323	 0.38073148598363 
2324	 0.380802310662494 
2325	 0.380948545996011 
2326	 0.381020923870656 
2327	 0.38106192355161 
2328	 0.381096794888837 
2329	 0.381064055638832 
2330	 0.381033717479326 
2331	 0.380988010550119 
2332	 0.380975001487752 
2333	 0.38100932113385 
2334	 0.381059889227739 
2335	 0.381178038149223 
2336	 0.381220305362697 
2337	 0.381166744270655 
2338	 0.38113119080125 
2339	 0.38101561447824 
2340	 0.380844918971779 
2341	 0.380732657539149 
2342	 0.380593845416056 
2343	 0.380400952889295 
2344	 0.380230406597482 
2345	 0.379992792317542 
2346	 0.379671581213285 
2347	 0.3793733314472 
2348	 0.379032284941903 
2349	 0.378756428145642 
2350	 0.378532892333106 
2351	 0.378277244912765 
2352	 0.378064515062746 
2353	 0.377751845859857 
2354	 0.377341073329568 
2355	 0.376980896467221 
2356	 0.376597420559643 
2357	 0.376237900632687 
2358	 0.375926931519386 
2359	 0.375571060281686 
2360	 0.375198932403149 
2361	 0.374792352987692 
2362	 0.374362782987473 
2363	 0.373920743081992 
2364	 0.373430584355378 
2365	 0.372969725740725 
2366	 0.372501389940101 
2367	 0.372044215190438 
2368	 0.371601564705695 
2369	 0.37115881019855 
2370	 0.370727167336674 
2371	 0.370298685704973 
2372	 0.369842954566555 
2373	 0.369362706957299 
2374	 0.368885570697973 
2375	 0.368394551141417 
2376	 0.367875052599113 
2377	 0.367319968634614 
2378	 0.366777439154852 
2379	 0.366148979794902 
2380	 0.365447584068806 
2381	 0.364855214922406 
2382	 0.364258093806578 
2383	 0.363671778718836 
2384	 0.363202358629451 
2385	 0.362751431229821 
2386	 0.362241115982614 
2387	 0.361680400698635 
2388	 0.361136681508495 
2389	 0.360549185143717 
2390	 0.359938727465432 
2391	 0.35944425869816 
2392	 0.358916885749854 
2393	 0.358343693573066 
2394	 0.357827148684416 
2395	 0.357263248526072 
2396	 0.356674309096046 
2397	 0.356055858090161 
2398	 0.355388953038267 
2399	 0.354685806029929 
2400	 0.354024351945849 
2401	 0.353493465585453 
2402	 0.353039529533817 
2403	 0.352620353045028 
2404	 0.352118256424379 
2405	 0.351558566762701 
2406	 0.350927307907695 
2407	 0.350281243056839 
2408	 0.349738193962259 
2409	 0.34915645607836 
2410	 0.348659207826185 
2411	 0.348236941907971 
2412	 0.347766985066943 
2413	 0.347378714639975 
2414	 0.346980383593596 
2415	 0.346499667542944 
2416	 0.346066777495305 
2417	 0.34572720654877 
2418	 0.34520104932784 
2419	 0.344574071745749 
2420	 0.34398978489861 
2421	 0.343220834182251 
2422	 0.342669285199328 
2423	 0.342305014802013 
2424	 0.341873792178705 
2425	 0.341528477186081 
2426	 0.34104882854377 
2427	 0.340479271737241 
2428	 0.339956786291429 
2429	 0.33937655950476 
2430	 0.338915178077473 
2431	 0.338493077772515 
2432	 0.338071168461259 
2433	 0.337789319679259 
2434	 0.337311272714726 
2435	 0.336763031928144 
2436	 0.336267896130249 
2437	 0.335629273434132 
2438	 0.335086199681298 
2439	 0.334641982712555 
2440	 0.33410662872947 
2441	 0.333507644908253 
2442	 0.332999159863537 
2443	 0.332597808006886 
2444	 0.332091149820557 
2445	 0.331513898854321 
2446	 0.331054731528751 
2447	 0.330586174382474 
2448	 0.33006048995761 
2449	 0.329696860379322 
2450	 0.329171984436945 
2451	 0.328392371747112 
2452	 0.327807661787121 
2453	 0.327271834049336 
2454	 0.326733976767604 
2455	 0.326310862638935 
2456	 0.325778760980564 
2457	 0.325184620786374 
2458	 0.324642081821662 
2459	 0.324073375546619 
2460	 0.323501300998484 
2461	 0.322931724430382 
2462	 0.322443716492604 
2463	 0.321955047784142 
2464	 0.321545147456695 
2465	 0.32128082626824 
2466	 0.320908522280702 
2467	 0.320545207893972 
2468	 0.3201111229746 
2469	 0.319531842471746 
2470	 0.319228450499065 
2471	 0.318954763784293 
2472	 0.318717452954287 
2473	 0.318440682416722 
2474	 0.317971242640985 
2475	 0.317443822707865 
2476	 0.317105671103789 
2477	 0.316789449940785 
2478	 0.316411447929876 
2479	 0.315911540117271 
2480	 0.315298331413354 
2481	 0.314721753885945 
2482	 0.314207062192424 
2483	 0.313787665252528 
2484	 0.313451224212761 
2485	 0.312944249197221 
2486	 0.312291504791516 
2487	 0.31191862983117 
2488	 0.311417424481126 
2489	 0.310845469799498 
2490	 0.310596055989651 
2491	 0.310083830159782 
2492	 0.309614781448924 
2493	 0.309236183186122 
2494	 0.308420267916654 
2495	 0.3077191857813 
2496	 0.307236507297254 
2497	 0.306792793813995 
2498	 0.306553622032648 
2499	 0.306404760730812 
2500	 0.306017588688474 
