Wavelength	LMW7 profile 200002.asd
350	 7.44255465055026E-02 
351	 7.28090667898159E-02 
352	 6.97550762590358E-02 
353	 6.69761667584905E-02 
354	 7.57273394114747E-02 
355	 7.22481646227134E-02 
356	 6.42017843633276E-02 
357	 6.38779815962308E-02 
358	 6.69977641002216E-02 
359	 6.84097758155868E-02 
360	 0.067931305233294 
361	 6.81339878607445E-02 
362	 6.36124615148316E-02 
363	 6.22018455359217E-02 
364	 0.064915962830961 
365	 5.95716297994963E-02 
366	 5.96147222856811E-02 
367	 6.16465686609415E-02 
368	 6.04498114457341E-02 
369	 6.28939557897014E-02 
370	 6.43433269443447E-02 
371	 6.41645067474915E-02 
372	 6.46132936283626E-02 
373	 6.55375247477881E-02 
374	 6.61897497480789E-02 
375	 0.066199581817018 
376	 6.59105317566083E-02 
377	 6.66614628054242E-02 
378	 0.068457736990187 
379	 7.04695417190608E-02 
380	 7.10716056870321E-02 
381	 6.86023490320487E-02 
382	 6.66971961785437E-02 
383	 0.071834519325177 
384	 7.49609232819455E-02 
385	 7.40778263965954E-02 
386	 0.071559699027284 
387	 0.07608640601799 
388	 7.83958915806231E-02 
389	 7.85036492283675E-02 
390	 7.91569181139897E-02 
391	 8.04420713906195E-02 
392	 8.27274738249984E-02 
393	 8.58082147135238E-02 
394	 0.088941059089896 
395	 9.03627952270162E-02 
396	 9.19834672797012E-02 
397	 9.47855323338425E-02 
398	 9.64819371084061E-02 
399	 9.85730663318873E-02 
400	 0.101075965316991 
401	 0.103522326836403 
402	 0.105966050921549 
403	 0.108209007959674 
404	 0.109983752406621 
405	 0.111024607873012 
406	 0.1137352359318 
407	 0.117435850486801 
408	 0.120558318735957 
409	 0.120695622620496 
410	 0.122378560273092 
411	 0.125093083985022 
412	 0.126290920416114 
413	 0.127570640197052 
414	 0.128818626728415 
415	 0.129763215835081 
416	 0.130104718176117 
417	 0.130762008549131 
418	 0.131813184315705 
419	 0.132915836005139 
420	 0.133258735701319 
421	 0.132616740348657 
422	 0.131872201369157 
423	 0.132334375528078 
424	 0.13193563460086 
425	 0.131122934789112 
426	 0.13038690099382 
427	 0.129756542761053 
428	 0.128162264221178 
429	 0.126379504141656 
430	 0.125496384481249 
431	 0.124987575322322 
432	 0.124012274898012 
433	 0.122790511094794 
434	 0.122496233718803 
435	 0.122372919996478 
436	 0.122434096087822 
437	 0.122810163046734 
438	 0.123540622288713 
439	 0.124706072186701 
440	 0.126160299468574 
441	 0.127671246061723 
442	 0.129327892609589 
443	 0.131182517837986 
444	 0.133177379852753 
445	 0.13508522585228 
446	 0.137016321016635 
447	 0.139115767709018 
448	 0.141456208239451 
449	 0.143791644727382 
450	 0.14613832235129 
451	 0.148388656521026 
452	 0.150350602217381 
453	 0.152380225575373 
454	 0.154625921615516 
455	 0.156991123349847 
456	 0.158885257432727 
457	 0.160803594068417 
458	 0.162732339916574 
459	 0.164482173529921 
460	 0.166457783865997 
461	 0.168137750581307 
462	 0.169357981969125 
463	 0.170537332450387 
464	 0.172197490253885 
465	 0.173866146705148 
466	 0.175041280697861 
467	 0.176355675165086 
468	 0.177608303583445 
469	 0.178680734263586 
470	 0.179559273703892 
471	 0.180509287002664 
472	 0.181594777041974 
473	 0.182791787599416 
474	 0.184001782078803 
475	 0.184980433987416 
476	 0.185845404540315 
477	 0.186840934455576 
478	 0.187768062703067 
479	 0.188685632083755 
480	 0.18966472897353 
481	 0.190765111735725 
482	 0.191829397062036 
483	 0.19281453455494 
484	 0.19373037879578 
485	 0.194653671415987 
486	 0.19547945721816 
487	 0.196236757164408 
488	 0.197065741029276 
489	 0.19795387540881 
490	 0.198925967259321 
491	 0.199900022365881 
492	 0.200491020390099 
493	 0.20118454929319 
494	 0.202064772898969 
495	 0.203006157259375 
496	 0.203898366842527 
497	 0.2047229247104 
498	 0.205493043753115 
499	 0.206241266720435 
500	 0.207141419835456 
501	 0.208055751336737 
502	 0.208807922570193 
503	 0.209494083106303 
504	 0.210216375814053 
505	 0.211000882314912 
506	 0.211805299843837 
507	 0.212667589531407 
508	 0.21354831912518 
509	 0.214379445860108 
510	 0.215036386503054 
511	 0.215801029451486 
512	 0.216645427089242 
513	 0.217391016996621 
514	 0.218125835468375 
515	 0.218913233160588 
516	 0.219732426621174 
517	 0.220418107097874 
518	 0.221168504199144 
519	 0.221895060401521 
520	 0.222489837160961 
521	 0.223249050065685 
522	 0.224051986518541 
523	 0.224783544288726 
524	 0.225366032605687 
525	 0.226023240977915 
526	 0.226788121849237 
527	 0.227602702239577 
528	 0.228284834368896 
529	 0.228977926923601 
530	 0.229705941449934 
531	 0.230418332795586 
532	 0.231180407047676 
533	 0.231957319495638 
534	 0.232700603146772 
535	 0.233357642002206 
536	 0.233964467806159 
537	 0.234624415624441 
538	 0.235424129989068 
539	 0.236165355738721 
540	 0.236853636692037 
541	 0.237512736565639 
542	 0.238162543160377 
543	 0.238869820535329 
544	 0.239625910989871 
545	 0.24038582209276 
546	 0.241064995401332 
547	 0.241748983301986 
548	 0.242481463753385 
549	 0.243259822180768 
550	 0.243943997249049 
551	 0.244657710359562 
552	 0.245491163226649 
553	 0.246330612916281 
554	 0.24711847575587 
555	 0.247861238118708 
556	 0.248606766138611 
557	 0.249396087974572 
558	 0.250223088577865 
559	 0.251063573967479 
560	 0.251877844030185 
561	 0.252632072916401 
562	 0.253406164548336 
563	 0.254301139941863 
564	 0.255312422462179 
565	 0.256202002641553 
566	 0.256941911932496 
567	 0.257752268679706 
568	 0.258745919436777 
569	 0.259794727152226 
570	 0.260761451762789 
571	 0.261710394554924 
572	 0.262678122431148 
573	 0.263637174785267 
574	 0.264521719852056 
575	 0.265409322013397 
576	 0.266458544246937 
577	 0.267661872435964 
578	 0.268630070210833 
579	 0.269557307618917 
580	 0.270479481164022 
581	 0.271382597684095 
582	 0.272321622032313 
583	 0.273281295741872 
584	 0.274258384820322 
585	 0.27527598721715 
586	 0.276473596068461 
587	 0.277710700562331 
588	 0.278821665886307 
589	 0.27993027154102 
590	 0.281092489454218 
591	 0.282303107260901 
592	 0.283503178136077 
593	 0.284642904900905 
594	 0.285644954129916 
595	 0.286503937864317 
596	 0.287415460927119 
597	 0.288200759369837 
598	 0.288927387582106 
599	 0.289770270100174 
600	 0.290525627446319 
601	 0.291363554761213 
602	 0.292336938031998 
603	 0.293225754825457 
604	 0.294031596358631 
605	 0.294864358488549 
606	 0.29583611644745 
607	 0.296812737771919 
608	 0.297690897404077 
609	 0.298504755378393 
610	 0.299437756522644 
611	 0.300213096901664 
612	 0.300902491890278 
613	 0.301609752785728 
614	 0.302255822603919 
615	 0.302822702247399 
616	 0.303366138230006 
617	 0.303977315361981 
618	 0.304533685933379 
619	 0.305029718330199 
620	 0.305504014184292 
621	 0.306056482794853 
622	 0.306556734971269 
623	 0.306967515710023 
624	 0.307325004879812 
625	 0.307869231436139 
626	 0.308361666010038 
627	 0.308715665532895 
628	 0.309093962313522 
629	 0.309525745737384 
630	 0.309922296240837 
631	 0.310222030876185 
632	 0.310621967962517 
633	 0.310956030787506 
634	 0.311274620193323 
635	 0.311780342847003 
636	 0.312039214678254 
637	 0.312320820701634 
638	 0.312796406589224 
639	 0.313088206840581 
640	 0.313396258281886 
641	 0.31374275988769 
642	 0.314074540369929 
643	 0.314391120656011 
644	 0.31471969445751 
645	 0.315068537690682 
646	 0.315414291230167 
647	 0.315756549872985 
648	 0.316096016530378 
649	 0.316437853990645 
650	 0.316794882388171 
651	 0.317191454893609 
652	 0.317594356921131 
653	 0.317930454789858 
654	 0.318340020508652 
655	 0.31872570096716 
656	 0.319029927165572 
657	 0.319393975208885 
658	 0.319828156574253 
659	 0.320277105044053 
660	 0.320659670691627 
661	 0.321005200739706 
662	 0.321417021903453 
663	 0.321901882733665 
664	 0.322318492933317 
665	 0.322731843099907 
666	 0.323196917750985 
667	 0.323704700644178 
668	 0.323970430762144 
669	 0.324364330799856 
670	 0.32492569837801 
671	 0.325407697024018 
672	 0.325864161776313 
673	 0.32636918760166 
674	 0.326915248676042 
675	 0.32727084294349 
676	 0.327710537465669 
677	 0.328215034888234 
678	 0.32865598412325 
679	 0.329121035164009 
680	 0.329601329481341 
681	 0.330104167690555 
682	 0.330669977963593 
683	 0.331144545386386 
684	 0.33160054801838 
685	 0.332127751538665 
686	 0.332648025971276 
687	 0.333133690095929 
688	 0.333629211610898 
689	 0.334210013004692 
690	 0.334661559434879 
691	 0.335112620250296 
692	 0.335653310949212 
693	 0.336206100795242 
694	 0.336673911817909 
695	 0.337138545761894 
696	 0.337704138757617 
697	 0.338175314177017 
698	 0.338663521386572 
699	 0.33919736630174 
700	 0.339700259469927 
701	 0.340174880223202 
702	 0.34062437207458 
703	 0.341062669631505 
704	 0.34153520664741 
705	 0.341940314826203 
706	 0.342325881097473 
707	 0.342798871140945 
708	 0.343248413664692 
709	 0.343686921627829 
710	 0.344107428993907 
711	 0.344455232989302 
712	 0.34484274261003 
713	 0.345250914813508 
714	 0.345619640242247 
715	 0.345873258264057 
716	 0.346212006480438 
717	 0.346634291879289 
718	 0.346985199105187 
719	 0.347226123987936 
720	 0.347423921566353 
721	 0.347625885896143 
722	 0.347795561268318 
723	 0.348090215108799 
724	 0.34840566545178 
725	 0.348580378173902 
726	 0.348662079800375 
727	 0.348791888835183 
728	 0.348948025870709 
729	 0.348967668692889 
730	 0.349075736763606 
731	 0.349163415987078 
732	 0.349151223084588 
733	 0.349183667857161 
734	 0.349128262098359 
735	 0.349021730875165 
736	 0.348955751807547 
737	 0.348897277106159 
738	 0.348800944435164 
739	 0.348659711675125 
740	 0.348508732341355 
741	 0.348309031289899 
742	 0.348096210294599 
743	 0.347888077255397 
744	 0.347607501537436 
745	 0.347334890046138 
746	 0.347060434745625 
747	 0.346738325853889 
748	 0.346390681182683 
749	 0.346095333670279 
750	 0.345800395850321 
751	 0.345300808069581 
752	 0.344815556073179 
753	 0.344392201876597 
754	 0.344005427199637 
755	 0.343544695553671 
756	 0.343088281119757 
757	 0.342643293543487 
758	 0.342171904948053 
759	 0.341604962582607 
760	 0.34093684031033 
761	 0.340273365422701 
762	 0.339837752153723 
763	 0.339315981656555 
764	 0.338674056443547 
765	 0.337988979281605 
766	 0.337452699856947 
767	 0.336839740061735 
768	 0.336130974412858 
769	 0.335422305705794 
770	 0.334785141955921 
771	 0.334200611219724 
772	 0.333605959819377 
773	 0.332905493059943 
774	 0.33227786872717 
775	 0.331648511686187 
776	 0.330939558586931 
777	 0.330216004857149 
778	 0.329560439909596 
779	 0.328928535268527 
780	 0.328226588656504 
781	 0.327476503082514 
782	 0.326783506510779 
783	 0.326146930070323 
784	 0.325453869758516 
785	 0.324761723687059 
786	 0.32412273872985 
787	 0.323516538472792 
788	 0.32273660618261 
789	 0.322030651174652 
790	 0.321397381871622 
791	 0.320744970628111 
792	 0.320051616775988 
793	 0.319412635748327 
794	 0.318778950919641 
795	 0.317997963297095 
796	 0.317308148077843 
797	 0.316689742123813 
798	 0.316070646919607 
799	 0.315359784611404 
800	 0.314718885061128 
801	 0.314152604830303 
802	 0.313579118703812 
803	 0.312779757776486 
804	 0.312135927392549 
805	 0.311632036091836 
806	 0.311017600996775 
807	 0.310448170602423 
808	 0.309807369340654 
809	 0.309100717205858 
810	 0.308516438135265 
811	 0.307987215531604 
812	 0.307460739376048 
813	 0.306901483490766 
814	 0.306319091778949 
815	 0.305698635449902 
816	 0.305102921650474 
817	 0.304598176652026 
818	 0.304090280998164 
819	 0.30356845078198 
820	 0.303042578650588 
821	 0.30253242024368 
822	 0.301989223755869 
823	 0.301474192667663 
824	 0.300998566974574 
825	 0.300465882533414 
826	 0.300024608061211 
827	 0.299622737719871 
828	 0.29917520520954 
829	 0.298683872350944 
830	 0.29812634946419 
831	 0.297584715179126 
832	 0.297163153133853 
833	 0.296779276446178 
834	 0.296354230450962 
835	 0.295893759415613 
836	 0.295483334259121 
837	 0.295151837480455 
838	 0.294851751188044 
839	 0.294515447325647 
840	 0.294070332038802 
841	 0.293572021229664 
842	 0.29312837772411 
843	 0.292804501223201 
844	 0.292501063701458 
845	 0.2921652197079 
846	 0.291837980087634 
847	 0.291574764784236 
848	 0.291226621535689 
849	 0.290859479900109 
850	 0.290515568065868 
851	 0.290196351612702 
852	 0.289821093754907 
853	 0.289492507766671 
854	 0.289255394661895 
855	 0.289033843343612 
856	 0.288867380112806 
857	 0.288626751868718 
858	 0.288271701028798 
859	 0.288084943344889 
860	 0.28781668414093 
861	 0.287539088981937 
862	 0.287379047716296 
863	 0.287182094656639 
864	 0.286944976101136 
865	 0.286734527984397 
866	 0.286622652686415 
867	 0.286411352914281 
868	 0.286238421710485 
869	 0.28610149565482 
870	 0.285841066407741 
871	 0.285558710190052 
872	 0.285360628297299 
873	 0.285308313725673 
874	 0.285390899538275 
875	 0.285260052303626 
876	 0.285054485968288 
877	 0.284937017293309 
878	 0.284764417902476 
879	 0.284744407319153 
880	 0.284719305303307 
881	 0.284521643526467 
882	 0.284505414922005 
883	 0.284472817835171 
884	 0.284357114676565 
885	 0.284201018545571 
886	 0.284150633872795 
887	 0.284215724767592 
888	 0.284263979521282 
889	 0.284105576383254 
890	 0.284079991978315 
891	 0.284054428755062 
892	 0.284022749860573 
893	 0.284187646389574 
894	 0.284167741902873 
895	 0.284134555592485 
896	 0.28422805647179 
897	 0.284332083585119 
898	 0.28434711788667 
899	 0.284316302001795 
900	 0.284319707375723 
901	 0.284408950901085 
902	 0.284572286585384 
903	 0.28472234724753 
904	 0.284787700362494 
905	 0.284857416145577 
906	 0.284933526269923 
907	 0.28499597665344 
908	 0.285041047184108 
909	 0.285195807985109 
910	 0.28541019958877 
911	 0.285616235470814 
912	 0.285759806172137 
913	 0.285916510348149 
914	 0.286031405914443 
915	 0.286143340819527 
916	 0.286354294876244 
917	 0.286445735309708 
918	 0.286678784359217 
919	 0.287078178405546 
920	 0.287343211048434 
921	 0.287521168293653 
922	 0.287674072207175 
923	 0.287847175044302 
924	 0.288048225586506 
925	 0.288348615429921 
926	 0.288772035755416 
927	 0.289195078012775 
928	 0.289270464516841 
929	 0.289542524246146 
930	 0.289906227800925 
931	 0.290191788879616 
932	 0.290496768155305 
933	 0.290705297351801 
934	 0.290932550764593 
935	 0.291286584714404 
936	 0.29165708859446 
937	 0.292042602962522 
938	 0.292374207934303 
939	 0.292639002993007 
940	 0.293063142503886 
941	 0.293517316290848 
942	 0.293979009158375 
943	 0.294446184073717 
944	 0.294819321104925 
945	 0.295214096642629 
946	 0.295634092352235 
947	 0.296045795042223 
948	 0.296522890313936 
949	 0.296962680272327 
950	 0.297337877004567 
951	 0.297691297280625 
952	 0.298130921947732 
953	 0.298794174428159 
954	 0.299413740458097 
955	 0.299677440713387 
956	 0.300296511713623 
957	 0.300792211970047 
958	 0.301206087148672 
959	 0.301839082950564 
960	 0.302296861524039 
961	 0.30278949085721 
962	 0.303379315316601 
963	 0.303983376317244 
964	 0.30445281785655 
965	 0.304922299003893 
966	 0.30550426834245 
967	 0.306215942132254 
968	 0.306742618586241 
969	 0.307313034219441 
970	 0.307922752378933 
971	 0.308430685642618 
972	 0.309063725222157 
973	 0.309707907070534 
974	 0.310391217311507 
975	 0.311190261191324 
976	 0.311797736279981 
977	 0.312408025452856 
978	 0.313081209831638 
979	 0.313748005278316 
980	 0.314307962586103 
981	 0.314845808806108 
982	 0.315474354329879 
983	 0.316260928876142 
984	 0.317032890434407 
985	 0.317798336039722 
986	 0.318449673184291 
987	 0.318901143896692 
988	 0.319466163293286 
989	 0.3202023908929 
990	 0.32096910047097 
991	 0.321619438007831 
992	 0.322473948155046 
993	 0.323078034722915 
994	 0.323691344050827 
995	 0.324632354358902 
996	 0.325030653360799 
997	 0.325562962990516 
998	 0.326343696550987 
999	 0.327227594949944 
1000	 0.328129646599597 
1001	 0.331597324678235 
1002	 0.332223361546641 
1003	 0.332864016198458 
1004	 0.333489046210175 
1005	 0.334088285905888 
1006	 0.334737355423602 
1007	 0.335392690608081 
1008	 0.336053929744819 
1009	 0.336815755460489 
1010	 0.337590358642011 
1011	 0.338303215156306 
1012	 0.338974186848463 
1013	 0.339618617080116 
1014	 0.340172571722398 
1015	 0.340762320316152 
1016	 0.341444505461413 
1017	 0.342082113857222 
1018	 0.342685068366284 
1019	 0.343334196347305 
1020	 0.343994723815346 
1021	 0.344598683307426 
1022	 0.345248824861142 
1023	 0.345886897540457 
1024	 0.346516551471153 
1025	 0.34715543352573 
1026	 0.34774532292972 
1027	 0.348294172258948 
1028	 0.348873984286783 
1029	 0.349481110324543 
1030	 0.350059756205055 
1031	 0.350653956890726 
1032	 0.35128236395493 
1033	 0.351911666870577 
1034	 0.352494559007835 
1035	 0.353017945241657 
1036	 0.353524099841676 
1037	 0.354045050024154 
1038	 0.354527491595313 
1039	 0.355058133148919 
1040	 0.355647852811668 
1041	 0.35619242570725 
1042	 0.356733941228503 
1043	 0.357270745864065 
1044	 0.357796418093514 
1045	 0.358305698277827 
1046	 0.358821594501654 
1047	 0.359313541208735 
1048	 0.359845568318274 
1049	 0.360412542799967 
1050	 0.360979803548813 
1051	 0.361576537314289 
1052	 0.362162221803703 
1053	 0.362765163293083 
1054	 0.363312393854665 
1055	 0.363802477399861 
1056	 0.36434030130695 
1057	 0.364848688120759 
1058	 0.365259734066308 
1059	 0.365795271712742 
1060	 0.366397180531019 
1061	 0.366982649416674 
1062	 0.367601826679079 
1063	 0.36823236435403 
1064	 0.368811068442977 
1065	 0.369353257343611 
1066	 0.369918078866533 
1067	 0.370497841701823 
1068	 0.371047274818516 
1069	 0.371603175977746 
1070	 0.372157949911576 
1071	 0.372673889029861 
1072	 0.373245541380518 
1073	 0.373885174827742 
1074	 0.374442278441295 
1075	 0.374985195577666 
1076	 0.375504568312398 
1077	 0.376005505864557 
1078	 0.376488741544708 
1079	 0.376974611506817 
1080	 0.377505681251117 
1081	 0.378018304833229 
1082	 0.378519433558426 
1083	 0.379001145234968 
1084	 0.379472885023909 
1085	 0.379956872389472 
1086	 0.380403364806018 
1087	 0.3808892129736 
1088	 0.381425119215213 
1089	 0.381925344072939 
1090	 0.382396859949899 
1091	 0.382872928742595 
1092	 0.383290021940727 
1093	 0.383728733080427 
1094	 0.384192749033515 
1095	 0.384608619349574 
1096	 0.38504126202185 
1097	 0.385477259155775 
1098	 0.38591430103195 
1099	 0.38634684256926 
1100	 0.386785564667999 
1101	 0.387261955713849 
1102	 0.387682981628385 
1103	 0.388078363291968 
1104	 0.388450501468161 
1105	 0.388836738303935 
1106	 0.389232600546537 
1107	 0.389640394227811 
1108	 0.390058259872066 
1109	 0.390492304001184 
1110	 0.390895055173494 
1111	 0.391321353517184 
1112	 0.391789822045171 
1113	 0.392214125627559 
1114	 0.392618250060426 
1115	 0.393028343698801 
1116	 0.393421731759923 
1117	 0.393819971971095 
1118	 0.394220225348308 
1119	 0.394618167980682 
1120	 0.395035632784945 
1121	 0.395433598703017 
1122	 0.395831269796398 
1123	 0.396251384397845 
1124	 0.39665626550207 
1125	 0.397046971240159 
1126	 0.397458067851543 
1127	 0.397872086985733 
1128	 0.398288860931792 
1129	 0.398729360897565 
1130	 0.399133475182483 
1131	 0.399533919181828 
1132	 0.399922306915727 
1133	 0.400261505989405 
1134	 0.400641212710973 
1135	 0.401061075048359 
1136	 0.401429959536242 
1137	 0.401794374216787 
1138	 0.402173537658017 
1139	 0.402545804069613 
1140	 0.402883477595522 
1141	 0.403266064003725 
1142	 0.40369322910049 
1143	 0.404077425171065 
1144	 0.404449449937036 
1145	 0.404824342793788 
1146	 0.405187629252912 
1147	 0.405552931402654 
1148	 0.405917072112193 
1149	 0.406289693255161 
1150	 0.406666503537383 
1151	 0.407028277863876 
1152	 0.407413194067105 
1153	 0.407806665576489 
1154	 0.408176539496986 
1155	 0.408538064434611 
1156	 0.40889593489596 
1157	 0.409250363646898 
1158	 0.409582847530372 
1159	 0.409900373144847 
1160	 0.410226069473529 
1161	 0.410515315421715 
1162	 0.410845968476597 
1163	 0.411212960150182 
1164	 0.411564471909318 
1165	 0.41191249763484 
1166	 0.412280104171472 
1167	 0.412667753133361 
1168	 0.413058683055035 
1169	 0.413426663238277 
1170	 0.413812522461885 
1171	 0.41416618347187 
1172	 0.414477000626992 
1173	 0.414810893896323 
1174	 0.415154165036382 
1175	 0.415487454068974 
1176	 0.415814478321768 
1177	 0.416142931394757 
1178	 0.416461002659303 
1179	 0.416790489289693 
1180	 0.41711858805491 
1181	 0.417459204311863 
1182	 0.417804767664233 
1183	 0.4181802638017 
1184	 0.418524291926818 
1185	 0.418859760449365 
1186	 0.419215080461055 
1187	 0.419560670265426 
1188	 0.419923478619453 
1189	 0.420331761998415 
1190	 0.42068839197393 
1191	 0.421023551579876 
1192	 0.421357582122867 
1193	 0.421672616651183 
1194	 0.421985749474283 
1195	 0.422297656902558 
1196	 0.422602860956864 
1197	 0.42288986132034 
1198	 0.423184733331545 
1199	 0.423480916001083 
1200	 0.423778789556341 
1201	 0.424074312571789 
1202	 0.424367261191225 
1203	 0.424670788994852 
1204	 0.424974148830158 
1205	 0.425286403401051 
1206	 0.42562366068983 
1207	 0.425931570909701 
1208	 0.426240218424585 
1209	 0.426527330793497 
1210	 0.426774916899549 
1211	 0.427049218601753 
1212	 0.42732635595541 
1213	 0.427601808825507 
1214	 0.427910007265133 
1215	 0.428183699842174 
1216	 0.428440136896839 
1217	 0.428669487021601 
1218	 0.428920808425764 
1219	 0.42915014771138 
1220	 0.429414838722071 
1221	 0.429714427991692 
1222	 0.429988327903297 
1223	 0.430276429822625 
1224	 0.430535426561338 
1225	 0.430766769863144 
1226	 0.431009656242819 
1227	 0.431238117653835 
1228	 0.431477081365072 
1229	 0.431730202530051 
1230	 0.431975140655594 
1231	 0.432238325142035 
1232	 0.432469006436027 
1233	 0.432682653557154 
1234	 0.432870368385959 
1235	 0.433084964080441 
1236	 0.433278045567105 
1237	 0.433505115270917 
1238	 0.43378049872332 
1239	 0.434009896591903 
1240	 0.43422097992441 
1241	 0.434445244723892 
1242	 0.434660682023009 
1243	 0.434877001863471 
1244	 0.435107372618284 
1245	 0.4353272346375 
1246	 0.435530663988093 
1247	 0.43574076158983 
1248	 0.435952599307785 
1249	 0.436170442779155 
1250	 0.436371942487624 
1251	 0.436579119014662 
1252	 0.436781308450861 
1253	 0.436982769009838 
1254	 0.437170057263247 
1255	 0.437345893389039 
1256	 0.437534143353193 
1257	 0.437715339338188 
1258	 0.437901792342207 
1259	 0.438109166084589 
1260	 0.438295941830001 
1261	 0.438463136675241 
1262	 0.438639879232599 
1263	 0.438820945998647 
1264	 0.438992430041911 
1265	 0.439168318721821 
1266	 0.439335773220884 
1267	 0.439505874361258 
1268	 0.439646125690993 
1269	 0.439777801667746 
1270	 0.439890878086391 
1271	 0.440017591004833 
1272	 0.440127407897899 
1273	 0.440258498900708 
1274	 0.440408233105605 
1275	 0.440547866803792 
1276	 0.440669510591624 
1277	 0.44082910465773 
1278	 0.441005136634767 
1279	 0.441190791492549 
1280	 0.441416104167008 
1281	 0.441621317066508 
1282	 0.44180811777777 
1283	 0.442018655950543 
1284	 0.442246560545085 
1285	 0.442464097610063 
1286	 0.442683124057289 
1287	 0.442918565401562 
1288	 0.443142962473657 
1289	 0.443349831499583 
1290	 0.443576499860288 
1291	 0.443815117840201 
1292	 0.444052624403588 
1293	 0.444292242538258 
1294	 0.444540323322596 
1295	 0.444809692075735 
1296	 0.445046392207547 
1297	 0.445265595774418 
1298	 0.445498223802729 
1299	 0.445727326739761 
1300	 0.445943694345477 
1301	 0.446160561286755 
1302	 0.446375211040818 
1303	 0.446575941420132 
1304	 0.446773364014829 
1305	 0.446972296059273 
1306	 0.447160317999422 
1307	 0.447303987090455 
1308	 0.447407797379922 
1309	 0.447527841157948 
1310	 0.447631453164384 
1311	 0.447741282514899 
1312	 0.447851561904354 
1313	 0.4479629664954 
1314	 0.448074243885771 
1315	 0.44817519984489 
1316	 0.448271563198295 
1317	 0.448375922632077 
1318	 0.44847582994604 
1319	 0.448568694599576 
1320	 0.448674935373318 
1321	 0.448764587768477 
1322	 0.448839655909024 
1323	 0.448910749631288 
1324	 0.448979823191874 
1325	 0.449010136542824 
1326	 0.449025018092627 
1327	 0.449060286778801 
1328	 0.449065954591906 
1329	 0.449070307164172 
1330	 0.449074771520521 
1331	 0.449057614887489 
1332	 0.449074397928912 
1333	 0.449116538990445 
1334	 0.449137794786987 
1335	 0.449170447277713 
1336	 0.449186806684659 
1337	 0.449169984534321 
1338	 0.449187404358873 
1339	 0.449232335311562 
1340	 0.449254758688284 
1341	 0.449284039053669 
1342	 0.449298462586052 
1343	 0.449297145797294 
1344	 0.449286909846355 
1345	 0.449277858598948 
1346	 0.449262945101162 
1347	 0.449247386505535 
1348	 0.449230208365089 
1349	 0.449171225231146 
1350	 0.449094033203176 
1351	 0.449009755784262 
1352	 0.448876012346907 
1353	 0.448789689345478 
1354	 0.448722322998998 
1355	 0.448653023162203 
1356	 0.448605190782776 
1357	 0.448536948249874 
1358	 0.448447403465535 
1359	 0.448388629056819 
1360	 0.448321278724502 
1361	 0.448285051412644 
1362	 0.448283634569884 
1363	 0.44827709837959 
1364	 0.448285981609357 
1365	 0.448299092831458 
1366	 0.448309143636196 
1367	 0.448348180248448 
1368	 0.448390938311415 
1369	 0.448400424649265 
1370	 0.448390785149774 
1371	 0.448352333802501 
1372	 0.448288855085028 
1373	 0.448231445561004 
1374	 0.4481566182932 
1375	 0.448085728140109 
1376	 0.447966202044164 
1377	 0.447823945353154 
1378	 0.447650486451899 
1379	 0.447417621911111 
1380	 0.447222865090012 
1381	 0.447003317479543 
1382	 0.446819725660199 
1383	 0.44667246569057 
1384	 0.446512276703493 
1385	 0.446394936696235 
1386	 0.446217183912864 
1387	 0.446042220589343 
1388	 0.445799824800489 
1389	 0.445507290628729 
1390	 0.445163190428592 
1391	 0.444797349629589 
1392	 0.444382204168934 
1393	 0.443937354160658 
1394	 0.44348418886666 
1395	 0.442984056915251 
1396	 0.442495601422969 
1397	 0.442020436914249 
1398	 0.441541128586461 
1399	 0.441080554876192 
1400	 0.440636288379502 
1401	 0.440191370944004 
1402	 0.439756909820295 
1403	 0.43932040286429 
1404	 0.438872403896542 
1405	 0.438459142998949 
1406	 0.438054364377214 
1407	 0.43767452890383 
1408	 0.437308116032306 
1409	 0.436986597763015 
1410	 0.436639285632908 
1411	 0.436409764550291 
1412	 0.43622857641305 
1413	 0.436157576673817 
1414	 0.436200145973445 
1415	 0.436321307938465 
1416	 0.436529069306829 
1417	 0.436771741266484 
1418	 0.437034298795161 
1419	 0.437305457275222 
1420	 0.437567846393677 
1421	 0.437815595692203 
1422	 0.438006769636899 
1423	 0.438156366076125 
1424	 0.438252978778136 
1425	 0.43828496570773 
1426	 0.438292197921607 
1427	 0.438249879184615 
1428	 0.438205605543374 
1429	 0.4381260668547 
1430	 0.438040476539334 
1431	 0.437944123584138 
1432	 0.437829102656066 
1433	 0.437691656709724 
1434	 0.437552103340215 
1435	 0.437386712887558 
1436	 0.437242528679961 
1437	 0.437100074474003 
1438	 0.436959923390411 
1439	 0.436837091740856 
1440	 0.436708306540899 
1441	 0.436548562417164 
1442	 0.436374751584398 
1443	 0.436180578858738 
1444	 0.435970745907558 
1445	 0.435770644749693 
1446	 0.4355593352487 
1447	 0.435335922563397 
1448	 0.435110236556786 
1449	 0.434847978482534 
1450	 0.434560079546775 
1451	 0.434253750876856 
1452	 0.43391398178149 
1453	 0.433570772239226 
1454	 0.43322129688176 
1455	 0.432840427141439 
1456	 0.432447073987091 
1457	 0.432020847505817 
1458	 0.431541376867004 
1459	 0.431085348664487 
1460	 0.430596514050346 
1461	 0.43015018304361 
1462	 0.429720376927773 
1463	 0.429317833487447 
1464	 0.428936454595803 
1465	 0.428573256097 
1466	 0.428224503653719 
1467	 0.427909287198368 
1468	 0.427616582319982 
1469	 0.427358019445983 
1470	 0.427129247574432 
1471	 0.426927364600176 
1472	 0.426764914517229 
1473	 0.426659346042354 
1474	 0.426633141319618 
1475	 0.426678831045388 
1476	 0.426807225318749 
1477	 0.426986082753088 
1478	 0.427218275563856 
1479	 0.427480043582659 
1480	 0.427752586125461 
1481	 0.428054850568053 
1482	 0.428344327319049 
1483	 0.428635011939141 
1484	 0.4289436152175 
1485	 0.429261381206806 
1486	 0.429576052588785 
1487	 0.429916004993504 
1488	 0.430216362046392 
1489	 0.430522764749477 
1490	 0.430765397320199 
1491	 0.430961749271692 
1492	 0.431154333688258 
1493	 0.431300217435615 
1494	 0.43144979368863 
1495	 0.431602998457959 
1496	 0.431732670896687 
1497	 0.4318307859351 
1498	 0.43193775294255 
1499	 0.432042732053463 
1500	 0.432131329600204 
1501	 0.432216893801493 
1502	 0.432288257598865 
1503	 0.432342713556472 
1504	 0.432381553487097 
1505	 0.432439910115108 
1506	 0.43248862985851 
1507	 0.43254271098864 
1508	 0.432618988850201 
1509	 0.43265203932145 
1510	 0.432689989298728 
1511	 0.432747564419353 
1512	 0.432772236100738 
1513	 0.432827860743269 
1514	 0.432886483050664 
1515	 0.432912507524061 
1516	 0.432956344806761 
1517	 0.432991066052205 
1518	 0.433019096184268 
1519	 0.43304795167326 
1520	 0.433069409470072 
1521	 0.433110709761132 
1522	 0.433161040998871 
1523	 0.433208412804855 
1524	 0.433268821465554 
1525	 0.433322993997175 
1526	 0.433367661371313 
1527	 0.433417362573806 
1528	 0.433483652017964 
1529	 0.433523854849889 
1530	 0.433543944849588 
1531	 0.433580443236297 
1532	 0.43360084685596 
1533	 0.433645663833284 
1534	 0.433730840592683 
1535	 0.433779743427866 
1536	 0.433815609700302 
1537	 0.433852770162582 
1538	 0.433872692405725 
1539	 0.433893254385091 
1540	 0.433908390965773 
1541	 0.43394474064267 
1542	 0.434001072768951 
1543	 0.434028052920424 
1544	 0.434046876525467 
1545	 0.434076944515385 
1546	 0.434081282204777 
1547	 0.434099460512222 
1548	 0.434177041229378 
1549	 0.434265629433035 
1550	 0.434344435570288 
1551	 0.434418966741453 
1552	 0.434467316482266 
1553	 0.434509746590783 
1554	 0.434550413824947 
1555	 0.434606173860476 
1556	 0.434673215305354 
1557	 0.434725058835308 
1558	 0.434794415038414 
1559	 0.434842007548436 
1560	 0.434893027140294 
1561	 0.434938838295903 
1562	 0.434993053187502 
1563	 0.435046862694476 
1564	 0.435102480234781 
1565	 0.43516128166375 
1566	 0.435221673776549 
1567	 0.435281788443331 
1568	 0.43534507016456 
1569	 0.435418497114226 
1570	 0.43547109759549 
1571	 0.435521233059629 
1572	 0.435559463927452 
1573	 0.435577687684704 
1574	 0.435605222806106 
1575	 0.435620412043286 
1576	 0.435658256771055 
1577	 0.435721717312839 
1578	 0.435755769393046 
1579	 0.435791582229157 
1580	 0.435810163901077 
1581	 0.435793795996938 
1582	 0.43580155009678 
1583	 0.435815854397506 
1584	 0.435832809998849 
1585	 0.435845524058099 
1586	 0.435875116781312 
1587	 0.435932920559065 
1588	 0.435962575852142 
1589	 0.435998796020711 
1590	 0.436016930268694 
1591	 0.435988669957998 
1592	 0.435991672696423 
1593	 0.436001502020602 
1594	 0.436023383199035 
1595	 0.436074823358239 
1596	 0.436107154787066 
1597	 0.436136947616997 
1598	 0.436164119628249 
1599	 0.436197675410779 
1600	 0.436202465293197 
1601	 0.436166074931764 
1602	 0.436168761176862 
1603	 0.436167875712145 
1604	 0.43617531169879 
1605	 0.436223443267852 
1606	 0.436262544686234 
1607	 0.43630841610175 
1608	 0.436324254360372 
1609	 0.436344670684695 
1610	 0.436358637920908 
1611	 0.43630621432875 
1612	 0.436260414388947 
1613	 0.436213212134862 
1614	 0.436144840228704 
1615	 0.436122955342521 
1616	 0.436107867045301 
1617	 0.436098853487697 
1618	 0.436116723297645 
1619	 0.436111428811471 
1620	 0.436113833394268 
1621	 0.436127805574089 
1622	 0.436154926254088 
1623	 0.436154012811397 
1624	 0.436157587013883 
1625	 0.436141664991534 
1626	 0.436096099703071 
1627	 0.436064410907021 
1628	 0.436034481394934 
1629	 0.436003706066475 
1630	 0.43596172838086 
1631	 0.435942652242421 
1632	 0.435935709028234 
1633	 0.435926831129683 
1634	 0.435933012381152 
1635	 0.43592193314163 
1636	 0.435907333671204 
1637	 0.435883045215421 
1638	 0.435841233400595 
1639	 0.43582212559186 
1640	 0.435804824160042 
1641	 0.43579249227272 
1642	 0.435798588294992 
1643	 0.435790329074209 
1644	 0.435771395796079 
1645	 0.435763395588705 
1646	 0.435768667742078 
1647	 0.435747624045083 
1648	 0.4357144626296 
1649	 0.435690074842744 
1650	 0.435650625315413 
1651	 0.435621591739653 
1652	 0.435622649463444 
1653	 0.435576210726606 
1654	 0.435493476648169 
1655	 0.435439620768525 
1656	 0.435376817682257 
1657	 0.435317496178617 
1658	 0.435271736697269 
1659	 0.435228458457126 
1660	 0.43516881635628 
1661	 0.435136422118322 
1662	 0.435136338149397 
1663	 0.435118382735866 
1664	 0.435103160658959 
1665	 0.435082481316015 
1666	 0.435062496785935 
1667	 0.435028891336277 
1668	 0.434985497289321 
1669	 0.434943346897447 
1670	 0.43489067599029 
1671	 0.43484145383216 
1672	 0.434798605234441 
1673	 0.434744966541469 
1674	 0.434670459664304 
1675	 0.434627032924728 
1676	 0.434589304031378 
1677	 0.434565260411081 
1678	 0.434576987934238 
1679	 0.434560702086502 
1680	 0.43455002036232 
1681	 0.434508862143758 
1682	 0.434442162916341 
1683	 0.434378022706076 
1684	 0.434271179622348 
1685	 0.434224178376556 
1686	 0.434219315539748 
1687	 0.434182325594449 
1688	 0.43416484378137 
1689	 0.434129605693512 
1690	 0.43405616083065 
1691	 0.434012081749523 
1692	 0.433995295962559 
1693	 0.433953733982498 
1694	 0.433903770832638 
1695	 0.433852521081599 
1696	 0.433780375587828 
1697	 0.433736919194446 
1698	 0.433711858465566 
1699	 0.433677460310053 
1700	 0.433664932217609 
1701	 0.433617457494403 
1702	 0.43355354696434 
1703	 0.433475017500057 
1704	 0.433370932001503 
1705	 0.433274798280043 
1706	 0.433153585222195 
1707	 0.433072386034622 
1708	 0.433018705813778 
1709	 0.432942597914841 
1710	 0.432868054317382 
1711	 0.432809241091772 
1712	 0.432738902486282 
1713	 0.432687862050675 
1714	 0.432684869111647 
1715	 0.432635221753759 
1716	 0.432553239012209 
1717	 0.432498582172995 
1718	 0.432442190033544 
1719	 0.432382021794384 
1720	 0.432336753957595 
1721	 0.43228384645119 
1722	 0.432230063900348 
1723	 0.432153008857323 
1724	 0.432070582788868 
1725	 0.431974563809446 
1726	 0.431839761197671 
1727	 0.431734614275553 
1728	 0.431646129139893 
1729	 0.431539833792076 
1730	 0.431440219540825 
1731	 0.431320625319003 
1732	 0.431183813430568 
1733	 0.431046229636249 
1734	 0.430889454746217 
1735	 0.430748199887607 
1736	 0.430615024603975 
1737	 0.430476779943126 
1738	 0.430335305785211 
1739	 0.430210479449484 
1740	 0.430081373920957 
1741	 0.429964550966019 
1742	 0.429881861277722 
1743	 0.429767590597187 
1744	 0.429643808795949 
1745	 0.429510825564008 
1746	 0.429353368567789 
1747	 0.429223005207092 
1748	 0.429108732679863 
1749	 0.428972656108969 
1750	 0.428855909598549 
1751	 0.428736663800144 
1752	 0.428588714128925 
1753	 0.428463646908768 
1754	 0.428309662168076 
1755	 0.428156279556612 
1756	 0.428013598525573 
1757	 0.427859634931189 
1758	 0.427752137859499 
1759	 0.427625380010531 
1760	 0.427471417319716 
1761	 0.427369825035901 
1762	 0.427255274450192 
1763	 0.427097272959455 
1764	 0.426977734891158 
1765	 0.426841915829623 
1766	 0.426674419313638 
1767	 0.426539171289739 
1768	 0.426408294053769 
1769	 0.426270903262907 
1770	 0.426133238349186 
1771	 0.426006494769074 
1772	 0.425876245387007 
1773	 0.425721685646905 
1774	 0.425580477400629 
1775	 0.425472996807003 
1776	 0.425383541989437 
1777	 0.425297689318727 
1778	 0.425197349439818 
1779	 0.42507876881804 
1780	 0.424936072417345 
1781	 0.424810183405908 
1782	 0.424708004027278 
1783	 0.424611948147757 
1784	 0.424500168210074 
1785	 0.42437370813449 
1786	 0.424258507937684 
1787	 0.424138414538003 
1788	 0.424014750908743 
1789	 0.423901724878975 
1790	 0.42378459280244 
1791	 0.423637029979158 
1792	 0.423536096973821 
1793	 0.423493893225139 
1794	 0.423394686976874 
1795	 0.423298844045856 
1796	 0.423177943329903 
1797	 0.423001692415384 
1798	 0.42283046114676 
1799	 0.422657364474169 
1800	 0.422492746740741 
1801	 0.421452293709345 
1802	 0.421417565358633 
1803	 0.421395544874405 
1804	 0.421359937074968 
1805	 0.42134679816454 
1806	 0.421333920810869 
1807	 0.421277329268457 
1808	 0.421213387720459 
1809	 0.421136160223474 
1810	 0.421049762858979 
1811	 0.420948838394955 
1812	 0.420840759654488 
1813	 0.420707628484122 
1814	 0.420563733572762 
1815	 0.420392298786386 
1816	 0.420197689689976 
1817	 0.419995921314405 
1818	 0.419768873650421 
1819	 0.419545019676957 
1820	 0.419313559663664 
1821	 0.419087162513359 
1822	 0.418825261489543 
1823	 0.418568154439913 
1824	 0.418295138852356 
1825	 0.417975897929942 
1826	 0.417636133604925 
1827	 0.417243104315291 
1828	 0.416832393265856 
1829	 0.416396682879515 
1830	 0.415916407504431 
1831	 0.415396524227516 
1832	 0.414870691997259 
1833	 0.414299273993585 
1834	 0.413679857436977 
1835	 0.413061461924391 
1836	 0.41246332510375 
1837	 0.411859063068565 
1838	 0.411265245170127 
1839	 0.410720466422735 
1840	 0.41021292804456 
1841	 0.409715620659876 
1842	 0.409257558669207 
1843	 0.408856549169632 
1844	 0.408480546326801 
1845	 0.408139139469141 
1846	 0.407846270990315 
1847	 0.407604172795194 
1848	 0.407404026589444 
1849	 0.40724549095673 
1850	 0.407172912730224 
1851	 0.407180880525322 
1852	 0.407228625284067 
1853	 0.407317108246189 
1854	 0.407489206420657 
1855	 0.4076881200087 
1856	 0.407870742649216 
1857	 0.408070941582482 
1858	 0.408274755482667 
1859	 0.408460398650108 
1860	 0.40863222408779 
1861	 0.408802748799004 
1862	 0.40894204534749 
1863	 0.409088431299833 
1864	 0.409245343108437 
1865	 0.409428450261673 
1866	 0.409675252725282 
1867	 0.409923166326299 
1868	 0.410176218112928 
1869	 0.410443448311396 
1870	 0.410692470960286 
1871	 0.410915851968153 
1872	 0.411133621652862 
1873	 0.411325224151885 
1874	 0.411457722624471 
1875	 0.411578314378094 
1876	 0.411671919639851 
1877	 0.41168847062909 
1878	 0.411661928426312 
1879	 0.411563762091059 
1880	 0.411395773834735 
1881	 0.411155245043253 
1882	 0.410859726136775 
1883	 0.410505987546368 
1884	 0.410079997756012 
1885	 0.409589551475343 
1886	 0.409039007130498 
1887	 0.408403440768683 
1888	 0.407730824476992 
1889	 0.407009480608174 
1890	 0.406239087172857 
1891	 0.405428908362937 
1892	 0.404569056779043 
1893	 0.403666744232085 
1894	 0.40271824798117 
1895	 0.401738273931112 
1896	 0.400697136638561 
1897	 0.399646660859007 
1898	 0.398575958284178 
1899	 0.39749007643696 
1900	 0.396407988395127 
1901	 0.395370462403401 
1902	 0.394348498444499 
1903	 0.393352080407417 
1904	 0.392354090242267 
1905	 0.391382776334525 
1906	 0.390417490102664 
1907	 0.389422527374519 
1908	 0.388419667147351 
1909	 0.387436301202601 
1910	 0.386429830046628 
1911	 0.385446119368103 
1912	 0.384505993490165 
1913	 0.383584138623835 
1914	 0.382686594783804 
1915	 0.381809047212939 
1916	 0.380953563917849 
1917	 0.380115016406856 
1918	 0.379312572595868 
1919	 0.378519831656453 
1920	 0.377776016546592 
1921	 0.377074800169108 
1922	 0.376386670315892 
1923	 0.37574198175389 
1924	 0.375121430916895 
1925	 0.374521861838658 
1926	 0.373969085003494 
1927	 0.373454946441184 
1928	 0.372957457723186 
1929	 0.372528286023016 
1930	 0.372119810443069 
1931	 0.371723860709338 
1932	 0.371370977284684 
1933	 0.37105740911789 
1934	 0.370793069275548 
1935	 0.370582417216515 
1936	 0.370442127262957 
1937	 0.370333641111624 
1938	 0.370283176203496 
1939	 0.370235732841299 
1940	 0.370220315114784 
1941	 0.370227234342066 
1942	 0.370246107404824 
1943	 0.370320102686492 
1944	 0.370421883791768 
1945	 0.370540338189891 
1946	 0.370661401625067 
1947	 0.370804986513804 
1948	 0.370931942047202 
1949	 0.37106196876484 
1950	 0.371186034156651 
1951	 0.371300364756345 
1952	 0.371427237384664 
1953	 0.371540226944412 
1954	 0.371648122742191 
1955	 0.371753093345131 
1956	 0.371815221099727 
1957	 0.371894797806817 
1958	 0.371961857318718 
1959	 0.372045868432769 
1960	 0.372137718392225 
1961	 0.372239499548778 
1962	 0.372352730293961 
1963	 0.372464126098715 
1964	 0.372593032017067 
1965	 0.372696836290834 
1966	 0.372798098583515 
1967	 0.372899031420773 
1968	 0.37299858253239 
1969	 0.373076277753118 
1970	 0.373186845030886 
1971	 0.373311503650327 
1972	 0.373443445888171 
1973	 0.373604402764754 
1974	 0.37375497401451 
1975	 0.373915567135584 
1976	 0.374052859486781 
1977	 0.374203528277326 
1978	 0.374332182103372 
1979	 0.37443287664723 
1980	 0.374564677655453 
1981	 0.374687182094742 
1982	 0.374790941399735 
1983	 0.374916861580278 
1984	 0.37505965159003 
1985	 0.375198571671092 
1986	 0.375336264525343 
1987	 0.375492677684811 
1988	 0.375661114180562 
1989	 0.375832185388826 
1990	 0.376008401337157 
1991	 0.376197968299959 
1992	 0.376388080227291 
1993	 0.376603489401264 
1994	 0.376766235435018 
1995	 0.376901555165069 
1996	 0.377054085175348 
1997	 0.377165030664973 
1998	 0.377310086554046 
1999	 0.377500604499781 
2000	 0.377668452067447 
2001	 0.377818973581297 
2002	 0.377985778171581 
2003	 0.378165356414463 
2004	 0.378348786682946 
2005	 0.378542026856427 
2006	 0.378755969985577 
2007	 0.378965384407951 
2008	 0.379168901765934 
2009	 0.379387834402363 
2010	 0.379624894483042 
2011	 0.379858395095903 
2012	 0.380097965243566 
2013	 0.380338055549147 
2014	 0.380596284596328 
2015	 0.380824219352127 
2016	 0.38103056335631 
2017	 0.38126787644915 
2018	 0.381501898518236 
2019	 0.381743102870938 
2020	 0.381956781331928 
2021	 0.382170036483822 
2022	 0.382374394878741 
2023	 0.382554970311249 
2024	 0.382737222327105 
2025	 0.38292781616929 
2026	 0.383104646269706 
2027	 0.383284471223879 
2028	 0.383413573653771 
2029	 0.383555131333604 
2030	 0.383693544628236 
2031	 0.383820519907635 
2032	 0.383920133811385 
2033	 0.384055581832776 
2034	 0.384187917138327 
2035	 0.38434829737511 
2036	 0.384542973086802 
2037	 0.38472620297663 
2038	 0.384942241381398 
2039	 0.385120540576904 
2040	 0.385288886927693 
2041	 0.385434986637131 
2042	 0.385569102283125 
2043	 0.385702930099122 
2044	 0.385830009246123 
2045	 0.385962712651009 
2046	 0.386075696218212 
2047	 0.386170849327201 
2048	 0.386265703327212 
2049	 0.386354522612463 
2050	 0.386434267864353 
2051	 0.386490497163789 
2052	 0.386567468452213 
2053	 0.386656558270915 
2054	 0.386733451332442 
2055	 0.386808086997411 
2056	 0.386904099317233 
2057	 0.386967171648056 
2058	 0.38700066658976 
2059	 0.387051189610093 
2060	 0.387081974419675 
2061	 0.387153114935054 
2062	 0.387248340429958 
2063	 0.38733819829018 
2064	 0.387457273759921 
2065	 0.387557076608226 
2066	 0.387642835533746 
2067	 0.387735053164164 
2068	 0.387827054463533 
2069	 0.387921715705378 
2070	 0.388013283580482 
2071	 0.388114589394542 
2072	 0.388181507934293 
2073	 0.388236877229679 
2074	 0.388279353260679 
2075	 0.388281478488946 
2076	 0.388316084813198 
2077	 0.388361170387349 
2078	 0.388401688844182 
2079	 0.388451958066456 
2080	 0.388494894447325 
2081	 0.388533923919249 
2082	 0.388566210349963 
2083	 0.388587567257811 
2084	 0.388622081021646 
2085	 0.388649700973992 
2086	 0.38867011673381 
2087	 0.388695910671743 
2088	 0.388722736922369 
2089	 0.388757386413738 
2090	 0.388802182076772 
2091	 0.388829764353005 
2092	 0.388863561671268 
2093	 0.388881099520627 
2094	 0.388866500039054 
2095	 0.388874689517309 
2096	 0.388881902089238 
2097	 0.388900586186379 
2098	 0.388943285673065 
2099	 0.388977937903995 
2100	 0.388992087583245 
2101	 0.388998571404712 
2102	 0.389005604954994 
2103	 0.388987133985898 
2104	 0.38899617028516 
2105	 0.389015960403168 
2106	 0.38904399612469 
2107	 0.389061879664013 
2108	 0.389121995863559 
2109	 0.389214993256724 
2110	 0.389311157128387 
2111	 0.389468759691704 
2112	 0.389573701318418 
2113	 0.389656604901319 
2114	 0.389733988881678 
2115	 0.389797870917607 
2116	 0.389822684331768 
2117	 0.389884704192268 
2118	 0.389947285067055 
2119	 0.390033045897571 
2120	 0.390148265393966 
2121	 0.390241831483906 
2122	 0.390347008166554 
2123	 0.39043710332061 
2124	 0.390508452369173 
2125	 0.390585438534082 
2126	 0.390682512425012 
2127	 0.390744904608585 
2128	 0.390794177850134 
2129	 0.390822608489931 
2130	 0.390824669980884 
2131	 0.390817881093241 
2132	 0.390772058015146 
2133	 0.390710612522247 
2134	 0.390608715286601 
2135	 0.390458137005263 
2136	 0.390305423458275 
2137	 0.39012486270001 
2138	 0.389939433657355 
2139	 0.389746424511703 
2140	 0.389526597503073 
2141	 0.389280708599356 
2142	 0.3890327151417 
2143	 0.388757745912694 
2144	 0.388489946458361 
2145	 0.388254500961509 
2146	 0.387964450722281 
2147	 0.387657989046878 
2148	 0.38731870959241 
2149	 0.38693579514091 
2150	 0.386496138111565 
2151	 0.386050768345085 
2152	 0.385559297873424 
2153	 0.385091726179796 
2154	 0.384607387993532 
2155	 0.384135771249984 
2156	 0.383693975635977 
2157	 0.38321017174423 
2158	 0.382709958837393 
2159	 0.382196710193087 
2160	 0.381658091999324 
2161	 0.381113028308966 
2162	 0.380532731370997 
2163	 0.379987448409095 
2164	 0.379464743176 
2165	 0.378918511810329 
2166	 0.378378419759957 
2167	 0.377864047600195 
2168	 0.37732080346747 
2169	 0.37675821646723 
2170	 0.376185636525879 
2171	 0.375616246300525 
2172	 0.37501870469163 
2173	 0.374395062840527 
2174	 0.373759917177905 
2175	 0.373109205883605 
2176	 0.372445124561137 
2177	 0.371765313137684 
2178	 0.37106883056454 
2179	 0.370338576462152 
2180	 0.369626118462684 
2181	 0.368896821719343 
2182	 0.368182314001609 
2183	 0.367485908795324 
2184	 0.366789686408575 
2185	 0.366096770999523 
2186	 0.365422725014729 
2187	 0.364699900361908 
2188	 0.363944730901047 
2189	 0.363228067764034 
2190	 0.362476222498346 
2191	 0.36178237436181 
2192	 0.361133311842132 
2193	 0.360496543882545 
2194	 0.359877241907505 
2195	 0.359279505824413 
2196	 0.358720130244166 
2197	 0.35816238231526 
2198	 0.357587089449347 
2199	 0.357076419789925 
2200	 0.356582569468995 
2201	 0.356147394046015 
2202	 0.355793233134068 
2203	 0.355456234414985 
2204	 0.355131419490421 
2205	 0.354837554309482 
2206	 0.354563922825028 
2207	 0.354282518846966 
2208	 0.354087674527634 
2209	 0.353934336771893 
2210	 0.353849285807544 
2211	 0.353863405606969 
2212	 0.353852419744585 
2213	 0.353898156217812 
2214	 0.353918012609859 
2215	 0.353931998821364 
2216	 0.353948437748811 
2217	 0.353997285604444 
2218	 0.353995175077841 
2219	 0.353967453776609 
2220	 0.353924988599506 
2221	 0.353839009364042 
2222	 0.353764790891962 
2223	 0.35366589447508 
2224	 0.353562301571 
2225	 0.353402476361561 
2226	 0.353206933709274 
2227	 0.352974316571848 
2228	 0.352698118547947 
2229	 0.352403275032748 
2230	 0.352080715298078 
2231	 0.351719508680475 
2232	 0.351323013637663 
2233	 0.35090241118433 
2234	 0.350437503213404 
2235	 0.349968505926493 
2236	 0.349463804003964 
2237	 0.348969283970146 
2238	 0.348480145199782 
2239	 0.347956160685268 
2240	 0.347449908569269 
2241	 0.346880032962997 
2242	 0.346267192871184 
2243	 0.345609643894314 
2244	 0.344917616374803 
2245	 0.344154069544904 
2246	 0.343354079442878 
2247	 0.342531299675834 
2248	 0.341680850947305 
2249	 0.340789544909185 
2250	 0.339891022971777 
2251	 0.338941371422866 
2252	 0.338056294715919 
2253	 0.337153437417848 
2254	 0.336323485797728 
2255	 0.335534280537046 
2256	 0.334799624485479 
2257	 0.334092044951804 
2258	 0.333478370702355 
2259	 0.332940876930309 
2260	 0.332454189552081 
2261	 0.331996500065393 
2262	 0.331676810543009 
2263	 0.331441201676925 
2264	 0.331307706947579 
2265	 0.331357250274051 
2266	 0.331401177942241 
2267	 0.331478015858762 
2268	 0.33163809729277 
2269	 0.331854921603296 
2270	 0.332131383032805 
2271	 0.332516246975513 
2272	 0.332981963179887 
2273	 0.333438212124388 
2274	 0.333954974898588 
2275	 0.334509536776401 
2276	 0.335077506557254 
2277	 0.33572472692768 
2278	 0.336461565526359 
2279	 0.337190151278299 
2280	 0.337968388308529 
2281	 0.338754921507267 
2282	 0.339576428939576 
2283	 0.34037849224364 
2284	 0.341232189853677 
2285	 0.341998273670317 
2286	 0.34272558834453 
2287	 0.343420076807556 
2288	 0.344058041779358 
2289	 0.344674321224797 
2290	 0.345249680158773 
2291	 0.345828710959306 
2292	 0.346401724347877 
2293	 0.346930951529535 
2294	 0.347428783119602 
2295	 0.347922437519086 
2296	 0.348382418907455 
2297	 0.348813192291437 
2298	 0.349269078815586 
2299	 0.349733138689979 
2300	 0.350208385051182 
2301	 0.350671463006817 
2302	 0.351086434222786 
2303	 0.351478597485104 
2304	 0.351815270989731 
2305	 0.352171807761976 
2306	 0.352540270050056 
2307	 0.352922369453148 
2308	 0.353304378943621 
2309	 0.35371508590479 
2310	 0.35405970860905 
2311	 0.354392138370652 
2312	 0.354708114759035 
2313	 0.35498803645355 
2314	 0.355235450994123 
2315	 0.355450491633821 
2316	 0.355681453310112 
2317	 0.355880769762179 
2318	 0.356069099427753 
2319	 0.356277598736025 
2320	 0.356453204659165 
2321	 0.356568497831608 
2322	 0.356723042547668 
2323	 0.356918178450957 
2324	 0.357066750763654 
2325	 0.357213009952044 
2326	 0.357325007238074 
2327	 0.357410822698881 
2328	 0.357429541317297 
2329	 0.357487030449641 
2330	 0.357546990785021 
2331	 0.357562241033502 
2332	 0.357583752210872 
2333	 0.35760478265861 
2334	 0.357525145168082 
2335	 0.357450503694652 
2336	 0.357470334945297 
2337	 0.357395237618449 
2338	 0.357309075310601 
2339	 0.357239123658918 
2340	 0.357036861440294 
2341	 0.356876375225106 
2342	 0.356773224307853 
2343	 0.35660440133643 
2344	 0.356439434120729 
2345	 0.356220007793173 
2346	 0.355926744235846 
2347	 0.355647842107025 
2348	 0.355327631128486 
2349	 0.355068787306072 
2350	 0.354863424347489 
2351	 0.354586956760625 
2352	 0.354322258359647 
2353	 0.35397494081258 
2354	 0.353499936962024 
2355	 0.35314275457816 
2356	 0.352799383806474 
2357	 0.35249489193752 
2358	 0.352282821677799 
2359	 0.35199993828452 
2360	 0.351698915323556 
2361	 0.351368678558717 
2362	 0.351054863013693 
2363	 0.350662483125407 
2364	 0.350198660680454 
2365	 0.349743798181188 
2366	 0.349201196260207 
2367	 0.34870212621864 
2368	 0.348229263565606 
2369	 0.347748021039993 
2370	 0.347284063718245 
2371	 0.34681783805375 
2372	 0.346270954047848 
2373	 0.345773841469661 
2374	 0.345319555823438 
2375	 0.344781625576855 
2376	 0.344302109967712 
2377	 0.343738042194565 
2378	 0.342995842363754 
2379	 0.342285499035677 
2380	 0.34154570777771 
2381	 0.340769593002352 
2382	 0.340079927568824 
2383	 0.339452034642884 
2384	 0.3388051561167 
2385	 0.338167957183904 
2386	 0.337568033156728 
2387	 0.336882463313695 
2388	 0.336131242367251 
2389	 0.33542558259888 
2390	 0.334742638111754 
2391	 0.334088039368145 
2392	 0.333448348022675 
2393	 0.33282312522271 
2394	 0.332213743717007 
2395	 0.331589571219255 
2396	 0.330942435643268 
2397	 0.33022647723928 
2398	 0.3294071036516 
2399	 0.328547136392924 
2400	 0.327881273686903 
2401	 0.327288352851495 
2402	 0.326635134244494 
2403	 0.326041177633142 
2404	 0.3253926250093 
2405	 0.324760668467152 
2406	 0.324223766133741 
2407	 0.323728224987898 
2408	 0.323162736403248 
2409	 0.322460041802926 
2410	 0.321830113242674 
2411	 0.321233705398981 
2412	 0.320611656625252 
2413	 0.320093839474963 
2414	 0.319558644990577 
2415	 0.318936907718747 
2416	 0.318373412266933 
2417	 0.31785917027068 
2418	 0.317330604058742 
2419	 0.316807687260467 
2420	 0.316276487837997 
2421	 0.315684167286502 
2422	 0.315157029548508 
2423	 0.31470115258057 
2424	 0.314259326121148 
2425	 0.313915938598109 
2426	 0.313414507322193 
2427	 0.312769812053023 
2428	 0.312279339026074 
2429	 0.311743231651208 
2430	 0.311307311226504 
2431	 0.311098778219384 
2432	 0.310703985196938 
2433	 0.31028058536578 
2434	 0.309835474569767 
2435	 0.3092966426022 
2436	 0.308764689650022 
2437	 0.308150836043076 
2438	 0.307630713411531 
2439	 0.307147856808004 
2440	 0.306668739077328 
2441	 0.306254478698147 
2442	 0.30580383620608 
2443	 0.305412808399476 
2444	 0.304945467019086 
2445	 0.304399936312534 
2446	 0.303926157595547 
2447	 0.303373463265788 
2448	 0.3028083835296 
2449	 0.302347091901661 
2450	 0.301875342193273 
2451	 0.301365754914452 
2452	 0.300888828260542 
2453	 0.300459687404718 
2454	 0.299918233429747 
2455	 0.299237885877786 
2456	 0.298725715096337 
2457	 0.298255840450904 
2458	 0.297842981832518 
2459	 0.297632479083916 
2460	 0.297264573693838 
2461	 0.296775126796551 
2462	 0.29636504962352 
2463	 0.295886641991873 
2464	 0.295515180788248 
2465	 0.295372366139972 
2466	 0.295122490494355 
2467	 0.294832669543386 
2468	 0.29445530658732 
2469	 0.293880271130741 
2470	 0.293541661834023 
2471	 0.293234536791072 
2472	 0.292981269409504 
2473	 0.29292972086774 
2474	 0.292794833510361 
2475	 0.29273463402016 
2476	 0.292598637900263 
2477	 0.292198687133415 
2478	 0.291668407118222 
2479	 0.291063003481824 
2480	 0.290547684254419 
2481	 0.290188455348556 
2482	 0.289963320002353 
2483	 0.2897170907119 
2484	 0.289433206877915 
2485	 0.288958830619777 
2486	 0.28818106180514 
2487	 0.287700449590028 
2488	 0.287275476262924 
2489	 0.286630590081533 
2490	 0.286301364492204 
2491	 0.28576766185698 
2492	 0.285206528984994 
2493	 0.284936583549496 
2494	 0.284298386697059 
2495	 0.283726561527396 
2496	 0.283245713885383 
2497	 0.28264766786522 
2498	 0.282348720740505 
2499	 0.281930171856138 
2500	 0.28125031493671 
