Wavelength	LMW7 profile 200013.asd
350	 6.12981761892577E-02 
351	 6.27636576894813E-02 
352	 6.18306930427482E-02 
353	 5.75400505401324E-02 
354	 0.060321268862107 
355	 6.11745150174172E-02 
356	 5.90578318615079E-02 
357	 0.05674580809559 
358	 6.37443308855426E-02 
359	 6.20221270237349E-02 
360	 0.055954003417473 
361	 6.22015570795002E-02 
362	 6.02172722057841E-02 
363	 5.79793377054891E-02 
364	 5.94261944483706E-02 
365	 0.056543417664925 
366	 5.78967022462851E-02 
367	 6.03419297824103E-02 
368	 5.96145725835908E-02 
369	 6.02436994467101E-02 
370	 6.10504076098155E-02 
371	 6.16921614565057E-02 
372	 6.24450537070884E-02 
373	 6.28883881749244E-02 
374	 6.26030153642996E-02 
375	 6.29118785998768E-02 
376	 6.85608626385364E-02 
377	 6.88867824170566E-02 
378	 6.74790244065682E-02 
379	 6.98530560904101E-02 
380	 6.99350021890989E-02 
381	 6.89745353260411E-02 
382	 6.89344669137085E-02 
383	 7.17353357615098E-02 
384	 7.44551874981383E-02 
385	 0.075358263911987 
386	 7.50627975927677E-02 
387	 7.82626834011739E-02 
388	 8.10187584977528E-02 
389	 8.15205470051061E-02 
390	 8.00206419474719E-02 
391	 0.082378008197753 
392	 8.53737819264976E-02 
393	 8.79808497929554E-02 
394	 9.12900657556532E-02 
395	 9.30845695729805E-02 
396	 9.52973482608145E-02 
397	 9.89051148397049E-02 
398	 0.101612608091758 
399	 0.103406448679381 
400	 0.105711213544131 
401	 0.10975804871734 
402	 0.112439079499685 
403	 0.114770839361037 
404	 0.117386662531963 
405	 0.120230683472073 
406	 0.123085179462212 
407	 0.126114884380033 
408	 0.129170304215252 
409	 0.131120749230712 
410	 0.132738596822426 
411	 0.134580536880212 
412	 0.136947922002848 
413	 0.139353593297758 
414	 0.140483761964573 
415	 0.140642592109209 
416	 0.142203467857405 
417	 0.142902233948268 
418	 0.143039914536886 
419	 0.143380081410289 
420	 0.144138017999373 
421	 0.144051925502398 
422	 0.14360777111932 
423	 0.144196572827045 
424	 0.143995679654659 
425	 0.142880849663619 
426	 0.141320942427842 
427	 0.140398673904174 
428	 0.139394720528789 
429	 0.137833252591261 
430	 0.135667237721178 
431	 0.134464374950634 
432	 0.133620524017791 
433	 0.132874610445871 
434	 0.132403065144508 
435	 0.132054908865757 
436	 0.132230275440919 
437	 0.133061411318262 
438	 0.133690363485717 
439	 0.134893341502179 
440	 0.136716390756218 
441	 0.13879721540131 
442	 0.140692465028415 
443	 0.142913097523615 
444	 0.145525367987299 
445	 0.147765981036419 
446	 0.150264280477566 
447	 0.153093723118966 
448	 0.156069562344836 
449	 0.158652800615002 
450	 0.16140372214706 
451	 0.164254169749077 
452	 0.166626448426984 
453	 0.169295528914261 
454	 0.171934642578811 
455	 0.174330089781837 
456	 0.177064127230914 
457	 0.179524922527482 
458	 0.18163388879222 
459	 0.183585058776527 
460	 0.185660690346709 
461	 0.187498035276511 
462	 0.189105016964748 
463	 0.191082225252753 
464	 0.193037787639824 
465	 0.194822317065221 
466	 0.196404154839028 
467	 0.197943641369283 
468	 0.199338317000473 
469	 0.200665403013741 
470	 0.202126835351752 
471	 0.20342665411148 
472	 0.204651156166206 
473	 0.205895489537348 
474	 0.20710146150484 
475	 0.208357370213914 
476	 0.209597123911738 
477	 0.210726796721111 
478	 0.211986909080037 
479	 0.21322725857793 
480	 0.214350574607931 
481	 0.215373111240107 
482	 0.216505746963797 
483	 0.217702634335013 
484	 0.218852965435601 
485	 0.219941158308709 
486	 0.220897535189999 
487	 0.221830825619312 
488	 0.222973879638577 
489	 0.224043795144777 
490	 0.225103805086513 
491	 0.226197278339516 
492	 0.227158089352307 
493	 0.228090877199042 
494	 0.229056130582621 
495	 0.230101566189984 
496	 0.231376728335186 
497	 0.232413265178788 
498	 0.233150609814746 
499	 0.234208405427872 
500	 0.235176568923889 
501	 0.236101237616465 
502	 0.23711944510771 
503	 0.238181786637503 
504	 0.239276841191459 
505	 0.240314103442865 
506	 0.241149007381831 
507	 0.242041843084722 
508	 0.24295840232551 
509	 0.243851050747498 
510	 0.244813545327113 
511	 0.245742760817178 
512	 0.246649141289374 
513	 0.247602604353892 
514	 0.24861375314543 
515	 0.249488210016775 
516	 0.250234708078932 
517	 0.251242601682487 
518	 0.252239111267895 
519	 0.253140241092013 
520	 0.253962984538254 
521	 0.254913987676582 
522	 0.255876357164982 
523	 0.256759733552036 
524	 0.257526199178122 
525	 0.258359192287825 
526	 0.259271572594609 
527	 0.260222366561398 
528	 0.261163218713763 
529	 0.262003723031655 
530	 0.262804087490644 
531	 0.263712346665083 
532	 0.264636145214949 
533	 0.265579627861473 
534	 0.26649625957569 
535	 0.267169985421064 
536	 0.268007548689077 
537	 0.268929062412849 
538	 0.269710888663127 
539	 0.270613694352447 
540	 0.271470083651002 
541	 0.272251672385803 
542	 0.273153912539395 
543	 0.274082466916603 
544	 0.274949124047272 
545	 0.275720472927294 
546	 0.276578765729859 
547	 0.277422272509419 
548	 0.278267611500004 
549	 0.279225246880481 
550	 0.280051001506702 
551	 0.280900217815132 
552	 0.281891778590618 
553	 0.282863429562562 
554	 0.28381244434772 
555	 0.284753720985943 
556	 0.28571150978295 
557	 0.28665974342141 
558	 0.287656468234915 
559	 0.288712788361508 
560	 0.289757236948493 
561	 0.290636835289342 
562	 0.291456685886972 
563	 0.292387044729717 
564	 0.293374838893428 
565	 0.294377017632008 
566	 0.295378188555034 
567	 0.296397630182565 
568	 0.297553992046469 
569	 0.298744481413605 
570	 0.29987470454402 
571	 0.301080957163379 
572	 0.302272442017257 
573	 0.303411616776714 
574	 0.304495194260809 
575	 0.305452532871664 
576	 0.30641868948376 
577	 0.307470219423731 
578	 0.30847705001228 
579	 0.309593969740339 
580	 0.310803636907612 
581	 0.312030171792224 
582	 0.313357187733649 
583	 0.314709007753921 
584	 0.315997329824828 
585	 0.317137729007709 
586	 0.318281310395143 
587	 0.31937557225081 
588	 0.32035930820967 
589	 0.321412665436996 
590	 0.322432889742136 
591	 0.323438519840331 
592	 0.324556933223425 
593	 0.325575224493612 
594	 0.326628450766085 
595	 0.327824554748508 
596	 0.329019057638773 
597	 0.330305623547611 
598	 0.331636957307617 
599	 0.332886412166429 
600	 0.333905477061217 
601	 0.33490423654213 
602	 0.335946820331554 
603	 0.336752069339384 
604	 0.33761169093973 
605	 0.338513833356739 
606	 0.339370303355334 
607	 0.34031189842736 
608	 0.341169164970386 
609	 0.341938843831513 
610	 0.342823088539896 
611	 0.343730383953228 
612	 0.344611937735026 
613	 0.345442474170306 
614	 0.346265544357243 
615	 0.347038665488163 
616	 0.347731858859144 
617	 0.348334703363674 
618	 0.348984727627118 
619	 0.349595893410373 
620	 0.350127791287272 
621	 0.350710486650126 
622	 0.351288509994861 
623	 0.351820962241539 
624	 0.352291064003701 
625	 0.352820915510495 
626	 0.353316100993787 
627	 0.35374769436654 
628	 0.354194805036934 
629	 0.354700082251589 
630	 0.3551630160438 
631	 0.355521277140279 
632	 0.356032242225055 
633	 0.356488518299499 
634	 0.356876326593806 
635	 0.357334486811482 
636	 0.357637779593177 
637	 0.357986286592511 
638	 0.358484322532197 
639	 0.358816368843963 
640	 0.359203431069911 
641	 0.359606364751253 
642	 0.359907326155413 
643	 0.360345298215065 
644	 0.360794476689915 
645	 0.361183214248577 
646	 0.361568297362404 
647	 0.361946029144991 
648	 0.362312322905945 
649	 0.362679089119369 
650	 0.363132264907435 
651	 0.363577447230971 
652	 0.363978205240341 
653	 0.364359222835257 
654	 0.364813087429465 
655	 0.365259358548481 
656	 0.36563229057806 
657	 0.365960603236275 
658	 0.366461327874427 
659	 0.367010880278111 
660	 0.36737029899371 
661	 0.367833731895574 
662	 0.36836165952932 
663	 0.368893384130441 
664	 0.36938784014413 
665	 0.369782752798806 
666	 0.37018876519652 
667	 0.370715589980786 
668	 0.37123873342209 
669	 0.371804801455385 
670	 0.372341400053795 
671	 0.372698463500967 
672	 0.373201302090163 
673	 0.373787182274167 
674	 0.37435699241046 
675	 0.374896488786427 
676	 0.375451393473742 
677	 0.375968868757312 
678	 0.376392548794777 
679	 0.37695434721811 
680	 0.377497250492181 
681	 0.378004860659388 
682	 0.378688430251565 
683	 0.379273889305149 
684	 0.379776743614809 
685	 0.380279854923216 
686	 0.380797921498199 
687	 0.38138295673948 
688	 0.382010637452643 
689	 0.382597865269993 
690	 0.383054118526501 
691	 0.383545595759676 
692	 0.384155191203324 
693	 0.38473569816036 
694	 0.385227990961077 
695	 0.385732662842304 
696	 0.386347783912629 
697	 0.386756851322 
698	 0.387292074158777 
699	 0.387978171541327 
700	 0.388487802599109 
701	 0.388966607485509 
702	 0.389421235496404 
703	 0.389854467089857 
704	 0.390335615309996 
705	 0.39077317465868 
706	 0.391170380093355 
707	 0.391584025893599 
708	 0.392058625649856 
709	 0.392531312149842 
710	 0.392950930192416 
711	 0.393300456113088 
712	 0.393643115157775 
713	 0.39401719741895 
714	 0.394422442961498 
715	 0.394750335245124 
716	 0.39508144090273 
717	 0.395416283199026 
718	 0.395695434716209 
719	 0.395922211891322 
720	 0.39610121909689 
721	 0.396250763400525 
722	 0.39640313873298 
723	 0.396672070396699 
724	 0.396934327099105 
725	 0.397044463604554 
726	 0.397205410590228 
727	 0.397331159577327 
728	 0.397383258010678 
729	 0.397383312574984 
730	 0.397400149109705 
731	 0.397376444286715 
732	 0.397288302831672 
733	 0.397250670110757 
734	 0.397195918286752 
735	 0.397102088216909 
736	 0.396980822377824 
737	 0.396949915058785 
738	 0.396764981310645 
739	 0.396440898204156 
740	 0.396291952481261 
741	 0.396168236786602 
742	 0.395942319303221 
743	 0.395564184249584 
744	 0.395169189495364 
745	 0.394798737404656 
746	 0.394461903670328 
747	 0.394126325905745 
748	 0.393625039904979 
749	 0.393218493596899 
750	 0.392907494945463 
751	 0.392344578641416 
752	 0.39180131959408 
753	 0.3912613016666 
754	 0.390688771475035 
755	 0.390185601759511 
756	 0.389722524571885 
757	 0.389198321653123 
758	 0.388519535017706 
759	 0.387936244831339 
760	 0.387279669468414 
761	 0.386544381140197 
762	 0.385969924716849 
763	 0.385361729250773 
764	 0.384676940748079 
765	 0.383938727237786 
766	 0.383242218026795 
767	 0.382589952109616 
768	 0.381904505614148 
769	 0.381100217804044 
770	 0.380352864709558 
771	 0.379631268238391 
772	 0.378886652928174 
773	 0.378076420283548 
774	 0.377322717514196 
775	 0.376584207742568 
776	 0.375813796968075 
777	 0.375056525424712 
778	 0.374310768590406 
779	 0.373522811219632 
780	 0.372645821616559 
781	 0.371816429727707 
782	 0.371130904397458 
783	 0.370487928790375 
784	 0.369608246930774 
785	 0.368828434739058 
786	 0.368125149292114 
787	 0.367379937021409 
788	 0.366388027974408 
789	 0.365607240842989 
790	 0.364944147446763 
791	 0.364148761848177 
792	 0.363383815623568 
793	 0.362648538908011 
794	 0.361908607535732 
795	 0.361116681564933 
796	 0.360343307247332 
797	 0.359624211327247 
798	 0.358930880256986 
799	 0.358128714102303 
800	 0.357361478046001 
801	 0.356682210369377 
802	 0.356057172978074 
803	 0.355240416188523 
804	 0.354486910148754 
805	 0.353844278826585 
806	 0.353212783562244 
807	 0.352518290659885 
808	 0.351756371109347 
809	 0.35100066733154 
810	 0.350398948512767 
811	 0.349791244806104 
812	 0.349158838063375 
813	 0.34851407614302 
814	 0.34786098538783 
815	 0.347204725049326 
816	 0.346554405328729 
817	 0.345917835659483 
818	 0.345278553892467 
819	 0.344720143778722 
820	 0.34419198276837 
821	 0.343548584167019 
822	 0.343001583619516 
823	 0.342437246439799 
824	 0.341809046148679 
825	 0.341259854636036 
826	 0.340722187715446 
827	 0.340198123070359 
828	 0.339688288704492 
829	 0.339139150188174 
830	 0.338522075635679 
831	 0.337896103187175 
832	 0.337357640956678 
833	 0.336938811804641 
834	 0.336513514152538 
835	 0.33605373874701 
836	 0.33562822374817 
837	 0.335122411900096 
838	 0.334670319147797 
839	 0.334298545312223 
840	 0.333786941109703 
841	 0.333303107845887 
842	 0.332855042671509 
843	 0.332427772995147 
844	 0.332081608213173 
845	 0.331733842522602 
846	 0.331344118523729 
847	 0.330910557649063 
848	 0.330492459800699 
849	 0.330132125859913 
850	 0.329807697094497 
851	 0.329446999193028 
852	 0.329035455091758 
853	 0.328712942887342 
854	 0.328469642261675 
855	 0.328058916075961 
856	 0.327821381958271 
857	 0.327591234646634 
858	 0.327217146038499 
859	 0.326886482386581 
860	 0.32662697951067 
861	 0.326370900429333 
862	 0.326054655437221 
863	 0.325824966173776 
864	 0.325533477347963 
865	 0.325245450994697 
866	 0.325114739017737 
867	 0.324896690132616 
868	 0.32471817554133 
869	 0.324579628768016 
870	 0.324328898300139 
871	 0.323970533535119 
872	 0.323679966064935 
873	 0.323586424676006 
874	 0.323694465856754 
875	 0.323613438630686 
876	 0.323375115179736 
877	 0.323130615475259 
878	 0.323012391842439 
879	 0.322970167946093 
880	 0.322867474619743 
881	 0.322636164466207 
882	 0.322610229787587 
883	 0.322577514425771 
884	 0.322463357771132 
885	 0.322303522542984 
886	 0.322217350633187 
887	 0.322226999256113 
888	 0.322226504325596 
889	 0.322052912983199 
890	 0.321987735477664 
891	 0.321969128755276 
892	 0.321986259040422 
893	 0.322130254912793 
894	 0.322077697549889 
895	 0.32199094369514 
896	 0.322023338046795 
897	 0.322129333695144 
898	 0.322193464133548 
899	 0.322194134736606 
900	 0.322165014174292 
901	 0.322194789833992 
902	 0.322263607525671 
903	 0.322360809980061 
904	 0.322468764718549 
905	 0.322539387483669 
906	 0.322673728503285 
907	 0.322866020153775 
908	 0.323051206033708 
909	 0.323178389108349 
910	 0.323268815710527 
911	 0.323361148487043 
912	 0.323495663312124 
913	 0.323670751091541 
914	 0.323825226534896 
915	 0.323966178600606 
916	 0.324155738723514 
917	 0.324312068726432 
918	 0.324551145141888 
919	 0.324864771082249 
920	 0.325087143631778 
921	 0.325301330711083 
922	 0.325492980736422 
923	 0.325673482670454 
924	 0.325908198899206 
925	 0.326198501195562 
926	 0.326495414175382 
927	 0.326773223032002 
928	 0.327068770333167 
929	 0.327462798675247 
930	 0.327821013784056 
931	 0.32806049742002 
932	 0.32834952865921 
933	 0.328568005518389 
934	 0.328823240906675 
935	 0.329214111615837 
936	 0.329634885547226 
937	 0.330005143896959 
938	 0.330372560076698 
939	 0.330808481322615 
940	 0.331298312537452 
941	 0.33169449204752 
942	 0.332088583452924 
943	 0.332592779445895 
944	 0.332984321495704 
945	 0.333421957212477 
946	 0.333896711337283 
947	 0.334333247840663 
948	 0.334755071464309 
949	 0.335160164336799 
950	 0.335577348561846 
951	 0.336044154197892 
952	 0.336556501379096 
953	 0.337119708598258 
954	 0.337655693075027 
955	 0.338097752489772 
956	 0.338696756372095 
957	 0.339157843131362 
958	 0.339528276944207 
959	 0.340051900148338 
960	 0.340679931329931 
961	 0.341304487917682 
962	 0.34190866575243 
963	 0.342509223575825 
964	 0.342902574622297 
965	 0.343397143727087 
966	 0.344091803233582 
967	 0.344875641304931 
968	 0.345528395638087 
969	 0.346085379002886 
970	 0.346639985039943 
971	 0.347279890102352 
972	 0.347925638043358 
973	 0.348540904454271 
974	 0.349146282013125 
975	 0.349785282261657 
976	 0.350389266185046 
977	 0.351069207473302 
978	 0.351847123200669 
979	 0.352641716456282 
980	 0.35323606017785 
981	 0.353755660402073 
982	 0.354342002503122 
983	 0.355074487054365 
984	 0.355777770639102 
985	 0.356502589242711 
986	 0.357251463690897 
987	 0.358002303342004 
988	 0.358804127692059 
989	 0.35953653071801 
990	 0.360163436494058 
991	 0.36074971777973 
992	 0.361540598385164 
993	 0.36226751995877 
994	 0.362958076843154 
995	 0.363714750729899 
996	 0.364295896124153 
997	 0.365078848874342 
998	 0.365893766744668 
999	 0.36654548748286 
1000	 0.367595593030176 
1001	 0.373240027278837 
1002	 0.373948309965196 
1003	 0.374598534285185 
1004	 0.375307193281301 
1005	 0.376056979559919 
1006	 0.376774288286297 
1007	 0.377489588251264 
1008	 0.378245614966515 
1009	 0.37899116314031 
1010	 0.379639411518197 
1011	 0.38027800295383 
1012	 0.38093649180375 
1013	 0.381602590924229 
1014	 0.38226823486631 
1015	 0.382935693952538 
1016	 0.383649012893018 
1017	 0.384347007554654 
1018	 0.385027509311508 
1019	 0.38567529432833 
1020	 0.386357008404024 
1021	 0.387021155512901 
1022	 0.387662486722778 
1023	 0.388282168346331 
1024	 0.38891146618599 
1025	 0.389522949253565 
1026	 0.390095555443248 
1027	 0.390733981764032 
1028	 0.391406534370194 
1029	 0.392097725741862 
1030	 0.392774429581124 
1031	 0.393406660069619 
1032	 0.393998774378962 
1033	 0.394589526993289 
1034	 0.395181299665745 
1035	 0.395804781125976 
1036	 0.396466972402413 
1037	 0.397097024271039 
1038	 0.397738456666807 
1039	 0.398359636233918 
1040	 0.398946849772687 
1041	 0.39961873340121 
1042	 0.400320021902566 
1043	 0.40102982332692 
1044	 0.401702615936058 
1045	 0.40240942594729 
1046	 0.403016811158325 
1047	 0.403608129513257 
1048	 0.404239491078196 
1049	 0.404915556240316 
1050	 0.405642740068194 
1051	 0.406324434262896 
1052	 0.406949308328537 
1053	 0.407581930638653 
1054	 0.408196272983726 
1055	 0.408782881308533 
1056	 0.409417075132899 
1057	 0.410023840902412 
1058	 0.410603036567163 
1059	 0.411171740708288 
1060	 0.411748434100186 
1061	 0.412278113609062 
1062	 0.412801462754225 
1063	 0.413346181342449 
1064	 0.413933379166049 
1065	 0.414539577568277 
1066	 0.415123354905285 
1067	 0.415639126430579 
1068	 0.416139469644453 
1069	 0.416636758048676 
1070	 0.417098929948228 
1071	 0.417525735262129 
1072	 0.417998456693652 
1073	 0.418434493381926 
1074	 0.418881965067874 
1075	 0.419344520360459 
1076	 0.419844396034414 
1077	 0.420327491202846 
1078	 0.420821875180891 
1079	 0.421314064745838 
1080	 0.42172034455853 
1081	 0.422071313214163 
1082	 0.422485553587026 
1083	 0.422865637351564 
1084	 0.423225546005987 
1085	 0.423601349128345 
1086	 0.423957996119915 
1087	 0.424311957521506 
1088	 0.424670603673251 
1089	 0.425051798743744 
1090	 0.425372793220853 
1091	 0.42575533992688 
1092	 0.426120329603668 
1093	 0.426484337315642 
1094	 0.426900749823688 
1095	 0.427288582880383 
1096	 0.427675271858994 
1097	 0.428045355283839 
1098	 0.428413690398839 
1099	 0.428753052285464 
1100	 0.429128319746493 
1101	 0.429512536468392 
1102	 0.429909629444152 
1103	 0.43034445028424 
1104	 0.430737849089985 
1105	 0.431103420654991 
1106	 0.431506352024284 
1107	 0.431881339419 
1108	 0.432285866903115 
1109	 0.43274348639684 
1110	 0.433169902660968 
1111	 0.433596299718506 
1112	 0.4340137602483 
1113	 0.434449757980953 
1114	 0.434899770932207 
1115	 0.435334915621068 
1116	 0.435769047624511 
1117	 0.43621054182569 
1118	 0.43664489180114 
1119	 0.437069523262616 
1120	 0.437530405705246 
1121	 0.438008813410566 
1122	 0.438452006320124 
1123	 0.438895827587434 
1124	 0.439361275393228 
1125	 0.439829665146702 
1126	 0.440302067805611 
1127	 0.44079547403905 
1128	 0.441273901409018 
1129	 0.441755719257019 
1130	 0.442213538558573 
1131	 0.4426618909162 
1132	 0.44311179017996 
1133	 0.443529051535503 
1134	 0.443967270903424 
1135	 0.444432484507449 
1136	 0.444875574424291 
1137	 0.445292723264326 
1138	 0.445727499158813 
1139	 0.446167763764592 
1140	 0.446589812633238 
1141	 0.447046595566135 
1142	 0.447554886442983 
1143	 0.448004086664972 
1144	 0.44843886000156 
1145	 0.448867966698913 
1146	 0.449257604744078 
1147	 0.449672889960478 
1148	 0.450099985932889 
1149	 0.450527931006368 
1150	 0.450966917761918 
1151	 0.451398441762048 
1152	 0.451829699752335 
1153	 0.45223846890689 
1154	 0.452632904126688 
1155	 0.452996629028014 
1156	 0.453388863942239 
1157	 0.453795754064468 
1158	 0.45416670081119 
1159	 0.454535547739222 
1160	 0.454897173584284 
1161	 0.455215403820884 
1162	 0.455562214609763 
1163	 0.455934477569142 
1164	 0.456290877080504 
1165	 0.456635166176292 
1166	 0.456997269208689 
1167	 0.457356684520631 
1168	 0.457702353456737 
1169	 0.458047375237797 
1170	 0.458399985408843 
1171	 0.458724699394825 
1172	 0.459033068849004 
1173	 0.459341812091471 
1174	 0.459626678116266 
1175	 0.459933332322307 
1176	 0.460248715084588 
1177	 0.460560791154052 
1178	 0.460883215364967 
1179	 0.461198113845793 
1180	 0.461501093260936 
1181	 0.461813840153482 
1182	 0.462131712524731 
1183	 0.46245399486102 
1184	 0.462763101861335 
1185	 0.463073355597338 
1186	 0.463380559792721 
1187	 0.463667620458949 
1188	 0.463982127253972 
1189	 0.464318956523406 
1190	 0.464634945179024 
1191	 0.464960193555524 
1192	 0.465266666346551 
1193	 0.465555828931399 
1194	 0.465844350421705 
1195	 0.466118270075111 
1196	 0.466402945757186 
1197	 0.46668745442633 
1198	 0.466971693641871 
1199	 0.467258426865092 
1200	 0.467550345479635 
1201	 0.467846068593586 
1202	 0.468142320624852 
1203	 0.468442232867389 
1204	 0.468757947728674 
1205	 0.469052941363035 
1206	 0.469335541355818 
1207	 0.469625069022947 
1208	 0.469906655259714 
1209	 0.470195426471388 
1210	 0.470496884346981 
1211	 0.470787478583422 
1212	 0.471069020177208 
1213	 0.471357364421353 
1214	 0.471659464900346 
1215	 0.471939756861725 
1216	 0.47221155327762 
1217	 0.472480930470446 
1218	 0.472743094386807 
1219	 0.472978374335151 
1220	 0.473240994178936 
1221	 0.47351656700401 
1222	 0.473787769358445 
1223	 0.474075945154376 
1224	 0.474338859851675 
1225	 0.474590378985065 
1226	 0.474840737137509 
1227	 0.475072554824088 
1228	 0.475314096192276 
1229	 0.475556116885671 
1230	 0.475803997745297 
1231	 0.47605380394419 
1232	 0.476308190680641 
1233	 0.476567449408551 
1234	 0.476839560930619 
1235	 0.477094712762721 
1236	 0.477345690620918 
1237	 0.477599881900053 
1238	 0.477854036260979 
1239	 0.478095750318469 
1240	 0.478331469200301 
1241	 0.478574152509455 
1242	 0.47881203474635 
1243	 0.47904535001026 
1244	 0.479284928952649 
1245	 0.479520141245101 
1246	 0.479741859170602 
1247	 0.479968490940662 
1248	 0.480197486320126 
1249	 0.480433570679567 
1250	 0.480661904047489 
1251	 0.480886353432384 
1252	 0.481119278232663 
1253	 0.481360750144619 
1254	 0.481588975097466 
1255	 0.4818135271203 
1256	 0.482042068113197 
1257	 0.482264335861904 
1258	 0.482490417658801 
1259	 0.482728700628533 
1260	 0.482954374538362 
1261	 0.48318088486781 
1262	 0.483390039010857 
1263	 0.483577855042506 
1264	 0.483778329279111 
1265	 0.483970995896967 
1266	 0.484167164136056 
1267	 0.484367707475729 
1268	 0.484576498076156 
1269	 0.484789517910837 
1270	 0.484992017058685 
1271	 0.485228064195323 
1272	 0.485491189480315 
1273	 0.485740363091656 
1274	 0.485998199545549 
1275	 0.486263032327963 
1276	 0.486529631390716 
1277	 0.486795470640677 
1278	 0.487079107383209 
1279	 0.487344517072208 
1280	 0.487584921900163 
1281	 0.487848630657407 
1282	 0.488125758978686 
1283	 0.488392963700578 
1284	 0.48867939921831 
1285	 0.488944757964637 
1286	 0.48917070720373 
1287	 0.489391338516074 
1288	 0.489595301772933 
1289	 0.489776732584667 
1290	 0.489947639614338 
1291	 0.49011162850828 
1292	 0.49025097794566 
1293	 0.490369385100452 
1294	 0.490468710521321 
1295	 0.490543506100798 
1296	 0.490617166544045 
1297	 0.490670264508124 
1298	 0.490719318416386 
1299	 0.490769503952128 
1300	 0.490802261038546 
1301	 0.490816251884983 
1302	 0.490828529901497 
1303	 0.490837065102834 
1304	 0.490829852611421 
1305	 0.490812410360232 
1306	 0.490777748106546 
1307	 0.490741308265173 
1308	 0.49070244364316 
1309	 0.490656790337228 
1310	 0.490598344742062 
1311	 0.490570745032117 
1312	 0.490543751731467 
1313	 0.490527349880637 
1314	 0.490541218155386 
1315	 0.490537385153231 
1316	 0.490502170860521 
1317	 0.49052473627276 
1318	 0.490578129290512 
1319	 0.490632194203886 
1320	 0.490732787405834 
1321	 0.490803676004497 
1322	 0.490861826946753 
1323	 0.490911436226284 
1324	 0.490973537432513 
1325	 0.49104171162769 
1326	 0.491119426744586 
1327	 0.491199767010334 
1328	 0.491255407118382 
1329	 0.491315064956342 
1330	 0.491396274823239 
1331	 0.491478522111786 
1332	 0.491577941330428 
1333	 0.491709120492671 
1334	 0.49181979803677 
1335	 0.491911366119641 
1336	 0.492038240186737 
1337	 0.492187464991583 
1338	 0.492324315024601 
1339	 0.492491038648078 
1340	 0.492621906717629 
1341	 0.492721854477019 
1342	 0.492830547349347 
1343	 0.492927152825037 
1344	 0.493034024314046 
1345	 0.493135992935593 
1346	 0.493235428836538 
1347	 0.493355657169126 
1348	 0.493459938638736 
1349	 0.493550213200416 
1350	 0.493637874797065 
1351	 0.493717763521111 
1352	 0.493770505518186 
1353	 0.493852275029879 
1354	 0.49395404780682 
1355	 0.494029198732012 
1356	 0.494104180506358 
1357	 0.494167178117015 
1358	 0.494195208605579 
1359	 0.494264317341505 
1360	 0.494344607420407 
1361	 0.494432904917905 
1362	 0.494542596795771 
1363	 0.494651304241578 
1364	 0.494765085721443 
1365	 0.494882344377375 
1366	 0.495005585160013 
1367	 0.495134635033138 
1368	 0.495275759673228 
1369	 0.495383953709136 
1370	 0.495476853599401 
1371	 0.495569720911027 
1372	 0.495601974707824 
1373	 0.495621156217323 
1374	 0.495624015176299 
1375	 0.495592433004506 
1376	 0.495563124225081 
1377	 0.495542128706027 
1378	 0.495476520163446 
1379	 0.495377516775351 
1380	 0.495282761223905 
1381	 0.495143794592451 
1382	 0.495037640316129 
1383	 0.494978660668562 
1384	 0.494863342476548 
1385	 0.494756552171973 
1386	 0.494594336387813 
1387	 0.494393383132879 
1388	 0.494139104753569 
1389	 0.493843708121881 
1390	 0.493509587562491 
1391	 0.493117314770494 
1392	 0.492693466276831 
1393	 0.492230758163216 
1394	 0.491733731227275 
1395	 0.491206318003069 
1396	 0.490680280615356 
1397	 0.490166512341564 
1398	 0.48965566383259 
1399	 0.489140342225353 
1400	 0.488627775376936 
1401	 0.488114510508564 
1402	 0.487598675473083 
1403	 0.487080156306093 
1404	 0.486551905624748 
1405	 0.486051429720148 
1406	 0.485552166028258 
1407	 0.485069585221222 
1408	 0.484583662631609 
1409	 0.484155199608011 
1410	 0.483716482052093 
1411	 0.483375198207527 
1412	 0.483076128661893 
1413	 0.482880937815768 
1414	 0.482814205236063 
1415	 0.482813166909056 
1416	 0.482927235937524 
1417	 0.483128610722111 
1418	 0.483333236192824 
1419	 0.48354212572581 
1420	 0.483777578031608 
1421	 0.483977061742527 
1422	 0.484110768344543 
1423	 0.48422266414988 
1424	 0.48425890238058 
1425	 0.484206005347454 
1426	 0.484150953547469 
1427	 0.484053861399196 
1428	 0.483939832887735 
1429	 0.483792838750068 
1430	 0.483638882583156 
1431	 0.483461845411569 
1432	 0.483268886565925 
1433	 0.483061649513186 
1434	 0.482846505461498 
1435	 0.482594677045276 
1436	 0.482372782453553 
1437	 0.482154062470205 
1438	 0.481937960496091 
1439	 0.48173613957194 
1440	 0.481537526720771 
1441	 0.481321617333667 
1442	 0.481119015528117 
1443	 0.480893915962475 
1444	 0.480652184562632 
1445	 0.480420592507755 
1446	 0.480166327801869 
1447	 0.479899521930498 
1448	 0.47962206928574 
1449	 0.479297319157631 
1450	 0.478938627380383 
1451	 0.478573789951191 
1452	 0.478180503815478 
1453	 0.4777889768132 
1454	 0.477395871298884 
1455	 0.476978092698529 
1456	 0.476553502989848 
1457	 0.476087772062517 
1458	 0.47558037218958 
1459	 0.475080926740633 
1460	 0.474551475348414 
1461	 0.474037136538425 
1462	 0.473509308771785 
1463	 0.473017570589363 
1464	 0.472528382665455 
1465	 0.472063596253211 
1466	 0.47161487776905 
1467	 0.471218252300328 
1468	 0.470827837739699 
1469	 0.470507073259366 
1470	 0.470250962940414 
1471	 0.470031667971982 
1472	 0.469844067362256 
1473	 0.469737179838688 
1474	 0.469698501624292 
1475	 0.469731154287884 
1476	 0.469871910650135 
1477	 0.470076836096959 
1478	 0.470342122516273 
1479	 0.470654437122051 
1480	 0.471016585890522 
1481	 0.471421423383645 
1482	 0.471812218978992 
1483	 0.472244947594114 
1484	 0.472642664941654 
1485	 0.473023085517577 
1486	 0.473400440884202 
1487	 0.473795910342873 
1488	 0.474127168174767 
1489	 0.474435967673433 
1490	 0.474706244189815 
1491	 0.474923645328224 
1492	 0.475131555864485 
1493	 0.475300713422319 
1494	 0.475478293635298 
1495	 0.475638475387712 
1496	 0.475795796150908 
1497	 0.475966190854762 
1498	 0.476108346461793 
1499	 0.476227870221346 
1500	 0.476337657931621 
1501	 0.476432966513448 
1502	 0.476510247035031 
1503	 0.47656354870183 
1504	 0.476623016541342 
1505	 0.47667226411404 
1506	 0.476719491748333 
1507	 0.476769883020202 
1508	 0.476822007003422 
1509	 0.476875119188028 
1510	 0.476919695474298 
1511	 0.476973984502178 
1512	 0.477023809853516 
1513	 0.477069818943588 
1514	 0.477118948799079 
1515	 0.47715955829834 
1516	 0.477204423074782 
1517	 0.477227514075562 
1518	 0.477229442120477 
1519	 0.477244906184153 
1520	 0.477242397974469 
1521	 0.477271683295866 
1522	 0.477317581460922 
1523	 0.477372324772681 
1524	 0.477453678659055 
1525	 0.477517965266612 
1526	 0.477585173783161 
1527	 0.477644942419281 
1528	 0.477697053620694 
1529	 0.47774298785532 
1530	 0.477784678987342 
1531	 0.477830117331022 
1532	 0.477852785801926 
1533	 0.47791191447714 
1534	 0.478007214454425 
1535	 0.4780726961863 
1536	 0.478144993536645 
1537	 0.478212455220359 
1538	 0.478255113078592 
1539	 0.478303235867271 
1540	 0.478360486221182 
1541	 0.478416709584102 
1542	 0.478478161143579 
1543	 0.47852464261403 
1544	 0.478551232922915 
1545	 0.478598169720186 
1546	 0.478642429648107 
1547	 0.478683203136861 
1548	 0.478763774143556 
1549	 0.478854137112752 
1550	 0.478942758950914 
1551	 0.479042645102796 
1552	 0.479143279074868 
1553	 0.479243813864799 
1554	 0.479332151308577 
1555	 0.479422621615943 
1556	 0.479510625519472 
1557	 0.479602694613427 
1558	 0.479700611688458 
1559	 0.479775098570869 
1560	 0.479858975590373 
1561	 0.479941712149373 
1562	 0.480018191979886 
1563	 0.480096851238707 
1564	 0.480165436129075 
1565	 0.480220181137191 
1566	 0.480281062161517 
1567	 0.480336606732866 
1568	 0.480405713994387 
1569	 0.480484601339726 
1570	 0.480551592721654 
1571	 0.480630221984124 
1572	 0.480683204986018 
1573	 0.4807147776205 
1574	 0.480754387547906 
1575	 0.480779354781703 
1576	 0.480817026840728 
1577	 0.480865972142712 
1578	 0.480900136789761 
1579	 0.480924683874921 
1580	 0.480965329231263 
1581	 0.481008926883207 
1582	 0.481053848524289 
1583	 0.481104591375897 
1584	 0.481164460059039 
1585	 0.481223107252593 
1586	 0.481284380777586 
1587	 0.481380841944407 
1588	 0.481436528919874 
1589	 0.481478791787972 
1590	 0.481501060012034 
1591	 0.481472031826438 
1592	 0.481478512912094 
1593	 0.481481570453849 
1594	 0.481499860321975 
1595	 0.481545100937804 
1596	 0.481586618175737 
1597	 0.481639376134965 
1598	 0.481680475036591 
1599	 0.481738183524385 
1600	 0.48176313623094 
1601	 0.481740448451453 
1602	 0.481747946074642 
1603	 0.481750920521404 
1604	 0.481760521153181 
1605	 0.481796557354435 
1606	 0.481826667206118 
1607	 0.481852456046751 
1608	 0.481875051670758 
1609	 0.481906431928448 
1610	 0.481932061191495 
1611	 0.481942795904115 
1612	 0.481937672715806 
1613	 0.481912117764393 
1614	 0.481905317768545 
1615	 0.481929692635559 
1616	 0.481938340777108 
1617	 0.481960587011381 
1618	 0.481999864418288 
1619	 0.48197741542822 
1620	 0.481955439439679 
1621	 0.481939831009218 
1622	 0.481912365813193 
1623	 0.481885498985469 
1624	 0.481866208512953 
1625	 0.481846004219303 
1626	 0.481810043793922 
1627	 0.481801488018443 
1628	 0.481815170996103 
1629	 0.481813835783124 
1630	 0.481817733765789 
1631	 0.481812485490148 
1632	 0.481797587624643 
1633	 0.481793353719396 
1634	 0.4817938782992 
1635	 0.481784735451918 
1636	 0.481778337980561 
1637	 0.481760783677748 
1638	 0.481727518191888 
1639	 0.481707938647208 
1640	 0.48168071640399 
1641	 0.481680760904513 
1642	 0.48169903487106 
1643	 0.481714055095634 
1644	 0.481746198553361 
1645	 0.481768176455435 
1646	 0.481791492975218 
1647	 0.481799169558967 
1648	 0.48180575713408 
1649	 0.481799243556807 
1650	 0.481774013742097 
1651	 0.481749634206681 
1652	 0.48172390181396 
1653	 0.481685323980599 
1654	 0.481621910434234 
1655	 0.48159160092952 
1656	 0.481575984394472 
1657	 0.481542263544219 
1658	 0.481522503426311 
1659	 0.481487226431906 
1660	 0.48142456667669 
1661	 0.481377679172762 
1662	 0.481336075897934 
1663	 0.481299872745713 
1664	 0.481267941091093 
1665	 0.481230408536171 
1666	 0.48121704329383 
1667	 0.481155767989871 
1668	 0.481050576450271 
1669	 0.480979589823474 
1670	 0.480885808621839 
1671	 0.480829376240141 
1672	 0.480817023575954 
1673	 0.48078334402515 
1674	 0.480747895816996 
1675	 0.480721893416811 
1676	 0.480688562000779 
1677	 0.480681878006217 
1678	 0.480711100743205 
1679	 0.480705098589931 
1680	 0.480705956434693 
1681	 0.480682769130541 
1682	 0.480625819915733 
1683	 0.480579037302907 
1684	 0.480507100768131 
1685	 0.480484935661989 
1686	 0.480491120655016 
1687	 0.480481717685398 
1688	 0.48052068938451 
1689	 0.480495759677613 
1690	 0.480417999825751 
1691	 0.480361092289498 
1692	 0.480280678211502 
1693	 0.480224868516561 
1694	 0.480186084120574 
1695	 0.480138495227146 
1696	 0.480095991385827 
1697	 0.480050554406023 
1698	 0.480003561779338 
1699	 0.479954502741865 
1700	 0.479907284968089 
1701	 0.47985206295671 
1702	 0.479785591515556 
1703	 0.479727861596469 
1704	 0.479668378415792 
1705	 0.479616407226822 
1706	 0.479579922064511 
1707	 0.479524108963833 
1708	 0.479470294430703 
1709	 0.479396142840373 
1710	 0.479284254296319 
1711	 0.479213777741546 
1712	 0.479151626845674 
1713	 0.479092373100077 
1714	 0.47906081774052 
1715	 0.479015105593824 
1716	 0.47895582094325 
1717	 0.478909839931336 
1718	 0.478885581824514 
1719	 0.478825604488603 
1720	 0.478751489539217 
1721	 0.478676322336151 
1722	 0.478586367536491 
1723	 0.478489536402996 
1724	 0.478375485163871 
1725	 0.478294711244157 
1726	 0.478217698552938 
1727	 0.478135763679271 
1728	 0.478089296018992 
1729	 0.478004342243128 
1730	 0.477897973382557 
1731	 0.477777030498872 
1732	 0.477643986542866 
1733	 0.477500859778493 
1734	 0.477315994025469 
1735	 0.477169598614741 
1736	 0.477035763611977 
1737	 0.47690412397965 
1738	 0.476791432909376 
1739	 0.476669744619795 
1740	 0.476549472175829 
1741	 0.476419132832598 
1742	 0.47628736991966 
1743	 0.476145319379367 
1744	 0.475984684444527 
1745	 0.47584036806786 
1746	 0.475683736844731 
1747	 0.475606812077974 
1748	 0.475529749886134 
1749	 0.475443808732695 
1750	 0.475359479381105 
1751	 0.4752016252856 
1752	 0.475024105114109 
1753	 0.474850164232081 
1754	 0.474636839174866 
1755	 0.474467770491203 
1756	 0.474314137788577 
1757	 0.474159907638817 
1758	 0.474053344198647 
1759	 0.473940733678043 
1760	 0.473816534532406 
1761	 0.473710454973709 
1762	 0.47356025215941 
1763	 0.473348970525004 
1764	 0.473170912878029 
1765	 0.473023178169573 
1766	 0.472901907561764 
1767	 0.472856203186677 
1768	 0.472804991160863 
1769	 0.472723656955629 
1770	 0.472653584138522 
1771	 0.472562434875495 
1772	 0.472420540837064 
1773	 0.472245788011391 
1774	 0.472084126891692 
1775	 0.471925420045863 
1776	 0.471775060071783 
1777	 0.471654922775242 
1778	 0.471545228942543 
1779	 0.471458715189909 
1780	 0.471387449099516 
1781	 0.471332613299681 
1782	 0.471253140974808 
1783	 0.471104472255484 
1784	 0.470972316567954 
1785	 0.470818274867459 
1786	 0.470674645795373 
1787	 0.470532293287214 
1788	 0.470394345561339 
1789	 0.470259329810236 
1790	 0.470149235029624 
1791	 0.470057849859636 
1792	 0.469947953588913 
1793	 0.469851950067193 
1794	 0.469724833608621 
1795	 0.469587862277197 
1796	 0.469438052506648 
1797	 0.469260926174675 
1798	 0.469098015136533 
1799	 0.468921580569956 
1800	 0.468754169995227 
1801	 0.472362582094581 
1802	 0.472302517257785 
1803	 0.472272109455968 
1804	 0.472305718198601 
1805	 0.472321288384158 
1806	 0.472301393298407 
1807	 0.472289773065691 
1808	 0.47224561804805 
1809	 0.472179298131359 
1810	 0.472080598273024 
1811	 0.471972085962833 
1812	 0.471813202876252 
1813	 0.471628467249508 
1814	 0.471433460326719 
1815	 0.471218010740388 
1816	 0.471017323971674 
1817	 0.47078558691249 
1818	 0.470515121835426 
1819	 0.470262637624235 
1820	 0.470012777253596 
1821	 0.469744560940787 
1822	 0.469472518860512 
1823	 0.469169472273051 
1824	 0.46881733037597 
1825	 0.468440064095164 
1826	 0.468032560512641 
1827	 0.467591109202171 
1828	 0.467098986533054 
1829	 0.466551241281355 
1830	 0.465990200437594 
1831	 0.465391528317226 
1832	 0.464769700351566 
1833	 0.46411669682578 
1834	 0.46343882633358 
1835	 0.462719781373138 
1836	 0.46198459876911 
1837	 0.461254144442443 
1838	 0.46054430074848 
1839	 0.459861451202441 
1840	 0.459195783644363 
1841	 0.458541653632122 
1842	 0.457922752841918 
1843	 0.457376861912614 
1844	 0.456894621689464 
1845	 0.456448278795777 
1846	 0.456083890684051 
1847	 0.455795864932338 
1848	 0.455547019454587 
1849	 0.455393877197695 
1850	 0.455353662347581 
1851	 0.455449063138403 
1852	 0.455550985492527 
1853	 0.455693461672264 
1854	 0.455910740352535 
1855	 0.456115840629671 
1856	 0.456335580568774 
1857	 0.456599510102916 
1858	 0.456864284633421 
1859	 0.457069155612298 
1860	 0.457278685148535 
1861	 0.457474173535544 
1862	 0.457673376683363 
1863	 0.457879910584701 
1864	 0.458116451562433 
1865	 0.458374587441922 
1866	 0.458673021383543 
1867	 0.458974697057199 
1868	 0.459280676236842 
1869	 0.459587950356976 
1870	 0.459902702979948 
1871	 0.460195302902399 
1872	 0.460486835755774 
1873	 0.460744302430577 
1874	 0.460972625887494 
1875	 0.461124338672699 
1876	 0.461192201988497 
1877	 0.461198038124837 
1878	 0.461119635990686 
1879	 0.460960295979774 
1880	 0.460724401306608 
1881	 0.460386743821635 
1882	 0.460016899248312 
1883	 0.459594838565067 
1884	 0.459085112535928 
1885	 0.458541505846171 
1886	 0.457953656568782 
1887	 0.457259327907394 
1888	 0.456545104245737 
1889	 0.455759754387744 
1890	 0.454903809002411 
1891	 0.45400948113549 
1892	 0.453052816111532 
1893	 0.452057101239955 
1894	 0.451018090070335 
1895	 0.449932438796863 
1896	 0.448804317885064 
1897	 0.44764298627803 
1898	 0.44642372170912 
1899	 0.445205047600269 
1900	 0.443977263681491 
1901	 0.442771225248821 
1902	 0.441605535679247 
1903	 0.440485221087161 
1904	 0.439363159087338 
1905	 0.438259724164549 
1906	 0.437201033118483 
1907	 0.436128469570318 
1908	 0.435047101832053 
1909	 0.433977585652412 
1910	 0.432870827844191 
1911	 0.431771873113284 
1912	 0.430693096261097 
1913	 0.429621839896658 
1914	 0.428556256321323 
1915	 0.427508828442175 
1916	 0.426451270100488 
1917	 0.425444688997518 
1918	 0.424498517185832 
1919	 0.423576212096553 
1920	 0.422699692260521 
1921	 0.421833822909436 
1922	 0.420981843298678 
1923	 0.420180643127208 
1924	 0.419422787912932 
1925	 0.418711843071075 
1926	 0.418048942200339 
1927	 0.417433815834253 
1928	 0.416841066778302 
1929	 0.416309386163834 
1930	 0.41583183553828 
1931	 0.415383652098688 
1932	 0.414972486021055 
1933	 0.41462091238525 
1934	 0.414352574947254 
1935	 0.414148696159509 
1936	 0.41404296425057 
1937	 0.413954457647121 
1938	 0.413939434593024 
1939	 0.413920985486718 
1940	 0.413918559230389 
1941	 0.413950950314157 
1942	 0.414024350561569 
1943	 0.414129745585929 
1944	 0.414250919408353 
1945	 0.41438607551556 
1946	 0.414531949105925 
1947	 0.414699187256392 
1948	 0.414849777113379 
1949	 0.415030546561295 
1950	 0.415168145105786 
1951	 0.415279620058527 
1952	 0.415364992632805 
1953	 0.415474913702975 
1954	 0.415583369223327 
1955	 0.415695364820412 
1956	 0.415807132182563 
1957	 0.415912002174135 
1958	 0.415997916480467 
1959	 0.416100710802599 
1960	 0.416206800819274 
1961	 0.416319942057914 
1962	 0.416443361415734 
1963	 0.416561621276342 
1964	 0.41668020206529 
1965	 0.416811307248703 
1966	 0.416926216498163 
1967	 0.417018006689428 
1968	 0.417141619354656 
1969	 0.417266610850725 
1970	 0.417405661962448 
1971	 0.417582490897633 
1972	 0.417732187909356 
1973	 0.417867245080109 
1974	 0.418015504667146 
1975	 0.418155510356843 
1976	 0.418308360002141 
1977	 0.418498695641027 
1978	 0.41866565542091 
1979	 0.418816636919686 
1980	 0.418988991715487 
1981	 0.41914854185592 
1982	 0.419294041558271 
1983	 0.419441629249883 
1984	 0.419586998352245 
1985	 0.419735500598273 
1986	 0.41987333702726 
1987	 0.420023144875437 
1988	 0.420179515108025 
1989	 0.420353313091425 
1990	 0.420519455290486 
1991	 0.420689727854002 
1992	 0.420868906057975 
1993	 0.421065638890857 
1994	 0.421246990215289 
1995	 0.42142517555182 
1996	 0.421602792114187 
1997	 0.421767716597309 
1998	 0.421949543288609 
1999	 0.422138694087214 
2000	 0.422333777659502 
2001	 0.422544926804891 
2002	 0.422745211978208 
2003	 0.422950538099726 
2004	 0.423159260290562 
2005	 0.423376890091144 
2006	 0.423604797303006 
2007	 0.423828265226948 
2008	 0.424057889530723 
2009	 0.424285029635506 
2010	 0.424500932969549 
2011	 0.424735419114666 
2012	 0.424985539143963 
2013	 0.425228343917403 
2014	 0.425492516400469 
2015	 0.425722804521143 
2016	 0.425945678458953 
2017	 0.426194251508629 
2018	 0.426459840337273 
2019	 0.426757406903959 
2020	 0.427024739271775 
2021	 0.427311437382394 
2022	 0.42756561657222 
2023	 0.42779055016652 
2024	 0.428010796636428 
2025	 0.428222995236618 
2026	 0.428420616359497 
2027	 0.428596265988097 
2028	 0.428769628180514 
2029	 0.428944145092276 
2030	 0.429111643275215 
2031	 0.429284680953588 
2032	 0.429457051470707 
2033	 0.429632640816075 
2034	 0.42980291904754 
2035	 0.429990494271914 
2036	 0.430202121844731 
2037	 0.430389454453417 
2038	 0.430593513256943 
2039	 0.430760386357177 
2040	 0.430900635077763 
2041	 0.431023013461187 
2042	 0.431121624899556 
2043	 0.431238553918901 
2044	 0.431344658759284 
2045	 0.431445004145635 
2046	 0.431544635912875 
2047	 0.43164394724842 
2048	 0.431733893227653 
2049	 0.431809639986316 
2050	 0.431899691427462 
2051	 0.43199132602123 
2052	 0.432082850460251 
2053	 0.432186626641215 
2054	 0.432282417348754 
2055	 0.432366074295912 
2056	 0.432462294275305 
2057	 0.432546952329547 
2058	 0.432628725638189 
2059	 0.432706429509877 
2060	 0.432771283060739 
2061	 0.432851197093313 
2062	 0.432933055481803 
2063	 0.433021375315859 
2064	 0.433129358549935 
2065	 0.433218189988716 
2066	 0.433294853898186 
2067	 0.433381192291215 
2068	 0.433472850897046 
2069	 0.43355029595146 
2070	 0.433625723078038 
2071	 0.433717702323814 
2072	 0.433769678480804 
2073	 0.433795403038276 
2074	 0.433818474820887 
2075	 0.433798648636345 
2076	 0.433830191378435 
2077	 0.433868846915372 
2078	 0.433927103326957 
2079	 0.434038769933698 
2080	 0.434115868067398 
2081	 0.434189379495484 
2082	 0.434254861854652 
2083	 0.434319343141909 
2084	 0.434360915289935 
2085	 0.434389001898276 
2086	 0.434409150452865 
2087	 0.434410282386876 
2088	 0.434369399701528 
2089	 0.434370057282649 
2090	 0.434376641452472 
2091	 0.434383308076448 
2092	 0.434400688679967 
2093	 0.434426472542474 
2094	 0.434464524397497 
2095	 0.43448670988832 
2096	 0.434526312173514 
2097	 0.434543449445877 
2098	 0.434530116327678 
2099	 0.434513898428475 
2100	 0.434514312396436 
2101	 0.434517941533853 
2102	 0.434518994369337 
2103	 0.434517787646255 
2104	 0.434540240214744 
2105	 0.434567266836143 
2106	 0.434603648055389 
2107	 0.43465552475603 
2108	 0.434722396317281 
2109	 0.43479440645868 
2110	 0.434879072285234 
2111	 0.435012217466047 
2112	 0.43510924748738 
2113	 0.435182628547589 
2114	 0.435268355242985 
2115	 0.435357017921628 
2116	 0.43543148417834 
2117	 0.435523448181795 
2118	 0.435634244806494 
2119	 0.4357393617036 
2120	 0.435851190877314 
2121	 0.435950374818857 
2122	 0.436049539999793 
2123	 0.43614369728305 
2124	 0.436238089840531 
2125	 0.436308309080705 
2126	 0.436370065982518 
2127	 0.4364224721413 
2128	 0.436459752404314 
2129	 0.436476165956331 
2130	 0.436475302344942 
2131	 0.436482354350403 
2132	 0.436447913507205 
2133	 0.436397408953091 
2134	 0.436290844757006 
2135	 0.436144199080436 
2136	 0.435980260349866 
2137	 0.435751949182275 
2138	 0.435547618447845 
2139	 0.435368854889775 
2140	 0.435123481446185 
2141	 0.434849588221119 
2142	 0.434550840655693 
2143	 0.434179195609349 
2144	 0.433833941133783 
2145	 0.43350546205504 
2146	 0.43314047789144 
2147	 0.432762302600423 
2148	 0.432371774150582 
2149	 0.431952701784226 
2150	 0.431494540167063 
2151	 0.431042981621433 
2152	 0.430573651986652 
2153	 0.430107471042973 
2154	 0.429641599645268 
2155	 0.42915449352867 
2156	 0.428662366740389 
2157	 0.428156607896041 
2158	 0.427642711821182 
2159	 0.4270979339796 
2160	 0.426551360424605 
2161	 0.425958079228935 
2162	 0.425284375490065 
2163	 0.424651301225482 
2164	 0.423998712818104 
2165	 0.423370202213826 
2166	 0.422739185955667 
2167	 0.422130822224078 
2168	 0.421515267358768 
2169	 0.420894976096797 
2170	 0.420272820554978 
2171	 0.419681616718401 
2172	 0.419034636551753 
2173	 0.418355733311889 
2174	 0.417670177130827 
2175	 0.416968144739302 
2176	 0.416238731025949 
2177	 0.41549587197642 
2178	 0.414724329917444 
2179	 0.413889175572058 
2180	 0.413083258086011 
2181	 0.412266566686248 
2182	 0.411463683736207 
2183	 0.410679263044204 
2184	 0.409907101282182 
2185	 0.409091501332016 
2186	 0.408248620004314 
2187	 0.407429127239647 
2188	 0.406585101560668 
2189	 0.405768940726126 
2190	 0.404971792712333 
2191	 0.40419043235647 
2192	 0.403400350941123 
2193	 0.402654413810582 
2194	 0.401922757009168 
2195	 0.401252239068811 
2196	 0.400642020815193 
2197	 0.400030397720697 
2198	 0.399448368668332 
2199	 0.39890539813074 
2200	 0.398368884731167 
2201	 0.397876225686022 
2202	 0.397438186009366 
2203	 0.397032674370037 
2204	 0.396660535258255 
2205	 0.396307321675352 
2206	 0.3960194400899 
2207	 0.395776408762036 
2208	 0.395591749436651 
2209	 0.395453363327848 
2210	 0.395388939639541 
2211	 0.395399702919766 
2212	 0.395438414571177 
2213	 0.395605127614525 
2214	 0.395671152360898 
2215	 0.395738502903182 
2216	 0.395778762772702 
2217	 0.395757679104442 
2218	 0.395745525559858 
2219	 0.395762462255095 
2220	 0.395721512011791 
2221	 0.395627526558553 
2222	 0.395545369402791 
2223	 0.395423048055151 
2224	 0.39527139169851 
2225	 0.395114646718667 
2226	 0.394962306359455 
2227	 0.394742353422313 
2228	 0.394497181451316 
2229	 0.394196265605685 
2230	 0.393830653138441 
2231	 0.393463996741612 
2232	 0.39307074150565 
2233	 0.392631708429851 
2234	 0.392159589426592 
2235	 0.391664583084073 
2236	 0.391132435276868 
2237	 0.390562635470625 
2238	 0.389964432035317 
2239	 0.389338871998335 
2240	 0.388675894315232 
2241	 0.387975330636603 
2242	 0.387255419838821 
2243	 0.386492502140516 
2244	 0.385695128655766 
2245	 0.384825354544913 
2246	 0.383953918986081 
2247	 0.383009708573029 
2248	 0.38203850398868 
2249	 0.381006470289163 
2250	 0.379984128315336 
2251	 0.378916088691152 
2252	 0.377893413313498 
2253	 0.376870389788006 
2254	 0.37586319988559 
2255	 0.374841388376126 
2256	 0.373899662693676 
2257	 0.372929497329666 
2258	 0.372135376977136 
2259	 0.371430773139577 
2260	 0.370851189141148 
2261	 0.370406243286462 
2262	 0.370054014669306 
2263	 0.369830978767382 
2264	 0.369682063153329 
2265	 0.36963887794208 
2266	 0.36967002025056 
2267	 0.369778503114751 
2268	 0.369986038197109 
2269	 0.37028981211195 
2270	 0.370686802676142 
2271	 0.37119967261473 
2272	 0.371742969333457 
2273	 0.372294344306489 
2274	 0.372953451891464 
2275	 0.373653751805233 
2276	 0.374403061790416 
2277	 0.37519399793728 
2278	 0.376087926628451 
2279	 0.376931072840497 
2280	 0.377774717162654 
2281	 0.378648945709349 
2282	 0.379527221954734 
2283	 0.380436787033069 
2284	 0.381423331588126 
2285	 0.382334472906171 
2286	 0.383252960654555 
2287	 0.384111425562143 
2288	 0.384914954008298 
2289	 0.385687165816881 
2290	 0.386434649335964 
2291	 0.387130687282024 
2292	 0.387754066161527 
2293	 0.388384066076664 
2294	 0.388984276885761 
2295	 0.389564272705691 
2296	 0.390129042467646 
2297	 0.390670602344592 
2298	 0.391233113964365 
2299	 0.391748898127369 
2300	 0.392272728166428 
2301	 0.392831103231288 
2302	 0.393298630929149 
2303	 0.393740578063287 
2304	 0.394220843099993 
2305	 0.39469246019745 
2306	 0.395167141747221 
2307	 0.395677752799789 
2308	 0.396154210407062 
2309	 0.396620482162474 
2310	 0.39704079561232 
2311	 0.397446147199188 
2312	 0.397814922915512 
2313	 0.398139816132181 
2314	 0.398435493844705 
2315	 0.3987002580589 
2316	 0.398948662817576 
2317	 0.399147118931951 
2318	 0.399347502643933 
2319	 0.399536137283266 
2320	 0.399715858951506 
2321	 0.399838162803044 
2322	 0.400035590856098 
2323	 0.400306935125124 
2324	 0.400513331447919 
2325	 0.400766508704757 
2326	 0.400937371570332 
2327	 0.401029530380481 
2328	 0.401078746647569 
2329	 0.401140665133626 
2330	 0.401184576906495 
2331	 0.401235964380358 
2332	 0.401282300444831 
2333	 0.401304737877585 
2334	 0.401341728994639 
2335	 0.401328424866984 
2336	 0.401300431211972 
2337	 0.401241177307392 
2338	 0.401121388436809 
2339	 0.401042054578893 
2340	 0.400900754330442 
2341	 0.400764655159939 
2342	 0.400625544969711 
2343	 0.400367529213203 
2344	 0.400148339226524 
2345	 0.399899972255297 
2346	 0.399610442546622 
2347	 0.399317719454231 
2348	 0.39899484740037 
2349	 0.398710267384017 
2350	 0.398469038674782 
2351	 0.39816937725551 
2352	 0.397904715140333 
2353	 0.397522526214884 
2354	 0.39696263381864 
2355	 0.396545112627752 
2356	 0.396117084307397 
2357	 0.395778304985405 
2358	 0.395606644304496 
2359	 0.395322746506393 
2360	 0.395059287617614 
2361	 0.394686850841275 
2362	 0.394226348651425 
2363	 0.393746451049035 
2364	 0.393155570563543 
2365	 0.392622284094547 
2366	 0.392126453478263 
2367	 0.39156491166308 
2368	 0.390968839770492 
2369	 0.390391539217112 
2370	 0.389793178385018 
2371	 0.389163598607705 
2372	 0.388574347504502 
2373	 0.388004257448799 
2374	 0.387339240188934 
2375	 0.386637639624588 
2376	 0.385934717852539 
2377	 0.385195200176215 
2378	 0.384500540488193 
2379	 0.383802029246113 
2380	 0.383066247326974 
2381	 0.38227735054263 
2382	 0.38147464913943 
2383	 0.38072157989004 
2384	 0.379931260413682 
2385	 0.379199489101894 
2386	 0.378513412619523 
2387	 0.37769887673511 
2388	 0.376944141427657 
2389	 0.376229994249929 
2390	 0.37539518035132 
2391	 0.374670770433595 
2392	 0.373979264997288 
2393	 0.373180897137065 
2394	 0.372401558760835 
2395	 0.371586116115445 
2396	 0.370733213740858 
2397	 0.369920011982929 
2398	 0.369170710633598 
2399	 0.368374240424384 
2400	 0.367587169294469 
2401	 0.366910697305502 
2402	 0.366171350850964 
2403	 0.365505605026217 
2404	 0.364909779999643 
2405	 0.36418326937812 
2406	 0.36345790225879 
2407	 0.36277110634126 
2408	 0.36206703392324 
2409	 0.361375915449525 
2410	 0.360740817732313 
2411	 0.360176691250587 
2412	 0.359516713005344 
2413	 0.358748842339556 
2414	 0.358015660363829 
2415	 0.357248266035332 
2416	 0.356599642522446 
2417	 0.356133706221587 
2418	 0.355531460670917 
2419	 0.354886427019965 
2420	 0.354310053022076 
2421	 0.353695961562594 
2422	 0.353119641660286 
2423	 0.352642510327614 
2424	 0.352158172900857 
2425	 0.351652345229899 
2426	 0.351123800961534 
2427	 0.350675196237181 
2428	 0.350115375916738 
2429	 0.349411555802887 
2430	 0.34881864715812 
2431	 0.348216823189341 
2432	 0.347694433593316 
2433	 0.347322362174097 
2434	 0.346799415409632 
2435	 0.346223124524254 
2436	 0.345674546055055 
2437	 0.345034299440395 
2438	 0.344415728292438 
2439	 0.343889061572614 
2440	 0.343294971141573 
2441	 0.342536311819181 
2442	 0.342028130033541 
2443	 0.341758624349109 
2444	 0.341225278340143 
2445	 0.340722538580166 
2446	 0.340203287467108 
2447	 0.339378951220865 
2448	 0.33872705667711 
2449	 0.338273554745006 
2450	 0.337669387145679 
2451	 0.337023759291271 
2452	 0.33646504580893 
2453	 0.335910530659053 
2454	 0.335327585741973 
2455	 0.334717199938586 
2456	 0.334130048103699 
2457	 0.333506521180763 
2458	 0.332993456808742 
2459	 0.332621656920108 
2460	 0.332180109496816 
2461	 0.331730912187887 
2462	 0.331327897057469 
2463	 0.330893418004527 
2464	 0.3305349067136 
2465	 0.330274785148799 
2466	 0.329988207024238 
2467	 0.329786364854328 
2468	 0.329381106027998 
2469	 0.328825493004428 
2470	 0.328508117407504 
2471	 0.328098720437593 
2472	 0.327964628864152 
2473	 0.327860227112598 
2474	 0.327533995120995 
2475	 0.32732116925854 
2476	 0.327160256163077 
2477	 0.326915896325775 
2478	 0.326499915098219 
2479	 0.326015395019915 
2480	 0.32559603188227 
2481	 0.325145831443642 
2482	 0.324834472395072 
2483	 0.324474437913747 
2484	 0.323871851242965 
2485	 0.323236621470008 
2486	 0.322547476288986 
2487	 0.3221522711551 
2488	 0.32194189472299 
2489	 0.32151018386037 
2490	 0.3211270150951 
2491	 0.320491928926314 
2492	 0.31966718367472 
2493	 0.31908089458639 
2494	 0.318301720474778 
2495	 0.317540888000162 
2496	 0.317204264272885 
2497	 0.316718688600495 
2498	 0.316223851321265 
2499	 0.315963173562764 
2500	 0.315369091723059 
