Wavelength	LMW7 profile 200003.asd
350	 6.70596744550808E-02 
351	 6.71360129217563E-02 
352	 6.12600529793203E-02 
353	 5.58757683219792E-02 
354	 5.71475091320865E-02 
355	 6.10441988520174E-02 
356	 6.20600959304777E-02 
357	 5.80033963194056E-02 
358	 6.05509911232474E-02 
359	 6.04191686536805E-02 
360	 0.057516283724525 
361	 5.74896092871708E-02 
362	 5.56956117218097E-02 
363	 5.76669427109545E-02 
364	 6.36331996138445E-02 
365	 6.40747232964478E-02 
366	 5.97831465194219E-02 
367	 5.63695546669588E-02 
368	 5.86642170312463E-02 
369	 6.30744945143433E-02 
370	 6.41064714437708E-02 
371	 6.20605742009157E-02 
372	 6.11790230676292E-02 
373	 6.15527331945759E-02 
374	 6.15046767505089E-02 
375	 0.061313144852726 
376	 6.54941074455731E-02 
377	 6.39039844572731E-02 
378	 6.34429751972379E-02 
379	 7.06024881521167E-02 
380	 6.74142673850076E-02 
381	 6.50106723188404E-02 
382	 6.71496298110602E-02 
383	 7.08178842349942E-02 
384	 0.071348845717022 
385	 7.04658685667285E-02 
386	 0.070471493829782 
387	 7.27797107412707E-02 
388	 7.61274167270927E-02 
389	 7.82864311542104E-02 
390	 7.79957079227797E-02 
391	 7.94515639298451E-02 
392	 0.081783053732615 
393	 8.42578242708835E-02 
394	 8.64932444075889E-02 
395	 0.088315925473512 
396	 8.99244774367208E-02 
397	 9.16956257917398E-02 
398	 9.43091174043673E-02 
399	 9.73940036197273E-02 
400	 0.100540340492405 
401	 0.103277578238528 
402	 0.10500366963397 
403	 0.106059296751306 
404	 0.10757703129509 
405	 0.111234853539493 
406	 0.113499088818318 
407	 0.116101221251102 
408	 0.119745002100233 
409	 0.11948797098519 
410	 0.120923414571233 
411	 0.123650691981542 
412	 0.124930359057659 
413	 0.127504540891608 
414	 0.129019531196153 
415	 0.12906958572115 
416	 0.130205126042188 
417	 0.131204713738779 
418	 0.131843056109934 
419	 0.132116143160454 
420	 0.131985143268812 
421	 0.131423392379834 
422	 0.131088923399769 
423	 0.131819619168368 
424	 0.131517898115609 
425	 0.13062422920654 
426	 0.12968098664983 
427	 0.128758700953913 
428	 0.127775285721805 
429	 0.126613610891676 
430	 0.125277060543848 
431	 0.124416844447787 
432	 0.12348174647989 
433	 0.122512591260965 
434	 0.122139099674168 
435	 0.122012968933722 
436	 0.12208802482293 
437	 0.122388616736168 
438	 0.12292536172548 
439	 0.124117897618071 
440	 0.125723157612459 
441	 0.127220145532353 
442	 0.128828992614308 
443	 0.130623595245286 
444	 0.132616188037035 
445	 0.134739165967511 
446	 0.136993077341067 
447	 0.139152026524482 
448	 0.141077480702613 
449	 0.143224173229007 
450	 0.145620376186576 
451	 0.14799839300677 
452	 0.149913714084853 
453	 0.152253737856166 
454	 0.15460566967248 
455	 0.156638128301864 
456	 0.158810409129946 
457	 0.16078288511081 
458	 0.162504299117912 
459	 0.164088281494895 
460	 0.165853684009152 
461	 0.167466821888183 
462	 0.16893624755639 
463	 0.17084287193732 
464	 0.172121625038024 
465	 0.173251973596257 
466	 0.174827185224394 
467	 0.176059181886222 
468	 0.177230035328414 
469	 0.178367239265911 
470	 0.179310048987216 
471	 0.180590615179948 
472	 0.181776979466909 
473	 0.182662422720979 
474	 0.183984903877615 
475	 0.185068284512593 
476	 0.185834681171345 
477	 0.186528445963857 
478	 0.187619712165361 
479	 0.188761513020759 
480	 0.189697243093908 
481	 0.190387476224097 
482	 0.191457036059313 
483	 0.192579654034219 
484	 0.193367051580953 
485	 0.194373906979979 
486	 0.195252447510395 
487	 0.195977767892148 
488	 0.196801369175028 
489	 0.197630578166674 
490	 0.198494779414693 
491	 0.199406421866125 
492	 0.200303396699658 
493	 0.201110141426565 
494	 0.201860010731996 
495	 0.202654186377707 
496	 0.203652391382221 
497	 0.204605862829727 
498	 0.205407136434542 
499	 0.206212192134302 
500	 0.207017322428365 
501	 0.207805000930925 
502	 0.208562876620913 
503	 0.209335893196425 
504	 0.210137715335736 
505	 0.210956489547339 
506	 0.21176231582541 
507	 0.212630096692251 
508	 0.213471605252654 
509	 0.214223847890886 
510	 0.214978281608301 
511	 0.215680841576992 
512	 0.216417499851221 
513	 0.217304579616922 
514	 0.218015150789714 
515	 0.218673098749653 
516	 0.219387517579849 
517	 0.220151166546751 
518	 0.220963751334641 
519	 0.221719922370853 
520	 0.22235392438777 
521	 0.223181933539308 
522	 0.223997496630666 
523	 0.224696375969394 
524	 0.225315330472558 
525	 0.226045105875678 
526	 0.22679174545092 
527	 0.227466346305739 
528	 0.228229537525105 
529	 0.228937831685608 
530	 0.229583967016565 
531	 0.230256079988351 
532	 0.231015399874887 
533	 0.231806582859985 
534	 0.23257183823627 
535	 0.233284487352192 
536	 0.233958966932859 
537	 0.23463531958236 
538	 0.235352423974229 
539	 0.236068271010191 
540	 0.236789063311712 
541	 0.237490571964905 
542	 0.238098455679803 
543	 0.238834294326978 
544	 0.239595124347741 
545	 0.240252079461613 
546	 0.240959631995602 
547	 0.241692257965591 
548	 0.242439171193543 
549	 0.243201796058797 
550	 0.243850482020755 
551	 0.244554734193812 
552	 0.245410541283499 
553	 0.246182436206355 
554	 0.246970410492682 
555	 0.247770788822109 
556	 0.248534883667864 
557	 0.249307346851481 
558	 0.250080661308869 
559	 0.250877523930171 
560	 0.251801075838889 
561	 0.25255889209737 
562	 0.253292975559133 
563	 0.25423923389866 
564	 0.255256541757461 
565	 0.256146871431781 
566	 0.256917295316122 
567	 0.257804068986034 
568	 0.258704190162167 
569	 0.259648127512308 
570	 0.260660538472354 
571	 0.261671072824559 
572	 0.262611634431655 
573	 0.263496320708584 
574	 0.264400313505637 
575	 0.265375220958545 
576	 0.266426093709433 
577	 0.267517860074823 
578	 0.268558528667057 
579	 0.269548307382563 
580	 0.270447882152382 
581	 0.271248085588204 
582	 0.272222046976519 
583	 0.273202077045645 
584	 0.274119510777901 
585	 0.275101544381988 
586	 0.276307208777178 
587	 0.277584285841516 
588	 0.27874037349788 
589	 0.27988017440116 
590	 0.281021029289442 
591	 0.282184843515395 
592	 0.283394229043649 
593	 0.284519331318446 
594	 0.285535494282529 
595	 0.286456290354916 
596	 0.287335258283094 
597	 0.288111798993121 
598	 0.288837473263209 
599	 0.289618448024598 
600	 0.29040753110567 
601	 0.291289825450538 
602	 0.29226305945255 
603	 0.293154578623683 
604	 0.293974483403273 
605	 0.294814373636873 
606	 0.295767518315166 
607	 0.296741406005041 
608	 0.297631759708232 
609	 0.298446262685888 
610	 0.299318576678509 
611	 0.300121460899135 
612	 0.300861668905892 
613	 0.301560575481868 
614	 0.302184084529513 
615	 0.302755826153555 
616	 0.303324005072198 
617	 0.303937694921181 
618	 0.304470690873589 
619	 0.304963868948401 
620	 0.30546007162513 
621	 0.305942726502537 
622	 0.306465427219553 
623	 0.306942908069761 
624	 0.307289738397232 
625	 0.307829320238788 
626	 0.3083152966489 
627	 0.3086580994259 
628	 0.309032784267341 
629	 0.309450672985104 
630	 0.309844524254664 
631	 0.310168804863936 
632	 0.310573410355975 
633	 0.310916713306943 
634	 0.311248279519481 
635	 0.311750675223932 
636	 0.312028609155579 
637	 0.312304443835912 
638	 0.312731302729116 
639	 0.313020048831952 
640	 0.313320116556619 
641	 0.313668395066599 
642	 0.314042992932675 
643	 0.314369521403828 
644	 0.314710952395309 
645	 0.315086091158056 
646	 0.3154312925865 
647	 0.315721180714079 
648	 0.316031442495951 
649	 0.316429346560392 
650	 0.316809768852754 
651	 0.317193268916828 
652	 0.317580476257636 
653	 0.317955024827922 
654	 0.318367819841897 
655	 0.318710628646278 
656	 0.318955519127579 
657	 0.319336681297106 
658	 0.319790301405855 
659	 0.320241459891068 
660	 0.320624455158567 
661	 0.321049413948251 
662	 0.321501731634456 
663	 0.321942182671308 
664	 0.322311578114904 
665	 0.322732066927466 
666	 0.323217288931603 
667	 0.323705887396085 
668	 0.323954509310463 
669	 0.324354970793888 
670	 0.324935926834845 
671	 0.325416209557699 
672	 0.325889150900706 
673	 0.326386957826886 
674	 0.326889737935124 
675	 0.327256043924768 
676	 0.327708377348995 
677	 0.328209902307715 
678	 0.328638141738941 
679	 0.329145329409269 
680	 0.32966758582487 
681	 0.330165812333615 
682	 0.330658578471541 
683	 0.331154358224421 
684	 0.33163860535933 
685	 0.332110143833616 
686	 0.332646967017598 
687	 0.333118954936768 
688	 0.333577714143296 
689	 0.334179728588842 
690	 0.334663222864407 
691	 0.335137697560004 
692	 0.335680648029155 
693	 0.336203317925258 
694	 0.3366510432038 
695	 0.337115176855962 
696	 0.337693001586458 
697	 0.338173822039192 
698	 0.338661731372719 
699	 0.339196609686751 
700	 0.339729162628911 
701	 0.340189810418288 
702	 0.340612088951247 
703	 0.341044746074419 
704	 0.341513480260223 
705	 0.341933044636313 
706	 0.342333271408441 
707	 0.34279299073951 
708	 0.343251221845681 
709	 0.343684105848216 
710	 0.344082719110605 
711	 0.344452965645778 
712	 0.344843319616331 
713	 0.345229547092223 
714	 0.345575045120122 
715	 0.345873094604315 
716	 0.346222092616616 
717	 0.346604930175438 
718	 0.346921122079424 
719	 0.347182913565455 
720	 0.347400549119032 
721	 0.347593037434305 
722	 0.347784089340202 
723	 0.348086015209589 
724	 0.348381270795181 
725	 0.348523263542136 
726	 0.348658379946726 
727	 0.348809209062825 
728	 0.348940362669794 
729	 0.348976985757728 
730	 0.349057900654335 
731	 0.34913268645858 
732	 0.349155695321141 
733	 0.349185899623 
734	 0.349132847414666 
735	 0.349029508915294 
736	 0.348951272402058 
737	 0.348887255015343 
738	 0.348771251323249 
739	 0.348601691394889 
740	 0.34844968269275 
741	 0.348257542172661 
742	 0.348059982310336 
743	 0.347868586321951 
744	 0.347573913369269 
745	 0.347297891448367 
746	 0.347035235914813 
747	 0.346727313963567 
748	 0.346407140634596 
749	 0.346099864029989 
750	 0.345761658980393 
751	 0.345272526515176 
752	 0.344813374595744 
753	 0.344385396681292 
754	 0.343955799875156 
755	 0.343528393903341 
756	 0.343090886490716 
757	 0.342639938789882 
758	 0.342167474563479 
759	 0.341598866627802 
760	 0.340927067208109 
761	 0.340252188038822 
762	 0.339787138622917 
763	 0.339290972458373 
764	 0.338680985531123 
765	 0.337988545988849 
766	 0.337461936419327 
767	 0.336833319861798 
768	 0.336096316087179 
769	 0.335386641780458 
770	 0.33479435917733 
771	 0.334230111016996 
772	 0.333612683549258 
773	 0.332899363166807 
774	 0.332265875740872 
775	 0.331640391876502 
776	 0.330943649459777 
777	 0.330232076982422 
778	 0.329561623478766 
779	 0.328914309569061 
780	 0.328236271242522 
781	 0.327506058340908 
782	 0.32680598666941 
783	 0.32614087505333 
784	 0.32543204892175 
785	 0.324773453430386 
786	 0.324149987887739 
787	 0.323508587526576 
788	 0.322742998977983 
789	 0.322048491707333 
790	 0.321409764108655 
791	 0.320740126564775 
792	 0.320048443981938 
793	 0.319405507532649 
794	 0.318773456367915 
795	 0.318035679951196 
796	 0.317342160760915 
797	 0.316688057907503 
798	 0.316041485961085 
799	 0.315366910342145 
800	 0.314727275608479 
801	 0.314136834582162 
802	 0.313557713585657 
803	 0.312807418618004 
804	 0.31218770388539 
805	 0.311677222658209 
806	 0.311065231452271 
807	 0.310478381509384 
808	 0.309828287298224 
809	 0.309126510096819 
810	 0.308532026279775 
811	 0.307979523517839 
812	 0.307458472089663 
813	 0.306943934205329 
814	 0.306347721978213 
815	 0.305725996479507 
816	 0.305143766403362 
817	 0.304640400336454 
818	 0.304102632014374 
819	 0.303549313138162 
820	 0.303016007169589 
821	 0.302534830312886 
822	 0.301997302896676 
823	 0.301483111816131 
824	 0.301018708019378 
825	 0.300497243518748 
826	 0.300040397221098 
827	 0.299631068543496 
828	 0.299209352683635 
829	 0.298714123562526 
830	 0.298158691209297 
831	 0.297612555922938 
832	 0.297159872623938 
833	 0.29680038961388 
834	 0.296411996217365 
835	 0.295959116166746 
836	 0.295505992987627 
837	 0.295168025705079 
838	 0.294875050986275 
839	 0.294537346819213 
840	 0.29409369886197 
841	 0.293612929801617 
842	 0.293157125798291 
843	 0.292776673255754 
844	 0.292507520421657 
845	 0.292182580194976 
846	 0.291847198383406 
847	 0.291602944872392 
848	 0.291239037410427 
849	 0.290857871760164 
850	 0.290516442607381 
851	 0.290205524326634 
852	 0.289825146411706 
853	 0.289518144979589 
854	 0.289316268845119 
855	 0.289046286080108 
856	 0.288866553162961 
857	 0.288647170347973 
858	 0.288309170884897 
859	 0.288068640151918 
860	 0.287829909158903 
861	 0.287580594556008 
862	 0.287343180835571 
863	 0.287170408398082 
864	 0.286978238050059 
865	 0.286777455267449 
866	 0.286624062212735 
867	 0.286424359217488 
868	 0.286267734424139 
869	 0.286146985870685 
870	 0.285945244459003 
871	 0.285624783557493 
872	 0.285392869648961 
873	 0.285359962939079 
874	 0.285416483005521 
875	 0.285286184758472 
876	 0.285084124506316 
877	 0.284953211363011 
878	 0.284803772903601 
879	 0.284794374191153 
880	 0.284768440923607 
881	 0.284574032862571 
882	 0.284564270986797 
883	 0.284501806599189 
884	 0.284347117739691 
885	 0.284200858010757 
886	 0.284210479337179 
887	 0.284263604412142 
888	 0.284261921332258 
889	 0.284161781537507 
890	 0.284098224909948 
891	 0.28408299587949 
892	 0.284113594715198 
893	 0.284186021778696 
894	 0.284183141931173 
895	 0.284172175383745 
896	 0.284217844232612 
897	 0.284309997393639 
898	 0.284346316925405 
899	 0.284353800995032 
900	 0.28438433250946 
901	 0.284451251924981 
902	 0.2845274242807 
903	 0.284651513765503 
904	 0.284827598161256 
905	 0.284848363971318 
906	 0.284926973094128 
907	 0.285028011369051 
908	 0.285050538736033 
909	 0.285229080133121 
910	 0.285427965031952 
911	 0.285608880457173 
912	 0.285800749026211 
913	 0.285935895657844 
914	 0.286041408834357 
915	 0.286175463943476 
916	 0.286391309483193 
917	 0.286506622097226 
918	 0.286728944094453 
919	 0.287086990935005 
920	 0.287356356369385 
921	 0.287561260200197 
922	 0.287708353498735 
923	 0.287844634506686 
924	 0.288065274418513 
925	 0.288383598784561 
926	 0.288757595823164 
927	 0.289085912792528 
928	 0.289195887370862 
929	 0.289546794561332 
930	 0.289939578646724 
931	 0.290180632353942 
932	 0.290505697166982 
933	 0.290753944328088 
934	 0.290996555494337 
935	 0.291320540592281 
936	 0.291658494490859 
937	 0.292044040771621 
938	 0.292367633417813 
939	 0.292593812613048 
940	 0.293092454499189 
941	 0.29352355358368 
942	 0.293926940330683 
943	 0.29441395136574 
944	 0.294726914668864 
945	 0.295070070561009 
946	 0.295531650628546 
947	 0.296079860279225 
948	 0.296477877864524 
949	 0.296865825225293 
950	 0.2972596262159 
951	 0.297635975916899 
952	 0.29812661426278 
953	 0.298751206306258 
954	 0.299323535991957 
955	 0.299664661448728 
956	 0.300237217461439 
957	 0.300755662325085 
958	 0.301217499850097 
959	 0.301778988936761 
960	 0.302292747967444 
961	 0.302775176038366 
962	 0.303285120083133 
963	 0.303866188201235 
964	 0.304358132411974 
965	 0.304870497351336 
966	 0.305469548578853 
967	 0.306144889613827 
968	 0.306720883767106 
969	 0.307328086027078 
970	 0.307906318137276 
971	 0.308332960282182 
972	 0.309010492222938 
973	 0.309649370283411 
974	 0.310271055997547 
975	 0.311070612632818 
976	 0.311761580412636 
977	 0.312386547710508 
978	 0.313062296117873 
979	 0.313843496380114 
980	 0.314266612718236 
981	 0.314748930084366 
982	 0.315443751741032 
983	 0.316243859410413 
984	 0.316889601977711 
985	 0.317517794805661 
986	 0.318171431200495 
987	 0.318814814379534 
988	 0.319396258153788 
989	 0.319973407868422 
990	 0.320663325053396 
991	 0.321524404424436 
992	 0.322291956423925 
993	 0.322939374394942 
994	 0.323642915234669 
995	 0.324500547232175 
996	 0.324935297336735 
997	 0.325538155589362 
998	 0.326276183923356 
999	 0.326959878846287 
1000	 0.327855234358823 
1001	 0.331332000198058 
1002	 0.331956267808689 
1003	 0.332618034580803 
1004	 0.333283017494029 
1005	 0.33396598050983 
1006	 0.334651172674144 
1007	 0.335355991305939 
1008	 0.336016635297988 
1009	 0.336679283660325 
1010	 0.337326760958335 
1011	 0.337968257797245 
1012	 0.338637860813235 
1013	 0.33931060295063 
1014	 0.339974285354234 
1015	 0.340643647520867 
1016	 0.341302801121805 
1017	 0.341941892094917 
1018	 0.342554447604979 
1019	 0.343215523368666 
1020	 0.343867194398733 
1021	 0.34447855584151 
1022	 0.345144226086254 
1023	 0.345753843667712 
1024	 0.346270738360599 
1025	 0.346810645713213 
1026	 0.347393224110724 
1027	 0.347996917932574 
1028	 0.348680144937457 
1029	 0.349364814809436 
1030	 0.349980852504552 
1031	 0.350579705717459 
1032	 0.351140447167738 
1033	 0.351684680017948 
1034	 0.35225907877146 
1035	 0.352798431579593 
1036	 0.353347225364165 
1037	 0.353885394129103 
1038	 0.354356679869951 
1039	 0.354878234184603 
1040	 0.35537977715816 
1041	 0.35590520768823 
1042	 0.3565227381809 
1043	 0.357093840155469 
1044	 0.357631459558933 
1045	 0.358162906946648 
1046	 0.358690103994144 
1047	 0.359191857864981 
1048	 0.359721044089398 
1049	 0.360309719528954 
1050	 0.360871412564314 
1051	 0.361399978470486 
1052	 0.36196334938213 
1053	 0.362548916790309 
1054	 0.363114319677432 
1055	 0.363633189080922 
1056	 0.364160482709035 
1057	 0.364690879152961 
1058	 0.365187844399256 
1059	 0.365732103528921 
1060	 0.3663270505064 
1061	 0.366858472493401 
1062	 0.367427941735931 
1063	 0.368001655930584 
1064	 0.368512312400481 
1065	 0.369098116222649 
1066	 0.369677225637624 
1067	 0.37020199707283 
1068	 0.370834949209654 
1069	 0.371430036254512 
1070	 0.371982669982509 
1071	 0.37250240786518 
1072	 0.373061259588378 
1073	 0.373592419523663 
1074	 0.37413243949159 
1075	 0.374707194424403 
1076	 0.375238525760875 
1077	 0.375756965855795 
1078	 0.376267940556507 
1079	 0.376822093311608 
1080	 0.377383284202546 
1081	 0.377891953046549 
1082	 0.3784072509353 
1083	 0.378887810902529 
1084	 0.379307093700635 
1085	 0.37976714079783 
1086	 0.380214534986377 
1087	 0.380684751267679 
1088	 0.381172774271422 
1089	 0.381660893460146 
1090	 0.38216271354607 
1091	 0.38266557181355 
1092	 0.383101278181541 
1093	 0.383530475549074 
1094	 0.383977301467335 
1095	 0.384404442062334 
1096	 0.384832284708429 
1097	 0.385279976922678 
1098	 0.385726100740033 
1099	 0.386168398980501 
1100	 0.386598031345175 
1101	 0.3870286420879 
1102	 0.387460276816588 
1103	 0.387892499890493 
1104	 0.388290116390102 
1105	 0.38869488205182 
1106	 0.389136032593244 
1107	 0.38953610123514 
1108	 0.389943324703994 
1109	 0.390352346210857 
1110	 0.390734890087832 
1111	 0.391146927979058 
1112	 0.391572457319544 
1113	 0.391982899364497 
1114	 0.392415317052562 
1115	 0.392822553319385 
1116	 0.393185789796591 
1117	 0.393578531679722 
1118	 0.393967012296835 
1119	 0.394391143407514 
1120	 0.394809413752094 
1121	 0.395234344653442 
1122	 0.395654870993091 
1123	 0.396036749702664 
1124	 0.396430193190491 
1125	 0.396807733713812 
1126	 0.39722235975623 
1127	 0.397651171746449 
1128	 0.398071206161169 
1129	 0.398519604885631 
1130	 0.398935014715065 
1131	 0.399329920739159 
1132	 0.39972567920753 
1133	 0.400112350490508 
1134	 0.400495829320124 
1135	 0.400871071836356 
1136	 0.401246557520865 
1137	 0.401623018436612 
1138	 0.401990307467171 
1139	 0.402360967784021 
1140	 0.402724809749133 
1141	 0.40310126026281 
1142	 0.403495278963979 
1143	 0.403867931457921 
1144	 0.404224674100162 
1145	 0.40460369165975 
1146	 0.404979531794138 
1147	 0.4053535206236 
1148	 0.405754105380497 
1149	 0.406141540548869 
1150	 0.406522307401455 
1151	 0.406888478542386 
1152	 0.407260220068549 
1153	 0.407602068906053 
1154	 0.407963457377507 
1155	 0.408321292513036 
1156	 0.408679260374769 
1157	 0.40905369379489 
1158	 0.409405099186478 
1159	 0.409739047842893 
1160	 0.410079702396405 
1161	 0.410403025066208 
1162	 0.410749133634306 
1163	 0.411113964367858 
1164	 0.41146304767734 
1165	 0.411800573159788 
1166	 0.412170021704291 
1167	 0.412534612149838 
1168	 0.412902273710703 
1169	 0.4132550927572 
1170	 0.413620254386745 
1171	 0.413966335589984 
1172	 0.414282564568368 
1173	 0.41461613874199 
1174	 0.414966485926102 
1175	 0.415295206394132 
1176	 0.415597527800535 
1177	 0.415931167009432 
1178	 0.416273511405566 
1179	 0.416612511995095 
1180	 0.416978074690053 
1181	 0.417324472268435 
1182	 0.417640536052004 
1183	 0.417977264377605 
1184	 0.418330097453873 
1185	 0.418694371415895 
1186	 0.419053681599569 
1187	 0.419434267414528 
1188	 0.419794369290669 
1189	 0.42014155012697 
1190	 0.420490037873723 
1191	 0.420845667662679 
1192	 0.421182896403745 
1193	 0.421509500003065 
1194	 0.421829332433803 
1195	 0.422136530766511 
1196	 0.422441106380816 
1197	 0.422729773372067 
1198	 0.423030113497001 
1199	 0.423333076814252 
1200	 0.423638440939358 
1201	 0.423937013182607 
1202	 0.424239630916955 
1203	 0.424539866929998 
1204	 0.424830705792114 
1205	 0.425129099020302 
1206	 0.425437296023955 
1207	 0.425736428682275 
1208	 0.426030762408025 
1209	 0.426326561336899 
1210	 0.426622500059889 
1211	 0.426915453472658 
1212	 0.427215196074634 
1213	 0.427500690836607 
1214	 0.427788439988154 
1215	 0.428055063446787 
1216	 0.428307032460441 
1217	 0.428530957657294 
1218	 0.428787617100956 
1219	 0.429040676593769 
1220	 0.429301017412865 
1221	 0.429586218061998 
1222	 0.429854054717947 
1223	 0.430118085221037 
1224	 0.430369909533952 
1225	 0.430608053380811 
1226	 0.430860311883083 
1227	 0.431119179338231 
1228	 0.431358849060229 
1229	 0.431600331450222 
1230	 0.431837703141946 
1231	 0.432046370759751 
1232	 0.432267570961949 
1233	 0.432494463449998 
1234	 0.432736287027844 
1235	 0.432963780792113 
1236	 0.433186954198144 
1237	 0.433412960942032 
1238	 0.433636810898192 
1239	 0.43386223114168 
1240	 0.434101623091691 
1241	 0.4343156093013 
1242	 0.434511240386593 
1243	 0.434717279268783 
1244	 0.434907133683513 
1245	 0.435109923374691 
1246	 0.435331311968938 
1247	 0.435545367023066 
1248	 0.435758292479825 
1249	 0.435969124773315 
1250	 0.436191412404541 
1251	 0.436393308126048 
1252	 0.436610038795817 
1253	 0.436842141551137 
1254	 0.437041878266225 
1255	 0.437228552563294 
1256	 0.43741924283158 
1257	 0.437584070070069 
1258	 0.43777241022983 
1259	 0.437990043360312 
1260	 0.438180501160299 
1261	 0.43837027710151 
1262	 0.438540618989747 
1263	 0.438668309068454 
1264	 0.438829961187448 
1265	 0.439022616491857 
1266	 0.43917947696435 
1267	 0.439333487230636 
1268	 0.439487871099048 
1269	 0.439617510241681 
1270	 0.439694434580841 
1271	 0.439819777603371 
1272	 0.43995901232285 
1273	 0.440099813033929 
1274	 0.440249810723121 
1275	 0.440405792705644 
1276	 0.440570298223832 
1277	 0.440733497937904 
1278	 0.440899108491449 
1279	 0.441071799779678 
1280	 0.44123722623239 
1281	 0.441424752668798 
1282	 0.441631498596865 
1283	 0.441841024905436 
1284	 0.442067377958655 
1285	 0.442292598827954 
1286	 0.442509271108034 
1287	 0.442740262666053 
1288	 0.442969682187152 
1289	 0.443197747739242 
1290	 0.443431104186766 
1291	 0.443672098892312 
1292	 0.443911621545624 
1293	 0.444159574011661 
1294	 0.444391024431557 
1295	 0.444618068601931 
1296	 0.444837765139016 
1297	 0.445033000072766 
1298	 0.445252673004298 
1299	 0.445484803115623 
1300	 0.445712764139514 
1301	 0.445949952889121 
1302	 0.446177254789523 
1303	 0.446414152481109 
1304	 0.446624742402102 
1305	 0.446797577521618 
1306	 0.446975754707549 
1307	 0.447122003123096 
1308	 0.447230492212106 
1309	 0.447351741756401 
1310	 0.447468146649919 
1311	 0.44758733292128 
1312	 0.447694002322055 
1313	 0.447814393259837 
1314	 0.447959593115831 
1315	 0.448062932909901 
1316	 0.448147823428483 
1317	 0.448240962744473 
1318	 0.448310759053379 
1319	 0.448387904304404 
1320	 0.44848214602704 
1321	 0.448560740561578 
1322	 0.448634141658157 
1323	 0.448689830162306 
1324	 0.448749206090387 
1325	 0.448797215543088 
1326	 0.448816592255203 
1327	 0.44884786667847 
1328	 0.448853927844532 
1329	 0.448844213522271 
1330	 0.448860278991171 
1331	 0.448875994052897 
1332	 0.448906122915035 
1333	 0.44897099862688 
1334	 0.449001479733556 
1335	 0.449020551711213 
1336	 0.449044091360554 
1337	 0.449050937540399 
1338	 0.449067057381628 
1339	 0.449091449917147 
1340	 0.449110259959507 
1341	 0.449133729190326 
1342	 0.449148622775335 
1343	 0.449157525292466 
1344	 0.44917568015794 
1345	 0.449170958411226 
1346	 0.449135127974776 
1347	 0.449100750222919 
1348	 0.449070730197438 
1349	 0.449024174873007 
1350	 0.448952319741189 
1351	 0.448865472176534 
1352	 0.448729760598976 
1353	 0.448646820898578 
1354	 0.448579405892816 
1355	 0.448501904795785 
1356	 0.448444002576915 
1357	 0.448379187867157 
1358	 0.44828498936676 
1359	 0.448228400667702 
1360	 0.448188393502164 
1361	 0.448165767238021 
1362	 0.448165033669653 
1363	 0.448165834699873 
1364	 0.448192238415374 
1365	 0.448207701572051 
1366	 0.448214485838183 
1367	 0.448239730545409 
1368	 0.448262831499877 
1369	 0.448269455879699 
1370	 0.448294217299337 
1371	 0.448276025550633 
1372	 0.44820663286773 
1373	 0.448141463855133 
1374	 0.448052318611105 
1375	 0.447923596609601 
1376	 0.447801416262273 
1377	 0.447694805122808 
1378	 0.447529307143539 
1379	 0.447310176353584 
1380	 0.447124157784341 
1381	 0.446902568167949 
1382	 0.446716946061044 
1383	 0.446576546499674 
1384	 0.446407575561782 
1385	 0.44625604186554 
1386	 0.446066243973924 
1387	 0.445877716239629 
1388	 0.445633770130398 
1389	 0.4453526736634 
1390	 0.445034529740025 
1391	 0.444687504340888 
1392	 0.444289972296909 
1393	 0.443841422052722 
1394	 0.44339023380831 
1395	 0.44288571078058 
1396	 0.442384459611547 
1397	 0.441913902424492 
1398	 0.441449578863683 
1399	 0.440996159168282 
1400	 0.440573962977934 
1401	 0.440130514683909 
1402	 0.439685874627505 
1403	 0.439242365066605 
1404	 0.438773353865868 
1405	 0.438352703668941 
1406	 0.437942314341616 
1407	 0.437563179497905 
1408	 0.437206067034619 
1409	 0.436888611462963 
1410	 0.436560977988736 
1411	 0.43633465768065 
1412	 0.436144567011691 
1413	 0.436062470594787 
1414	 0.436102455125357 
1415	 0.43621598049704 
1416	 0.436418932594638 
1417	 0.436684387001183 
1418	 0.436954623577007 
1419	 0.437217058269117 
1420	 0.437498424828632 
1421	 0.43773313392657 
1422	 0.437904583437529 
1423	 0.438061900502921 
1424	 0.438157137447718 
1425	 0.438186598909669 
1426	 0.438193385097022 
1427	 0.438151397422262 
1428	 0.43810572973532 
1429	 0.438020739447728 
1430	 0.437935203026428 
1431	 0.4378536725873 
1432	 0.437733646818075 
1433	 0.437570806571538 
1434	 0.437429307830678 
1435	 0.43725836470123 
1436	 0.43711853701967 
1437	 0.437014728332059 
1438	 0.43688813325735 
1439	 0.436764085654398 
1440	 0.436635839716985 
1441	 0.436484255166055 
1442	 0.436311976514913 
1443	 0.436126512429068 
1444	 0.435936583002715 
1445	 0.435745917101049 
1446	 0.435545655980196 
1447	 0.435328906975533 
1448	 0.435090089196296 
1449	 0.434824830191065 
1450	 0.434522811934958 
1451	 0.434203735074656 
1452	 0.433850659668054 
1453	 0.433506673362414 
1454	 0.433156546194585 
1455	 0.432779841640828 
1456	 0.432400493904116 
1457	 0.431986384449482 
1458	 0.431526209830953 
1459	 0.431075032119278 
1460	 0.430590958936137 
1461	 0.430143555392927 
1462	 0.429694411152347 
1463	 0.429278655043245 
1464	 0.428878143733863 
1465	 0.428512819195415 
1466	 0.428180992936733 
1467	 0.427864477837722 
1468	 0.427567657988601 
1469	 0.427309730243402 
1470	 0.427075771465136 
1471	 0.42685783931931 
1472	 0.426697200822493 
1473	 0.426618764094268 
1474	 0.426590472452171 
1475	 0.426623213686341 
1476	 0.426744954453871 
1477	 0.426898691830233 
1478	 0.427112569581115 
1479	 0.427375990014279 
1480	 0.427655800951784 
1481	 0.427969761542083 
1482	 0.428265654994842 
1483	 0.428568576040608 
1484	 0.428882738045426 
1485	 0.429195574029767 
1486	 0.429514071119997 
1487	 0.42986606754269 
1488	 0.430172026923349 
1489	 0.430477911574473 
1490	 0.430729442440712 
1491	 0.430946978997757 
1492	 0.431140330632685 
1493	 0.431277683094625 
1494	 0.431428133243432 
1495	 0.431566800410525 
1496	 0.43169307138499 
1497	 0.431812435707097 
1498	 0.431920299079758 
1499	 0.432011407289038 
1500	 0.432094608050145 
1501	 0.432163454432349 
1502	 0.432235635677685 
1503	 0.432302515596497 
1504	 0.432365971863222 
1505	 0.432422770597158 
1506	 0.43247560697062 
1507	 0.432507064352079 
1508	 0.43253711152002 
1509	 0.432579861951792 
1510	 0.432610512371158 
1511	 0.432652890041308 
1512	 0.432694406954608 
1513	 0.432747424933969 
1514	 0.432810288529917 
1515	 0.432869519075847 
1516	 0.432939474390142 
1517	 0.432976052972279 
1518	 0.432988055063299 
1519	 0.433009857393116 
1520	 0.433005188858867 
1521	 0.433034523746797 
1522	 0.433085088767587 
1523	 0.433130389521648 
1524	 0.433186333213065 
1525	 0.433240206242426 
1526	 0.433300080768541 
1527	 0.433343337768879 
1528	 0.433387082583304 
1529	 0.433422599738513 
1530	 0.433423157984575 
1531	 0.433463698279629 
1532	 0.433524930162687 
1533	 0.433576267947372 
1534	 0.433659578124325 
1535	 0.433711982011867 
1536	 0.433738054614536 
1537	 0.433772340521148 
1538	 0.433795578349266 
1539	 0.433819570856431 
1540	 0.433833040569964 
1541	 0.433868548652004 
1542	 0.433922392765764 
1543	 0.433965581416216 
1544	 0.434031688856144 
1545	 0.434075873350375 
1546	 0.434089417634763 
1547	 0.434107977539152 
1548	 0.434170159452189 
1549	 0.434219314544897 
1550	 0.434287233747106 
1551	 0.434370380245849 
1552	 0.434429962376884 
1553	 0.434474927791768 
1554	 0.434541853774813 
1555	 0.434604891735495 
1556	 0.434648312359298 
1557	 0.434715215401564 
1558	 0.434788290318487 
1559	 0.434853106682468 
1560	 0.434900019853554 
1561	 0.43494356628119 
1562	 0.434983200559607 
1563	 0.434990974743717 
1564	 0.435035728735683 
1565	 0.435101786089513 
1566	 0.435168210573635 
1567	 0.435251513981137 
1568	 0.435314088914941 
1569	 0.435380198582103 
1570	 0.435425982988701 
1571	 0.435447357380363 
1572	 0.435485286213682 
1573	 0.435523125369691 
1574	 0.435559488786966 
1575	 0.435593110248889 
1576	 0.435633123785457 
1577	 0.435689902424371 
1578	 0.43570979772718 
1579	 0.435713494252574 
1580	 0.4357289104722 
1581	 0.435721455747557 
1582	 0.435723462038676 
1583	 0.435739211443963 
1584	 0.435757295924915 
1585	 0.435756409038819 
1586	 0.435781500230681 
1587	 0.435847309109243 
1588	 0.435883864654548 
1589	 0.435923047409815 
1590	 0.435947895140509 
1591	 0.43594198714915 
1592	 0.4359511630158 
1593	 0.435956225079874 
1594	 0.435971893743111 
1595	 0.436003031216449 
1596	 0.436029817183779 
1597	 0.43606204367051 
1598	 0.43608949365631 
1599	 0.436127052525275 
1600	 0.436138427798948 
1601	 0.436112788495857 
1602	 0.4361200115938 
1603	 0.436118435985261 
1604	 0.43613453367748 
1605	 0.436204888325113 
1606	 0.43624200760158 
1607	 0.436271304995231 
1608	 0.436288996855901 
1609	 0.436275776649676 
1610	 0.436259048557765 
1611	 0.436218378244364 
1612	 0.436174686544439 
1613	 0.436120053927718 
1614	 0.436057281620846 
1615	 0.436030743124539 
1616	 0.436017999156735 
1617	 0.436031998781668 
1618	 0.436075550481173 
1619	 0.436081398081037 
1620	 0.436069472763215 
1621	 0.436075194659208 
1622	 0.436075097104274 
1623	 0.436069407714397 
1624	 0.436083456447888 
1625	 0.436056365770311 
1626	 0.435985806715515 
1627	 0.435966015686492 
1628	 0.435955259405134 
1629	 0.435938203606378 
1630	 0.435943230379982 
1631	 0.435931723028778 
1632	 0.435892771838998 
1633	 0.435891766592122 
1634	 0.435920825371626 
1635	 0.435919444270739 
1636	 0.435926041327926 
1637	 0.435903451865901 
1638	 0.435849900913471 
1639	 0.435814048459029 
1640	 0.435764059597537 
1641	 0.435741466945513 
1642	 0.43573297530827 
1643	 0.435724401044791 
1644	 0.435732993014662 
1645	 0.43573019347111 
1646	 0.43573363742318 
1647	 0.435713790709811 
1648	 0.435679994878557 
1649	 0.435650794062656 
1650	 0.435604464015835 
1651	 0.43556892198352 
1652	 0.435553031865839 
1653	 0.435505980076381 
1654	 0.435431511479347 
1655	 0.435386073862573 
1656	 0.435341063807988 
1657	 0.435294203016739 
1658	 0.435260837848918 
1659	 0.435228422736507 
1660	 0.435180068716907 
1661	 0.435155855542099 
1662	 0.435167425517769 
1663	 0.435145374494999 
1664	 0.435118241022129 
1665	 0.435080468535885 
1666	 0.435016432913628 
1667	 0.434972979894157 
1668	 0.434941103026328 
1669	 0.43489151000802 
1670	 0.4348391728635 
1671	 0.434786379405294 
1672	 0.434716666667838 
1673	 0.434661108327544 
1674	 0.43461672597878 
1675	 0.434569369860462 
1676	 0.434508083123418 
1677	 0.434480825839247 
1678	 0.434484270150474 
1679	 0.434462487149669 
1680	 0.434465710040129 
1681	 0.434426344853629 
1682	 0.434340235620435 
1683	 0.434280329056856 
1684	 0.434207730122048 
1685	 0.434156330525591 
1686	 0.434120189514076 
1687	 0.434086374469889 
1688	 0.434075958097694 
1689	 0.434034448854638 
1690	 0.433971986742646 
1691	 0.433934789950157 
1692	 0.433897282633351 
1693	 0.433854620019221 
1694	 0.433829724693939 
1695	 0.433793980287742 
1696	 0.433732518660382 
1697	 0.433692947993906 
1698	 0.43367022583912 
1699	 0.433645542591351 
1700	 0.433635974242635 
1701	 0.43359871924878 
1702	 0.433569384181443 
1703	 0.433496235416666 
1704	 0.43337353979776 
1705	 0.433273725300177 
1706	 0.433146860599362 
1707	 0.433052894333647 
1708	 0.432983737572813 
1709	 0.432908202725114 
1710	 0.432834984879084 
1711	 0.432778058517996 
1712	 0.432740485505542 
1713	 0.43268110624626 
1714	 0.432617161153156 
1715	 0.432564833531905 
1716	 0.432499425879224 
1717	 0.432449117573867 
1718	 0.432432031516677 
1719	 0.432387569207257 
1720	 0.432337425360847 
1721	 0.432269065287039 
1722	 0.432180414217791 
1723	 0.432098812216461 
1724	 0.43200886753881 
1725	 0.431909277142233 
1726	 0.431814531790433 
1727	 0.431706192154667 
1728	 0.431572081266013 
1729	 0.431458818950251 
1730	 0.431350147752612 
1731	 0.431236925272082 
1732	 0.431142240693892 
1733	 0.431008884679639 
1734	 0.430845214984716 
1735	 0.430706237409329 
1736	 0.430557242713952 
1737	 0.430413142020894 
1738	 0.430278090585285 
1739	 0.430162589788653 
1740	 0.43004187568104 
1741	 0.429939841158125 
1742	 0.429883035351691 
1743	 0.429776691659676 
1744	 0.429663030937706 
1745	 0.429520730064842 
1746	 0.429334119073542 
1747	 0.42922673680058 
1748	 0.429085469681253 
1749	 0.428975090429054 
1750	 0.428872332174993 
1751	 0.428722332504633 
1752	 0.428579800614894 
1753	 0.428429318183043 
1754	 0.428271721135723 
1755	 0.428148078521024 
1756	 0.428004810362119 
1757	 0.427844927753295 
1758	 0.427703566626854 
1759	 0.427553475767614 
1760	 0.427403809430707 
1761	 0.427281162942622 
1762	 0.427165417118914 
1763	 0.427028877239153 
1764	 0.42691487431195 
1765	 0.426820921165465 
1766	 0.426700410936981 
1767	 0.426586839411956 
1768	 0.426451475961893 
1769	 0.426306773292375 
1770	 0.426183434448498 
1771	 0.426036327851144 
1772	 0.425886691632049 
1773	 0.425736934472126 
1774	 0.425600492848339 
1775	 0.425462138512316 
1776	 0.425334716700571 
1777	 0.425233053242518 
1778	 0.425136884694105 
1779	 0.425101222868444 
1780	 0.425011341270452 
1781	 0.424868260874467 
1782	 0.424749173751319 
1783	 0.424619618490637 
1784	 0.424502283780749 
1785	 0.424408442404218 
1786	 0.424289250722097 
1787	 0.424143099251847 
1788	 0.424012233454239 
1789	 0.423875112803998 
1790	 0.423782042047411 
1791	 0.423717074991543 
1792	 0.423632319046986 
1793	 0.423597271784032 
1794	 0.423503571392149 
1795	 0.423379793163322 
1796	 0.423221221481371 
1797	 0.422994857652209 
1798	 0.422816548471692 
1799	 0.422617411577013 
1800	 0.422453930267656 
1801	 0.421471915200954 
1802	 0.421399841461576 
1803	 0.421399124203584 
1804	 0.42142627679423 
1805	 0.421391893508511 
1806	 0.421370580646875 
1807	 0.421360693986148 
1808	 0.421293381795988 
1809	 0.421157798429783 
1810	 0.421062761230434 
1811	 0.42098991221698 
1812	 0.420839625384013 
1813	 0.420695417351486 
1814	 0.420556044595431 
1815	 0.420346615258428 
1816	 0.420138618599599 
1817	 0.419943333437732 
1818	 0.419751159310852 
1819	 0.419538618736967 
1820	 0.419327860812639 
1821	 0.419115954289733 
1822	 0.418851185090497 
1823	 0.418562684102131 
1824	 0.418282185121827 
1825	 0.417957914504616 
1826	 0.417626403265527 
1827	 0.417280987464482 
1828	 0.416884966691347 
1829	 0.416452004768976 
1830	 0.415987440149672 
1831	 0.415491669584069 
1832	 0.414947495207446 
1833	 0.414352599561264 
1834	 0.413764269164214 
1835	 0.413142924301085 
1836	 0.412506972374568 
1837	 0.411896090815736 
1838	 0.411284005965071 
1839	 0.410713782697691 
1840	 0.410156720193172 
1841	 0.409640163311289 
1842	 0.409188092123233 
1843	 0.408797651856737 
1844	 0.40843645892203 
1845	 0.408111196537071 
1846	 0.407821739982135 
1847	 0.407569249527659 
1848	 0.407357557994272 
1849	 0.407216330329169 
1850	 0.407152819750549 
1851	 0.407175689164826 
1852	 0.40721837407262 
1853	 0.40730832557164 
1854	 0.407455692380146 
1855	 0.407622299186164 
1856	 0.407804683430768 
1857	 0.40801279414807 
1858	 0.4082303602665 
1859	 0.408429559884578 
1860	 0.408624715420159 
1861	 0.408820060718759 
1862	 0.409004168606977 
1863	 0.409183593748588 
1864	 0.409352125336303 
1865	 0.409533328602507 
1866	 0.409743394929182 
1867	 0.40995056937459 
1868	 0.410192788458136 
1869	 0.410459810336441 
1870	 0.410715621649526 
1871	 0.410947316539673 
1872	 0.411181105748329 
1873	 0.411393758236731 
1874	 0.41155323428856 
1875	 0.411673132875373 
1876	 0.411764878532858 
1877	 0.411785740160489 
1878	 0.411759460112405 
1879	 0.411695306735451 
1880	 0.411520732472506 
1881	 0.41124555347362 
1882	 0.410944429474899 
1883	 0.410586201924208 
1884	 0.410110459869905 
1885	 0.409633139074057 
1886	 0.409113605903278 
1887	 0.408477390970021 
1888	 0.407811327074916 
1889	 0.407095003085841 
1890	 0.406321207860699 
1891	 0.405509053508314 
1892	 0.40464016717263 
1893	 0.403742838182397 
1894	 0.402799909820162 
1895	 0.401833726812011 
1896	 0.40084311522409 
1897	 0.399824396529459 
1898	 0.398764748308929 
1899	 0.397687968720243 
1900	 0.396591158703306 
1901	 0.395527678137614 
1902	 0.394496505285783 
1903	 0.393513875189076 
1904	 0.392515527935616 
1905	 0.391540627992142 
1906	 0.390566605893809 
1907	 0.389563296628859 
1908	 0.388577192401888 
1909	 0.387619891896061 
1910	 0.386635318823715 
1911	 0.385678369992173 
1912	 0.38476194217757 
1913	 0.383850984572035 
1914	 0.382952963801598 
1915	 0.38207124945132 
1916	 0.381207823173768 
1917	 0.380339521486657 
1918	 0.379528918799095 
1919	 0.378737568725956 
1920	 0.377982532077322 
1921	 0.377292784687459 
1922	 0.376582635117246 
1923	 0.375908261989489 
1924	 0.375274751872184 
1925	 0.374657012713634 
1926	 0.374105154200354 
1927	 0.373605391240516 
1928	 0.37314431637141 
1929	 0.372743587877959 
1930	 0.3723496244894 
1931	 0.371961782188935 
1932	 0.371600344589794 
1933	 0.371262203203191 
1934	 0.370996065910392 
1935	 0.37078269066298 
1936	 0.370637582960016 
1937	 0.370523747466757 
1938	 0.37046343756361 
1939	 0.370425303898419 
1940	 0.37041399993482 
1941	 0.370469819881589 
1942	 0.370535094967228 
1943	 0.370621131656449 
1944	 0.370726215171253 
1945	 0.370793304096272 
1946	 0.370890733021613 
1947	 0.371004558950663 
1948	 0.371117796238312 
1949	 0.37125361814581 
1950	 0.37137261228696 
1951	 0.371492487864676 
1952	 0.37158470136492 
1953	 0.371679793867591 
1954	 0.371778993523769 
1955	 0.371876318449218 
1956	 0.371965061457093 
1957	 0.372060884646919 
1958	 0.372158178987284 
1959	 0.372256481153067 
1960	 0.372360157481931 
1961	 0.372461511789793 
1962	 0.372556886826668 
1963	 0.372664357375994 
1964	 0.372786413186397 
1965	 0.372889577022202 
1966	 0.372993465433862 
1967	 0.373095968621014 
1968	 0.373199342352691 
1969	 0.373284122208992 
1970	 0.373392469899104 
1971	 0.373516414326025 
1972	 0.373640857675774 
1973	 0.373766428403819 
1974	 0.373902824342936 
1975	 0.374052363099987 
1976	 0.374205656975224 
1977	 0.374344127196934 
1978	 0.37448609203798 
1979	 0.374618583801255 
1980	 0.374733589073083 
1981	 0.374857664360337 
1982	 0.374975201657935 
1983	 0.375108815397253 
1984	 0.375248464406887 
1985	 0.375391297444738 
1986	 0.37554873034113 
1987	 0.375701991849125 
1988	 0.375851094986215 
1989	 0.376002547867764 
1990	 0.376175389210706 
1991	 0.37634954441363 
1992	 0.376538465057445 
1993	 0.376765264069675 
1994	 0.376950234593179 
1995	 0.377127210392619 
1996	 0.37729217554816 
1997	 0.377429321160591 
1998	 0.377575408489997 
1999	 0.377718082326728 
2000	 0.377866821267633 
2001	 0.378015884765265 
2002	 0.378148718414265 
2003	 0.378335868411813 
2004	 0.378534281305991 
2005	 0.378722680122802 
2006	 0.378934620621263 
2007	 0.379136591934888 
2008	 0.379304491043321 
2009	 0.379514638187362 
2010	 0.379761475596302 
2011	 0.379994118354177 
2012	 0.380242143705242 
2013	 0.380481740631791 
2014	 0.380729366527865 
2015	 0.380950926586624 
2016	 0.381145766640766 
2017	 0.381358010070798 
2018	 0.38158385493022 
2019	 0.381813042801901 
2020	 0.382030255065528 
2021	 0.382272426676138 
2022	 0.382489693183947 
2023	 0.382683847752791 
2024	 0.382874592652722 
2025	 0.383071614403975 
2026	 0.383244136294114 
2027	 0.383400622229404 
2028	 0.383531391454411 
2029	 0.383661554225561 
2030	 0.38377060182882 
2031	 0.383904539015964 
2032	 0.384027245420483 
2033	 0.384181944405257 
2034	 0.384366794244837 
2035	 0.384539689483658 
2036	 0.38473426097354 
2037	 0.384906316768951 
2038	 0.385072919781827 
2039	 0.385227298933763 
2040	 0.38537638584445 
2041	 0.385499865733504 
2042	 0.385616037211739 
2043	 0.38575693066679 
2044	 0.385885806359682 
2045	 0.386015146456004 
2046	 0.386142427810672 
2047	 0.386281149463753 
2048	 0.386387615618465 
2049	 0.386474299197648 
2050	 0.386566186200901 
2051	 0.386635857144206 
2052	 0.386711941623809 
2053	 0.386794941957882 
2054	 0.386876335881257 
2055	 0.386956512785531 
2056	 0.387033916670991 
2057	 0.387099616603569 
2058	 0.387169268912876 
2059	 0.38721841780557 
2060	 0.387234341516627 
2061	 0.387282425870705 
2062	 0.387317809869506 
2063	 0.387388932915606 
2064	 0.38749384957644 
2065	 0.387592774117744 
2066	 0.387718083367628 
2067	 0.387831034196362 
2068	 0.387951551818106 
2069	 0.388050940346709 
2070	 0.388145275874495 
2071	 0.388249944677396 
2072	 0.388298340879244 
2073	 0.388305093394793 
2074	 0.388329377966252 
2075	 0.38830377473886 
2076	 0.388330825657731 
2077	 0.388398187601724 
2078	 0.388446168602117 
2079	 0.388499536825098 
2080	 0.388555438426389 
2081	 0.388618685955402 
2082	 0.388665140761594 
2083	 0.388705858062709 
2084	 0.388749344680823 
2085	 0.388787922926235 
2086	 0.388813280569865 
2087	 0.388836381264657 
2088	 0.388860470951689 
2089	 0.388884907343941 
2090	 0.388901638833152 
2091	 0.388914976034408 
2092	 0.388933062329358 
2093	 0.38894574055179 
2094	 0.388948184080353 
2095	 0.38894735526182 
2096	 0.388926215406311 
2097	 0.388937987898698 
2098	 0.388963389284568 
2099	 0.388994974483142 
2100	 0.389012995543381 
2101	 0.389048760369073 
2102	 0.389073084408622 
2103	 0.389071826278946 
2104	 0.389089855338682 
2105	 0.389113066820131 
2106	 0.389158436039441 
2107	 0.389206899922193 
2108	 0.389270664684195 
2109	 0.389367813677376 
2110	 0.389461393315702 
2111	 0.389573153451487 
2112	 0.389660413573605 
2113	 0.389752490768835 
2114	 0.389825668653862 
2115	 0.389889429778399 
2116	 0.389919527166584 
2117	 0.389983289295601 
2118	 0.39004932632636 
2119	 0.390129995743479 
2120	 0.390231367641606 
2121	 0.390323280979737 
2122	 0.390420995467254 
2123	 0.390514930930374 
2124	 0.390610321439146 
2125	 0.390698565508173 
2126	 0.390809311022381 
2127	 0.390875156254375 
2128	 0.390925548864824 
2129	 0.390945182722855 
2130	 0.390920301813316 
2131	 0.39088382004614 
2132	 0.390837683802139 
2133	 0.390791729930441 
2134	 0.390682568055017 
2135	 0.390549281783019 
2136	 0.390374707412038 
2137	 0.390117592664279 
2138	 0.389899180622592 
2139	 0.389671395774689 
2140	 0.389442692308596 
2141	 0.389217393873741 
2142	 0.388985482203046 
2143	 0.388754028395722 
2144	 0.388504973244443 
2145	 0.3882570229135 
2146	 0.387986238907579 
2147	 0.387727682359741 
2148	 0.387403599583577 
2149	 0.387036441637188 
2150	 0.386635545089139 
2151	 0.386196810229526 
2152	 0.385674248427039 
2153	 0.385192181170512 
2154	 0.384697465231819 
2155	 0.384208580908282 
2156	 0.383715428427787 
2157	 0.383232076992702 
2158	 0.382775458590687 
2159	 0.382275284385719 
2160	 0.381764148972462 
2161	 0.381242133437913 
2162	 0.380675108001113 
2163	 0.380122821473856 
2164	 0.379568598483616 
2165	 0.379021488417647 
2166	 0.378488107170117 
2167	 0.377974504766849 
2168	 0.37742159412081 
2169	 0.376865519902317 
2170	 0.376305585375594 
2171	 0.375732275197203 
2172	 0.375130833670618 
2173	 0.374538057203879 
2174	 0.373902277002327 
2175	 0.373209090025091 
2176	 0.372521285685327 
2177	 0.371816903602106 
2178	 0.371109701140106 
2179	 0.37037550537552 
2180	 0.369658092116095 
2181	 0.368932328158756 
2182	 0.368227947761353 
2183	 0.367552744824133 
2184	 0.366867646272673 
2185	 0.366166586968703 
2186	 0.365465570866181 
2187	 0.364759171933142 
2188	 0.364026588750416 
2189	 0.363314616577641 
2190	 0.362600730705547 
2191	 0.361919452579811 
2192	 0.361241998828978 
2193	 0.360591816663405 
2194	 0.35996506405288 
2195	 0.359370112336917 
2196	 0.35880989198075 
2197	 0.358252244950494 
2198	 0.357695888254419 
2199	 0.357199661696645 
2200	 0.356728755175346 
2201	 0.356284792896478 
2202	 0.355899796454804 
2203	 0.355537730468278 
2204	 0.355200361569597 
2205	 0.354878927140559 
2206	 0.354586112731158 
2207	 0.354300791627025 
2208	 0.3541174987653 
2209	 0.35396987951721 
2210	 0.353897841612587 
2211	 0.353963611874139 
2212	 0.353979439034701 
2213	 0.354040653353271 
2214	 0.354064091180033 
2215	 0.354077228867591 
2216	 0.354089730078175 
2217	 0.354107584972925 
2218	 0.354086461144424 
2219	 0.354064345097913 
2220	 0.354003010709728 
2221	 0.353885739166193 
2222	 0.353769018497549 
2223	 0.353624474509449 
2224	 0.353487230618913 
2225	 0.3533260932784 
2226	 0.353156829227841 
2227	 0.352949167739987 
2228	 0.352743914764212 
2229	 0.352450741041401 
2230	 0.352084102413401 
2231	 0.351728051668658 
2232	 0.351321062839438 
2233	 0.350906015493932 
2234	 0.350502152675431 
2235	 0.350049275585136 
2236	 0.34952900652908 
2237	 0.349027261443986 
2238	 0.348510744623817 
2239	 0.347994615861128 
2240	 0.347520692606615 
2241	 0.346965913209401 
2242	 0.346398439776505 
2243	 0.345750719748961 
2244	 0.345014191740623 
2245	 0.344238525261461 
2246	 0.34344673229596 
2247	 0.342620898206528 
2248	 0.341778816748255 
2249	 0.340923964361024 
2250	 0.340028422113584 
2251	 0.339061656863107 
2252	 0.338172725307029 
2253	 0.337259899891297 
2254	 0.336432599873884 
2255	 0.335659319215812 
2256	 0.334932798683547 
2257	 0.334242354074923 
2258	 0.333621223737229 
2259	 0.333044476813507 
2260	 0.332552692234189 
2261	 0.332125731295067 
2262	 0.33178254777798 
2263	 0.331495225902993 
2264	 0.331337840015859 
2265	 0.331294327062868 
2266	 0.331321581535058 
2267	 0.331504365128171 
2268	 0.331699166758961 
2269	 0.331945407959968 
2270	 0.332237169693108 
2271	 0.332587198069743 
2272	 0.333001145007712 
2273	 0.33349027905875 
2274	 0.334054034965545 
2275	 0.334633766621819 
2276	 0.335268353148982 
2277	 0.33592058132648 
2278	 0.336605785876737 
2279	 0.337316956375896 
2280	 0.338073316232305 
2281	 0.338836746189926 
2282	 0.339637174613506 
2283	 0.340418934520963 
2284	 0.341238191039909 
2285	 0.341998727147621 
2286	 0.342750522415029 
2287	 0.343443294727738 
2288	 0.344074165760517 
2289	 0.344699288653121 
2290	 0.345288789290721 
2291	 0.345862485564928 
2292	 0.346432291872817 
2293	 0.346958676676474 
2294	 0.347427370865227 
2295	 0.347903135758337 
2296	 0.348351618579704 
2297	 0.348798332796162 
2298	 0.349238909517884 
2299	 0.349684234658783 
2300	 0.350140849027094 
2301	 0.350546530921998 
2302	 0.351009397498817 
2303	 0.351499696419277 
2304	 0.351897632342465 
2305	 0.35231010284797 
2306	 0.352661007713792 
2307	 0.352911191341489 
2308	 0.353229944238057 
2309	 0.353558207204256 
2310	 0.353881734829095 
2311	 0.354233634239908 
2312	 0.354548315954208 
2313	 0.354836958081554 
2314	 0.35510970714829 
2315	 0.355354811103011 
2316	 0.355614545367212 
2317	 0.355895994006905 
2318	 0.356123573805133 
2319	 0.356341940583507 
2320	 0.356520303210481 
2321	 0.356608662690248 
2322	 0.35673976313112 
2323	 0.356894510520475 
2324	 0.357016929755021 
2325	 0.357152298439589 
2326	 0.357244139726436 
2327	 0.357289804222105 
2328	 0.357307757131725 
2329	 0.357376820860158 
2330	 0.357447701819381 
2331	 0.357526846017459 
2332	 0.357582445899136 
2333	 0.357567531783157 
2334	 0.357534165532489 
2335	 0.3574779504629 
2336	 0.357441095524512 
2337	 0.357392073932979 
2338	 0.35727534651986 
2339	 0.357182261811312 
2340	 0.357060414328174 
2341	 0.356962507262032 
2342	 0.356899820715766 
2343	 0.356747197187919 
2344	 0.35656500377621 
2345	 0.35634272923007 
2346	 0.356027686699231 
2347	 0.355735746094842 
2348	 0.355446992235035 
2349	 0.355130882459292 
2350	 0.354773474284887 
2351	 0.354469366086434 
2352	 0.354164960965531 
2353	 0.353846973299256 
2354	 0.353538954146842 
2355	 0.353247656209621 
2356	 0.352966247112993 
2357	 0.352668985666777 
2358	 0.352421508745714 
2359	 0.352106240897987 
2360	 0.351720101834342 
2361	 0.351355024036052 
2362	 0.350980976981678 
2363	 0.35056766018182 
2364	 0.350135553811074 
2365	 0.349698242500738 
2366	 0.349231301397379 
2367	 0.348769079627157 
2368	 0.34829911116527 
2369	 0.34782809715657 
2370	 0.347347015619339 
2371	 0.346872990206323 
2372	 0.346398068097068 
2373	 0.345873729601413 
2374	 0.345346909266481 
2375	 0.344814537641242 
2376	 0.344216673356278 
2377	 0.343616337249556 
2378	 0.34292747680652 
2379	 0.342176783628297 
2380	 0.341453297541392 
2381	 0.340739813245023 
2382	 0.340057975524422 
2383	 0.339441138596091 
2384	 0.33889622158968 
2385	 0.33822601559854 
2386	 0.337541776356754 
2387	 0.336834621365558 
2388	 0.336036903729796 
2389	 0.335346745631974 
2390	 0.334637996987026 
2391	 0.334006074555848 
2392	 0.333432082142996 
2393	 0.332760220280039 
2394	 0.332172786120676 
2395	 0.331615308528821 
2396	 0.330927639093903 
2397	 0.330261666285047 
2398	 0.329585277814213 
2399	 0.328768750070422 
2400	 0.328043650453866 
2401	 0.327312930754164 
2402	 0.32654357189321 
2403	 0.325908367989826 
2404	 0.325246426014372 
2405	 0.324664470124648 
2406	 0.324230721893981 
2407	 0.323715218067215 
2408	 0.323213591351147 
2409	 0.322690389302445 
2410	 0.321964063995298 
2411	 0.321369300869224 
2412	 0.320865037434434 
2413	 0.320236598058271 
2414	 0.319713887478329 
2415	 0.319132984459344 
2416	 0.318550284633627 
2417	 0.317908814028595 
2418	 0.31736207156618 
2419	 0.316863563546252 
2420	 0.316325187206936 
2421	 0.315795973772572 
2422	 0.315251252623062 
2423	 0.314686417091915 
2424	 0.314220059102881 
2425	 0.313749334577556 
2426	 0.313290374269332 
2427	 0.312909280524127 
2428	 0.312505381938983 
2429	 0.312156618802661 
2430	 0.311730236439354 
2431	 0.311281273426989 
2432	 0.310805471962544 
2433	 0.310214833007089 
2434	 0.309696681877822 
2435	 0.309229178512259 
2436	 0.308731315810234 
2437	 0.308233554886699 
2438	 0.307737644760556 
2439	 0.307208820774078 
2440	 0.306722884959438 
2441	 0.306275508190658 
2442	 0.305795089218813 
2443	 0.305390596522208 
2444	 0.304941515678523 
2445	 0.304360345271041 
2446	 0.303891440590122 
2447	 0.30351466149705 
2448	 0.302954557507223 
2449	 0.302367395365805 
2450	 0.301784610824722 
2451	 0.301065889837984 
2452	 0.300467769332685 
2453	 0.299949522369832 
2454	 0.299442445141317 
2455	 0.298888545547154 
2456	 0.29845285099823 
2457	 0.298130658640244 
2458	 0.297748194661481 
2459	 0.297535842071194 
2460	 0.297145380964426 
2461	 0.296527988060877 
2462	 0.296207080400231 
2463	 0.295864101836532 
2464	 0.295637049735244 
2465	 0.29579273053417 
2466	 0.295504366079355 
2467	 0.295109733398397 
2468	 0.294685714009938 
2469	 0.293933298563343 
2470	 0.293609212031944 
2471	 0.293136314686985 
2472	 0.292726779843983 
2473	 0.292399273216912 
2474	 0.292170994841213 
2475	 0.291950145484305 
2476	 0.291688246721881 
2477	 0.291487173848245 
2478	 0.291049516442155 
2479	 0.290622799822024 
2480	 0.290243062150337 
2481	 0.289808440027072 
2482	 0.289567341938603 
2483	 0.289279872719994 
2484	 0.288968818684361 
2485	 0.288549055454987 
2486	 0.287843917108855 
2487	 0.28742091265018 
2488	 0.287190211232918 
2489	 0.286658880442785 
2490	 0.286168320611831 
2491	 0.285514866545545 
2492	 0.284602588279839 
2493	 0.283998344178403 
2494	 0.283671452850315 
2495	 0.283418112543471 
2496	 0.283163906704864 
2497	 0.282967109438101 
2498	 0.282673568804754 
2499	 0.28227913495523 
2500	 0.281850914541028 
