Wavelength	LMW700003.asd
350	 5.44661201813038E-02 
351	 5.81363006504013E-02 
352	 5.92114248728396E-02 
353	 5.09819358399086E-02 
354	 5.31248238779421E-02 
355	 5.61163163435625E-02 
356	 5.83998876726333E-02 
357	 5.97154570775655E-02 
358	 0.05748235720015 
359	 5.64155931132009E-02 
360	 0.056594086905081 
361	 5.52684193659889E-02 
362	 5.40353466162698E-02 
363	 5.45122186343203E-02 
364	 5.58840630180851E-02 
365	 5.34484882754017E-02 
366	 5.26195208582421E-02 
367	 5.44916852787937E-02 
368	 5.80894018067576E-02 
369	 6.00931168143504E-02 
370	 6.03518485962101E-02 
371	 0.060085621248996 
372	 6.10290877463816E-02 
373	 6.00947217540186E-02 
374	 5.96755729982961E-02 
375	 6.11621410109683E-02 
376	 0.063321069456027 
377	 6.17793803713555E-02 
378	 6.07964268727404E-02 
379	 6.45815336458063E-02 
380	 6.55783630277664E-02 
381	 6.43526262188427E-02 
382	 0.0635774784921 
383	 6.66766996810036E-02 
384	 6.85755504794286E-02 
385	 6.78372993932411E-02 
386	 6.60626004900869E-02 
387	 6.96539430282958E-02 
388	 0.071468492591619 
389	 7.11621348421507E-02 
390	 7.10082236345501E-02 
391	 7.41382706490102E-02 
392	 7.72827547258034E-02 
393	 7.88894171352379E-02 
394	 7.92445858408642E-02 
395	 7.82073207153454E-02 
396	 7.90179371431437E-02 
397	 8.27262374656256E-02 
398	 8.49269453110217E-02 
399	 8.64289829009845E-02 
400	 8.81601564172515E-02 
401	 9.07324704674641E-02 
402	 9.22389092932588E-02 
403	 9.33776935441332E-02 
404	 9.43142229382282E-02 
405	 9.45535500591128E-02 
406	 0.095732919209207 
407	 9.80530501543813E-02 
408	 0.100677849115616 
409	 0.100974229498168 
410	 0.101107917615907 
411	 0.102094239571556 
412	 0.104089365374608 
413	 0.105612518588073 
414	 0.106612920885147 
415	 0.107330540967554 
416	 0.108159106130204 
417	 0.10871513734458 
418	 0.109052059479356 
419	 0.109283521849015 
420	 0.109330202179602 
421	 0.10932618919636 
422	 0.109558356937318 
423	 0.110242180608686 
424	 0.109718605337085 
425	 0.109030060830612 
426	 0.108851541271654 
427	 0.108594592712675 
428	 0.108095654599048 
429	 0.1074334041009 
430	 0.106782072469836 
431	 0.106228109409088 
432	 0.105789358158953 
433	 0.105339514492889 
434	 0.104657897444879 
435	 0.104785766024683 
436	 0.105094904301678 
437	 0.105109214815393 
438	 0.105643619882898 
439	 0.106274610551116 
440	 0.107078791854546 
441	 0.108296724192328 
442	 0.109409357997375 
443	 0.110492985656437 
444	 0.111645755817693 
445	 0.11289677983302 
446	 0.114076286622549 
447	 0.115285469725416 
448	 0.116620201706774 
449	 0.117774318045118 
450	 0.119183567763135 
451	 0.120729539809939 
452	 0.121842164444305 
453	 0.122873446923323 
454	 0.12401142516781 
455	 0.125289242831643 
456	 0.1264864676904 
457	 0.127305481179222 
458	 0.127956793882983 
459	 0.128885569059131 
460	 0.130313591170559 
461	 0.131374845609985 
462	 0.131866850355937 
463	 0.132624499876706 
464	 0.133538988008141 
465	 0.134347078306227 
466	 0.13487449709384 
467	 0.135545648884017 
468	 0.13619394632164 
469	 0.136791384778583 
470	 0.137415069590816 
471	 0.137763020172077 
472	 0.138141812593844 
473	 0.138737896641595 
474	 0.139214096375302 
475	 0.139713378724258 
476	 0.1402409636293 
477	 0.140734795430438 
478	 0.141057295402282 
479	 0.141493966285564 
480	 0.142084343818227 
481	 0.14248187912926 
482	 0.142962296811885 
483	 0.143437727546518 
484	 0.143807771582727 
485	 0.144351311635113 
486	 0.144750201529934 
487	 0.144988367160059 
488	 0.145308119430425 
489	 0.145690704560616 
490	 0.14615216462792 
491	 0.146641556072894 
492	 0.146938486772664 
493	 0.147187363436018 
494	 0.14754565563176 
495	 0.14811965173295 
496	 0.14860122441101 
497	 0.148856896718196 
498	 0.149046444884858 
499	 0.149742519226966 
500	 0.150137993398483 
501	 0.150389458967766 
502	 0.150832646288593 
503	 0.151248363215972 
504	 0.151615170091604 
505	 0.151955591986841 
506	 0.152323856614166 
507	 0.152679618246342 
508	 0.15304948595459 
509	 0.153436527258681 
510	 0.153747423695948 
511	 0.154066942944216 
512	 0.154391226120006 
513	 0.15468670167962 
514	 0.155099873946612 
515	 0.155518578606314 
516	 0.155888094199385 
517	 0.156303541942056 
518	 0.156690087521796 
519	 0.156958604937047 
520	 0.15710608751977 
521	 0.157575043268084 
522	 0.158048181298346 
523	 0.158385396719962 
524	 0.158678629198092 
525	 0.158962918652473 
526	 0.159274249674706 
527	 0.159625251380694 
528	 0.159976328297856 
529	 0.160281432540647 
530	 0.160632389119372 
531	 0.161168176964826 
532	 0.161430936800617 
533	 0.161657499172757 
534	 0.16203761304707 
535	 0.16246353646091 
536	 0.162871381555301 
537	 0.163240221994748 
538	 0.163577376134227 
539	 0.163918485211834 
540	 0.164223103949952 
541	 0.164528235554639 
542	 0.164982543469615 
543	 0.165374547717062 
544	 0.16571262780097 
545	 0.166078277181508 
546	 0.166597573866585 
547	 0.167010976579708 
548	 0.167334836414934 
549	 0.167813056186837 
550	 0.168215736307083 
551	 0.168619966747584 
552	 0.169107238619623 
553	 0.169633980468635 
554	 0.170127880465869 
555	 0.170623573924277 
556	 0.171196448366345 
557	 0.171713092600448 
558	 0.172264751975512 
559	 0.172880733199126 
560	 0.173438838187986 
561	 0.173991167537193 
562	 0.174571080928464 
563	 0.175200147858446 
564	 0.175868465317488 
565	 0.176500591500519 
566	 0.177100192033925 
567	 0.177762962073817 
568	 0.178543343981435 
569	 0.179354525303938 
570	 0.180135153457922 
571	 0.18105294001131 
572	 0.181920641712992 
573	 0.182741745586705 
574	 0.183637299439115 
575	 0.184362128682595 
576	 0.185138590943506 
577	 0.186093729774575 
578	 0.186993217318567 
579	 0.187901836006696 
580	 0.188858462789589 
581	 0.189890324229504 
582	 0.190971016377482 
583	 0.192067733107486 
584	 0.19315324107989 
585	 0.194214060371637 
586	 0.195215988244716 
587	 0.196239045310734 
588	 0.197343993720875 
589	 0.198354932562392 
590	 0.199408738429823 
591	 0.200519919979424 
592	 0.201588594901346 
593	 0.20265945639048 
594	 0.203743635437619 
595	 0.20484332837662 
596	 0.205956477224838 
597	 0.207109216306867 
598	 0.208276853033827 
599	 0.209410291539293 
600	 0.21048060033297 
601	 0.211512154216282 
602	 0.212518444245134 
603	 0.213490256480425 
604	 0.214342813317533 
605	 0.215172094498432 
606	 0.216106026551041 
607	 0.217062321344979 
608	 0.217929778012953 
609	 0.218741286709191 
610	 0.219690951655169 
611	 0.220514449983317 
612	 0.221287190022902 
613	 0.222100614129453 
614	 0.222821361938781 
615	 0.223485418356937 
616	 0.224124968435659 
617	 0.224760896646792 
618	 0.225342410053389 
619	 0.225852950849892 
620	 0.226329534338444 
621	 0.226922690953309 
622	 0.227429694366964 
623	 0.227853617747039 
624	 0.22828970406033 
625	 0.22883702817122 
626	 0.229314369761865 
627	 0.229669582511 
628	 0.230048357318606 
629	 0.230457013909254 
630	 0.230891667551976 
631	 0.231326957830046 
632	 0.231693728111228 
633	 0.23200849052688 
634	 0.232312383243211 
635	 0.23266009943654 
636	 0.232985958676504 
637	 0.23336354512761 
638	 0.233800290394526 
639	 0.234076849817625 
640	 0.234385187071695 
641	 0.234737221867757 
642	 0.235073122834693 
643	 0.23546350784546 
644	 0.235861613833107 
645	 0.236235005424622 
646	 0.236588160031583 
647	 0.236897618859321 
648	 0.237184527961386 
649	 0.237487539098213 
650	 0.237850015022215 
651	 0.238255010856133 
652	 0.238653669379248 
653	 0.238982172245863 
654	 0.239379792336709 
655	 0.239774825522828 
656	 0.240123705384596 
657	 0.240555010387757 
658	 0.240971982232649 
659	 0.241357815416335 
660	 0.241740975463991 
661	 0.242192962996689 
662	 0.242649873212014 
663	 0.24308207279788 
664	 0.243529102378901 
665	 0.243947410680286 
666	 0.244422431887371 
667	 0.245000318704161 
668	 0.245405299558636 
669	 0.245868751289475 
670	 0.246420965916037 
671	 0.246914430599662 
672	 0.24735732849758 
673	 0.247862518791651 
674	 0.248463915374818 
675	 0.248961798093311 
676	 0.249491840490809 
677	 0.250037203735056 
678	 0.250542244096928 
679	 0.25115609279804 
680	 0.251768281107576 
681	 0.252346784819441 
682	 0.25299234452551 
683	 0.253575059960591 
684	 0.254145280194295 
685	 0.254767557877284 
686	 0.255379254601024 
687	 0.25598265199679 
688	 0.256611689378686 
689	 0.257309818486328 
690	 0.257958257283412 
691	 0.258563947538267 
692	 0.259177367552821 
693	 0.259904782270369 
694	 0.260588358300825 
695	 0.261243476488989 
696	 0.261928215536878 
697	 0.262535291745811 
698	 0.263252071153711 
699	 0.264056939881405 
700	 0.264701420239988 
701	 0.265342331905414 
702	 0.266016947858535 
703	 0.266705954871047 
704	 0.267291313799582 
705	 0.267947012550949 
706	 0.268645124845107 
707	 0.269271020814015 
708	 0.269962431989562 
709	 0.270632941670491 
710	 0.271259885531543 
711	 0.271946050425801 
712	 0.272622119717953 
713	 0.273230793176687 
714	 0.273765907932218 
715	 0.274394516491941 
716	 0.274994034785501 
717	 0.27555914985401 
718	 0.276166520355756 
719	 0.276760123033293 
720	 0.277288405654948 
721	 0.277736628096856 
722	 0.278145520679608 
723	 0.278632969381844 
724	 0.279172831991386 
725	 0.279676710959687 
726	 0.280049875027393 
727	 0.280424803500891 
728	 0.280805375281767 
729	 0.281076763627308 
730	 0.281440844973489 
731	 0.281782393497371 
732	 0.282010124144124 
733	 0.282222222121243 
734	 0.282472192764173 
735	 0.282697973135835 
736	 0.282814373825849 
737	 0.282937184664768 
738	 0.283066001671146 
739	 0.283178727923452 
740	 0.283239854798251 
741	 0.283233038979304 
742	 0.283221340689654 
743	 0.283230452639191 
744	 0.283138210184357 
745	 0.28300105338131 
746	 0.282863337428784 
747	 0.282742751220459 
748	 0.282500484436781 
749	 0.282296338852228 
750	 0.282147089736711 
751	 0.281869944810291 
752	 0.281560055330419 
753	 0.281233655382345 
754	 0.280894650997772 
755	 0.280553148645908 
756	 0.280271422649798 
757	 0.279955201073554 
758	 0.279470575734878 
759	 0.279035270296489 
760	 0.278549188131209 
761	 0.278013166901342 
762	 0.277585260558744 
763	 0.277125759388971 
764	 0.27662406463222 
765	 0.276102946808693 
766	 0.27558721640436 
767	 0.275056534144218 
768	 0.274485978450658 
769	 0.273870560624234 
770	 0.273360495947054 
771	 0.272828206155838 
772	 0.272223020552875 
773	 0.271616799955052 
774	 0.271023189617763 
775	 0.270423481196843 
776	 0.269800907512862 
777	 0.269163263531489 
778	 0.268581489743906 
779	 0.267989976294003 
780	 0.267299035861639 
781	 0.266700923393916 
782	 0.266134942901926 
783	 0.265534884842048 
784	 0.264860614225332 
785	 0.264267478597669 
786	 0.263698511386678 
787	 0.26308844459963 
788	 0.262451789084268 
789	 0.261822737631903 
790	 0.261234989643554 
791	 0.260698457619641 
792	 0.260126177667381 
793	 0.259527226723351 
794	 0.258895516586805 
795	 0.258219755374783 
796	 0.257617996441516 
797	 0.257086101607926 
798	 0.256569777816073 
799	 0.255962261809574 
800	 0.255416329810512 
801	 0.254912989038837 
802	 0.254380296509094 
803	 0.253753074947893 
804	 0.253231484663163 
805	 0.252783613074349 
806	 0.252246719019192 
807	 0.251734875725302 
808	 0.25117631474785 
809	 0.250586148897813 
810	 0.250107074508313 
811	 0.249634189203417 
812	 0.249175773495909 
813	 0.248741637038385 
814	 0.248283215503557 
815	 0.247791221954056 
816	 0.247288834827162 
817	 0.246815176109375 
818	 0.24639758127469 
819	 0.246004365085245 
820	 0.245605467257579 
821	 0.245181003496585 
822	 0.244763153179172 
823	 0.244371746452439 
824	 0.243991748070652 
825	 0.243556323534171 
826	 0.243168742436789 
827	 0.242829400271173 
828	 0.242505171088504 
829	 0.242162769234313 
830	 0.241765776871157 
831	 0.241375775267006 
832	 0.241072192147745 
833	 0.240720424226556 
834	 0.240408434303633 
835	 0.240158370235548 
836	 0.239911268248693 
837	 0.239585852047288 
838	 0.239273081689818 
839	 0.239014819652292 
840	 0.238717898424162 
841	 0.238498497417797 
842	 0.238239880760928 
843	 0.237873117231689 
844	 0.237676867786835 
845	 0.237541837267266 
846	 0.237365200695465 
847	 0.23709371002264 
848	 0.236931120878876 
849	 0.236751469772068 
850	 0.236530075871526 
851	 0.236337727051144 
852	 0.236097514793037 
853	 0.235885179214561 
854	 0.235748389961792 
855	 0.235662368145036 
856	 0.235593425811409 
857	 0.23549665299678 
858	 0.235344286196052 
859	 0.235138085309822 
860	 0.2350130865563 
861	 0.234941213225103 
862	 0.234849102978757 
863	 0.234768872952686 
864	 0.234691242485475 
865	 0.234634958102392 
866	 0.234616604561951 
867	 0.234506132855647 
868	 0.234476306690378 
869	 0.234500925743582 
870	 0.234350653757873 
871	 0.234236262679012 
872	 0.23417413257077 
873	 0.234180745787473 
874	 0.234322160569417 
875	 0.234353849644132 
876	 0.234327235298626 
877	 0.234338368311549 
878	 0.234379783239555 
879	 0.234487036840699 
880	 0.234534191340125 
881	 0.234437876008495 
882	 0.234515073116154 
883	 0.234621772614364 
884	 0.23469387176332 
885	 0.234739454549567 
886	 0.234861663362769 
887	 0.235055968783515 
888	 0.235224704212524 
889	 0.235233229745857 
890	 0.235265453687728 
891	 0.235421164449645 
892	 0.235691661308281 
893	 0.235945854679127 
894	 0.235991101089907 
895	 0.236029597393681 
896	 0.236223559570574 
897	 0.236510200102675 
898	 0.236766069385744 
899	 0.236945308038091 
900	 0.237066927314506 
901	 0.237233510856146 
902	 0.237469122096909 
903	 0.237719316880134 
904	 0.237934126711154 
905	 0.238201753744366 
906	 0.238487354814766 
907	 0.238809102492 
908	 0.239170125742317 
909	 0.239373399724724 
910	 0.239585298940095 
911	 0.239868365412389 
912	 0.240183318650819 
913	 0.240415232217825 
914	 0.240691694567026 
915	 0.241072052987573 
916	 0.241508944676031 
917	 0.241750758995938 
918	 0.242075720719243 
919	 0.242584715554049 
920	 0.243087174728654 
921	 0.243489858899625 
922	 0.243743503878345 
923	 0.243966469500138 
924	 0.244466892193177 
925	 0.24490051955182 
926	 0.245371431924296 
927	 0.245911209461457 
928	 0.246251190196323 
929	 0.246718155490964 
930	 0.247271807804065 
931	 0.247787605607285 
932	 0.248186621362854 
933	 0.248583391868571 
934	 0.249074031567025 
935	 0.24967888654097 
936	 0.250240505636354 
937	 0.250783427958171 
938	 0.251286011007303 
939	 0.251756379340659 
940	 0.252334052925061 
941	 0.252901925284477 
942	 0.253523366568934 
943	 0.254249303919208 
944	 0.254789413713739 
945	 0.255412888256678 
946	 0.256095376848097 
947	 0.256705091778067 
948	 0.257315126186831 
949	 0.257957734019653 
950	 0.258584119282323 
951	 0.259153463668345 
952	 0.259859520199007 
953	 0.260644199677418 
954	 0.261363147311854 
955	 0.261918078640469 
956	 0.262650449234299 
957	 0.26341695898603 
958	 0.26414083672477 
959	 0.264828014926106 
960	 0.265581143088907 
961	 0.266321771159102 
962	 0.267074219214107 
963	 0.267907298562327 
964	 0.268718451593396 
965	 0.269424100496044 
966	 0.270164714686064 
967	 0.271132010776075 
968	 0.271904630950165 
969	 0.272641820445725 
970	 0.273408281213982 
971	 0.274186974764602 
972	 0.275071809179641 
973	 0.276009432268485 
974	 0.276967514550034 
975	 0.277918243080775 
976	 0.27872125304401 
977	 0.279531741500389 
978	 0.280404957129696 
979	 0.281278425606612 
980	 0.281935249089965 
981	 0.28269277859472 
982	 0.283616134947143 
983	 0.284567654071852 
984	 0.28539699230573 
985	 0.286386133017786 
986	 0.287392153403769 
987	 0.288131952589594 
988	 0.288965066347684 
989	 0.289941329245055 
990	 0.290891520675696 
991	 0.291666198330678 
992	 0.292725690991285 
993	 0.293558972767826 
994	 0.294360736789154 
995	 0.295472303415097 
996	 0.296388345999655 
997	 0.297264708610629 
998	 0.298130854502341 
999	 0.299002008617688 
1000	 0.300026355092697 
1001	 0.304373469550378 
1002	 0.3052466591703 
1003	 0.306094299598339 
1004	 0.306971274828687 
1005	 0.307907716979599 
1006	 0.308776634657068 
1007	 0.30960405167735 
1008	 0.310479944691981 
1009	 0.311367856659189 
1010	 0.312173028199726 
1011	 0.313004280480317 
1012	 0.313806469137548 
1013	 0.314594915923805 
1014	 0.315397746363598 
1015	 0.316221709437175 
1016	 0.31712464153906 
1017	 0.317952020018398 
1018	 0.318735793417319 
1019	 0.319476730872499 
1020	 0.320250955413547 
1021	 0.320968400229606 
1022	 0.321692305175585 
1023	 0.322423940884198 
1024	 0.323177222252535 
1025	 0.323946521552521 
1026	 0.324641816508187 
1027	 0.32536403403546 
1028	 0.326129020273486 
1029	 0.326890246185713 
1030	 0.327699888494221 
1031	 0.328450372169599 
1032	 0.329212384457501 
1033	 0.329891843262209 
1034	 0.330557631118485 
1035	 0.331236263278511 
1036	 0.331951377422114 
1037	 0.332706630702502 
1038	 0.333435649692058 
1039	 0.334132510495739 
1040	 0.334850508305783 
1041	 0.335595807806055 
1042	 0.336380660595456 
1043	 0.33711237713945 
1044	 0.337805306204004 
1045	 0.338452408209278 
1046	 0.339132738818553 
1047	 0.33982983878747 
1048	 0.340567855799675 
1049	 0.341330205946423 
1050	 0.342047528006519 
1051	 0.342740679250891 
1052	 0.34339816447015 
1053	 0.344064933065401 
1054	 0.344777108155451 
1055	 0.345458317106895 
1056	 0.346128409403475 
1057	 0.346777077778593 
1058	 0.347413233143602 
1059	 0.348048453932099 
1060	 0.348669148872 
1061	 0.349249321905322 
1062	 0.349869010737924 
1063	 0.350521988597233 
1064	 0.351110983613706 
1065	 0.351703993508599 
1066	 0.352290066132621 
1067	 0.35284857060035 
1068	 0.353421611758045 
1069	 0.353985931838823 
1070	 0.354532844080833 
1071	 0.355071766355923 
1072	 0.355603633751986 
1073	 0.356103126206388 
1074	 0.356617780187942 
1075	 0.357136563448056 
1076	 0.357641595454223 
1077	 0.358171743801036 
1078	 0.358698194757855 
1079	 0.359215962925163 
1080	 0.35975613050787 
1081	 0.360273442229269 
1082	 0.36076456075309 
1083	 0.361258981532687 
1084	 0.361757429647856 
1085	 0.362237906847816 
1086	 0.36268328718404 
1087	 0.363163024117662 
1088	 0.363668595663529 
1089	 0.364141900421607 
1090	 0.364558839259627 
1091	 0.365014769719267 
1092	 0.365475712108294 
1093	 0.365931968198347 
1094	 0.366453338665454 
1095	 0.366976442018193 
1096	 0.367474299335072 
1097	 0.367977139055962 
1098	 0.368488812122916 
1099	 0.369015875092525 
1100	 0.369533888054473 
1101	 0.370042294738814 
1102	 0.370563247138195 
1103	 0.371078795968537 
1104	 0.371626563126412 
1105	 0.372172448614633 
1106	 0.372711490593797 
1107	 0.373252462435829 
1108	 0.373778464678347 
1109	 0.374269435769257 
1110	 0.374795903482955 
1111	 0.375345527844112 
1112	 0.375910077916769 
1113	 0.376466191333929 
1114	 0.377051732589897 
1115	 0.377620614834043 
1116	 0.37815575067337 
1117	 0.378736641084285 
1118	 0.37934807408263 
1119	 0.379951430605271 
1120	 0.380581413048131 
1121	 0.381181502317428 
1122	 0.381709042421779 
1123	 0.382272510120668 
1124	 0.382862563656167 
1125	 0.383462084047088 
1126	 0.384050289241928 
1127	 0.384657417794238 
1128	 0.385260869559072 
1129	 0.385849411942595 
1130	 0.386436958327821 
1131	 0.387045593983279 
1132	 0.387650730940776 
1133	 0.388259399009496 
1134	 0.388829180555988 
1135	 0.389389112749319 
1136	 0.389936676845987 
1137	 0.390453510259486 
1138	 0.390954119599213 
1139	 0.391498725238383 
1140	 0.392073132307173 
1141	 0.392639952089282 
1142	 0.393233686571431 
1143	 0.393792035125527 
1144	 0.394345763520107 
1145	 0.394880190180084 
1146	 0.395373785162428 
1147	 0.395899095745141 
1148	 0.396442820656917 
1149	 0.3969598071038 
1150	 0.397475481113152 
1151	 0.397990783691089 
1152	 0.39847600226454 
1153	 0.398972041608978 
1154	 0.399468245260803 
1155	 0.399978012133202 
1156	 0.400465734875331 
1157	 0.400957789004898 
1158	 0.401415564052975 
1159	 0.401845884803561 
1160	 0.402279789663143 
1161	 0.402693868238721 
1162	 0.403113332419459 
1163	 0.403529598517687 
1164	 0.403952016520501 
1165	 0.404377834634335 
1166	 0.404793438266725 
1167	 0.405228000746749 
1168	 0.405673135830324 
1169	 0.40608718657166 
1170	 0.406498690036298 
1171	 0.406889991223079 
1172	 0.407252403447205 
1173	 0.407622239021641 
1174	 0.407988703814971 
1175	 0.40834767700169 
1176	 0.408700222486083 
1177	 0.409051485015543 
1178	 0.409380311904428 
1179	 0.409738270947927 
1180	 0.410118688866882 
1181	 0.410483189185985 
1182	 0.410854441828272 
1183	 0.411234746630018 
1184	 0.411592197025361 
1185	 0.411929336409293 
1186	 0.412270408452753 
1187	 0.412603165159875 
1188	 0.41294564409283 
1189	 0.413298472820627 
1190	 0.413626405643265 
1191	 0.413948753615908 
1192	 0.414268868625046 
1193	 0.414562283743824 
1194	 0.414871257097128 
1195	 0.415208720552913 
1196	 0.415515300154667 
1197	 0.415795850872372 
1198	 0.41608989735644 
1199	 0.416382248689105 
1200	 0.416662708772688 
1201	 0.416950996138781 
1202	 0.417253627913336 
1203	 0.417541901849977 
1204	 0.417815607617291 
1205	 0.41810148679924 
1206	 0.418391514127861 
1207	 0.418681290023784 
1208	 0.418984851511943 
1209	 0.419266852254913 
1210	 0.419539347211392 
1211	 0.419810056310651 
1212	 0.420078233066472 
1213	 0.420328297419124 
1214	 0.42055655100896 
1215	 0.420799235204434 
1216	 0.42104089991853 
1217	 0.421262488025915 
1218	 0.421515217977269 
1219	 0.421803469528879 
1220	 0.422052636212415 
1221	 0.422292106491939 
1222	 0.422534908582769 
1223	 0.422761586519889 
1224	 0.422996733776123 
1225	 0.423253054146587 
1226	 0.423481918149303 
1227	 0.423691668875926 
1228	 0.42390528932633 
1229	 0.424104635174312 
1230	 0.424311171273799 
1231	 0.424530690631957 
1232	 0.424735966530406 
1233	 0.42493502624948 
1234	 0.425124323399086 
1235	 0.425325017360148 
1236	 0.425514185046837 
1237	 0.425727522984229 
1238	 0.425971509409904 
1239	 0.426184528055307 
1240	 0.426398399391344 
1241	 0.42660126385936 
1242	 0.426784191328953 
1243	 0.426970395488636 
1244	 0.427150167216629 
1245	 0.427336017604568 
1246	 0.427517609286561 
1247	 0.427704478273918 
1248	 0.427899270361167 
1249	 0.428100868844854 
1250	 0.428282028840895 
1251	 0.428449193909409 
1252	 0.428621298252322 
1253	 0.428776452063388 
1254	 0.428951700419427 
1255	 0.42915285746429 
1256	 0.429314030308286 
1257	 0.429462585317488 
1258	 0.429608681250303 
1259	 0.42972043507545 
1260	 0.429861021501566 
1261	 0.430021024563755 
1262	 0.430170480023216 
1263	 0.430318782340646 
1264	 0.430470464032561 
1265	 0.430629357908917 
1266	 0.430777777546204 
1267	 0.430914922915322 
1268	 0.431062438948778 
1269	 0.431225021137658 
1270	 0.431388034945903 
1271	 0.431556151881469 
1272	 0.431753759505984 
1273	 0.431923242592918 
1274	 0.432051808494329 
1275	 0.432238422323846 
1276	 0.432451113729197 
1277	 0.432658117488152 
1278	 0.432909680158428 
1279	 0.433125844012887 
1280	 0.433316917426278 
1281	 0.433512448374282 
1282	 0.433703708337852 
1283	 0.433890503280869 
1284	 0.43407829241081 
1285	 0.434258818879042 
1286	 0.434417367143575 
1287	 0.434557398721626 
1288	 0.434671813287141 
1289	 0.434760508993409 
1290	 0.434832661183085 
1291	 0.434875172002707 
1292	 0.434921644423787 
1293	 0.434953888655148 
1294	 0.434973878493601 
1295	 0.434981067453908 
1296	 0.434993900095211 
1297	 0.435010516326273 
1298	 0.434999157020552 
1299	 0.434978655075181 
1300	 0.434948091463702 
1301	 0.434874525844373 
1302	 0.434819657824665 
1303	 0.434767665830544 
1304	 0.434735983879565 
1305	 0.434685372690487 
1306	 0.434622497233753 
1307	 0.434526653787393 
1308	 0.434421671559526 
1309	 0.434327992653687 
1310	 0.434217696548416 
1311	 0.434135602010845 
1312	 0.434075703031826 
1313	 0.434002032075712 
1314	 0.433934794180952 
1315	 0.433864767245777 
1316	 0.433757524520383 
1317	 0.433721547810345 
1318	 0.4337367872719 
1319	 0.433724702166201 
1320	 0.433736257948108 
1321	 0.433755173202714 
1322	 0.433775348054848 
1323	 0.433765897367745 
1324	 0.43379744760355 
1325	 0.433846673346478 
1326	 0.433857132849606 
1327	 0.433878107084495 
1328	 0.433908839023882 
1329	 0.433936996281181 
1330	 0.433986894947676 
1331	 0.434043383328712 
1332	 0.434125628164807 
1333	 0.434231039818763 
1334	 0.434338278211526 
1335	 0.434454311007773 
1336	 0.434591747567202 
1337	 0.434748699181304 
1338	 0.434902005027917 
1339	 0.435091340260206 
1340	 0.435245391191993 
1341	 0.435379482486669 
1342	 0.435511548205596 
1343	 0.435639832157604 
1344	 0.435738168769951 
1345	 0.435849219354706 
1346	 0.43596786435463 
1347	 0.436092925526478 
1348	 0.436234412027461 
1349	 0.436363770769589 
1350	 0.436459748872606 
1351	 0.436551705673503 
1352	 0.436606653361305 
1353	 0.436706559972573 
1354	 0.436826468834066 
1355	 0.436931546680098 
1356	 0.437048260125687 
1357	 0.437150640267861 
1358	 0.437233546338741 
1359	 0.437327903015854 
1360	 0.437421220050159 
1361	 0.437530517292748 
1362	 0.437651919757436 
1363	 0.437764732565471 
1364	 0.437889836393478 
1365	 0.43800526062594 
1366	 0.438104472799212 
1367	 0.438209961066228 
1368	 0.438337479386234 
1369	 0.438451494804584 
1370	 0.438557114618287 
1371	 0.438648263939569 
1372	 0.438698214991267 
1373	 0.438738198661592 
1374	 0.438757193344259 
1375	 0.438758412058531 
1376	 0.438733450960423 
1377	 0.438692908160263 
1378	 0.438623718081419 
1379	 0.438510789825146 
1380	 0.438419463007546 
1381	 0.43830725530051 
1382	 0.438204828302376 
1383	 0.438131196817619 
1384	 0.43802162082434 
1385	 0.43792281587888 
1386	 0.437768805120576 
1387	 0.437586319023202 
1388	 0.437363692067568 
1389	 0.437101977503688 
1390	 0.43679539988134 
1391	 0.436467772180388 
1392	 0.436115410908989 
1393	 0.435710716214966 
1394	 0.435296227121335 
1395	 0.434853665987082 
1396	 0.434377298498773 
1397	 0.433912862168687 
1398	 0.433443383958893 
1399	 0.432962096408219 
1400	 0.432475634559474 
1401	 0.431981538250789 
1402	 0.431477479995465 
1403	 0.430970668219682 
1404	 0.430447136527775 
1405	 0.429943303238035 
1406	 0.429441980263889 
1407	 0.428938716202538 
1408	 0.428439896395075 
1409	 0.427954944286012 
1410	 0.42744762138649 
1411	 0.426990617377368 
1412	 0.426556061591141 
1413	 0.426157208113815 
1414	 0.425805659764298 
1415	 0.425484106483129 
1416	 0.425195270627159 
1417	 0.424928721219969 
1418	 0.424648090432795 
1419	 0.42438953554188 
1420	 0.424146476567884 
1421	 0.423893215144839 
1422	 0.423682541854143 
1423	 0.423475463597061 
1424	 0.423247708778922 
1425	 0.423020191321138 
1426	 0.422781711532146 
1427	 0.422515103524314 
1428	 0.422281171881915 
1429	 0.422053771822544 
1430	 0.421837857129884 
1431	 0.421634106286411 
1432	 0.421431329445567 
1433	 0.421237324079863 
1434	 0.42104799584713 
1435	 0.420854345854714 
1436	 0.420688521172126 
1437	 0.420545513149236 
1438	 0.420396579582577 
1439	 0.420260946384652 
1440	 0.420136016354138 
1441	 0.419977696550632 
1442	 0.41982000726864 
1443	 0.41967403104529 
1444	 0.419522371317506 
1445	 0.419405930806451 
1446	 0.419296940501459 
1447	 0.419187730991692 
1448	 0.41908269823323 
1449	 0.418954545585257 
1450	 0.418803041321157 
1451	 0.418647815755407 
1452	 0.418473348058633 
1453	 0.41831104550735 
1454	 0.418149199570069 
1455	 0.417977701687149 
1456	 0.417816308584817 
1457	 0.417622758191209 
1458	 0.417384925956941 
1459	 0.417193845143268 
1460	 0.416991356744749 
1461	 0.416823263494975 
1462	 0.416703528341241 
1463	 0.416571517177035 
1464	 0.416438232890994 
1465	 0.416328205381567 
1466	 0.41621657882327 
1467	 0.416141838206648 
1468	 0.41608732765831 
1469	 0.41606251906159 
1470	 0.416069477902889 
1471	 0.416101635875114 
1472	 0.416134108461521 
1473	 0.416226372049988 
1474	 0.416352102022968 
1475	 0.416488005419485 
1476	 0.416679722442764 
1477	 0.416893948593598 
1478	 0.417110201261081 
1479	 0.417323911476456 
1480	 0.417554285276694 
1481	 0.41780879459294 
1482	 0.418063917820104 
1483	 0.418338587731711 
1484	 0.418609281691256 
1485	 0.418883557908143 
1486	 0.419155173357991 
1487	 0.419431114957537 
1488	 0.419701116617087 
1489	 0.41998097085249 
1490	 0.420224404129233 
1491	 0.420456272389906 
1492	 0.42067778160931 
1493	 0.42086402163118 
1494	 0.421060830950827 
1495	 0.421272453704731 
1496	 0.421446467697485 
1497	 0.421594195028277 
1498	 0.421750480139789 
1499	 0.421881082594463 
1500	 0.422019388759439 
1501	 0.422168246414222 
1502	 0.422314294887321 
1503	 0.42244798020622 
1504	 0.422598550719446 
1505	 0.422766029523651 
1506	 0.422913983054021 
1507	 0.423062493894004 
1508	 0.42320335297482 
1509	 0.423337429261665 
1510	 0.423480760599838 
1511	 0.42361290646952 
1512	 0.423744029753716 
1513	 0.423910372773538 
1514	 0.424071779521423 
1515	 0.424241259413218 
1516	 0.424427617717898 
1517	 0.424562249306195 
1518	 0.424654171780792 
1519	 0.424762651182845 
1520	 0.42484312433719 
1521	 0.424953172825892 
1522	 0.425080345487649 
1523	 0.42519528898077 
1524	 0.425314668379061 
1525	 0.425436051551185 
1526	 0.425552188366937 
1527	 0.425675033590609 
1528	 0.42580423525283 
1529	 0.425929654061074 
1530	 0.4260532489961 
1531	 0.426180919510805 
1532	 0.426320215993965 
1533	 0.426442384493937 
1534	 0.42656539766659 
1535	 0.426672893824806 
1536	 0.426759032491218 
1537	 0.426850146520244 
1538	 0.426924661192399 
1539	 0.427013466590059 
1540	 0.427105237215873 
1541	 0.427205649716149 
1542	 0.427343479730924 
1543	 0.42744288002169 
1544	 0.427514597347349 
1545	 0.427598280786164 
1546	 0.427672177341519 
1547	 0.427724301370193 
1548	 0.427825190253939 
1549	 0.427936825253537 
1550	 0.428016855663384 
1551	 0.428096509307284 
1552	 0.428164656847744 
1553	 0.428224809768294 
1554	 0.428322988558005 
1555	 0.428443716190961 
1556	 0.428557057883844 
1557	 0.428677554244068 
1558	 0.428779400643304 
1559	 0.428868464004365 
1560	 0.428959258002745 
1561	 0.429036434181194 
1562	 0.429136435262232 
1563	 0.429243000543252 
1564	 0.429352806414749 
1565	 0.429488296912457 
1566	 0.429594763309695 
1567	 0.429682688569561 
1568	 0.429781418606984 
1569	 0.429871720792775 
1570	 0.429965572868999 
1571	 0.430083361641021 
1572	 0.430164488053041 
1573	 0.430222637004832 
1574	 0.430283807658011 
1575	 0.430314527621457 
1576	 0.430375390606782 
1577	 0.43046048783983 
1578	 0.430525624377752 
1579	 0.430595986567737 
1580	 0.430655326090018 
1581	 0.430692837539635 
1582	 0.430743297760292 
1583	 0.430783147622938 
1584	 0.430853159555705 
1585	 0.430958892878558 
1586	 0.431028727462593 
1587	 0.431107036437833 
1588	 0.431170048323752 
1589	 0.431204101143531 
1590	 0.431235981459156 
1591	 0.431263112983827 
1592	 0.431290100043239 
1593	 0.431283992055094 
1594	 0.431314450841066 
1595	 0.431370204935211 
1596	 0.431429776645802 
1597	 0.431520586152183 
1598	 0.43158818092023 
1599	 0.431665181548221 
1600	 0.431710420895037 
1601	 0.431716703500459 
1602	 0.431739467817496 
1603	 0.431744361607004 
1604	 0.431758358081248 
1605	 0.431784295470306 
1606	 0.4318160162593 
1607	 0.431853839704506 
1608	 0.431888060363623 
1609	 0.431937776003696 
1610	 0.431979211775263 
1611	 0.431985594028392 
1612	 0.432005685027817 
1613	 0.43200768632359 
1614	 0.43198622110649 
1615	 0.43200175569228 
1616	 0.432030579614323 
1617	 0.432086851599271 
1618	 0.432169595601516 
1619	 0.432233108758075 
1620	 0.432290481207944 
1621	 0.432334304601687 
1622	 0.432364049291085 
1623	 0.432381945585885 
1624	 0.432386710851835 
1625	 0.432396578208423 
1626	 0.432389664067255 
1627	 0.43240357537129 
1628	 0.432430448884901 
1629	 0.432448343130881 
1630	 0.432469252506737 
1631	 0.43248541653473 
1632	 0.432498513323623 
1633	 0.43251047900842 
1634	 0.432520065524342 
1635	 0.432531585759372 
1636	 0.432540963581826 
1637	 0.4325542255092 
1638	 0.432568478641825 
1639	 0.43258586377118 
1640	 0.432608378744721 
1641	 0.432624502728031 
1642	 0.43263519229088 
1643	 0.432661084485476 
1644	 0.432687142366507 
1645	 0.432722621220041 
1646	 0.432797739992398 
1647	 0.43280560042992 
1648	 0.432776362601409 
1649	 0.432768730839152 
1650	 0.432728235909869 
1651	 0.432713349587684 
1652	 0.432735348128971 
1653	 0.432724210399527 
1654	 0.432687741481529 
1655	 0.43267141430391 
1656	 0.432651896429508 
1657	 0.432646538171573 
1658	 0.432657128086804 
1659	 0.432661298354952 
1660	 0.432665579757172 
1661	 0.432680313446604 
1662	 0.432698213500928 
1663	 0.432721186638797 
1664	 0.432766520215012 
1665	 0.432783920525038 
1666	 0.432795777111295 
1667	 0.43279235309547 
1668	 0.432776866099958 
1669	 0.432741631314305 
1670	 0.43267876838908 
1671	 0.432632730376614 
1672	 0.432564618862159 
1673	 0.432527359921914 
1674	 0.432507258379592 
1675	 0.432501346980848 
1676	 0.432514916536405 
1677	 0.43252760491114 
1678	 0.432559451419209 
1679	 0.43258073448255 
1680	 0.432610691796707 
1681	 0.432614059245236 
1682	 0.432595265107676 
1683	 0.432594219003411 
1684	 0.432573578092882 
1685	 0.432580935646289 
1686	 0.432627284453301 
1687	 0.432640840937568 
1688	 0.43265770541776 
1689	 0.432648623052944 
1690	 0.432592421706646 
1691	 0.432587904847382 
1692	 0.432601864310962 
1693	 0.432599218809603 
1694	 0.432620952256648 
1695	 0.432624303696491 
1696	 0.432608817064115 
1697	 0.432585557492337 
1698	 0.432559099283371 
1699	 0.432531610866612 
1700	 0.432485161230877 
1701	 0.432443292516707 
1702	 0.432413823727937 
1703	 0.432372068495864 
1704	 0.432316861812699 
1705	 0.432264393017217 
1706	 0.432204077202921 
1707	 0.432158080950756 
1708	 0.432114038075308 
1709	 0.432074115230141 
1710	 0.432044353521342 
1711	 0.432023401436409 
1712	 0.432006338694531 
1713	 0.431988748013247 
1714	 0.431991802715293 
1715	 0.431967052243683 
1716	 0.431927658095671 
1717	 0.431887504359743 
1718	 0.431832146962114 
1719	 0.431789050588893 
1720	 0.431744063592774 
1721	 0.431710026127013 
1722	 0.431688047183642 
1723	 0.431651678105149 
1724	 0.431613427899572 
1725	 0.431578840433666 
1726	 0.431545424802968 
1727	 0.431499291318445 
1728	 0.431456649384828 
1729	 0.431398854145116 
1730	 0.431328889250425 
1731	 0.431240808695883 
1732	 0.431144974269849 
1733	 0.431031934502171 
1734	 0.430880438109039 
1735	 0.430764117978883 
1736	 0.430654246897669 
1737	 0.430541665369396 
1738	 0.430436559786961 
1739	 0.430342040649559 
1740	 0.430255091559264 
1741	 0.430152707069128 
1742	 0.430067768772314 
1743	 0.429943459332434 
1744	 0.429770038620493 
1745	 0.429647362559241 
1746	 0.429527132039671 
1747	 0.42943790063053 
1748	 0.429386835976915 
1749	 0.429318360993289 
1750	 0.429249452849455 
1751	 0.429197521398603 
1752	 0.429118031063323 
1753	 0.429005344145256 
1754	 0.4288689146516 
1755	 0.428764742757011 
1756	 0.42864378494676 
1757	 0.428525088043566 
1758	 0.428445537751185 
1759	 0.42830101264298 
1760	 0.428140252777262 
1761	 0.428005578794192 
1762	 0.42788251069054 
1763	 0.427791228395591 
1764	 0.427721521319546 
1765	 0.427675086268947 
1766	 0.427637896107764 
1767	 0.427614339075838 
1768	 0.427592363903965 
1769	 0.427572162846052 
1770	 0.42752788290963 
1771	 0.427437580202885 
1772	 0.42731075510004 
1773	 0.427135633200425 
1774	 0.426989610322737 
1775	 0.426868656931391 
1776	 0.426766098924078 
1777	 0.426724795485632 
1778	 0.426684088206208 
1779	 0.426650069865883 
1780	 0.426625599832142 
1781	 0.426583429179666 
1782	 0.426535685591157 
1783	 0.426495000243866 
1784	 0.426427804262438 
1785	 0.426351615658655 
1786	 0.426271225079244 
1787	 0.426137533642907 
1788	 0.426058982605356 
1789	 0.426014622391383 
1790	 0.425971241661263 
1791	 0.425972218601744 
1792	 0.4259341471452 
1793	 0.425873574397609 
1794	 0.425822747165738 
1795	 0.425765677170383 
1796	 0.425687914626532 
1797	 0.425596883192754 
1798	 0.425525698372174 
1799	 0.425447020788033 
1800	 0.425377002906325 
1801	 0.427220554688254 
1802	 0.427258679029782 
1803	 0.427298609410947 
1804	 0.427327173563236 
1805	 0.427341000799664 
1806	 0.427368140940649 
1807	 0.427380695458134 
1808	 0.427357565583989 
1809	 0.427318091094242 
1810	 0.427276582962058 
1811	 0.427206837241041 
1812	 0.427122376133139 
1813	 0.427062958719106 
1814	 0.426981194098497 
1815	 0.426866939717279 
1816	 0.426758790093869 
1817	 0.426669404515356 
1818	 0.426580710156536 
1819	 0.426495115634592 
1820	 0.426441561352675 
1821	 0.426356552490205 
1822	 0.42621797930924 
1823	 0.426099863417923 
1824	 0.42593939482081 
1825	 0.425750245436018 
1826	 0.425593295030518 
1827	 0.42540110716551 
1828	 0.425177653807356 
1829	 0.424946483788387 
1830	 0.424677974253676 
1831	 0.424371842705493 
1832	 0.424034158137568 
1833	 0.423673420860397 
1834	 0.423312012811132 
1835	 0.422949854428868 
1836	 0.422554656287818 
1837	 0.42212857198445 
1838	 0.421728197074298 
1839	 0.42138071324727 
1840	 0.421050692214619 
1841	 0.420749077703475 
1842	 0.420495408191564 
1843	 0.420261786038454 
1844	 0.419999806073323 
1845	 0.419739367996199 
1846	 0.419562235094635 
1847	 0.419410054954838 
1848	 0.419218012828187 
1849	 0.419081815595242 
1850	 0.418981580355222 
1851	 0.41890818514898 
1852	 0.418814244324379 
1853	 0.418799954497639 
1854	 0.418820631829895 
1855	 0.418798817070837 
1856	 0.418791474683059 
1857	 0.418804034099948 
1858	 0.418767482430735 
1859	 0.418701720045869 
1860	 0.41862292346414 
1861	 0.418533081434221 
1862	 0.418385911736183 
1863	 0.418232399009271 
1864	 0.418097548601032 
1865	 0.41795579577293 
1866	 0.417790701327001 
1867	 0.417600085472889 
1868	 0.417409500106182 
1869	 0.417199941238154 
1870	 0.416960090947471 
1871	 0.416663165934313 
1872	 0.416344680255417 
1873	 0.415953495001613 
1874	 0.415512240061778 
1875	 0.415053071700917 
1876	 0.414543008436918 
1877	 0.413962427639909 
1878	 0.413302556255958 
1879	 0.412545747209256 
1880	 0.411698352740719 
1881	 0.41076117461969 
1882	 0.409753293544021 
1883	 0.408664148049447 
1884	 0.407455721727613 
1885	 0.40621730222784 
1886	 0.404930633098803 
1887	 0.403528188503328 
1888	 0.402081517146422 
1889	 0.400562935500519 
1890	 0.39897305747111 
1891	 0.397348321164417 
1892	 0.395657383804339 
1893	 0.393953190143284 
1894	 0.392216623006231 
1895	 0.390432283299618 
1896	 0.38860475508838 
1897	 0.386768733897902 
1898	 0.384898037132976 
1899	 0.383053129296705 
1900	 0.381261382264849 
1901	 0.379511020640884 
1902	 0.377820605968708 
1903	 0.37618426959941 
1904	 0.374603012709579 
1905	 0.373069970053873 
1906	 0.371623657176422 
1907	 0.370204676076234 
1908	 0.368831031678907 
1909	 0.367506084216266 
1910	 0.366189313606745 
1911	 0.364954226243361 
1912	 0.363768693005781 
1913	 0.362612805839028 
1914	 0.361488475770568 
1915	 0.360429330775369 
1916	 0.359403507917428 
1917	 0.358433294044349 
1918	 0.357562170462423 
1919	 0.356746415632601 
1920	 0.355991265967193 
1921	 0.355307341663585 
1922	 0.35464944256952 
1923	 0.3540355733667 
1924	 0.353485780681864 
1925	 0.352992489799106 
1926	 0.352551313066878 
1927	 0.352168747508348 
1928	 0.351830909264714 
1929	 0.351559401904213 
1930	 0.351303829444624 
1931	 0.351102515980028 
1932	 0.350978896150549 
1933	 0.350869413020111 
1934	 0.350803807119346 
1935	 0.350799684482491 
1936	 0.350848305898369 
1937	 0.350936919227142 
1938	 0.351089335493879 
1939	 0.351268566981243 
1940	 0.351489927707207 
1941	 0.351735415855331 
1942	 0.352007211575381 
1943	 0.35232704179256 
1944	 0.352654079755729 
1945	 0.352985518297159 
1946	 0.353331680075202 
1947	 0.353699778195555 
1948	 0.354063285197651 
1949	 0.354443892159588 
1950	 0.354810174598462 
1951	 0.355179015360202 
1952	 0.355536888022068 
1953	 0.355880094996271 
1954	 0.356231033250378 
1955	 0.35656534396703 
1956	 0.356908917150886 
1957	 0.357268769001818 
1958	 0.357626720285492 
1959	 0.358009843136295 
1960	 0.358434691574671 
1961	 0.358834726068248 
1962	 0.359244959277694 
1963	 0.359642961669455 
1964	 0.360028536161752 
1965	 0.360404314364377 
1966	 0.360792789578205 
1967	 0.361175214966504 
1968	 0.361566767952099 
1969	 0.361954693725662 
1970	 0.362360852241905 
1971	 0.362778665207265 
1972	 0.363210171038158 
1973	 0.363662741017886 
1974	 0.364111173522156 
1975	 0.364581750064191 
1976	 0.365023848809654 
1977	 0.365455645676655 
1978	 0.365888587796993 
1979	 0.36629806487538 
1980	 0.366701977452749 
1981	 0.367110517049853 
1982	 0.36751034372086 
1983	 0.367922106627461 
1984	 0.368347065321876 
1985	 0.368762058477955 
1986	 0.369173618604905 
1987	 0.369590439648518 
1988	 0.370015516553808 
1989	 0.370416432633535 
1990	 0.370808777271843 
1991	 0.371255466246901 
1992	 0.371706419850684 
1993	 0.372194599428311 
1994	 0.372632128608763 
1995	 0.37308382701292 
1996	 0.373488674145974 
1997	 0.373807479860305 
1998	 0.374189717402974 
1999	 0.374593479687116 
2000	 0.374991259708272 
2001	 0.375416666130498 
2002	 0.375830197476536 
2003	 0.376198952753335 
2004	 0.376578375813463 
2005	 0.376982327308345 
2006	 0.377389567150651 
2007	 0.377816421493068 
2008	 0.378284120979637 
2009	 0.378722230746448 
2010	 0.379166179953707 
2011	 0.379588673811633 
2012	 0.379990279772786 
2013	 0.380399013851843 
2014	 0.380798715444682 
2015	 0.381194874168203 
2016	 0.38160390313858 
2017	 0.381999130810949 
2018	 0.382411048894933 
2019	 0.382831126675442 
2020	 0.38325083661649 
2021	 0.383693500707318 
2022	 0.384106189909609 
2023	 0.384510018127015 
2024	 0.384895175574015 
2025	 0.385256893126198 
2026	 0.385616452488028 
2027	 0.385944575599243 
2028	 0.386305070446822 
2029	 0.386661870045768 
2030	 0.387024521888932 
2031	 0.387365464437699 
2032	 0.387710253743807 
2033	 0.388040798533556 
2034	 0.388335575823485 
2035	 0.38866226014508 
2036	 0.38900924297694 
2037	 0.389339555285853 
2038	 0.389680592424849 
2039	 0.390003818263015 
2040	 0.390321933768342 
2041	 0.3906177155044 
2042	 0.390890425677188 
2043	 0.391164041247507 
2044	 0.391427987817329 
2045	 0.391672661640586 
2046	 0.391920718636156 
2047	 0.392164978874644 
2048	 0.392409996873891 
2049	 0.39264939343292 
2050	 0.392889086438014 
2051	 0.393136637721066 
2052	 0.393371464337348 
2053	 0.39358561689677 
2054	 0.393817294634759 
2055	 0.394046529027287 
2056	 0.394289946898706 
2057	 0.394529301291135 
2058	 0.394782618768729 
2059	 0.395019507332324 
2060	 0.395251561424341 
2061	 0.395476313159293 
2062	 0.395693919361065 
2063	 0.395912517221191 
2064	 0.396125760211324 
2065	 0.396334231827126 
2066	 0.396547298853638 
2067	 0.396747574314228 
2068	 0.396934061044695 
2069	 0.397117106607656 
2070	 0.397306352894116 
2071	 0.397494797518722 
2072	 0.397676335329535 
2073	 0.397872728967449 
2074	 0.398031063578207 
2075	 0.398157215357221 
2076	 0.398300205757457 
2077	 0.398422814776769 
2078	 0.39856297459676 
2079	 0.398727467081837 
2080	 0.398872118865026 
2081	 0.399016359922775 
2082	 0.399147918048059 
2083	 0.399251728771315 
2084	 0.399370803796272 
2085	 0.399507181784918 
2086	 0.399647690306087 
2087	 0.399793575720077 
2088	 0.39996002888712 
2089	 0.400122715012751 
2090	 0.400292836553125 
2091	 0.400442090135521 
2092	 0.400599905261542 
2093	 0.400737158155347 
2094	 0.400837890092163 
2095	 0.400953758552573 
2096	 0.401059642489866 
2097	 0.40118255923901 
2098	 0.401307859922624 
2099	 0.401459166754866 
2100	 0.401583080457811 
2101	 0.401709700837745 
2102	 0.401830775962481 
2103	 0.401925597237875 
2104	 0.40205183419815 
2105	 0.402192697923038 
2106	 0.402338708134498 
2107	 0.402492472914733 
2108	 0.402656506963024 
2109	 0.402839632014895 
2110	 0.403014198687904 
2111	 0.403190957872795 
2112	 0.403370662597557 
2113	 0.403541009707588 
2114	 0.40373139912268 
2115	 0.403910506164621 
2116	 0.404090717741155 
2117	 0.404279573796225 
2118	 0.404463259347105 
2119	 0.404662733530841 
2120	 0.404881082027288 
2121	 0.405094187768834 
2122	 0.405323861400128 
2123	 0.405527116706097 
2124	 0.40572856335007 
2125	 0.405912452211898 
2126	 0.406083361285835 
2127	 0.406231853611057 
2128	 0.406371304922831 
2129	 0.406484823394752 
2130	 0.40656649119607 
2131	 0.406629383176429 
2132	 0.406697493396363 
2133	 0.406756570008463 
2134	 0.406798055941521 
2135	 0.406849259102762 
2136	 0.406850151922615 
2137	 0.406816352814401 
2138	 0.40676770149317 
2139	 0.406695447568954 
2140	 0.406593700978636 
2141	 0.406472844155099 
2142	 0.40631909137681 
2143	 0.406097615327149 
2144	 0.405910594475248 
2145	 0.405719991227092 
2146	 0.405523806160779 
2147	 0.405360701411354 
2148	 0.405157405409903 
2149	 0.404939422207244 
2150	 0.40469432701056 
2151	 0.404450994914702 
2152	 0.404196809984534 
2153	 0.403927027035704 
2154	 0.403650529303191 
2155	 0.403355841710634 
2156	 0.403030118920174 
2157	 0.402717250450429 
2158	 0.402420799226652 
2159	 0.402080061848102 
2160	 0.401722695972314 
2161	 0.401350791367675 
2162	 0.400924766259994 
2163	 0.400521192411649 
2164	 0.400127390576871 
2165	 0.399730527084991 
2166	 0.399314818834684 
2167	 0.398883958235719 
2168	 0.398475693692329 
2169	 0.398055788521133 
2170	 0.397656015133815 
2171	 0.397301412344211 
2172	 0.396895235628667 
2173	 0.396481492078401 
2174	 0.396037352147356 
2175	 0.395534327685661 
2176	 0.395075897745753 
2177	 0.394611638854041 
2178	 0.394162490666499 
2179	 0.3937529459144 
2180	 0.393323419674569 
2181	 0.392872651531228 
2182	 0.392441444366522 
2183	 0.392011912740907 
2184	 0.391598289456106 
2185	 0.391176904379047 
2186	 0.390758617285411 
2187	 0.390352843683022 
2188	 0.389945358567439 
2189	 0.389549199503677 
2190	 0.389178905390298 
2191	 0.388795654484896 
2192	 0.388413693519917 
2193	 0.388018999505173 
2194	 0.387595342455468 
2195	 0.387214505559072 
2196	 0.386854645643162 
2197	 0.386485005914712 
2198	 0.386118672361459 
2199	 0.385787031591374 
2200	 0.385434555893534 
2201	 0.385131643930681 
2202	 0.384895199173839 
2203	 0.384674701507517 
2204	 0.384442490039844 
2205	 0.384238416776947 
2206	 0.383997022131844 
2207	 0.38372940050129 
2208	 0.383485748923831 
2209	 0.383221418570664 
2210	 0.383002398708199 
2211	 0.382814051924687 
2212	 0.382634294907217 
2213	 0.382485440305568 
2214	 0.382328965403472 
2215	 0.382165957242383 
2216	 0.38203183533386 
2217	 0.381944991780219 
2218	 0.381807847046923 
2219	 0.381678343855405 
2220	 0.381523390086106 
2221	 0.381327344961401 
2222	 0.381116797235677 
2223	 0.38090652157666 
2224	 0.380697889424596 
2225	 0.380441093226793 
2226	 0.380146351203482 
2227	 0.379857373702968 
2228	 0.37954450033379 
2229	 0.379225227757219 
2230	 0.378901393478329 
2231	 0.378564785398277 
2232	 0.378210101575975 
2233	 0.377850759810519 
2234	 0.377508343749714 
2235	 0.37711050514623 
2236	 0.376675018589153 
2237	 0.376226043874976 
2238	 0.375727513663057 
2239	 0.375240844472006 
2240	 0.37476797237372 
2241	 0.374256965371817 
2242	 0.373733000344503 
2243	 0.373182875125988 
2244	 0.372594340623266 
2245	 0.371993206863274 
2246	 0.371384687119736 
2247	 0.370726158829554 
2248	 0.370112673297482 
2249	 0.369498437752644 
2250	 0.368886543270559 
2251	 0.368281170120702 
2252	 0.367717147405074 
2253	 0.367151223416012 
2254	 0.366624048471034 
2255	 0.366145930399062 
2256	 0.365670726631721 
2257	 0.365164805308393 
2258	 0.364780035196193 
2259	 0.364458523703629 
2260	 0.364186445845638 
2261	 0.363989224821737 
2262	 0.363848325789555 
2263	 0.363752358414371 
2264	 0.363717937655744 
2265	 0.363790011481164 
2266	 0.363861372699393 
2267	 0.363961243655604 
2268	 0.36410319461835 
2269	 0.364259499013815 
2270	 0.364484483710954 
2271	 0.36475722043879 
2272	 0.365093513998413 
2273	 0.365490463985631 
2274	 0.365885914679436 
2275	 0.366291965042212 
2276	 0.366733112209705 
2277	 0.367149610717097 
2278	 0.36755579319154 
2279	 0.367979422492172 
2280	 0.368395522110242 
2281	 0.368844266700965 
2282	 0.369334614625924 
2283	 0.369791022874811 
2284	 0.370270722105454 
2285	 0.370700947261176 
2286	 0.371084883544906 
2287	 0.371477265756124 
2288	 0.371825432844849 
2289	 0.372219874035535 
2290	 0.372668439448943 
2291	 0.37306387566038 
2292	 0.373443532393031 
2293	 0.37383306941774 
2294	 0.374211364918121 
2295	 0.37455321408953 
2296	 0.374872286081753 
2297	 0.375229242995268 
2298	 0.375535495345328 
2299	 0.375810315192214 
2300	 0.376115860264214 
2301	 0.376429433647476 
2302	 0.376730865172814 
2303	 0.377000196200847 
2304	 0.377305212546569 
2305	 0.377619708695266 
2306	 0.37789591872434 
2307	 0.378151360238566 
2308	 0.378427066474282 
2309	 0.378721476273502 
2310	 0.378930717801212 
2311	 0.379127027427542 
2312	 0.379271519114552 
2313	 0.379293329515861 
2314	 0.379382741639024 
2315	 0.379470253786051 
2316	 0.379606554188496 
2317	 0.3797975386574 
2318	 0.37994401720153 
2319	 0.380120683118889 
2320	 0.380235188396323 
2321	 0.380266978990719 
2322	 0.3803437718225 
2323	 0.38042798369066 
2324	 0.380504863408916 
2325	 0.380623264722819 
2326	 0.380680023144489 
2327	 0.380676677144885 
2328	 0.380694778109874 
2329	 0.380706578317296 
2330	 0.38067600425482 
2331	 0.380715481592521 
2332	 0.380763619035758 
2333	 0.380803192456079 
2334	 0.380833416471049 
2335	 0.380832726563957 
2336	 0.380806499118428 
2337	 0.380737699187763 
2338	 0.380653238790404 
2339	 0.380545095976468 
2340	 0.380406932054013 
2341	 0.380283940581211 
2342	 0.380180496960028 
2343	 0.379993839316402 
2344	 0.379761501306941 
2345	 0.379553277100531 
2346	 0.379296552223247 
2347	 0.379045550559894 
2348	 0.378837968561263 
2349	 0.378577164216742 
2350	 0.378274907649767 
2351	 0.377958251467774 
2352	 0.37763284531515 
2353	 0.377264168685833 
2354	 0.376803996377539 
2355	 0.376422629395311 
2356	 0.376077311253206 
2357	 0.375699656189083 
2358	 0.375337956892577 
2359	 0.374996842414235 
2360	 0.37463589151915 
2361	 0.374265513692385 
2362	 0.373971066911266 
2363	 0.373561874319812 
2364	 0.373048192447058 
2365	 0.37256743530792 
2366	 0.372049920846077 
2367	 0.371548530550859 
2368	 0.371014722845041 
2369	 0.37055397153048 
2370	 0.370154358243803 
2371	 0.369709112522696 
2372	 0.369302637894637 
2373	 0.368924644658055 
2374	 0.36848191535852 
2375	 0.36797913986952 
2376	 0.367444317412136 
2377	 0.366889329840249 
2378	 0.366259723931855 
2379	 0.365651504087333 
2380	 0.365054602251204 
2381	 0.364386168254524 
2382	 0.363841907563036 
2383	 0.363338408329406 
2384	 0.362708653645222 
2385	 0.36222247646283 
2386	 0.361740755221627 
2387	 0.361115039971596 
2388	 0.360643210414091 
2389	 0.36014858194245 
2390	 0.359558480353169 
2391	 0.358999216142184 
2392	 0.358337191581656 
2393	 0.357659932371631 
2394	 0.357033818139733 
2395	 0.356437131728782 
2396	 0.355938874206566 
2397	 0.355499195989432 
2398	 0.35492084309199 
2399	 0.354237541131611 
2400	 0.353655801313531 
2401	 0.352971067774841 
2402	 0.352343660585378 
2403	 0.351913543307689 
2404	 0.351337837037075 
2405	 0.350793515623257 
2406	 0.350213061281539 
2407	 0.349574999324595 
2408	 0.349094800246103 
2409	 0.348506304933384 
2410	 0.34793419671143 
2411	 0.34746644360806 
2412	 0.346943361245148 
2413	 0.346534546404998 
2414	 0.346179031734263 
2415	 0.345686055227619 
2416	 0.345173081534835 
2417	 0.34453072812985 
2418	 0.343991369977295 
2419	 0.343498924048596 
2420	 0.343007856414721 
2421	 0.342554258234169 
2422	 0.342073559474831 
2423	 0.341552779904335 
2424	 0.34106735568365 
2425	 0.340641871150277 
2426	 0.340108230070909 
2427	 0.339491106179176 
2428	 0.33899526225534 
2429	 0.338430281504893 
2430	 0.338022462637423 
2431	 0.337897717322216 
2432	 0.337494649292967 
2433	 0.337048242986625 
2434	 0.336517864917871 
2435	 0.33572068226092 
2436	 0.335142728861498 
2437	 0.334670682610268 
2438	 0.334159448034652 
2439	 0.333721065610642 
2440	 0.333216834905833 
2441	 0.3326265713128 
2442	 0.332041765661629 
2443	 0.331465024985994 
2444	 0.33098568690167 
2445	 0.33052447430129 
2446	 0.330114673356324 
2447	 0.329863228896361 
2448	 0.329308103300469 
2449	 0.328631601520879 
2450	 0.327994409223104 
2451	 0.327150729258989 
2452	 0.326553986505072 
2453	 0.32607480998533 
2454	 0.325504941128316 
2455	 0.325027749655684 
2456	 0.324476031621814 
2457	 0.323867217743886 
2458	 0.32334055192659 
2459	 0.32284282446876 
2460	 0.322322705155651 
2461	 0.321811058796825 
2462	 0.321329496120327 
2463	 0.320748137368084 
2464	 0.32035367415695 
2465	 0.320184828549217 
2466	 0.319786995692148 
2467	 0.319390531996055 
2468	 0.319029386709444 
2469	 0.318442871404852 
2470	 0.318089212808427 
2471	 0.317896445792056 
2472	 0.317488043303059 
2473	 0.317068032818474 
2474	 0.316603027776285 
2475	 0.316177230007094 
2476	 0.315685668526865 
2477	 0.315183721956338 
2478	 0.314657679008438 
2479	 0.313842980640255 
2480	 0.313187583873291 
2481	 0.312522815387656 
2482	 0.311937021549654 
2483	 0.311618859742187 
2484	 0.311209050899156 
2485	 0.310766157737777 
2486	 0.310260889639242 
2487	 0.309789888382162 
2488	 0.309196151423234 
2489	 0.308587855357132 
2490	 0.308283975409171 
2491	 0.307960902210057 
2492	 0.307637056792882 
2493	 0.307278155316348 
2494	 0.306734244625208 
2495	 0.30603609878705 
2496	 0.305323943096347 
2497	 0.304766464818148 
2498	 0.304165200003763 
2499	 0.303706656654838 
2500	 0.303262220995666 
