Wavelength	LMW700005.asd
350	 5.71235005819758E-02 
351	 6.37820660019345E-02 
352	 6.60220246814995E-02 
353	 0.056067323353736 
354	 5.73034933358569E-02 
355	 6.07138126251374E-02 
356	 6.19959741019405E-02 
357	 5.99031174413437E-02 
358	 6.08791488909581E-02 
359	 6.00283425063261E-02 
360	 5.77518966994358E-02 
361	 5.78307018153061E-02 
362	 5.95726455895627E-02 
363	 6.07923638273696E-02 
364	 5.97423055125957E-02 
365	 0.054899162305654 
366	 5.79981582162233E-02 
367	 6.22655475223205E-02 
368	 6.00106430005039E-02 
369	 6.15318992371037E-02 
370	 6.35849824245609E-02 
371	 6.40987254005949E-02 
372	 0.062450929008493 
373	 6.16589680570797E-02 
374	 0.062947357514341 
375	 6.53626204554557E-02 
376	 6.48159882767936E-02 
377	 6.40827369924919E-02 
378	 6.49273534904356E-02 
379	 6.75653073431277E-02 
380	 6.74275440652207E-02 
381	 6.63774324602133E-02 
382	 0.06645457713675 
383	 6.91589597523442E-02 
384	 7.01368438375251E-02 
385	 6.94752096470426E-02 
386	 6.86632202819074E-02 
387	 7.05539649450496E-02 
388	 7.20919367224307E-02 
389	 0.072788548699504 
390	 7.32780425002216E-02 
391	 7.51110006315531E-02 
392	 0.076900629351854 
393	 7.84448501349181E-02 
394	 8.05662896732854E-02 
395	 0.081749031795649 
396	 8.26841914645106E-02 
397	 8.39476598132373E-02 
398	 8.50425938464769E-02 
399	 8.68304067984339E-02 
400	 0.089281030693409 
401	 9.17552760042804E-02 
402	 0.092313251961113 
403	 0.093481302275311 
404	 9.54420142811039E-02 
405	 9.58892556099518E-02 
406	 9.86741658380792E-02 
407	 0.101256787114849 
408	 0.101612383038963 
409	 0.102054390897285 
410	 0.10327464867034 
411	 0.104929769869992 
412	 0.106181080711377 
413	 0.106904414216931 
414	 0.107286617770489 
415	 0.107525274855605 
416	 0.10774276911699 
417	 0.108980051901456 
418	 0.110312077545852 
419	 0.110794138873775 
420	 0.111199096861693 
421	 0.110900281538893 
422	 0.110255243186198 
423	 0.110172328476817 
424	 0.110244445260424 
425	 0.110000584565659 
426	 0.109331353406715 
427	 0.108721900927742 
428	 0.108386491338114 
429	 0.108093093472752 
430	 0.107542209122517 
431	 0.106980132715253 
432	 0.106310775472619 
433	 0.105722926651712 
434	 0.105659400505753 
435	 0.105747250352539 
436	 0.105854595301625 
437	 0.105972140324424 
438	 0.106227074683931 
439	 0.106915543214721 
440	 0.107901327164639 
441	 0.108838194719751 
442	 0.109632215173434 
443	 0.110772880226273 
444	 0.112250083635249 
445	 0.113212676741192 
446	 0.11450813309058 
447	 0.115918515837661 
448	 0.117084482650368 
449	 0.118413359251668 
450	 0.119743549004698 
451	 0.121017554129933 
452	 0.122276851988703 
453	 0.123505462798088 
454	 0.124582772273742 
455	 0.125586615844031 
456	 0.127193350634153 
457	 0.12835481003349 
458	 0.129069128269908 
459	 0.129830089965262 
460	 0.130864309009869 
461	 0.131755004880372 
462	 0.132420436504022 
463	 0.133331938854253 
464	 0.134035990313006 
465	 0.134681614762984 
466	 0.135486353342038 
467	 0.136264551498062 
468	 0.136908850684562 
469	 0.137490277607786 
470	 0.138198997869056 
471	 0.138717895363039 
472	 0.139192252106491 
473	 0.13971212226511 
474	 0.140028767345323 
475	 0.140399151831269 
476	 0.140888252737447 
477	 0.141457761123047 
478	 0.142028899763347 
479	 0.142444533893453 
480	 0.142751484628283 
481	 0.143277841344064 
482	 0.14374976966014 
483	 0.144131894214894 
484	 0.144462931735971 
485	 0.144785514113422 
486	 0.145178159619368 
487	 0.145636896393017 
488	 0.146079445914232 
489	 0.146266785647078 
490	 0.146591268568133 
491	 0.147233231429939 
492	 0.147594072292673 
493	 0.147882518485716 
494	 0.148251098177228 
495	 0.148780985058579 
496	 0.149133514694742 
497	 0.149463200469862 
498	 0.149897885514359 
499	 0.150469358380749 
500	 0.150745458542031 
501	 0.150945713754059 
502	 0.151379488677353 
503	 0.151822062384108 
504	 0.152197879959593 
505	 0.152525035728743 
506	 0.15289660687252 
507	 0.153196732192622 
508	 0.153538282761443 
509	 0.153977283564891 
510	 0.154309139314008 
511	 0.154606384034234 
512	 0.154956707633993 
513	 0.155419757173194 
514	 0.155696837677762 
515	 0.155964241907964 
516	 0.156353650695472 
517	 0.156846865141599 
518	 0.157184560317835 
519	 0.157457927643478 
520	 0.157825239402511 
521	 0.158103585852504 
522	 0.158379201192144 
523	 0.158711524977922 
524	 0.159114820889943 
525	 0.159516382118289 
526	 0.159846145352954 
527	 0.160109765106729 
528	 0.160547186051438 
529	 0.160902518651053 
530	 0.161195367927773 
531	 0.161607143714147 
532	 0.161902036014376 
533	 0.162261541834121 
534	 0.162743250155639 
535	 0.163017994108162 
536	 0.163317575912351 
537	 0.163673153386965 
538	 0.164040029710498 
539	 0.164414968559202 
540	 0.164756320865562 
541	 0.165088422495084 
542	 0.165526541220845 
543	 0.165881452917208 
544	 0.166218654988625 
545	 0.166632977157504 
546	 0.16703706913816 
547	 0.167460368337542 
548	 0.167902956530378 
549	 0.168337830651449 
550	 0.16872890106141 
551	 0.169149547791355 
552	 0.169645881038841 
553	 0.170143563587364 
554	 0.170654135807408 
555	 0.171188573755203 
556	 0.171749543744751 
557	 0.172258302772576 
558	 0.172772354625979 
559	 0.173342453539439 
560	 0.173989990698986 
561	 0.17457333784958 
562	 0.175106965246709 
563	 0.175670930301278 
564	 0.176365335444104 
565	 0.176997895872843 
566	 0.177552407236429 
567	 0.178226342518978 
568	 0.179024114289548 
569	 0.179861365368775 
570	 0.180663318440395 
571	 0.181471167780476 
572	 0.182377950040481 
573	 0.183310087900335 
574	 0.184085856618419 
575	 0.184778520783454 
576	 0.185588019512574 
577	 0.186583355701905 
578	 0.187519397520141 
579	 0.188433270891811 
580	 0.189356079694618 
581	 0.190327193501344 
582	 0.191387262806816 
583	 0.192450483679079 
584	 0.193488982842295 
585	 0.194579079997163 
586	 0.195629437800152 
587	 0.19665001818947 
588	 0.197681169446893 
589	 0.198758366182097 
590	 0.199836849798743 
591	 0.200913600123587 
592	 0.202024164917148 
593	 0.203071649138076 
594	 0.204107918998134 
595	 0.205195728363451 
596	 0.206357400749157 
597	 0.207522702317641 
598	 0.208674913655337 
599	 0.209823139120407 
600	 0.210878834190169 
601	 0.211897208208974 
602	 0.212902300891057 
603	 0.213835689123596 
604	 0.214707096129541 
605	 0.215593998548623 
606	 0.216562069296127 
607	 0.217472327098354 
608	 0.21832443162974 
609	 0.219159668967081 
610	 0.220055488886483 
611	 0.220900521722511 
612	 0.221718130885642 
613	 0.222530222020818 
614	 0.223250887213017 
615	 0.223921135284846 
616	 0.224564586107178 
617	 0.225187363688152 
618	 0.225776068386792 
619	 0.22630812794495 
620	 0.226799897950812 
621	 0.227355219755959 
622	 0.227880600163248 
623	 0.228360738868016 
624	 0.228818787229547 
625	 0.22931213520302 
626	 0.229769794143451 
627	 0.230166350509762 
628	 0.23054850382712 
629	 0.23100680331032 
630	 0.231483205950457 
631	 0.231888430099952 
632	 0.232187923698531 
633	 0.232499759984901 
634	 0.232869886286071 
635	 0.233273641382937 
636	 0.233595945978663 
637	 0.233913406539894 
638	 0.234278686516966 
639	 0.234597391523938 
640	 0.234912526479414 
641	 0.235243579013334 
642	 0.235596580446797 
643	 0.235950928016105 
644	 0.236327814915895 
645	 0.236715760493185 
646	 0.237050409075829 
647	 0.237366817205805 
648	 0.237676828198877 
649	 0.237997815818646 
650	 0.23839425813731 
651	 0.238796812312673 
652	 0.239170959482626 
653	 0.239521870788709 
654	 0.239933043401801 
655	 0.240331706361059 
656	 0.240676210235316 
657	 0.241072357472874 
658	 0.241496899196852 
659	 0.24191956853586 
660	 0.242314077471881 
661	 0.242743120838057 
662	 0.243187681307598 
663	 0.243627475912967 
664	 0.244050429950838 
665	 0.244513684495855 
666	 0.245019979190324 
667	 0.245538260271568 
668	 0.245969808510538 
669	 0.246424934680055 
670	 0.24693532106689 
671	 0.247455904276646 
672	 0.247919776430268 
673	 0.248429755264191 
674	 0.249031615650584 
675	 0.249570554099397 
676	 0.250080475518393 
677	 0.250576650551135 
678	 0.251083692871873 
679	 0.251711126797929 
680	 0.252311471052436 
681	 0.252855286045211 
682	 0.253495889445089 
683	 0.254133013130106 
684	 0.254733097598759 
685	 0.255302058358253 
686	 0.255921228883379 
687	 0.256537879629034 
688	 0.257167604296252 
689	 0.257864328342327 
690	 0.258520923503853 
691	 0.25912406054619 
692	 0.259715972959517 
693	 0.260424930593485 
694	 0.261114620009119 
695	 0.261791306370056 
696	 0.262489288135186 
697	 0.263077945170071 
698	 0.263757367557927 
699	 0.264542446861773 
700	 0.265238055172823 
701	 0.265887322229628 
702	 0.266537108618438 
703	 0.267204328631061 
704	 0.267801074942658 
705	 0.268463603943579 
706	 0.269169134983638 
707	 0.269823845694765 
708	 0.270521201868213 
709	 0.271168735284812 
710	 0.271759041498764 
711	 0.272433754811915 
712	 0.273083703427682 
713	 0.273705703938348 
714	 0.274323633328024 
715	 0.274947498935709 
716	 0.275551657757928 
717	 0.276121835926562 
718	 0.276658785772421 
719	 0.277238301103769 
720	 0.277783711743168 
721	 0.278246501159521 
722	 0.278664756243946 
723	 0.279156452038028 
724	 0.279695856295422 
725	 0.28019424354166 
726	 0.280548278646747 
727	 0.280912446610768 
728	 0.281300331047002 
729	 0.281591291812088 
730	 0.281936704921131 
731	 0.282249897587826 
732	 0.282476517760193 
733	 0.282743323110783 
734	 0.282999047698415 
735	 0.283203128771447 
736	 0.283334015348662 
737	 0.283466979049012 
738	 0.283587648798697 
739	 0.283678790934358 
740	 0.283728429291222 
741	 0.283746882690718 
742	 0.283748735443165 
743	 0.283723111452648 
744	 0.283582355601345 
745	 0.283430819881762 
746	 0.283306840717165 
747	 0.283198562766914 
748	 0.282998944777139 
749	 0.282786870533604 
750	 0.282590771165319 
751	 0.28235804361932 
752	 0.282068681738626 
753	 0.281728871624399 
754	 0.281369837419846 
755	 0.281069196577357 
756	 0.28078277296503 
757	 0.280442696248558 
758	 0.279989664060106 
759	 0.279513874502973 
760	 0.279010312517945 
761	 0.278504924646562 
762	 0.278069394262701 
763	 0.277613904430451 
764	 0.277123264596184 
765	 0.276605114847477 
766	 0.276073196367171 
767	 0.275528085955829 
768	 0.27496244272862 
769	 0.274376639512145 
770	 0.27386187389266 
771	 0.273324508402259 
772	 0.272729104415435 
773	 0.272129968015506 
774	 0.271544805434744 
775	 0.270947679797909 
776	 0.270318114376819 
777	 0.269674425060001 
778	 0.269089182512133 
779	 0.268504341111374 
780	 0.267832837023843 
781	 0.267227048033794 
782	 0.266646223623822 
783	 0.266041645622433 
784	 0.265381322058984 
785	 0.264804264209981 
786	 0.26423320561176 
787	 0.263599894932597 
788	 0.262957065582581 
789	 0.262314347274873 
790	 0.261713842757753 
791	 0.261182877499319 
792	 0.26063463354873 
793	 0.260044971454935 
794	 0.259417162568906 
795	 0.258780376511547 
796	 0.258172638542946 
797	 0.257643028771374 
798	 0.257151064560808 
799	 0.256490931636491 
800	 0.25593324421073 
801	 0.25543512890669 
802	 0.254878384653177 
803	 0.254242684889976 
804	 0.253734649724183 
805	 0.25330691042041 
806	 0.252772203817673 
807	 0.252269155614571 
808	 0.251736593467471 
809	 0.251173288995259 
810	 0.250675536646879 
811	 0.250188858252235 
812	 0.24971101484747 
813	 0.249244446106568 
814	 0.248779619969956 
815	 0.248282345115517 
816	 0.247788902478246 
817	 0.247352614753692 
818	 0.246936800871743 
819	 0.246557241760129 
820	 0.246176410462952 
821	 0.245723596972648 
822	 0.245306808111305 
823	 0.244943081078352 
824	 0.244587398756663 
825	 0.244120249165753 
826	 0.243715376721142 
827	 0.243389691020513 
828	 0.243090950474858 
829	 0.242699900416023 
830	 0.24232834102866 
831	 0.241975825341332 
832	 0.241601316552278 
833	 0.241285879359581 
834	 0.240975888999972 
835	 0.240681967590293 
836	 0.240467593631584 
837	 0.240143254692553 
838	 0.23981837093613 
839	 0.239564402773381 
840	 0.23930269305758 
841	 0.239065074325028 
842	 0.238778721365693 
843	 0.238426479471504 
844	 0.23824376827395 
845	 0.238111370839762 
846	 0.23793206911372 
847	 0.237664199113248 
848	 0.237505591960148 
849	 0.237316481384866 
850	 0.23707631746914 
851	 0.236877745553202 
852	 0.236683700992268 
853	 0.236489657131234 
854	 0.236320467033396 
855	 0.236234732915658 
856	 0.236169003312602 
857	 0.236059692861973 
858	 0.235878337049127 
859	 0.235663844301574 
860	 0.235566116434402 
861	 0.235501077528894 
862	 0.235359341152041 
863	 0.235345772836059 
864	 0.235272422445861 
865	 0.235156026542296 
866	 0.235121519803023 
867	 0.235037485820287 
868	 0.23499292492232 
869	 0.234977863211962 
870	 0.23487519029468 
871	 0.234765432803262 
872	 0.234745078830564 
873	 0.23482289266467 
874	 0.234869099824653 
875	 0.234870901497351 
876	 0.234854590249556 
877	 0.23485484477814 
878	 0.234882110749633 
879	 0.235019158995186 
880	 0.235099252465645 
881	 0.234989671295178 
882	 0.23506527491651 
883	 0.235172360475113 
884	 0.235236513497831 
885	 0.235262316548884 
886	 0.235390448883957 
887	 0.235578174261922 
888	 0.235719214397845 
889	 0.235708763680692 
890	 0.235835475260333 
891	 0.236011829094284 
892	 0.236190689656108 
893	 0.236428247034721 
894	 0.236489516491588 
895	 0.236539307000183 
896	 0.236723722512091 
897	 0.237005351986262 
898	 0.237265464252148 
899	 0.237476236386584 
900	 0.237635239041293 
901	 0.237707288540583 
902	 0.237911071121524 
903	 0.238214068787238 
904	 0.238504603555293 
905	 0.238763658890973 
906	 0.238998033667625 
907	 0.239278562668653 
908	 0.239646722219041 
909	 0.239854418878757 
910	 0.240050233055601 
911	 0.240325356069559 
912	 0.240683824399192 
913	 0.240947336223335 
914	 0.241203287396701 
915	 0.241537967817222 
916	 0.241979800836572 
917	 0.242249330729826 
918	 0.242599255489459 
919	 0.243105783973462 
920	 0.243564626722595 
921	 0.243982123468213 
922	 0.244268167781981 
923	 0.244498490860167 
924	 0.244977177692995 
925	 0.245405224278241 
926	 0.245861450963486 
927	 0.246369933369331 
928	 0.246712970372162 
929	 0.247271771606482 
930	 0.247854743114367 
931	 0.248260322523654 
932	 0.248617792729514 
933	 0.249018360111769 
934	 0.249548723990842 
935	 0.250196824470773 
936	 0.250709271772803 
937	 0.25127603973692 
938	 0.251810487744001 
939	 0.252243013859679 
940	 0.252884663087531 
941	 0.25343552522993 
942	 0.253974923810503 
943	 0.254653467723213 
944	 0.255262824833693 
945	 0.255849728614137 
946	 0.256483707322058 
947	 0.257179500450929 
948	 0.257674069506404 
949	 0.258326643486982 
950	 0.259063804751222 
951	 0.25966587840261 
952	 0.260438555418581 
953	 0.261208916591786 
954	 0.261860374905308 
955	 0.262398454586123 
956	 0.263182562402634 
957	 0.263866136349126 
958	 0.264475328216276 
959	 0.26524353888971 
960	 0.266027357204023 
961	 0.266810645879884 
962	 0.267579359890687 
963	 0.268325860327973 
964	 0.269091771126167 
965	 0.269769743044279 
966	 0.27051985652462 
967	 0.271563269930097 
968	 0.272357705204803 
969	 0.273158796332247 
970	 0.273915515172909 
971	 0.274463219028758 
972	 0.275480856938055 
973	 0.276493895864631 
974	 0.277346569078416 
975	 0.278172703217778 
976	 0.279038333008601 
977	 0.279842774703745 
978	 0.280679381822283 
979	 0.281691822757208 
980	 0.282551392049679 
981	 0.283307424791596 
982	 0.284100916967361 
983	 0.285044874526198 
984	 0.285878938050393 
985	 0.286876610965775 
986	 0.287900390885412 
987	 0.288657910413696 
988	 0.289394108428928 
989	 0.29028463782249 
990	 0.291256381907775 
991	 0.292148098656212 
992	 0.293083069524858 
993	 0.29386407074751 
994	 0.294707451564937 
995	 0.295839100228604 
996	 0.296740045357879 
997	 0.297659366077853 
998	 0.298536226713719 
999	 0.299318217608992 
1000	 0.300433286666711 
1001	 0.304677918121905 
1002	 0.305519053076625 
1003	 0.306333035620809 
1004	 0.3071897358663 
1005	 0.308102512728893 
1006	 0.308987607848903 
1007	 0.309874073685627 
1008	 0.310767111727552 
1009	 0.311608472718746 
1010	 0.312386621545524 
1011	 0.313186194871761 
1012	 0.313966166488815 
1013	 0.314777151167101 
1014	 0.31563767062283 
1015	 0.316481797487211 
1016	 0.317316917200186 
1017	 0.318124213057586 
1018	 0.318928691909839 
1019	 0.319677916939984 
1020	 0.320443628749216 
1021	 0.321222686170708 
1022	 0.321998502410481 
1023	 0.322753264471458 
1024	 0.323493415026698 
1025	 0.324278621415584 
1026	 0.32501606410345 
1027	 0.325747740437527 
1028	 0.326489379860918 
1029	 0.327163323267309 
1030	 0.327869510118276 
1031	 0.328588964650057 
1032	 0.329332618908974 
1033	 0.330056948285178 
1034	 0.330815680959518 
1035	 0.331568268213406 
1036	 0.332286950780925 
1037	 0.333000663542146 
1038	 0.333719273426275 
1039	 0.334448330833045 
1040	 0.335183234694742 
1041	 0.335875385309664 
1042	 0.336576449777189 
1043	 0.337275866038431 
1044	 0.337972510387903 
1045	 0.338666805989558 
1046	 0.339422372347018 
1047	 0.340153210427435 
1048	 0.340896021135553 
1049	 0.341631475027111 
1050	 0.342344506411518 
1051	 0.343072415120176 
1052	 0.343695822386055 
1053	 0.344338033181661 
1054	 0.345022649939468 
1055	 0.34564780098201 
1056	 0.346352158883101 
1057	 0.347010006091704 
1058	 0.347621095266328 
1059	 0.348263869624047 
1060	 0.34893831605324 
1061	 0.349543036465058 
1062	 0.350105839583296 
1063	 0.350758832300003 
1064	 0.351380196097329 
1065	 0.351963491847089 
1066	 0.352576060521683 
1067	 0.353147912323231 
1068	 0.35367060833934 
1069	 0.354201411374649 
1070	 0.354743601255276 
1071	 0.355303554969408 
1072	 0.355857112463329 
1073	 0.356418129896897 
1074	 0.356945507591069 
1075	 0.35744945590926 
1076	 0.357967937485587 
1077	 0.35847835842427 
1078	 0.35895548791843 
1079	 0.359452235977185 
1080	 0.359966709930767 
1081	 0.360438725909314 
1082	 0.360955569747569 
1083	 0.361463168593592 
1084	 0.36197538371453 
1085	 0.362463570084317 
1086	 0.36293742782788 
1087	 0.363414340431091 
1088	 0.363878538146936 
1089	 0.364352524012463 
1090	 0.36482388224501 
1091	 0.365325657654435 
1092	 0.365807215889058 
1093	 0.366317064213339 
1094	 0.366829569794937 
1095	 0.367303888376652 
1096	 0.367822782253773 
1097	 0.368342580905398 
1098	 0.368852677759679 
1099	 0.369373738146212 
1100	 0.369894451803086 
1101	 0.370392832176078 
1102	 0.370913084068467 
1103	 0.371449450189253 
1104	 0.371988928528053 
1105	 0.372528144917037 
1106	 0.373074690698861 
1107	 0.373616733819317 
1108	 0.374176339743832 
1109	 0.374728836295873 
1110	 0.375251751589219 
1111	 0.375808452759968 
1112	 0.376368484396655 
1113	 0.376938909464485 
1114	 0.377547003191511 
1115	 0.3781317408017 
1116	 0.378712123640935 
1117	 0.37928848012486 
1118	 0.37986002484235 
1119	 0.380396732400602 
1120	 0.381033899741639 
1121	 0.381665310267669 
1122	 0.38223525505385 
1123	 0.382872873592608 
1124	 0.383471655808309 
1125	 0.384010264477953 
1126	 0.384586865994514 
1127	 0.38520013879086 
1128	 0.385782112000946 
1129	 0.386339140501474 
1130	 0.386906129222836 
1131	 0.387470091634637 
1132	 0.388050677039858 
1133	 0.388649258704282 
1134	 0.389228569739352 
1135	 0.38982006290233 
1136	 0.390380519072801 
1137	 0.390941307506459 
1138	 0.391485387012479 
1139	 0.392029061752143 
1140	 0.392570872096913 
1141	 0.393118600991922 
1142	 0.393649324536762 
1143	 0.394205730503859 
1144	 0.394791185425876 
1145	 0.395350329990553 
1146	 0.395921149129547 
1147	 0.396459710640188 
1148	 0.396952950897779 
1149	 0.397477046206756 
1150	 0.398002410166127 
1151	 0.398539841829744 
1152	 0.399047683129356 
1153	 0.399561548173937 
1154	 0.400045076777198 
1155	 0.400481788216207 
1156	 0.400939895695259 
1157	 0.401412855320383 
1158	 0.401850106411814 
1159	 0.402257511143221 
1160	 0.402688956646244 
1161	 0.403115687164437 
1162	 0.403542101176642 
1163	 0.403986542472442 
1164	 0.404416726195705 
1165	 0.40483617283216 
1166	 0.405237724478856 
1167	 0.405684510710023 
1168	 0.406129725000029 
1169	 0.406554541845226 
1170	 0.406993437479614 
1171	 0.407399513640929 
1172	 0.407768810567395 
1173	 0.408153195887154 
1174	 0.408534415029465 
1175	 0.408912707685824 
1176	 0.409293162814924 
1177	 0.409662219144294 
1178	 0.410018820953117 
1179	 0.410381599872575 
1180	 0.410743044423504 
1181	 0.411101488551718 
1182	 0.411459982717173 
1183	 0.411820776687301 
1184	 0.412179391555075 
1185	 0.412539948347164 
1186	 0.412881035037117 
1187	 0.413217968292721 
1188	 0.413548469493565 
1189	 0.413856754973852 
1190	 0.414177028393532 
1191	 0.414508323589362 
1192	 0.414825422132604 
1193	 0.415131281615068 
1194	 0.415444239346735 
1195	 0.415756151500475 
1196	 0.416064957442712 
1197	 0.416391426820569 
1198	 0.416691998205597 
1199	 0.416979063789653 
1200	 0.417248337055428 
1201	 0.417528401918326 
1202	 0.417787760044764 
1203	 0.418075941225619 
1204	 0.418385409926651 
1205	 0.418681375325339 
1206	 0.41899017774276 
1207	 0.419279177232405 
1208	 0.419554367027013 
1209	 0.419831794080418 
1210	 0.420102981237702 
1211	 0.420371481704459 
1212	 0.420643612028362 
1213	 0.420904833089705 
1214	 0.421151770360261 
1215	 0.421403297306382 
1216	 0.421653383226973 
1217	 0.421897618471178 
1218	 0.422147447376876 
1219	 0.422403159837394 
1220	 0.42265241019889 
1221	 0.422903244438014 
1222	 0.42314564965464 
1223	 0.423381604929101 
1224	 0.423618751626417 
1225	 0.423852004761587 
1226	 0.424084070290968 
1227	 0.42432732838481 
1228	 0.424549263358462 
1229	 0.424753963278302 
1230	 0.424962757080341 
1231	 0.425151875735041 
1232	 0.425354576420615 
1233	 0.425563587504371 
1234	 0.425784733339879 
1235	 0.425992625169283 
1236	 0.426195952801554 
1237	 0.426413218983874 
1238	 0.426637674897158 
1239	 0.426849899220992 
1240	 0.427074630458417 
1241	 0.427282572676253 
1242	 0.427467943880096 
1243	 0.427660919091083 
1244	 0.427856803169215 
1245	 0.428045762890982 
1246	 0.428222932492175 
1247	 0.428410998044421 
1248	 0.42859846508404 
1249	 0.428798645085467 
1250	 0.428992755019039 
1251	 0.42916509707014 
1252	 0.429338805937167 
1253	 0.429491954709889 
1254	 0.429664400487008 
1255	 0.429847973920964 
1256	 0.4300197016332 
1257	 0.430198600140312 
1258	 0.430361856729631 
1259	 0.430515317366345 
1260	 0.430660650138349 
1261	 0.430792449710806 
1262	 0.430924101745275 
1263	 0.431035875017134 
1264	 0.431166945883517 
1265	 0.431312330761914 
1266	 0.431452422710111 
1267	 0.431587389146687 
1268	 0.431744827430639 
1269	 0.431897732579444 
1270	 0.432033753232766 
1271	 0.432214482375725 
1272	 0.432426720168697 
1273	 0.432622049468118 
1274	 0.432841124824368 
1275	 0.433043086810031 
1276	 0.433223947663182 
1277	 0.433424392065347 
1278	 0.433641969724746 
1279	 0.433840131218839 
1280	 0.434026498340027 
1281	 0.434226572159291 
1282	 0.434433472277249 
1283	 0.434626516399888 
1284	 0.434833709620929 
1285	 0.435023557151004 
1286	 0.435184105088935 
1287	 0.435314295119454 
1288	 0.435418334838889 
1289	 0.435493001518187 
1290	 0.435561370713274 
1291	 0.435592662762171 
1292	 0.435640070234371 
1293	 0.435696659463257 
1294	 0.435717404214124 
1295	 0.435724958225875 
1296	 0.435721337351186 
1297	 0.435681256986281 
1298	 0.435655409330493 
1299	 0.435637185672554 
1300	 0.435601935902198 
1301	 0.435560860175987 
1302	 0.435509755883443 
1303	 0.435443382170406 
1304	 0.435374915256053 
1305	 0.435302085665441 
1306	 0.435224195863044 
1307	 0.435133262544839 
1308	 0.43504422723533 
1309	 0.434976512605619 
1310	 0.434922509175817 
1311	 0.434854500262992 
1312	 0.43479340989397 
1313	 0.434735571864364 
1314	 0.434671608277436 
1315	 0.43460532059654 
1316	 0.434537836815104 
1317	 0.434494515149307 
1318	 0.4344403964949 
1319	 0.434411675006218 
1320	 0.434421269045917 
1321	 0.43442640330825 
1322	 0.434428226678215 
1323	 0.434451035676872 
1324	 0.434498556624391 
1325	 0.434536882005289 
1326	 0.434557236859009 
1327	 0.434597696597031 
1328	 0.434648448175685 
1329	 0.434688174761874 
1330	 0.43474091376567 
1331	 0.434811490342162 
1332	 0.43488213606057 
1333	 0.434943625557658 
1334	 0.435030522065982 
1335	 0.435132178851138 
1336	 0.435253133785324 
1337	 0.435386703204885 
1338	 0.435531944471629 
1339	 0.435724458846271 
1340	 0.435869802912348 
1341	 0.4360002857178 
1342	 0.43613054968353 
1343	 0.436240108937414 
1344	 0.436344546002915 
1345	 0.436472919665531 
1346	 0.436594645900973 
1347	 0.43670970123209 
1348	 0.436834414583458 
1349	 0.436937284587742 
1350	 0.437028819246096 
1351	 0.4371362159701 
1352	 0.437242370792085 
1353	 0.437349635037968 
1354	 0.437473913642551 
1355	 0.437580184798674 
1356	 0.43767556385556 
1357	 0.437770124414294 
1358	 0.43785723436165 
1359	 0.437947151506278 
1360	 0.438029482609259 
1361	 0.438125244945708 
1362	 0.438223648342261 
1363	 0.43833110232199 
1364	 0.438456662259773 
1365	 0.438569395292669 
1366	 0.438670694964725 
1367	 0.43879156894704 
1368	 0.438934544299637 
1369	 0.439043049259925 
1370	 0.439146119584997 
1371	 0.439238799338472 
1372	 0.439266119722175 
1373	 0.43928038099393 
1374	 0.439281853271781 
1375	 0.439265394007029 
1376	 0.439226365176454 
1377	 0.439180356945386 
1378	 0.439093783471211 
1379	 0.438958730500768 
1380	 0.438844820562004 
1381	 0.438706446304963 
1382	 0.438581522183378 
1383	 0.438488212219749 
1384	 0.438351258373424 
1385	 0.438217798678398 
1386	 0.438032146693104 
1387	 0.437817889841706 
1388	 0.437563752035653 
1389	 0.437264798995017 
1390	 0.436938772878511 
1391	 0.43659025061911 
1392	 0.436198745321809 
1393	 0.435780480273406 
1394	 0.43534054499985 
1395	 0.434854161465127 
1396	 0.434355151444964 
1397	 0.433855538010767 
1398	 0.433341920724635 
1399	 0.432815408406272 
1400	 0.432286347985862 
1401	 0.431740793511914 
1402	 0.431163765531802 
1403	 0.430605576334316 
1404	 0.430038525662481 
1405	 0.429491226317937 
1406	 0.428960174964071 
1407	 0.428426207640648 
1408	 0.427886534059359 
1409	 0.427372942466071 
1410	 0.426852581992543 
1411	 0.426376028345529 
1412	 0.425915699407437 
1413	 0.425509254979395 
1414	 0.425164366516013 
1415	 0.424819060428792 
1416	 0.424520433258117 
1417	 0.424249193481783 
1418	 0.423949458016446 
1419	 0.42366996797468 
1420	 0.423415718461712 
1421	 0.423162851346876 
1422	 0.422933009817162 
1423	 0.422717520692825 
1424	 0.422481796955602 
1425	 0.422233097283918 
1426	 0.421994864970552 
1427	 0.421749823447143 
1428	 0.421519003052162 
1429	 0.421292182118481 
1430	 0.421082951691579 
1431	 0.420889334241099 
1432	 0.420688776606056 
1433	 0.420496703672353 
1434	 0.420312039572883 
1435	 0.420114139211148 
1436	 0.419947436701837 
1437	 0.419808395275217 
1438	 0.4196638187061 
1439	 0.41953340241721 
1440	 0.419404955555574 
1441	 0.419266431789282 
1442	 0.419132159409857 
1443	 0.418990201254323 
1444	 0.418844277779462 
1445	 0.418709406844736 
1446	 0.418575616406578 
1447	 0.418444142882196 
1448	 0.418309878256323 
1449	 0.418159726031352 
1450	 0.418000079646999 
1451	 0.417839537931724 
1452	 0.417674254493562 
1453	 0.417503150353645 
1454	 0.417320338073007 
1455	 0.417151068784525 
1456	 0.416994363334345 
1457	 0.416814909935094 
1458	 0.416622628824753 
1459	 0.416445602675787 
1460	 0.416244430136519 
1461	 0.416077230443157 
1462	 0.41593594439835 
1463	 0.415805357447207 
1464	 0.41568173186205 
1465	 0.415576143918875 
1466	 0.415479567459857 
1467	 0.415421017804416 
1468	 0.415383258420314 
1469	 0.415377476302144 
1470	 0.415415566729076 
1471	 0.415459683270485 
1472	 0.415508269210241 
1473	 0.415599279341845 
1474	 0.415732756089 
1475	 0.415892432671812 
1476	 0.416106476549172 
1477	 0.416332468428399 
1478	 0.416561085780344 
1479	 0.416813742519958 
1480	 0.41708914974482 
1481	 0.417388886438196 
1482	 0.417660484856026 
1483	 0.417930472911994 
1484	 0.418211298783416 
1485	 0.418473462024779 
1486	 0.418757092053694 
1487	 0.419079838757728 
1488	 0.41936258497984 
1489	 0.419638740613975 
1490	 0.419890331038861 
1491	 0.420118636813224 
1492	 0.420345514460457 
1493	 0.420548172164431 
1494	 0.420758745527342 
1495	 0.420981163818067 
1496	 0.421176594231225 
1497	 0.421355342667887 
1498	 0.421537103038091 
1499	 0.421703849772484 
1500	 0.421866130727575 
1501	 0.422024205586063 
1502	 0.422184505956555 
1503	 0.422336338670257 
1504	 0.422490229370108 
1505	 0.422653115911677 
1506	 0.422824776305354 
1507	 0.422994336995735 
1508	 0.423142706402653 
1509	 0.423259787614629 
1510	 0.423386464018068 
1511	 0.423521471017541 
1512	 0.423654591906116 
1513	 0.423828510942334 
1514	 0.423997415211329 
1515	 0.424157866707081 
1516	 0.424321728734328 
1517	 0.424454222290846 
1518	 0.424566065762282 
1519	 0.424683803308778 
1520	 0.424772873701667 
1521	 0.424891270150967 
1522	 0.425032265745304 
1523	 0.425153060397923 
1524	 0.425265468761231 
1525	 0.425396698185137 
1526	 0.425519843149438 
1527	 0.425664973500982 
1528	 0.425855291414546 
1529	 0.425994554402207 
1530	 0.426108500744848 
1531	 0.426245460022212 
1532	 0.426364801078755 
1533	 0.426495700159638 
1534	 0.426670130009227 
1535	 0.426796725365453 
1536	 0.426885138996365 
1537	 0.426993552950344 
1538	 0.427088091289681 
1539	 0.427189884442702 
1540	 0.427306862654953 
1541	 0.427417847189372 
1542	 0.427530788176776 
1543	 0.427632986738925 
1544	 0.427727934070399 
1545	 0.427823162301478 
1546	 0.427906923203141 
1547	 0.427987941031429 
1548	 0.428100749551263 
1549	 0.428226238006455 
1550	 0.42833599057548 
1551	 0.428455371222201 
1552	 0.428562732703204 
1553	 0.428645525916365 
1554	 0.428737651009642 
1555	 0.428844064679916 
1556	 0.428955988970328 
1557	 0.429043313381811 
1558	 0.429127270462236 
1559	 0.429219828957196 
1560	 0.429317504330006 
1561	 0.429412363720309 
1562	 0.429515708025219 
1563	 0.42963479384482 
1564	 0.429737426733714 
1565	 0.429828385028869 
1566	 0.429934265379366 
1567	 0.430047064730853 
1568	 0.430152277156915 
1569	 0.430266502401158 
1570	 0.43035912658361 
1571	 0.43044188146316 
1572	 0.430516558244985 
1573	 0.430567320453932 
1574	 0.430640312903815 
1575	 0.43071442026302 
1576	 0.430792109894105 
1577	 0.430894359061472 
1578	 0.43096735852712 
1579	 0.431029443150465 
1580	 0.431079005823247 
1581	 0.431095112185617 
1582	 0.431147551372007 
1583	 0.431207861430739 
1584	 0.43126966402655 
1585	 0.431350937260065 
1586	 0.431424424851911 
1587	 0.431492589850962 
1588	 0.431565207827382 
1589	 0.431655799927343 
1590	 0.431725068769075 
1591	 0.431782225597266 
1592	 0.43183319227948 
1593	 0.431857610307723 
1594	 0.431905834442056 
1595	 0.431960219744465 
1596	 0.432020051701014 
1597	 0.432103638704343 
1598	 0.432172134288769 
1599	 0.432252078909929 
1600	 0.432299512127537 
1601	 0.432317418370493 
1602	 0.432339364624062 
1603	 0.432330149569464 
1604	 0.432338781287827 
1605	 0.432363574590842 
1606	 0.432385216540245 
1607	 0.432407654650967 
1608	 0.432435207961036 
1609	 0.432455742024869 
1610	 0.432483485057342 
1611	 0.4325049807296 
1612	 0.432509751844829 
1613	 0.432509694172878 
1614	 0.432518570358947 
1615	 0.43254284890253 
1616	 0.432578833973745 
1617	 0.43264531243251 
1618	 0.432718613137723 
1619	 0.432762966165818 
1620	 0.432809764988632 
1621	 0.432857498589164 
1622	 0.432895727499725 
1623	 0.432925214576831 
1624	 0.432964785950487 
1625	 0.432979267898507 
1626	 0.432957365425606 
1627	 0.432972303141214 
1628	 0.43299437972008 
1629	 0.4330233965404 
1630	 0.43307031555768 
1631	 0.433105423499959 
1632	 0.433139038327928 
1633	 0.433172041801966 
1634	 0.433204013237874 
1635	 0.433238109333595 
1636	 0.433277559501399 
1637	 0.433300449371605 
1638	 0.433305941317444 
1639	 0.433340053388877 
1640	 0.433386683058142 
1641	 0.433410897665311 
1642	 0.433445818003708 
1643	 0.43346961100063 
1644	 0.433452043355003 
1645	 0.433481673657911 
1646	 0.433553464437042 
1647	 0.433583459288077 
1648	 0.433620210756807 
1649	 0.433624554915978 
1650	 0.433585754330598 
1651	 0.43357445371706 
1652	 0.433564577574348 
1653	 0.433545239969756 
1654	 0.433525431770005 
1655	 0.433510389750797 
1656	 0.433488335946078 
1657	 0.433467122870089 
1658	 0.433451156827259 
1659	 0.433440038820682 
1660	 0.433417365963168 
1661	 0.43341639225433 
1662	 0.433444991120721 
1663	 0.433448866439024 
1664	 0.433444132026425 
1665	 0.433450064176357 
1666	 0.433457613195326 
1667	 0.433453897431598 
1668	 0.433465872321594 
1669	 0.433444276818886 
1670	 0.433385410017408 
1671	 0.433347784660494 
1672	 0.433298104658835 
1673	 0.43326729831341 
1674	 0.433252615793267 
1675	 0.433234332016321 
1676	 0.433209593204677 
1677	 0.433213868244958 
1678	 0.433238558660769 
1679	 0.433255315223669 
1680	 0.43330345971721 
1681	 0.433313850212844 
1682	 0.433291519377426 
1683	 0.433290671436279 
1684	 0.433281386361931 
1685	 0.433285018718999 
1686	 0.433310960431807 
1687	 0.433315217276621 
1688	 0.433317824554015 
1689	 0.433308662368449 
1690	 0.433270692577611 
1691	 0.433268095894245 
1692	 0.433282581432445 
1693	 0.43328142672923 
1694	 0.43329628503763 
1695	 0.433294956689955 
1696	 0.433276369626741 
1697	 0.433252460312904 
1698	 0.433224972703337 
1699	 0.433195894014753 
1700	 0.43315978578223 
1701	 0.433111415910606 
1702	 0.433061422656525 
1703	 0.433004352204245 
1704	 0.432924417276351 
1705	 0.432856202720398 
1706	 0.432774669843972 
1707	 0.432736331300493 
1708	 0.432721796250047 
1709	 0.43270191750122 
1710	 0.432717983056664 
1711	 0.432708200966746 
1712	 0.432685645507896 
1713	 0.432657737079629 
1714	 0.432626235538309 
1715	 0.43258678754525 
1716	 0.43252412002401 
1717	 0.43248218305322 
1718	 0.432449258342118 
1719	 0.432417422987973 
1720	 0.4323925183098 
1721	 0.43236454831585 
1722	 0.432338347932254 
1723	 0.432309242617252 
1724	 0.432283622245217 
1725	 0.432248617015787 
1726	 0.43220800346032 
1727	 0.43216256693313 
1728	 0.43210934904082 
1729	 0.432058969624651 
1730	 0.432021329808909 
1731	 0.431942914070235 
1732	 0.431847468506983 
1733	 0.431741100772652 
1734	 0.431595409495096 
1735	 0.43147226023561 
1736	 0.431359353419478 
1737	 0.431233426825655 
1738	 0.431090443056301 
1739	 0.430977416532601 
1740	 0.430877425203717 
1741	 0.43077208047607 
1742	 0.43068901391805 
1743	 0.430579790344269 
1744	 0.430445757104606 
1745	 0.430325006582944 
1746	 0.43019693218568 
1747	 0.430091760514696 
1748	 0.430019573444355 
1749	 0.429921528725917 
1750	 0.429822050058837 
1751	 0.429733775427175 
1752	 0.429612741546885 
1753	 0.429509347341306 
1754	 0.429422145638996 
1755	 0.429334048758721 
1756	 0.429217492735887 
1757	 0.429085781240602 
1758	 0.42897937319562 
1759	 0.428854382079173 
1760	 0.428730938458444 
1761	 0.428616875704268 
1762	 0.42849684087206 
1763	 0.428387504869522 
1764	 0.428306839802043 
1765	 0.428282283012407 
1766	 0.428259837514151 
1767	 0.428211871095975 
1768	 0.428173329894485 
1769	 0.428121128572978 
1770	 0.42801238932531 
1771	 0.427883773955776 
1772	 0.427746422179079 
1773	 0.427548953845163 
1774	 0.427402669871548 
1775	 0.427323434640022 
1776	 0.427242124141647 
1777	 0.427228467947422 
1778	 0.427229760746379 
1779	 0.427207758253329 
1780	 0.427180549190465 
1781	 0.427128248068187 
1782	 0.427069985117955 
1783	 0.427002858698541 
1784	 0.426931386847947 
1785	 0.42683802455422 
1786	 0.426758681106685 
1787	 0.426688968498215 
1788	 0.426614731840387 
1789	 0.426544780426416 
1790	 0.426476549113821 
1791	 0.426400534431798 
1792	 0.426333647978686 
1793	 0.426280289815885 
1794	 0.426220845688178 
1795	 0.426161591216643 
1796	 0.426091390064834 
1797	 0.426010042776961 
1798	 0.425935951100156 
1799	 0.425853521799987 
1800	 0.425792812982345 
1801	 0.427660552702974 
1802	 0.427664520131964 
1803	 0.427727313783216 
1804	 0.427741423442523 
1805	 0.427733547703778 
1806	 0.427753980962194 
1807	 0.427779715955296 
1808	 0.42777262047178 
1809	 0.427767404866297 
1810	 0.427734708395727 
1811	 0.427688577283391 
1812	 0.427579012902649 
1813	 0.427481120439709 
1814	 0.427416332737057 
1815	 0.427321804538997 
1816	 0.427224291363951 
1817	 0.427125160803264 
1818	 0.427012227063869 
1819	 0.42689559416302 
1820	 0.426773197999058 
1821	 0.426665420448613 
1822	 0.426542514924405 
1823	 0.426435866644132 
1824	 0.426315682667477 
1825	 0.426140754008112 
1826	 0.425949300324316 
1827	 0.425726005340394 
1828	 0.425488949728727 
1829	 0.425225887604617 
1830	 0.424962591380246 
1831	 0.424697456347365 
1832	 0.424403503267574 
1833	 0.424057145449223 
1834	 0.42371899295778 
1835	 0.423370952787919 
1836	 0.422983436343138 
1837	 0.422578119132226 
1838	 0.422186667418619 
1839	 0.421819601899464 
1840	 0.421445051480287 
1841	 0.421078271037971 
1842	 0.420791554064639 
1843	 0.420560104291634 
1844	 0.420326449402715 
1845	 0.420110511069746 
1846	 0.419896342866349 
1847	 0.41967816456069 
1848	 0.419487667019634 
1849	 0.419347964228867 
1850	 0.419234935050601 
1851	 0.419174074169163 
1852	 0.419111057839395 
1853	 0.419071791003423 
1854	 0.41904323141328 
1855	 0.419027931028562 
1856	 0.419021631345587 
1857	 0.41899708629165 
1858	 0.418950677468826 
1859	 0.418879236977277 
1860	 0.41877850703838 
1861	 0.4186587471405 
1862	 0.418483467419487 
1863	 0.418288387956807 
1864	 0.418072125664043 
1865	 0.417852663718373 
1866	 0.41764063987896 
1867	 0.41740323346116 
1868	 0.417190634503002 
1869	 0.416928052804211 
1870	 0.416633612226472 
1871	 0.416297326174471 
1872	 0.415951786330597 
1873	 0.415506725865813 
1874	 0.415015407718123 
1875	 0.41445635369135 
1876	 0.41382505065056 
1877	 0.413144047302065 
1878	 0.412372807331032 
1879	 0.411538871147969 
1880	 0.410602993764969 
1881	 0.409556036998378 
1882	 0.408448653833511 
1883	 0.407282898398201 
1884	 0.405982423613232 
1885	 0.404590088431342 
1886	 0.403148904563257 
1887	 0.401586848639125 
1888	 0.399968065210618 
1889	 0.398297973810922 
1890	 0.396578698367715 
1891	 0.394817667408789 
1892	 0.392975568530714 
1893	 0.391133592698865 
1894	 0.389271197422386 
1895	 0.38736174104955 
1896	 0.385414745928563 
1897	 0.383445882964788 
1898	 0.38144500840537 
1899	 0.379475508102789 
1900	 0.377558253329658 
1901	 0.375690660886106 
1902	 0.373916522907229 
1903	 0.372253693905493 
1904	 0.37060770838348 
1905	 0.369005744190768 
1906	 0.367503770615438 
1907	 0.36602284232276 
1908	 0.364577905512238 
1909	 0.363252519212491 
1910	 0.361948791804591 
1911	 0.360679542766175 
1912	 0.359467912850203 
1913	 0.358305186424941 
1914	 0.357174198936001 
1915	 0.356099642284584 
1916	 0.355075153815084 
1917	 0.354113754396501 
1918	 0.353224969731771 
1919	 0.352376721010902 
1920	 0.351607392584008 
1921	 0.350907661335764 
1922	 0.350230342230527 
1923	 0.349606320693172 
1924	 0.349051493441837 
1925	 0.348568094905279 
1926	 0.348136370216474 
1927	 0.347765755091225 
1928	 0.347446248945056 
1929	 0.347167985005424 
1930	 0.346910886645763 
1931	 0.34671828434383 
1932	 0.346569031580658 
1933	 0.346489886236553 
1934	 0.346488485771811 
1935	 0.346517594009374 
1936	 0.346594200467246 
1937	 0.346721727295742 
1938	 0.346902119480787 
1939	 0.347109785326311 
1940	 0.347370846838279 
1941	 0.347659697350959 
1942	 0.347951598995043 
1943	 0.348291680489273 
1944	 0.348634462153607 
1945	 0.348987640328763 
1946	 0.349355742080451 
1947	 0.349743510616024 
1948	 0.350130646969125 
1949	 0.35053396232127 
1950	 0.350936799385052 
1951	 0.351353292982151 
1952	 0.351759736979461 
1953	 0.35214920564691 
1954	 0.352519665445485 
1955	 0.352886941847426 
1956	 0.353257890093055 
1957	 0.353649081536545 
1958	 0.354057165625938 
1959	 0.3544732035332 
1960	 0.3549166285026 
1961	 0.35534287000866 
1962	 0.355769407847309 
1963	 0.356201033423579 
1964	 0.356638151217673 
1965	 0.35704654039508 
1966	 0.357470480537366 
1967	 0.357903415473829 
1968	 0.358348665892527 
1969	 0.358798046052431 
1970	 0.359250812198714 
1971	 0.359720040538467 
1972	 0.360193492651478 
1973	 0.360679529629747 
1974	 0.361147171848787 
1975	 0.361618323796518 
1976	 0.36207472692718 
1977	 0.362547011147017 
1978	 0.363015138651898 
1979	 0.363472931796939 
1980	 0.363949780710822 
1981	 0.364400054256723 
1982	 0.364803056671672 
1983	 0.365246734496614 
1984	 0.365709903925789 
1985	 0.366160599557711 
1986	 0.366615838187632 
1987	 0.367073328525461 
1988	 0.367519670245027 
1989	 0.367977241807822 
1990	 0.368463057984349 
1991	 0.36895350611236 
1992	 0.369439356487796 
1993	 0.369957124001935 
1994	 0.37042003326996 
1995	 0.370852841388551 
1996	 0.371287904090977 
1997	 0.371686316893084 
1998	 0.372105367393467 
1999	 0.372545116729283 
2000	 0.372961944039339 
2001	 0.373358414636106 
2002	 0.373764058599127 
2003	 0.374184223365854 
2004	 0.37462030603687 
2005	 0.375063516109931 
2006	 0.375554269678043 
2007	 0.375997688602791 
2008	 0.376409939768487 
2009	 0.376845093800479 
2010	 0.377276027845561 
2011	 0.377711204505714 
2012	 0.378168682726611 
2013	 0.378608918472498 
2014	 0.379039463969162 
2015	 0.379463529458459 
2016	 0.379887304584315 
2017	 0.380313631123189 
2018	 0.380743937136545 
2019	 0.381187771921704 
2020	 0.381610212218124 
2021	 0.382025920078921 
2022	 0.382438974596719 
2023	 0.382836724114409 
2024	 0.38323924584453 
2025	 0.383649185914667 
2026	 0.38404780438892 
2027	 0.384444995829747 
2028	 0.384830293907482 
2029	 0.385204346227919 
2030	 0.38556983043852 
2031	 0.385926457516056 
2032	 0.386268214628872 
2033	 0.386610458125574 
2034	 0.386933725069019 
2035	 0.387279217563823 
2036	 0.387643011859787 
2037	 0.387984730983721 
2038	 0.38833782446831 
2039	 0.388669903262174 
2040	 0.388973427086498 
2041	 0.389273532114997 
2042	 0.38958599040339 
2043	 0.389898043485451 
2044	 0.39020389529045 
2045	 0.390517378526627 
2046	 0.390807788037884 
2047	 0.391098043947433 
2048	 0.391356920617957 
2049	 0.39158552000404 
2050	 0.391818911666691 
2051	 0.39201635450797 
2052	 0.392236492049283 
2053	 0.392458825349108 
2054	 0.392698755100886 
2055	 0.392963078895662 
2056	 0.393217029769081 
2057	 0.393470794670161 
2058	 0.393743217292206 
2059	 0.393983263274516 
2060	 0.394199366011362 
2061	 0.394426742908282 
2062	 0.394639748941133 
2063	 0.394864990437567 
2064	 0.395099824377366 
2065	 0.395331508746219 
2066	 0.395570710541455 
2067	 0.395799468567706 
2068	 0.396027417130382 
2069	 0.396244868607328 
2070	 0.396461894350254 
2071	 0.396676197756475 
2072	 0.396879104474574 
2073	 0.397086154218769 
2074	 0.397263801292089 
2075	 0.397412194071745 
2076	 0.397570371566034 
2077	 0.397706412023808 
2078	 0.397862152596595 
2079	 0.398018557030439 
2080	 0.398192478343185 
2081	 0.398398951879999 
2082	 0.398576303073396 
2083	 0.398741294271518 
2084	 0.398927594043012 
2085	 0.399091716563958 
2086	 0.399227918047075 
2087	 0.399389951078986 
2088	 0.399562909244175 
2089	 0.399728226333696 
2090	 0.399902856307436 
2091	 0.400057217574474 
2092	 0.400207448599913 
2093	 0.400345353029291 
2094	 0.400453974537511 
2095	 0.400580692432807 
2096	 0.400712997355788 
2097	 0.400838325077781 
2098	 0.400962458088771 
2099	 0.401098517551694 
2100	 0.401217492173747 
2101	 0.401318068364093 
2102	 0.401437168374911 
2103	 0.40154976245451 
2104	 0.401689169467544 
2105	 0.401844690607451 
2106	 0.40200531403196 
2107	 0.402189129402278 
2108	 0.402363148624118 
2109	 0.402527284338436 
2110	 0.402714239293781 
2111	 0.402932523768615 
2112	 0.403120362712847 
2113	 0.403304664752349 
2114	 0.403490097655316 
2115	 0.403669216951833 
2116	 0.403812568082169 
2117	 0.404006378791953 
2118	 0.40422668438201 
2119	 0.404441970473807 
2120	 0.404676351165086 
2121	 0.404900321639185 
2122	 0.405138823324046 
2123	 0.405346296673122 
2124	 0.405546575491842 
2125	 0.405729120299253 
2126	 0.405887115142176 
2127	 0.406037400352243 
2128	 0.40617256507854 
2129	 0.406301884492274 
2130	 0.406420442531907 
2131	 0.406530104165213 
2132	 0.406623754065511 
2133	 0.406724697763253 
2134	 0.406767258996832 
2135	 0.406775189720835 
2136	 0.406765787452434 
2137	 0.406716106055366 
2138	 0.40666033592867 
2139	 0.406596904732815 
2140	 0.406500129413641 
2141	 0.406356648211615 
2142	 0.40622797693683 
2143	 0.40607958045634 
2144	 0.405937564596681 
2145	 0.405823483588854 
2146	 0.405673708827315 
2147	 0.405524021684688 
2148	 0.405328542708474 
2149	 0.405110207847933 
2150	 0.404850810874942 
2151	 0.404601111115919 
2152	 0.404326000709442 
2153	 0.404055400270193 
2154	 0.403787898037092 
2155	 0.40350433377746 
2156	 0.403217647620016 
2157	 0.402906686508265 
2158	 0.402580170712459 
2159	 0.402241163886981 
2160	 0.401886808404943 
2161	 0.401510319122748 
2162	 0.401120257305594 
2163	 0.400712890293566 
2164	 0.400272348745143 
2165	 0.399819123801825 
2166	 0.399392622453344 
2167	 0.398960692055931 
2168	 0.398550063395228 
2169	 0.398164552440325 
2170	 0.397769629017247 
2171	 0.397395620738902 
2172	 0.396982063057034 
2173	 0.396553286716721 
2174	 0.396119752848193 
2175	 0.395656638314753 
2176	 0.395201920772114 
2177	 0.394731218811211 
2178	 0.39429376506663 
2179	 0.393874630899096 
2180	 0.393446739247349 
2181	 0.393056922656055 
2182	 0.392635609416993 
2183	 0.392175412943808 
2184	 0.391718952246599 
2185	 0.391291478326495 
2186	 0.390866884350591 
2187	 0.390454516894824 
2188	 0.390078208850334 
2189	 0.389674261852756 
2190	 0.389255986295302 
2191	 0.388848286883499 
2192	 0.388437245465293 
2193	 0.388034994328169 
2194	 0.387631206739652 
2195	 0.387245408359773 
2196	 0.38686617570808 
2197	 0.386503508605647 
2198	 0.386139146229468 
2199	 0.385817483842009 
2200	 0.385519513233076 
2201	 0.385247963570089 
2202	 0.38502505035559 
2203	 0.384829355584266 
2204	 0.384585621893523 
2205	 0.384342187188691 
2206	 0.384088926719191 
2207	 0.383788119093597 
2208	 0.383542203823156 
2209	 0.383317978582799 
2210	 0.383105411860407 
2211	 0.382896007278494 
2212	 0.382735045411798 
2213	 0.382622655168655 
2214	 0.382492472628574 
2215	 0.382403034182782 
2216	 0.3822870547203 
2217	 0.382159189979842 
2218	 0.382014038320154 
2219	 0.381880442978242 
2220	 0.381704668601864 
2221	 0.381476080381355 
2222	 0.381266273820142 
2223	 0.381033332328616 
2224	 0.38077002204069 
2225	 0.380498041526643 
2226	 0.380211655181738 
2227	 0.379923494396076 
2228	 0.379623421846355 
2229	 0.379302710821399 
2230	 0.378984139840841 
2231	 0.378626655137601 
2232	 0.378221654893185 
2233	 0.377832923534656 
2234	 0.377428297169846 
2235	 0.377031120909288 
2236	 0.376656622471096 
2237	 0.376237696305335 
2238	 0.375817174990844 
2239	 0.375348586010107 
2240	 0.374825027704341 
2241	 0.374297608317906 
2242	 0.373735807273552 
2243	 0.373169287944331 
2244	 0.372595150116106 
2245	 0.372002232095826 
2246	 0.3713872593809 
2247	 0.370797295638625 
2248	 0.370195162262376 
2249	 0.369590461308538 
2250	 0.368977416607246 
2251	 0.368337541615484 
2252	 0.367759776804605 
2253	 0.367189809329776 
2254	 0.366652795371574 
2255	 0.366165580950466 
2256	 0.365684397724409 
2257	 0.365170822848488 
2258	 0.364777873724163 
2259	 0.364445715515931 
2260	 0.364173704920883 
2261	 0.363987357600622 
2262	 0.363847021095615 
2263	 0.363773587785384 
2264	 0.363723840798872 
2265	 0.363715106460811 
2266	 0.363768774971848 
2267	 0.363867811844903 
2268	 0.364012164339046 
2269	 0.364236061590596 
2270	 0.364487037293702 
2271	 0.364752685762477 
2272	 0.365051884531219 
2273	 0.365336634290304 
2274	 0.36567405743121 
2275	 0.366039454805923 
2276	 0.366420542094409 
2277	 0.366849583481132 
2278	 0.367357920479147 
2279	 0.367804388492837 
2280	 0.368257044689758 
2281	 0.368710351875366 
2282	 0.369153605174724 
2283	 0.369585885793987 
2284	 0.370029423082569 
2285	 0.370451272615773 
2286	 0.370837288927632 
2287	 0.371234195505523 
2288	 0.371630720472572 
2289	 0.372029173070745 
2290	 0.372428554975442 
2291	 0.372818583113869 
2292	 0.373217096627822 
2293	 0.373602885749096 
2294	 0.373979098830673 
2295	 0.374334443527058 
2296	 0.374676406024363 
2297	 0.3750034676206 
2298	 0.375322178415929 
2299	 0.375626072029509 
2300	 0.375936581753521 
2301	 0.376256274491096 
2302	 0.376546129515105 
2303	 0.376838792343773 
2304	 0.377119386664247 
2305	 0.37738162892253 
2306	 0.377637715426126 
2307	 0.377875985428086 
2308	 0.378136184878064 
2309	 0.3784260796306 
2310	 0.378634215051566 
2311	 0.378820147713935 
2312	 0.378990190711103 
2313	 0.379088030852695 
2314	 0.379202041273012 
2315	 0.379324879657739 
2316	 0.379447406253788 
2317	 0.379531530548987 
2318	 0.379649584541407 
2319	 0.379819613375877 
2320	 0.379933275374754 
2321	 0.380025228718131 
2322	 0.380126470887214 
2323	 0.380205858133984 
2324	 0.380286334835873 
2325	 0.380391767867461 
2326	 0.380448690851056 
2327	 0.380491469853557 
2328	 0.380475405902737 
2329	 0.380458661917106 
2330	 0.380456833049336 
2331	 0.380416516826096 
2332	 0.380433234258042 
2333	 0.380402734515291 
2334	 0.380337295438572 
2335	 0.380300802618765 
2336	 0.380210236956281 
2337	 0.380151261389464 
2338	 0.380103728000477 
2339	 0.379963866384607 
2340	 0.379861602576356 
2341	 0.379748657441004 
2342	 0.379530661708977 
2343	 0.379345133401953 
2344	 0.37911666911202 
2345	 0.378885246341868 
2346	 0.378614978023441 
2347	 0.378366776906092 
2348	 0.378136983018189 
2349	 0.377885842403562 
2350	 0.377651360732971 
2351	 0.37733593336554 
2352	 0.376961959358795 
2353	 0.376589634653228 
2354	 0.376117025704 
2355	 0.375748740460402 
2356	 0.375462338717335 
2357	 0.375121225284456 
2358	 0.374809380032252 
2359	 0.374450573687887 
2360	 0.374043172970503 
2361	 0.373635424938409 
2362	 0.373254383941806 
2363	 0.372778210341401 
2364	 0.372185505433885 
2365	 0.371681384057424 
2366	 0.371138494274806 
2367	 0.370656658643246 
2368	 0.370289285566728 
2369	 0.369871542748125 
2370	 0.369452555511635 
2371	 0.368991611632707 
2372	 0.368539647942132 
2373	 0.36810370070414 
2374	 0.367660276994173 
2375	 0.367162351054258 
2376	 0.366637088939307 
2377	 0.366059400590734 
2378	 0.365444967056219 
2379	 0.364805944901968 
2380	 0.364130278642249 
2381	 0.3635054563392 
2382	 0.362893300807224 
2383	 0.362326799055691 
2384	 0.361825697744644 
2385	 0.361263148513852 
2386	 0.360651703010719 
2387	 0.360046888505228 
2388	 0.359484939131516 
2389	 0.358901085032292 
2390	 0.358323457519777 
2391	 0.357819171292565 
2392	 0.357264672691594 
2393	 0.356719453317204 
2394	 0.356147233632181 
2395	 0.355521006223243 
2396	 0.354946698005126 
2397	 0.354297657112426 
2398	 0.35361777573397 
2399	 0.352965430056416 
2400	 0.352346415513336 
2401	 0.351806624642986 
2402	 0.351297559319442 
2403	 0.350855601284078 
2404	 0.350316791185098 
2405	 0.349640988108015 
2406	 0.349014258603686 
2407	 0.348421347335111 
2408	 0.347851161131685 
2409	 0.347280315166248 
2410	 0.346754157857587 
2411	 0.346246484798892 
2412	 0.345691095013814 
2413	 0.345242722488273 
2414	 0.344797941409962 
2415	 0.344213734272163 
2416	 0.343657347868498 
2417	 0.343068318903304 
2418	 0.342508598748476 
2419	 0.341930085975731 
2420	 0.341450551676367 
2421	 0.341062921703125 
2422	 0.340580625624506 
2423	 0.340124912199685 
2424	 0.339630904101856 
2425	 0.339026904823312 
2426	 0.338497060886706 
2427	 0.338014141869412 
2428	 0.337522756557892 
2429	 0.337048876537502 
2430	 0.33657360322032 
2431	 0.33612026572848 
2432	 0.335614568342389 
2433	 0.335056546368669 
2434	 0.334540219342319 
2435	 0.334034865384385 
2436	 0.333551110400394 
2437	 0.333112042741292 
2438	 0.332590493332853 
2439	 0.33204271505925 
2440	 0.33144906104189 
2441	 0.330758781557028 
2442	 0.330205655625382 
2443	 0.329689317628905 
2444	 0.32918644738403 
2445	 0.328777955978777 
2446	 0.328333704679586 
2447	 0.32790862423798 
2448	 0.327340435787528 
2449	 0.326665179910981 
2450	 0.326077200727872 
2451	 0.325433997684687 
2452	 0.324870488120559 
2453	 0.32447042385803 
2454	 0.323891384632707 
2455	 0.323182718813162 
2456	 0.322523579159402 
2457	 0.321781888598304 
2458	 0.321185370244742 
2459	 0.320667450655369 
2460	 0.320234313692484 
2461	 0.319919553850818 
2462	 0.319560689070558 
2463	 0.319288956889284 
2464	 0.318906626291465 
2465	 0.318466749854513 
2466	 0.318029473094774 
2467	 0.317502088910084 
2468	 0.317001971080158 
2469	 0.316539002322606 
2470	 0.316162224405035 
2471	 0.31575942340163 
2472	 0.315407689057537 
2473	 0.314906405481412 
2474	 0.314300775097114 
2475	 0.313954154939767 
2476	 0.313590539748741 
2477	 0.313074222410902 
2478	 0.312532406028349 
2479	 0.311942865058261 
2480	 0.311396232872152 
2481	 0.310902117600618 
2482	 0.310562649668028 
2483	 0.310063528339853 
2484	 0.309460298973017 
2485	 0.308960117653555 
2486	 0.308247107868803 
2487	 0.307688552911882 
2488	 0.307295704321268 
2489	 0.306655802223218 
2490	 0.306145205452871 
2491	 0.305717897150751 
2492	 0.305219269609434 
2493	 0.304934897405965 
2494	 0.304677587426845 
2495	 0.304298265015611 
2496	 0.303920050514972 
2497	 0.303379222593357 
2498	 0.302734367287963 
2499	 0.302235185924095 
2500	 0.301548802093155 
