Wavelength	LMW7 profile 200000.asd
350	 6.74158666771597E-02 
351	 7.13651725668223E-02 
352	 6.99948514209889E-02 
353	 6.36888161997428E-02 
354	 6.26461986096556E-02 
355	 6.61915769930569E-02 
356	 6.62500742715997E-02 
357	 5.88096642796021E-02 
358	 6.28321862676943E-02 
359	 6.21052856542483E-02 
360	 5.74488208966083E-02 
361	 5.98857472350352E-02 
362	 5.85065257881041E-02 
363	 5.93669030601731E-02 
364	 0.063305495909507 
365	 5.97043014011735E-02 
366	 5.75787446696765E-02 
367	 5.81442086926835E-02 
368	 6.01112304545411E-02 
369	 6.17095617436865E-02 
370	 6.17242847801343E-02 
371	 6.12467541046843E-02 
372	 6.25762948190923E-02 
373	 6.30341004013542E-02 
374	 6.30903264707149E-02 
375	 6.35977844099222E-02 
376	 0.065434011088412 
377	 6.63181620065584E-02 
378	 6.68897432046495E-02 
379	 6.81599955181685E-02 
380	 6.88401459656409E-02 
381	 0.068353566067875 
382	 6.84352333958811E-02 
383	 7.18553388289911E-02 
384	 7.18993928258973E-02 
385	 7.11085185071128E-02 
386	 7.21758492490309E-02 
387	 7.57349944623253E-02 
388	 7.75222438547611E-02 
389	 7.80487821860972E-02 
390	 7.90346195040454E-02 
391	 7.92411529680569E-02 
392	 8.06600707857512E-02 
393	 0.083913323268053 
394	 0.088105449330807 
395	 8.91060187368668E-02 
396	 8.96349499059492E-02 
397	 0.091932197581387 
398	 9.47817372919029E-02 
399	 9.81506948534558E-02 
400	 0.100774026347835 
401	 0.101726147889678 
402	 0.104073124010421 
403	 0.107078287977415 
404	 0.109840983658285 
405	 0.111628573993289 
406	 0.113570075855414 
407	 0.115910596648521 
408	 0.118363101355313 
409	 0.119792582611695 
410	 0.121223175206054 
411	 0.123015472722799 
412	 0.125156407722154 
413	 0.127644613002141 
414	 0.129025166111783 
415	 0.129260025671616 
416	 0.130192556581045 
417	 0.130553477913692 
418	 0.131040811811988 
419	 0.132119348700378 
420	 0.131971068154919 
421	 0.131241187343116 
422	 0.130835789133789 
423	 0.131527690557392 
424	 0.131163301183398 
425	 0.130104252472534 
426	 0.129023719554148 
427	 0.12857333325362 
428	 0.127508551453263 
429	 0.12609607690603 
430	 0.124980431215763 
431	 0.124023431339166 
432	 0.123002941796771 
433	 0.122055525763274 
434	 0.121642355958055 
435	 0.121737945869523 
436	 0.12196814166035 
437	 0.122177087537065 
438	 0.122927873125017 
439	 0.124210422415442 
440	 0.125679201218507 
441	 0.126937056419478 
442	 0.128680794199711 
443	 0.130811745739551 
444	 0.132996393602559 
445	 0.134652908200562 
446	 0.136549871822967 
447	 0.138751692547073 
448	 0.141083043040961 
449	 0.143340917023243 
450	 0.145571410249254 
451	 0.147830649807115 
452	 0.150150073184078 
453	 0.152142074233687 
454	 0.154077816812507 
455	 0.156193114373544 
456	 0.15837419197037 
457	 0.160389974428396 
458	 0.162276779269676 
459	 0.164138852695588 
460	 0.165573372854663 
461	 0.166888499738129 
462	 0.168361120734143 
463	 0.170141207571965 
464	 0.171646083020554 
465	 0.172926687874586 
466	 0.174202204003781 
467	 0.175540594224156 
468	 0.176899844548384 
469	 0.178095252339999 
470	 0.178887238740172 
471	 0.179943751859419 
472	 0.181125670119704 
473	 0.182251411171192 
474	 0.183406591529292 
475	 0.184334852661402 
476	 0.185220092230129 
477	 0.186344433599654 
478	 0.187134391536431 
479	 0.187982781832858 
480	 0.18903948203726 
481	 0.190004883318321 
482	 0.191071863027558 
483	 0.192143896402055 
484	 0.19308939635839 
485	 0.193973882413572 
486	 0.194711588957825 
487	 0.195393157193721 
488	 0.196242138070206 
489	 0.197123940350377 
490	 0.197994713391714 
491	 0.198858440629775 
492	 0.199822136751901 
493	 0.200557412401527 
494	 0.20126893218165 
495	 0.202317958149852 
496	 0.203151543089621 
497	 0.203961587195309 
498	 0.204851697734212 
499	 0.205689900119292 
500	 0.206508917603828 
501	 0.207253428115724 
502	 0.207915648178474 
503	 0.208804445025007 
504	 0.209556720835253 
505	 0.210206979825442 
506	 0.211147466967206 
507	 0.212047494474418 
508	 0.212871856939785 
509	 0.213644333381867 
510	 0.214391791444161 
511	 0.215069003693525 
512	 0.215738612694214 
513	 0.216510125391404 
514	 0.21733867569351 
515	 0.218181046370913 
516	 0.218976818618122 
517	 0.219615168188069 
518	 0.220434401799668 
519	 0.22122754864846 
520	 0.221743083700835 
521	 0.22250591630431 
522	 0.22323989806105 
523	 0.223893909318862 
524	 0.224692378476165 
525	 0.225418341273236 
526	 0.226114189718337 
527	 0.226846892407349 
528	 0.227577241198604 
529	 0.22826911100849 
530	 0.228958190620501 
531	 0.229714052376739 
532	 0.230380541352685 
533	 0.231125564513034 
534	 0.231987186486988 
535	 0.232631886245048 
536	 0.233279854638914 
537	 0.233986324747538 
538	 0.234729495930975 
539	 0.235427373238208 
540	 0.236041158064762 
541	 0.236635607359267 
542	 0.237402862880486 
543	 0.238186688444423 
544	 0.238931444053 
545	 0.239625480203636 
546	 0.240316786584843 
547	 0.241003470276916 
548	 0.241709824283217 
549	 0.242478446604778 
550	 0.243229645533593 
551	 0.243961652386393 
552	 0.24470045742492 
553	 0.245508784927404 
554	 0.246290748397355 
555	 0.24703909823175 
556	 0.247797234545444 
557	 0.248599217670324 
558	 0.24945162762095 
559	 0.250334212405868 
560	 0.251196148066787 
561	 0.251952435396903 
562	 0.252703634006371 
563	 0.253584620575152 
564	 0.254519507781841 
565	 0.25543871041526 
566	 0.256304379655883 
567	 0.257118304535125 
568	 0.258020190153472 
569	 0.259013266245843 
570	 0.26004716093485 
571	 0.261038470593303 
572	 0.261985658142638 
573	 0.262893349999718 
574	 0.263775868930731 
575	 0.26470661163545 
576	 0.265771115364336 
577	 0.266942781420299 
578	 0.26795684679715 
579	 0.268950929677722 
580	 0.269878228463011 
581	 0.270665201615458 
582	 0.271559976300484 
583	 0.27256688071002 
584	 0.273623349940866 
585	 0.274607501200447 
586	 0.275742440153743 
587	 0.276938840795406 
588	 0.278058761176825 
589	 0.279190214067889 
590	 0.280364898820642 
591	 0.281578110918671 
592	 0.28279229006482 
593	 0.283924244445845 
594	 0.284930283721132 
595	 0.28582144707836 
596	 0.286726490424723 
597	 0.287531166423508 
598	 0.288280185788211 
599	 0.289087918697491 
600	 0.289804547413578 
601	 0.290633681452219 
602	 0.291635469348249 
603	 0.29256047620141 
604	 0.293369752312603 
605	 0.294187847677749 
606	 0.295148907785737 
607	 0.29603777926793 
608	 0.296907809430828 
609	 0.297796788135783 
610	 0.298706700142032 
611	 0.299512595638691 
612	 0.300225782426866 
613	 0.300889781236542 
614	 0.301535779525953 
615	 0.302120783135236 
616	 0.302662058244862 
617	 0.303212483146397 
618	 0.303729405297382 
619	 0.304240461369645 
620	 0.304763876830009 
621	 0.305275507490012 
622	 0.305775857394297 
623	 0.306231636391416 
624	 0.306623946947244 
625	 0.307114090872351 
626	 0.307567538098754 
627	 0.307932933425569 
628	 0.308298615885708 
629	 0.308707406618482 
630	 0.309106989785171 
631	 0.309448115963912 
632	 0.309816215820448 
633	 0.310135658341485 
634	 0.31045683315994 
635	 0.310911875611118 
636	 0.311151963845105 
637	 0.311459005349095 
638	 0.311987162870413 
639	 0.312314194498026 
640	 0.312576666521511 
641	 0.312841597208394 
642	 0.313153218630867 
643	 0.313551426212001 
644	 0.313926962889388 
645	 0.314251140468661 
646	 0.314633738452546 
647	 0.314942429712364 
648	 0.315226470207805 
649	 0.315572900481852 
650	 0.315987823421437 
651	 0.316420311000975 
652	 0.316812625227015 
653	 0.317114971017792 
654	 0.317469075510386 
655	 0.317833008744777 
656	 0.318166771931659 
657	 0.318513698128743 
658	 0.318948229113269 
659	 0.31941584554837 
660	 0.319809310862782 
661	 0.320167310763484 
662	 0.320586709870749 
663	 0.321067987028085 
664	 0.321465034969447 
665	 0.321863293136316 
666	 0.322329337756611 
667	 0.322856653195138 
668	 0.323146606393291 
669	 0.323534549445738 
670	 0.324065164222149 
671	 0.324530299526242 
672	 0.324984060039834 
673	 0.325484315913815 
674	 0.326023196759597 
675	 0.326420125671435 
676	 0.326878258649602 
677	 0.327370181041867 
678	 0.327794587372109 
679	 0.328294363447936 
680	 0.328787144945762 
681	 0.32926656192599 
682	 0.329851077176416 
683	 0.330344749274879 
684	 0.33077819529219 
685	 0.331239285588682 
686	 0.331792960776154 
687	 0.332288868748594 
688	 0.332767301149201 
689	 0.333378757556929 
690	 0.333829224469716 
691	 0.334261919891548 
692	 0.334795385591337 
693	 0.335386984833724 
694	 0.335845037378479 
695	 0.336271687795453 
696	 0.336828032205643 
697	 0.337317529062756 
698	 0.337802714678222 
699	 0.338324458796694 
700	 0.338880915128977 
701	 0.339368483273318 
702	 0.339793024545176 
703	 0.34020701338884 
704	 0.340730523211203 
705	 0.341146279474133 
706	 0.341500753204381 
707	 0.341958638623104 
708	 0.342403242598828 
709	 0.342831794809216 
710	 0.343250924653297 
711	 0.343666170119378 
712	 0.344022126554191 
713	 0.344369327927019 
714	 0.344746466564237 
715	 0.345012346939942 
716	 0.345357963450467 
717	 0.345775627007579 
718	 0.346110246183356 
719	 0.346361015872852 
720	 0.346569386729723 
721	 0.346770056258533 
722	 0.346959549183824 
723	 0.347244706863676 
724	 0.347555672098261 
725	 0.347771618086493 
726	 0.347860646195718 
727	 0.347976683102182 
728	 0.348133167403274 
729	 0.348209992589601 
730	 0.348293065178826 
731	 0.348334700986811 
732	 0.348317255111876 
733	 0.348356237968884 
734	 0.348329138686347 
735	 0.348253285300723 
736	 0.348193836104248 
737	 0.348128103165708 
738	 0.348004909322503 
739	 0.347835368053886 
740	 0.347696998152207 
741	 0.347501526765006 
742	 0.34728198788652 
743	 0.347066714461728 
744	 0.346798916242647 
745	 0.346507959101987 
746	 0.346225689854524 
747	 0.345966248967914 
748	 0.345607264206202 
749	 0.345276978016608 
750	 0.34497320081698 
751	 0.344515858032265 
752	 0.344081321204351 
753	 0.343649098894383 
754	 0.343185264057478 
755	 0.342753901709779 
756	 0.342330873554055 
757	 0.341884672951852 
758	 0.341386265827808 
759	 0.340865539188611 
760	 0.340230323742662 
761	 0.339535130602804 
762	 0.339020517676475 
763	 0.338515871190704 
764	 0.337930802082794 
765	 0.3372604500626 
766	 0.336695985942003 
767	 0.336045612050467 
768	 0.33531746269949 
769	 0.3346242799409 
770	 0.334018766593391 
771	 0.333456137465355 
772	 0.332859776311384 
773	 0.332136548657173 
774	 0.331517796008873 
775	 0.330901199285823 
776	 0.330178076557916 
777	 0.329423871056582 
778	 0.328759490504419 
779	 0.328147411247894 
780	 0.327478198298127 
781	 0.326735631687848 
782	 0.326028395391324 
783	 0.325371190386159 
784	 0.324674495825117 
785	 0.32401233076444 
786	 0.323386324361895 
787	 0.322753821942423 
788	 0.321985124501672 
789	 0.321291765275924 
790	 0.320646167624087 
791	 0.319953536487322 
792	 0.319294968250368 
793	 0.318652723677425 
794	 0.317988204693375 
795	 0.317262556337199 
796	 0.316596098053242 
797	 0.31594926316605 
798	 0.315289154231361 
799	 0.314644199794813 
800	 0.313996096394283 
801	 0.313376191644279 
802	 0.312784591966558 
803	 0.31203217190592 
804	 0.311393306525388 
805	 0.310871826535341 
806	 0.310300199177466 
807	 0.309698792411094 
808	 0.30903701752082 
809	 0.308364835215273 
810	 0.307828354736351 
811	 0.307275221140879 
812	 0.306744769427653 
813	 0.306250684761104 
814	 0.305618403365245 
815	 0.304975739528148 
816	 0.304388395496902 
817	 0.303874863978948 
818	 0.303355144902935 
819	 0.302824115775316 
820	 0.302305374316524 
821	 0.30183205357384 
822	 0.301286087291642 
823	 0.300762087800366 
824	 0.300290331917916 
825	 0.299742721034876 
826	 0.299304369394708 
827	 0.298913498346073 
828	 0.298471317721742 
829	 0.298001246551924 
830	 0.297425103302538 
831	 0.296850077089186 
832	 0.296433078819954 
833	 0.296039028848588 
834	 0.295633703037472 
835	 0.295206141344974 
836	 0.294772551409298 
837	 0.294474383882264 
838	 0.294180564425653 
839	 0.293792999283947 
840	 0.293351105807769 
841	 0.292867905084356 
842	 0.292424401353319 
843	 0.292078939544566 
844	 0.29177537528186 
845	 0.29146608424743 
846	 0.291157858887432 
847	 0.290870339274887 
848	 0.290526656012954 
849	 0.290142910506957 
850	 0.289766932189464 
851	 0.289454176869301 
852	 0.28910197965779 
853	 0.28879190281563 
854	 0.288551899310144 
855	 0.288297570007394 
856	 0.288139756706876 
857	 0.287927680498847 
858	 0.287583808185611 
859	 0.287369053395618 
860	 0.287138538811092 
861	 0.286892386032735 
862	 0.286678123423327 
863	 0.286528546531586 
864	 0.286330423249847 
865	 0.286108599170071 
866	 0.285954151637443 
867	 0.285750925394596 
868	 0.285556333513519 
869	 0.285378140199723 
870	 0.285160004625726 
871	 0.284871013731461 
872	 0.284658988924555 
873	 0.28461810665582 
874	 0.284708863602069 
875	 0.284594723352813 
876	 0.284399057326574 
877	 0.284266122822397 
878	 0.284035011524818 
879	 0.284003530166006 
880	 0.284013253348063 
881	 0.283854466534124 
882	 0.283830209101397 
883	 0.28380189115738 
884	 0.283694491628338 
885	 0.283520775166148 
886	 0.283526806160986 
887	 0.283612841804375 
888	 0.283609593964689 
889	 0.283379321526332 
890	 0.283395154126865 
891	 0.283396834206354 
892	 0.283325905341564 
893	 0.283472488777645 
894	 0.283518073799064 
895	 0.283488100729245 
896	 0.28348782988068 
897	 0.283635296562242 
898	 0.283682249302902 
899	 0.283688453279618 
900	 0.283747107246529 
901	 0.283801837313227 
902	 0.283918021385708 
903	 0.284060632963887 
904	 0.284163444660526 
905	 0.284181666386338 
906	 0.284255779745297 
907	 0.284358415049515 
908	 0.284419364054073 
909	 0.284617790952158 
910	 0.284770895062287 
911	 0.28487846552189 
912	 0.28505429536434 
913	 0.285219773866856 
914	 0.285345460951833 
915	 0.285467360133757 
916	 0.285659251370456 
917	 0.285796767735474 
918	 0.286074142926493 
919	 0.286467249424495 
920	 0.286680719887268 
921	 0.286854330063061 
922	 0.287026235892974 
923	 0.287216689253602 
924	 0.287438664431953 
925	 0.287730369883968 
926	 0.288084403365966 
927	 0.288420785372687 
928	 0.288557774695049 
929	 0.288890967488943 
930	 0.289284391165147 
931	 0.289574016099495 
932	 0.289873620656919 
933	 0.290079643073332 
934	 0.290310762314169 
935	 0.290660580472471 
936	 0.290955310125954 
937	 0.291370601207734 
938	 0.291764779063863 
939	 0.292015783536668 
940	 0.292441424213062 
941	 0.292834515915255 
942	 0.293248631112052 
943	 0.293761436130561 
944	 0.294115012063422 
945	 0.294556005046602 
946	 0.295050199856562 
947	 0.295461782252786 
948	 0.295854705547918 
949	 0.296255508875182 
950	 0.296642811882581 
951	 0.297012338428554 
952	 0.29756211568455 
953	 0.298122821435091 
954	 0.298594069365023 
955	 0.298989075762057 
956	 0.299598026872821 
957	 0.300153386834203 
958	 0.300627557065068 
959	 0.3011414644779 
960	 0.301612730832774 
961	 0.302122348390804 
962	 0.302688353121695 
963	 0.303269316914119 
964	 0.303799136847593 
965	 0.304298605447183 
966	 0.304873386448572 
967	 0.305607608640343 
968	 0.306169043430461 
969	 0.306702023832518 
970	 0.307251386790994 
971	 0.307784358818719 
972	 0.308383365210536 
973	 0.309082914164657 
974	 0.309847280060938 
975	 0.310582318979401 
976	 0.311135617068863 
977	 0.311783428393647 
978	 0.312476488633904 
979	 0.312998199944604 
980	 0.313593880655684 
981	 0.314184239634825 
982	 0.314834831303414 
983	 0.315647579236091 
984	 0.316378715705623 
985	 0.317194088706614 
986	 0.31795683814853 
987	 0.318451795375181 
988	 0.319004126633542 
989	 0.319650247349359 
990	 0.320263554763741 
991	 0.320777284468476 
992	 0.32176461690833 
993	 0.322580715703353 
994	 0.323255454488775 
995	 0.324029981545668 
996	 0.324521268456893 
997	 0.325160009845092 
998	 0.325910350852221 
999	 0.326632487114389 
1000	 0.327596074371651 
1001	 0.331026229177544 
1002	 0.331701620970031 
1003	 0.332339590414168 
1004	 0.333009070274752 
1005	 0.333755312377173 
1006	 0.334430462017002 
1007	 0.33507549374089 
1008	 0.335702250660142 
1009	 0.336371316527517 
1010	 0.337065197223835 
1011	 0.337740097737169 
1012	 0.338421646677453 
1013	 0.339072114039004 
1014	 0.339620547516003 
1015	 0.340185704902425 
1016	 0.34082385249431 
1017	 0.341476800313257 
1018	 0.342124664043954 
1019	 0.342826294533276 
1020	 0.343533271403206 
1021	 0.344195360425752 
1022	 0.344848790712203 
1023	 0.34545805057989 
1024	 0.34609476372448 
1025	 0.34672460787195 
1026	 0.347273960099245 
1027	 0.347856064504702 
1028	 0.348458684604594 
1029	 0.349025964601931 
1030	 0.349595135797287 
1031	 0.350147831924326 
1032	 0.350666303521887 
1033	 0.351191802215792 
1034	 0.351793177446641 
1035	 0.352399891346951 
1036	 0.353003746063755 
1037	 0.353572025537584 
1038	 0.354071462900251 
1039	 0.354570724025136 
1040	 0.355102027108232 
1041	 0.355631378990892 
1042	 0.356196981557542 
1043	 0.356803214933179 
1044	 0.357351315810937 
1045	 0.357887658839288 
1046	 0.358400849799066 
1047	 0.358901211062015 
1048	 0.359346645670213 
1049	 0.359821529118057 
1050	 0.360418750793549 
1051	 0.360987012554368 
1052	 0.361513437309019 
1053	 0.36210957229103 
1054	 0.362647977075532 
1055	 0.363172518952495 
1056	 0.363757142115676 
1057	 0.364306182109296 
1058	 0.364818894678099 
1059	 0.365368953169297 
1060	 0.365929204628576 
1061	 0.366469363131172 
1062	 0.367054363264844 
1063	 0.367646038750956 
1064	 0.368213316225711 
1065	 0.368799159397792 
1066	 0.369360782407937 
1067	 0.369921652957165 
1068	 0.37053293499907 
1069	 0.371080778324435 
1070	 0.371619147423756 
1071	 0.372145217977007 
1072	 0.372696541237088 
1073	 0.373220454543595 
1074	 0.373769576164138 
1075	 0.374372339697379 
1076	 0.374890091472226 
1077	 0.375442918330362 
1078	 0.376002367119231 
1079	 0.376504330652285 
1080	 0.377070228269977 
1081	 0.377571371591939 
1082	 0.378019027896617 
1083	 0.378496230859191 
1084	 0.378970360324622 
1085	 0.379448996669109 
1086	 0.379937694833448 
1087	 0.380411578039408 
1088	 0.380894302793583 
1089	 0.381355806960871 
1090	 0.381773319772235 
1091	 0.382179594423606 
1092	 0.382600307138407 
1093	 0.383064614882651 
1094	 0.383525337254079 
1095	 0.383996262518169 
1096	 0.384468272869501 
1097	 0.384878140132576 
1098	 0.385301743805951 
1099	 0.385732833467122 
1100	 0.386150303662801 
1101	 0.386548386185973 
1102	 0.386955091027447 
1103	 0.387378572077696 
1104	 0.387748269289368 
1105	 0.38811867350296 
1106	 0.388524659682824 
1107	 0.388952074724023 
1108	 0.389413633511837 
1109	 0.389872216591766 
1110	 0.390314048904452 
1111	 0.390752107070643 
1112	 0.391167285467351 
1113	 0.391582380423239 
1114	 0.392004925481691 
1115	 0.392422712077936 
1116	 0.392824935210809 
1117	 0.393230253706429 
1118	 0.393650038985825 
1119	 0.394043703573239 
1120	 0.394429606147162 
1121	 0.39482391600006 
1122	 0.395195495201069 
1123	 0.395554258056385 
1124	 0.395931017030625 
1125	 0.3962899908485 
1126	 0.396695688138815 
1127	 0.397142215005765 
1128	 0.397560827388036 
1129	 0.397995841543071 
1130	 0.398416666176883 
1131	 0.398834498457153 
1132	 0.399225501423709 
1133	 0.399599970543587 
1134	 0.399973727761982 
1135	 0.400322204485315 
1136	 0.400672847473354 
1137	 0.401017882727713 
1138	 0.401379826045261 
1139	 0.401754754902972 
1140	 0.402132987108217 
1141	 0.402507516508382 
1142	 0.402905029330854 
1143	 0.403285379054331 
1144	 0.40364539801549 
1145	 0.404017185388072 
1146	 0.404394018031028 
1147	 0.404771064785824 
1148	 0.405152003410231 
1149	 0.405525739133455 
1150	 0.405894826284134 
1151	 0.406275959585327 
1152	 0.406650433369502 
1153	 0.407007569120355 
1154	 0.407361512679062 
1155	 0.407711437954047 
1156	 0.408059326291661 
1157	 0.408401737105736 
1158	 0.408735460918111 
1159	 0.409055033494633 
1160	 0.409395827549187 
1161	 0.409733022578932 
1162	 0.41007971882552 
1163	 0.410444297859763 
1164	 0.410807995547905 
1165	 0.411174809845632 
1166	 0.411544865720852 
1167	 0.411898754279106 
1168	 0.412271161212126 
1169	 0.412624085661141 
1170	 0.412960357831177 
1171	 0.413301213398638 
1172	 0.413644782034654 
1173	 0.413977518697659 
1174	 0.414301768516429 
1175	 0.414629678439625 
1176	 0.414947059597762 
1177	 0.415278373658107 
1178	 0.415620485265663 
1179	 0.415955436300761 
1180	 0.416287448826653 
1181	 0.416629940976033 
1182	 0.416979437825687 
1183	 0.417319938743535 
1184	 0.417671533714218 
1185	 0.41803832714602 
1186	 0.41839496275742 
1187	 0.418745402408329 
1188	 0.41910498346054 
1189	 0.419480436516115 
1190	 0.419828798175509 
1191	 0.420173014877347 
1192	 0.420507766532917 
1193	 0.420828597909626 
1194	 0.421138527384241 
1195	 0.421433371908005 
1196	 0.421735249958977 
1197	 0.422027639717261 
1198	 0.422318807766778 
1199	 0.422610821771368 
1200	 0.422910498921993 
1201	 0.423205414601367 
1202	 0.423492561366034 
1203	 0.423786872350384 
1204	 0.424087574476841 
1205	 0.424385524286898 
1206	 0.424684405989316 
1207	 0.424979122185092 
1208	 0.425274257654679 
1209	 0.425567458604851 
1210	 0.425855348700905 
1211	 0.426145066524674 
1212	 0.426445559786843 
1213	 0.426729395728426 
1214	 0.427014304892706 
1215	 0.427280966991215 
1216	 0.427533834831371 
1217	 0.427759416490667 
1218	 0.428014195501001 
1219	 0.428268466648817 
1220	 0.42852330838141 
1221	 0.428788873614581 
1222	 0.429056836619892 
1223	 0.429324832706259 
1224	 0.429587701844831 
1225	 0.429868069660101 
1226	 0.430126589610285 
1227	 0.430368933765761 
1228	 0.430606045151171 
1229	 0.430828128344315 
1230	 0.43105757388569 
1231	 0.431295761868747 
1232	 0.431513236653779 
1233	 0.431722157246187 
1234	 0.431924882847952 
1235	 0.432132915976352 
1236	 0.432312491428805 
1237	 0.432536437694228 
1238	 0.43280109511841 
1239	 0.433031579049139 
1240	 0.433263358406226 
1241	 0.433495031557367 
1242	 0.433715752379893 
1243	 0.433932798657506 
1244	 0.434165318505108 
1245	 0.43437442903119 
1246	 0.434541759760951 
1247	 0.434741292347223 
1248	 0.434945169890485 
1249	 0.43516093738909 
1250	 0.435392127985593 
1251	 0.435612712289882 
1252	 0.435815185986088 
1253	 0.435999445830001 
1254	 0.436186960385112 
1255	 0.436357503799529 
1256	 0.436547448744294 
1257	 0.436742138743787 
1258	 0.436938776309355 
1259	 0.437155304772944 
1260	 0.437349162512962 
1261	 0.437534740548807 
1262	 0.43771817441429 
1263	 0.437889146130016 
1264	 0.4380580155509 
1265	 0.438232375601736 
1266	 0.438394400294055 
1267	 0.438553609612326 
1268	 0.438690650129451 
1269	 0.438829931344541 
1270	 0.438958604486651 
1271	 0.439087255041534 
1272	 0.439210789873908 
1273	 0.439341154373125 
1274	 0.439463133489867 
1275	 0.439602346316507 
1276	 0.439743247585185 
1277	 0.439901980055251 
1278	 0.440081095931449 
1279	 0.440258297357284 
1280	 0.44044091330323 
1281	 0.440633412604767 
1282	 0.440828283940318 
1283	 0.441036950077002 
1284	 0.441260750547234 
1285	 0.441495180378032 
1286	 0.441727293527654 
1287	 0.441951985144036 
1288	 0.442187331949912 
1289	 0.442424695472141 
1290	 0.442663198086114 
1291	 0.442915298508007 
1292	 0.443147993699964 
1293	 0.443364119941883 
1294	 0.443596599234484 
1295	 0.443827000290007 
1296	 0.444061261330155 
1297	 0.444311053003599 
1298	 0.444547238646091 
1299	 0.444784188335816 
1300	 0.445008313627878 
1301	 0.445226858215159 
1302	 0.445432891147102 
1303	 0.445627121145254 
1304	 0.445805244123708 
1305	 0.445992637532418 
1306	 0.44615907614455 
1307	 0.446301479682003 
1308	 0.44644255567958 
1309	 0.446575315362135 
1310	 0.446685308133192 
1311	 0.446807422240115 
1312	 0.446941647652322 
1313	 0.447049955304267 
1314	 0.447145901011562 
1315	 0.447235009316878 
1316	 0.447297798457224 
1317	 0.447381061620476 
1318	 0.447465772728994 
1319	 0.447555870968838 
1320	 0.447674149038377 
1321	 0.447759724024184 
1322	 0.447833272529353 
1323	 0.44790020111826 
1324	 0.447940216659095 
1325	 0.447974356402685 
1326	 0.448020872005506 
1327	 0.448039523729447 
1328	 0.448044629282016 
1329	 0.448059466080499 
1330	 0.448071365651637 
1331	 0.448066281573865 
1332	 0.448087890708553 
1333	 0.448137088171987 
1334	 0.4481509633184 
1335	 0.44815064310255 
1336	 0.448171197383672 
1337	 0.448183712259478 
1338	 0.448201064201054 
1339	 0.448248195957624 
1340	 0.44826950379449 
1341	 0.44826565525418 
1342	 0.44827193552209 
1343	 0.4482879101683 
1344	 0.448285604551386 
1345	 0.44827318008319 
1346	 0.448257315021913 
1347	 0.448221520885849 
1348	 0.448176583881011 
1349	 0.448105658991674 
1350	 0.448018064284979 
1351	 0.447933610596004 
1352	 0.447818942328577 
1353	 0.44774311494097 
1354	 0.447687702894614 
1355	 0.447623452172894 
1356	 0.447569554433044 
1357	 0.447506428090472 
1358	 0.447426831973271 
1359	 0.447379021310116 
1360	 0.447339462701709 
1361	 0.447314808132779 
1362	 0.447323151601538 
1363	 0.447307285619793 
1364	 0.447279035115306 
1365	 0.447271608323005 
1366	 0.447251469004344 
1367	 0.447268374997008 
1368	 0.447322437198236 
1369	 0.447349489102352 
1370	 0.447354973252543 
1371	 0.447336097960067 
1372	 0.447262612253993 
1373	 0.447182272444626 
1374	 0.44710455360498 
1375	 0.447029875603227 
1376	 0.446908655988279 
1377	 0.446783061205146 
1378	 0.446615421832469 
1379	 0.446372166034968 
1380	 0.44618267484161 
1381	 0.445989462744778 
1382	 0.445805822190351 
1383	 0.445651646831987 
1384	 0.445481360563912 
1385	 0.445334098658061 
1386	 0.445132550721457 
1387	 0.444923118682297 
1388	 0.444669655716306 
1389	 0.444373609046989 
1390	 0.44404295441404 
1391	 0.4436871095506 
1392	 0.443278781710139 
1393	 0.442827841468454 
1394	 0.442362581959401 
1395	 0.441864288755359 
1396	 0.441375309047531 
1397	 0.440898713494247 
1398	 0.440418531536867 
1399	 0.439947559070307 
1400	 0.439491573971728 
1401	 0.439033820964012 
1402	 0.438572625124363 
1403	 0.438129691986127 
1404	 0.437686127906738 
1405	 0.437271822904704 
1406	 0.436873494812422 
1407	 0.436494512527333 
1408	 0.436117741449161 
1409	 0.435797278866929 
1410	 0.435471346487403 
1411	 0.435242143368704 
1412	 0.435061068483577 
1413	 0.434967927309257 
1414	 0.434994063148498 
1415	 0.435102114281587 
1416	 0.435301969213008 
1417	 0.435566583993076 
1418	 0.435845401360582 
1419	 0.436114296650025 
1420	 0.436369567312749 
1421	 0.436608040963216 
1422	 0.436792926157021 
1423	 0.436941831830655 
1424	 0.4370384159923 
1425	 0.437082269611567 
1426	 0.437096454467427 
1427	 0.437057070884953 
1428	 0.437008899791847 
1429	 0.436928990211068 
1430	 0.436838635403078 
1431	 0.436726719219636 
1432	 0.43660204513675 
1433	 0.436450347094348 
1434	 0.436308455239583 
1435	 0.436150959419899 
1436	 0.436007265420558 
1437	 0.435867783056125 
1438	 0.435733785142919 
1439	 0.435613748039943 
1440	 0.435485821332215 
1441	 0.435334648416882 
1442	 0.435185556982188 
1443	 0.434992707987035 
1444	 0.43477920469252 
1445	 0.434582558206707 
1446	 0.434370510967977 
1447	 0.434165044703277 
1448	 0.433947144177822 
1449	 0.433702728818807 
1450	 0.433429941514534 
1451	 0.433116930107332 
1452	 0.43275669750983 
1453	 0.432405918176226 
1454	 0.432026464891883 
1455	 0.431645644328613 
1456	 0.431273417883595 
1457	 0.430854584743411 
1458	 0.430395390192356 
1459	 0.429947329447937 
1460	 0.429456413233926 
1461	 0.429018263569075 
1462	 0.428604331642994 
1463	 0.428196576344736 
1464	 0.427799551693246 
1465	 0.427424663986558 
1466	 0.427044164609692 
1467	 0.426713353880677 
1468	 0.426418232241073 
1469	 0.426160093299131 
1470	 0.425937651673235 
1471	 0.425743652145218 
1472	 0.425588415572411 
1473	 0.42549248157832 
1474	 0.425472542176045 
1475	 0.425517548624179 
1476	 0.425648026483843 
1477	 0.425804813421732 
1478	 0.426002347980256 
1479	 0.42625483351805 
1480	 0.426522519083942 
1481	 0.426834205382302 
1482	 0.427145157983742 
1483	 0.427489695232581 
1484	 0.427810067592937 
1485	 0.428131168885386 
1486	 0.428446193739796 
1487	 0.428761832014115 
1488	 0.429052232966154 
1489	 0.429355016781437 
1490	 0.429602374027439 
1491	 0.429809942107183 
1492	 0.430005298331131 
1493	 0.43016160386708 
1494	 0.430310477939073 
1495	 0.430442675335123 
1496	 0.430567227797204 
1497	 0.430665839812891 
1498	 0.430772946436897 
1499	 0.430882152859344 
1500	 0.430976088921476 
1501	 0.431069427080145 
1502	 0.43115248584795 
1503	 0.431217631117791 
1504	 0.431284265831667 
1505	 0.431352308704136 
1506	 0.431398197360939 
1507	 0.431431943425906 
1508	 0.431463503361553 
1509	 0.431478451969988 
1510	 0.431501671418427 
1511	 0.431548849682383 
1512	 0.431585518365812 
1513	 0.431639845799508 
1514	 0.431691178342975 
1515	 0.431734799187977 
1516	 0.431795376533949 
1517	 0.431835706454776 
1518	 0.43187153465101 
1519	 0.431901180698201 
1520	 0.431915743084947 
1521	 0.431937962969923 
1522	 0.431957649349944 
1523	 0.431987242918548 
1524	 0.432014975167943 
1525	 0.432056653677872 
1526	 0.432110128565508 
1527	 0.432164353180063 
1528	 0.432237008897435 
1529	 0.432284579096742 
1530	 0.432320259041288 
1531	 0.432367931662698 
1532	 0.432397669003063 
1533	 0.432451655634529 
1534	 0.432541877412485 
1535	 0.432598395878174 
1536	 0.432646495173904 
1537	 0.432693935085955 
1538	 0.432723277589659 
1539	 0.432756184752955 
1540	 0.432792156131385 
1541	 0.432827804670246 
1542	 0.432864801966502 
1543	 0.432892191929966 
1544	 0.432908392162634 
1545	 0.432936568661028 
1546	 0.43296049329413 
1547	 0.43298839555619 
1548	 0.433031839186858 
1549	 0.433082581673844 
1550	 0.433137606363469 
1551	 0.433183881633555 
1552	 0.433217261486344 
1553	 0.433244569930789 
1554	 0.433283395836327 
1555	 0.433342066186686 
1556	 0.433428264606375 
1557	 0.433530264534834 
1558	 0.433591462762877 
1559	 0.433630027269714 
1560	 0.433681661193963 
1561	 0.433704796056341 
1562	 0.433771800081478 
1563	 0.433877302631778 
1564	 0.433943733020522 
1565	 0.43401000007829 
1566	 0.434071405731726 
1567	 0.434108790625773 
1568	 0.434165633837201 
1569	 0.434235077643459 
1570	 0.43429410704606 
1571	 0.434354288146836 
1572	 0.434407858294443 
1573	 0.434455701882778 
1574	 0.434507090603822 
1575	 0.434563047265987 
1576	 0.434600305815836 
1577	 0.434634529166179 
1578	 0.434655143855961 
1579	 0.434655462761569 
1580	 0.434656822523911 
1581	 0.434646176506453 
1582	 0.434647078675481 
1583	 0.434637543679548 
1584	 0.434649101370972 
1585	 0.434677409280991 
1586	 0.434709653211334 
1587	 0.43476025120077 
1588	 0.434802104164712 
1589	 0.434856860882722 
1590	 0.434886936261023 
1591	 0.434891820065299 
1592	 0.434910090820263 
1593	 0.434921337864891 
1594	 0.434938264099195 
1595	 0.434971995725682 
1596	 0.434994480174005 
1597	 0.435006903506404 
1598	 0.435017435822015 
1599	 0.435028374970867 
1600	 0.435034601010409 
1601	 0.43502997940475 
1602	 0.435034020654569 
1603	 0.435037466339831 
1604	 0.435041894667831 
1605	 0.435048455659253 
1606	 0.43506392999797 
1607	 0.435092589426526 
1608	 0.435110789434237 
1609	 0.435117117626467 
1610	 0.435117457767092 
1611	 0.435097046384692 
1612	 0.435068522482736 
1613	 0.435055674731158 
1614	 0.435026110022177 
1615	 0.434987122417015 
1616	 0.434959834534851 
1617	 0.43493653559862 
1618	 0.434944096536815 
1619	 0.434947128497625 
1620	 0.434940618646379 
1621	 0.434940054952756 
1622	 0.43493266936869 
1623	 0.434930659974276 
1624	 0.434942395404431 
1625	 0.434932899030897 
1626	 0.43491285309296 
1627	 0.434890774763746 
1628	 0.434855347444345 
1629	 0.434836188731955 
1630	 0.434818821832565 
1631	 0.434807645151648 
1632	 0.434806689512824 
1633	 0.434800341573073 
1634	 0.434798629708146 
1635	 0.434786628832236 
1636	 0.434772953475488 
1637	 0.434750820211533 
1638	 0.434714175111068 
1639	 0.434690000871373 
1640	 0.434663084189778 
1641	 0.43464768107131 
1642	 0.434648841570868 
1643	 0.434629411633662 
1644	 0.434599966152031 
1645	 0.434587536860013 
1646	 0.434576768739852 
1647	 0.434558463822306 
1648	 0.434556141884235 
1649	 0.434531843970174 
1650	 0.434480778025339 
1651	 0.434446638476109 
1652	 0.434420707204727 
1653	 0.434381453305487 
1654	 0.434343191238904 
1655	 0.434290486780685 
1656	 0.434216141401632 
1657	 0.43416059912229 
1658	 0.434094993857448 
1659	 0.434056609698784 
1660	 0.434041966795553 
1661	 0.434020655268196 
1662	 0.434019106870671 
1663	 0.433995398458147 
1664	 0.433956344240827 
1665	 0.433929717995687 
1666	 0.433905915113179 
1667	 0.433870049040958 
1668	 0.433839957136983 
1669	 0.433794831769646 
1670	 0.433728303069528 
1671	 0.433669223873589 
1672	 0.433612760653146 
1673	 0.433546914499244 
1674	 0.433459443061226 
1675	 0.433406792307934 
1676	 0.433355575687968 
1677	 0.433330697737221 
1678	 0.433367190434436 
1679	 0.433337982660619 
1680	 0.433282264820206 
1681	 0.433242235998996 
1682	 0.43317509574727 
1683	 0.433121490758298 
1684	 0.433089051255478 
1685	 0.433049942190323 
1686	 0.432988793166491 
1687	 0.432957408052763 
1688	 0.432960092052654 
1689	 0.43293495045003 
1690	 0.432911828829249 
1691	 0.432876674479195 
1692	 0.432825946154865 
1693	 0.432772054206736 
1694	 0.43270849197186 
1695	 0.432651430983208 
1696	 0.432580200974171 
1697	 0.432532315599236 
1698	 0.432507719510261 
1699	 0.432465621433706 
1700	 0.432430195445521 
1701	 0.432380808209686 
1702	 0.432314757083238 
1703	 0.432253384157634 
1704	 0.432204516517958 
1705	 0.432126295535359 
1706	 0.432017111513016 
1707	 0.431939838186721 
1708	 0.431856597539746 
1709	 0.431777107249395 
1710	 0.431722803035018 
1711	 0.431658603768685 
1712	 0.431579621926062 
1713	 0.431513265284641 
1714	 0.431453947557174 
1715	 0.431403164229088 
1716	 0.431355699040789 
1717	 0.431312826608984 
1718	 0.43130136711364 
1719	 0.431244793927903 
1720	 0.431162465654174 
1721	 0.431089475602001 
1722	 0.431003009032806 
1723	 0.430911263421118 
1724	 0.430827774055228 
1725	 0.430729258538715 
1726	 0.430597575480382 
1727	 0.430490173601025 
1728	 0.430394549576296 
1729	 0.43029151586828 
1730	 0.430196080918939 
1731	 0.430089175510542 
1732	 0.429988812603188 
1733	 0.429851799949048 
1734	 0.429682926395933 
1735	 0.429538091885093 
1736	 0.429365590851488 
1737	 0.429231981528929 
1738	 0.429137204587719 
1739	 0.429023278375392 
1740	 0.428914325847327 
1741	 0.428797829366893 
1742	 0.428676041198912 
1743	 0.428563871716867 
1744	 0.428457311795205 
1745	 0.428333879406964 
1746	 0.428215749517817 
1747	 0.428047144542904 
1748	 0.427890743026874 
1749	 0.427754140018627 
1750	 0.427602313895739 
1751	 0.427468277162732 
1752	 0.427352952788052 
1753	 0.427190028345701 
1754	 0.426999270369301 
1755	 0.426868088847185 
1756	 0.426725750491718 
1757	 0.426565945139762 
1758	 0.426460591272679 
1759	 0.426320368370778 
1760	 0.426156300470243 
1761	 0.426035181274791 
1762	 0.425919180664364 
1763	 0.425795824925547 
1764	 0.425687972784687 
1765	 0.425578230597794 
1766	 0.425444944258582 
1767	 0.425312442765325 
1768	 0.425166500914406 
1769	 0.425045909746553 
1770	 0.424956697760156 
1771	 0.424852679985086 
1772	 0.424734013013806 
1773	 0.424578499062288 
1774	 0.424428742712192 
1775	 0.424287727410596 
1776	 0.424145729210647 
1777	 0.424015017192897 
1778	 0.423873567337009 
1779	 0.423771364352392 
1780	 0.42367327586688 
1781	 0.423555890290556 
1782	 0.423468704094577 
1783	 0.423372768643284 
1784	 0.423263409228356 
1785	 0.423190278892843 
1786	 0.423065014300215 
1787	 0.422849134974347 
1788	 0.42271276386118 
1789	 0.422596220192998 
1790	 0.422499263917655 
1791	 0.422467153430393 
1792	 0.422397363229321 
1793	 0.422339298426782 
1794	 0.422230957829409 
1795	 0.42209918726 
1796	 0.421943453079494 
1797	 0.421731643284379 
1798	 0.42153952079521 
1799	 0.421327428034246 
1800	 0.421143209046666 
1801	 0.420274975965475 
1802	 0.420230984658575 
1803	 0.420182531563527 
1804	 0.42014655453025 
1805	 0.420145364351945 
1806	 0.420139968847117 
1807	 0.420119171806885 
1808	 0.420083941063482 
1809	 0.420066217650628 
1810	 0.420000872350145 
1811	 0.419912099338722 
1812	 0.419788393637047 
1813	 0.419641083153122 
1814	 0.419468788579046 
1815	 0.419291625731463 
1816	 0.419103312768894 
1817	 0.418897410701611 
1818	 0.418684428656191 
1819	 0.418452164753195 
1820	 0.418195283669882 
1821	 0.417931295850459 
1822	 0.417686214124577 
1823	 0.417408883678745 
1824	 0.417126212174785 
1825	 0.416820868771536 
1826	 0.416495902184142 
1827	 0.416174304605335 
1828	 0.41577509366511 
1829	 0.415336105272798 
1830	 0.414856687786289 
1831	 0.414319132567776 
1832	 0.413733572307968 
1833	 0.413142362543968 
1834	 0.412555562227214 
1835	 0.411966940850923 
1836	 0.411367394541339 
1837	 0.410763061242458 
1838	 0.41017872008429 
1839	 0.409630118059694 
1840	 0.409099535052896 
1841	 0.408587229900227 
1842	 0.40811433530347 
1843	 0.407714046095626 
1844	 0.407339782441348 
1845	 0.406981978206545 
1846	 0.4066856857232 
1847	 0.406411419072471 
1848	 0.406198635516218 
1849	 0.406090286925161 
1850	 0.406043480239294 
1851	 0.40608449852546 
1852	 0.406171236237047 
1853	 0.406296827623282 
1854	 0.406443651475518 
1855	 0.406592798903774 
1856	 0.406761971694641 
1857	 0.406963231230955 
1858	 0.407156099757431 
1859	 0.407342570063506 
1860	 0.407522840243994 
1861	 0.407704026114856 
1862	 0.407854044058634 
1863	 0.408026288806014 
1864	 0.408214022565172 
1865	 0.408430906505898 
1866	 0.408649856511021 
1867	 0.408858927097502 
1868	 0.409103805211808 
1869	 0.409323380914492 
1870	 0.409551947664716 
1871	 0.409772434275243 
1872	 0.410009848085301 
1873	 0.410191874738014 
1874	 0.410341820906368 
1875	 0.410461470103071 
1876	 0.410520815183395 
1877	 0.41051389573301 
1878	 0.410453119158928 
1879	 0.410351281593264 
1880	 0.410171396452406 
1881	 0.409912964782079 
1882	 0.409606199059837 
1883	 0.409253185559424 
1884	 0.408805402472805 
1885	 0.408306555781407 
1886	 0.40777584155088 
1887	 0.407150163712928 
1888	 0.406473457366369 
1889	 0.405742768658263 
1890	 0.404948974820147 
1891	 0.404123610540144 
1892	 0.403243900970976 
1893	 0.402339421492417 
1894	 0.401395712405064 
1895	 0.400425162332706 
1896	 0.399415116256566 
1897	 0.398387217914335 
1898	 0.3973379495383 
1899	 0.39628112629092 
1900	 0.39520531412098 
1901	 0.394130438285186 
1902	 0.393092096714073 
1903	 0.392077706180936 
1904	 0.391059394885209 
1905	 0.390060048502285 
1906	 0.389095561858701 
1907	 0.388084211678076 
1908	 0.387064738756768 
1909	 0.386104232069005 
1910	 0.385119214080137 
1911	 0.384143946567562 
1912	 0.383204746321422 
1913	 0.382276444240959 
1914	 0.381343996088236 
1915	 0.380442862572863 
1916	 0.379565741198391 
1917	 0.378710459676329 
1918	 0.377884252376393 
1919	 0.377091806864254 
1920	 0.376349741602557 
1921	 0.375638579670636 
1922	 0.374941315176693 
1923	 0.374299339873217 
1924	 0.37368265199827 
1925	 0.373100348561603 
1926	 0.372549622424025 
1927	 0.372042156687627 
1928	 0.371536235640557 
1929	 0.371068307804837 
1930	 0.370630201137037 
1931	 0.370211526622947 
1932	 0.369828863241828 
1933	 0.369501999375768 
1934	 0.369238787102852 
1935	 0.369022904369477 
1936	 0.368875028754046 
1937	 0.36875885794939 
1938	 0.368689072318439 
1939	 0.368651020357407 
1940	 0.368652030302051 
1941	 0.368705375846419 
1942	 0.368773138395161 
1943	 0.36885547252338 
1944	 0.368954711575392 
1945	 0.369058248270972 
1946	 0.369170400135262 
1947	 0.369295865875071 
1948	 0.369424267360512 
1949	 0.369572263276937 
1950	 0.369699898887266 
1951	 0.369820235227569 
1952	 0.369945293796151 
1953	 0.370070364715515 
1954	 0.370180568183561 
1955	 0.370305171299827 
1956	 0.370415740480363 
1957	 0.370514034277734 
1958	 0.370599682053828 
1959	 0.37068888337287 
1960	 0.370757004596788 
1961	 0.370845063583068 
1962	 0.370930060679957 
1963	 0.371027318336198 
1964	 0.371136443611693 
1965	 0.371266745706567 
1966	 0.371383845322206 
1967	 0.371485029389427 
1968	 0.371579411854251 
1969	 0.371631615355108 
1970	 0.37174004658309 
1971	 0.37187633322571 
1972	 0.372007027003991 
1973	 0.372170980641685 
1974	 0.372317550294371 
1975	 0.372459424785798 
1976	 0.372577530652274 
1977	 0.372728285430235 
1978	 0.372862619998273 
1979	 0.372990348481321 
1980	 0.373142584311053 
1981	 0.373281509071101 
1982	 0.373409559985739 
1983	 0.373549047683589 
1984	 0.373697650543886 
1985	 0.373837424543702 
1986	 0.373972968255218 
1987	 0.374116591261176 
1988	 0.374253131899607 
1989	 0.374392117642609 
1990	 0.374575767994769 
1991	 0.374792717874428 
1992	 0.374992891351747 
1993	 0.375236741284871 
1994	 0.375424188900347 
1995	 0.37556955963167 
1996	 0.375735651736314 
1997	 0.375885072728327 
1998	 0.376047813178273 
1999	 0.376229213790766 
2000	 0.376400084882878 
2001	 0.376570728865938 
2002	 0.376724495252382 
2003	 0.376908974601818 
2004	 0.377096639061889 
2005	 0.377281073187368 
2006	 0.377473171935095 
2007	 0.37768079803731 
2008	 0.37787515885015 
2009	 0.378098170233879 
2010	 0.378368929378935 
2011	 0.378608604005538 
2012	 0.378854525844565 
2013	 0.379087546672926 
2014	 0.379305634449878 
2015	 0.379512827738399 
2016	 0.379731872320505 
2017	 0.379942173548566 
2018	 0.380166122768153 
2019	 0.380406861194807 
2020	 0.380627626554848 
2021	 0.380850952093078 
2022	 0.381061138831779 
2023	 0.381257829931843 
2024	 0.381450557049826 
2025	 0.381646029281266 
2026	 0.381819178863407 
2027	 0.381972064360951 
2028	 0.382119259381938 
2029	 0.382270024740474 
2030	 0.382406553051728 
2031	 0.382551878660758 
2032	 0.382699492448878 
2033	 0.382856378596917 
2034	 0.38301261805116 
2035	 0.383177072161983 
2036	 0.383367803132137 
2037	 0.383532779699088 
2038	 0.383688902791418 
2039	 0.383839722445491 
2040	 0.383977959682246 
2041	 0.384116920608913 
2042	 0.384238338070586 
2043	 0.384369423137983 
2044	 0.384497068057488 
2045	 0.384612858412611 
2046	 0.384743453829444 
2047	 0.384898954909884 
2048	 0.385020625369207 
2049	 0.385146933607289 
2050	 0.385240938661697 
2051	 0.385283771418636 
2052	 0.38535233346028 
2053	 0.38540714061057 
2054	 0.385478084546542 
2055	 0.385575103518854 
2056	 0.385669997435314 
2057	 0.385733250950413 
2058	 0.385781485979987 
2059	 0.385834426435827 
2060	 0.385853584360583 
2061	 0.385906607637049 
2062	 0.385973852093384 
2063	 0.386050182452057 
2064	 0.386138032604962 
2065	 0.386234006633298 
2066	 0.386361199355434 
2067	 0.386464699031369 
2068	 0.386580984409533 
2069	 0.386657464326533 
2070	 0.38673620264725 
2071	 0.386794989728257 
2072	 0.386863183672051 
2073	 0.386938981241819 
2074	 0.386983902583705 
2075	 0.387010786930819 
2076	 0.387043020199168 
2077	 0.387035225009868 
2078	 0.387075555269254 
2079	 0.387160733351989 
2080	 0.38721227425446 
2081	 0.387274414045357 
2082	 0.387319702438227 
2083	 0.387323858805528 
2084	 0.387351654212573 
2085	 0.38738610622174 
2086	 0.387435480146138 
2087	 0.387462729622696 
2088	 0.387487198685135 
2089	 0.387515092010695 
2090	 0.387527437728864 
2091	 0.387551168956961 
2092	 0.387598621535207 
2093	 0.38762195635227 
2094	 0.387625481167478 
2095	 0.387641284683309 
2096	 0.38766079449546 
2097	 0.387669082451365 
2098	 0.387663786182441 
2099	 0.387680509849 
2100	 0.387691388554855 
2101	 0.387686780071162 
2102	 0.387705422111052 
2103	 0.387742611118752 
2104	 0.387776182257697 
2105	 0.387801170562335 
2106	 0.387857687452934 
2107	 0.387934105137854 
2108	 0.388013144712356 
2109	 0.388115388660307 
2110	 0.388216597954872 
2111	 0.388344211340489 
2112	 0.388432644993733 
2113	 0.388508141420994 
2114	 0.388582606869355 
2115	 0.388626328011248 
2116	 0.388607625110764 
2117	 0.388667446939121 
2118	 0.388742263491249 
2119	 0.388829604748756 
2120	 0.388965766535974 
2121	 0.389074192152668 
2122	 0.389180376194045 
2123	 0.38927984333741 
2124	 0.389393066169387 
2125	 0.389471213713338 
2126	 0.389524303027918 
2127	 0.389573446750627 
2128	 0.389608992800882 
2129	 0.389624933898719 
2130	 0.389627621364196 
2131	 0.389630243728296 
2132	 0.389593378783866 
2133	 0.389536583501386 
2134	 0.389439263208853 
2135	 0.389316118632837 
2136	 0.389152768083018 
2137	 0.388917690677784 
2138	 0.388720090549281 
2139	 0.388515925069401 
2140	 0.388294958780015 
2141	 0.388098376749667 
2142	 0.387852636901939 
2143	 0.387542050905627 
2144	 0.387260713346764 
2145	 0.386983508322677 
2146	 0.386685067298856 
2147	 0.386418896046761 
2148	 0.386095159133278 
2149	 0.385731967149642 
2150	 0.385320525456455 
2151	 0.384902154060818 
2152	 0.38443949487814 
2153	 0.383983492660993 
2154	 0.383500772003968 
2155	 0.383043568186622 
2156	 0.382603141055903 
2157	 0.382129490616496 
2158	 0.381669703363404 
2159	 0.381173423762789 
2160	 0.380622891841872 
2161	 0.380086082626656 
2162	 0.379546204861381 
2163	 0.37899752317262 
2164	 0.378442763721265 
2165	 0.377877827594397 
2166	 0.377318790533626 
2167	 0.376750727326914 
2168	 0.376191365813007 
2169	 0.375659187556475 
2170	 0.375070080032395 
2171	 0.374445841923464 
2172	 0.373843352627702 
2173	 0.373230889945288 
2174	 0.372596348551898 
2175	 0.371980965166871 
2176	 0.371325725261818 
2177	 0.370600660366094 
2178	 0.369909103160494 
2179	 0.369225200229888 
2180	 0.368534019958867 
2181	 0.367854660223628 
2182	 0.367158538106968 
2183	 0.366455450519272 
2184	 0.365727022516967 
2185	 0.365008357116499 
2186	 0.364270247297739 
2187	 0.363561626660935 
2188	 0.362857326647999 
2189	 0.362173668650926 
2190	 0.361504656593528 
2191	 0.360852318135417 
2192	 0.360224921194142 
2193	 0.359590873008665 
2194	 0.358957628548935 
2195	 0.358348173399719 
2196	 0.357734595910738 
2197	 0.357157237399051 
2198	 0.356590207423451 
2199	 0.356078488928631 
2200	 0.355596764718599 
2201	 0.35516046737384 
2202	 0.354780394263525 
2203	 0.354444621154547 
2204	 0.354125460522489 
2205	 0.353843994560035 
2206	 0.353583631340099 
2207	 0.353335803864442 
2208	 0.353147941640173 
2209	 0.352995120476118 
2210	 0.352892282682216 
2211	 0.352859008341333 
2212	 0.35282959008534 
2213	 0.352852475251974 
2214	 0.35285854453476 
2215	 0.352882697784301 
2216	 0.352898517231492 
2217	 0.352932502886739 
2218	 0.352931816333148 
2219	 0.352929248570429 
2220	 0.352890552370474 
2221	 0.352804624505438 
2222	 0.352730696317745 
2223	 0.352608265379148 
2224	 0.352468967968352 
2225	 0.352323283784959 
2226	 0.352176587918702 
2227	 0.351954961241332 
2228	 0.351702742212569 
2229	 0.351423294947304 
2230	 0.351068955227039 
2231	 0.350739359546903 
2232	 0.350433727630871 
2233	 0.350054187600538 
2234	 0.349648724491638 
2235	 0.349190122955016 
2236	 0.348644090333692 
2237	 0.348124220634894 
2238	 0.347584193025042 
2239	 0.347029094574679 
2240	 0.346492969542445 
2241	 0.345903623328731 
2242	 0.345287636367291 
2243	 0.344623925825976 
2244	 0.343930266431031 
2245	 0.343169031903349 
2246	 0.342386366835154 
2247	 0.341537766730766 
2248	 0.34068958295019 
2249	 0.339799007388023 
2250	 0.338931970816531 
2251	 0.338043161133387 
2252	 0.337185871766033 
2253	 0.336318143607199 
2254	 0.335514621045373 
2255	 0.334734162946701 
2256	 0.334003252289189 
2257	 0.333293599440934 
2258	 0.332687090271649 
2259	 0.33212652741766 
2260	 0.3316587634244 
2261	 0.331298692997933 
2262	 0.330992691798733 
2263	 0.330747683619094 
2264	 0.330585724647637 
2265	 0.330504160001244 
2266	 0.330501488589313 
2267	 0.330586445053835 
2268	 0.330740759923052 
2269	 0.330992162747889 
2270	 0.331282399873403 
2271	 0.331655460315352 
2272	 0.332083622496046 
2273	 0.332547876358574 
2274	 0.333090905610522 
2275	 0.333652559485631 
2276	 0.334251309493781 
2277	 0.334899444591699 
2278	 0.335598803804257 
2279	 0.336315191338344 
2280	 0.337080567730671 
2281	 0.337859867233532 
2282	 0.338694231843329 
2283	 0.339486986324934 
2284	 0.340326319002159 
2285	 0.341072893574196 
2286	 0.341764141797145 
2287	 0.342426048341042 
2288	 0.342989691770445 
2289	 0.343614769182524 
2290	 0.3442904444121 
2291	 0.344876402287963 
2292	 0.345455512696462 
2293	 0.34599618341552 
2294	 0.346433450761399 
2295	 0.346887415497807 
2296	 0.347342558819203 
2297	 0.347776319911455 
2298	 0.348198853214812 
2299	 0.348624339175152 
2300	 0.349047011195434 
2301	 0.349450834917002 
2302	 0.349880527578889 
2303	 0.35028306776329 
2304	 0.350654141048474 
2305	 0.351070058435819 
2306	 0.351428091787615 
2307	 0.351719295021818 
2308	 0.352071656450093 
2309	 0.352454949061733 
2310	 0.352786861308596 
2311	 0.353136618641707 
2312	 0.353418070722776 
2313	 0.353619118462723 
2314	 0.353850993996722 
2315	 0.354051002415418 
2316	 0.354290558468863 
2317	 0.354579808268361 
2318	 0.354800503310608 
2319	 0.355002992327907 
2320	 0.355200983451475 
2321	 0.355335811744516 
2322	 0.355509858293756 
2323	 0.355727615114775 
2324	 0.355905701964003 
2325	 0.356112397492898 
2326	 0.356237662369451 
2327	 0.356303642712159 
2328	 0.35634180145684 
2329	 0.356346144468359 
2330	 0.356297304842612 
2331	 0.356321218287736 
2332	 0.356361118251451 
2333	 0.356349279742725 
2334	 0.356371508615332 
2335	 0.356330051878331 
2336	 0.356279330067712 
2337	 0.356255182843264 
2338	 0.356209072123371 
2339	 0.356182094449747 
2340	 0.356079968126613 
2341	 0.355933914564493 
2342	 0.355788686206619 
2343	 0.35558262633535 
2344	 0.355353808795155 
2345	 0.355110401481905 
2346	 0.354833795200161 
2347	 0.354564755518279 
2348	 0.354280357267956 
2349	 0.354000650701829 
2350	 0.353750527304591 
2351	 0.353461357202225 
2352	 0.353137553405358 
2353	 0.352805590950144 
2354	 0.352413877600534 
2355	 0.352096677900679 
2356	 0.351830952936865 
2357	 0.351530326746036 
2358	 0.351270298184129 
2359	 0.350970436012638 
2360	 0.350622951045819 
2361	 0.350280369965931 
2362	 0.349956927775141 
2363	 0.349567040447092 
2364	 0.349125195021002 
2365	 0.348673209001909 
2366	 0.348174275187168 
2367	 0.347691220336355 
2368	 0.347198734193276 
2369	 0.346727075412895 
2370	 0.346267390451928 
2371	 0.345790652998765 
2372	 0.345349047033656 
2373	 0.344811969496576 
2374	 0.344208926554954 
2375	 0.343625002062885 
2376	 0.343048929452362 
2377	 0.342475348185787 
2378	 0.341877789482462 
2379	 0.341232382380403 
2380	 0.340552490551756 
2381	 0.339838993117842 
2382	 0.339126376816177 
2383	 0.338471061142663 
2384	 0.337773720550839 
2385	 0.337052196228429 
2386	 0.336430576209769 
2387	 0.335754783467206 
2388	 0.335062973508359 
2389	 0.334396076016527 
2390	 0.333680898797734 
2391	 0.333019196317262 
2392	 0.332396550454246 
2393	 0.331796137201367 
2394	 0.331149043251704 
2395	 0.330499555812776 
2396	 0.329860019591059 
2397	 0.329103140038126 
2398	 0.328308856179897 
2399	 0.327511497506548 
2400	 0.326735392373604 
2401	 0.326041479233377 
2402	 0.325437482486229 
2403	 0.324892970658918 
2404	 0.324351370202012 
2405	 0.323831808969108 
2406	 0.323244813398365 
2407	 0.322602506662811 
2408	 0.322044118376302 
2409	 0.321416377847108 
2410	 0.32077977787426 
2411	 0.320253669658725 
2412	 0.319632569762256 
2413	 0.319027128562212 
2414	 0.318536393496853 
2415	 0.317981653570918 
2416	 0.31748463805415 
2417	 0.317098370135911 
2418	 0.316571221087757 
2419	 0.316001357691005 
2420	 0.315455381600031 
2421	 0.314784542392058 
2422	 0.314194881995664 
2423	 0.313659100095565 
2424	 0.313183990838035 
2425	 0.312744600990621 
2426	 0.312315162168834 
2427	 0.312003813503787 
2428	 0.311573590183092 
2429	 0.311132445146237 
2430	 0.310652159621873 
2431	 0.310047229396582 
2432	 0.30951171805352 
2433	 0.308932680934483 
2434	 0.308399061057944 
2435	 0.307958534901064 
2436	 0.307490790804263 
2437	 0.307022324851842 
2438	 0.30657982007312 
2439	 0.306200917920402 
2440	 0.305703869430996 
2441	 0.30514662262953 
2442	 0.304641921028637 
2443	 0.304086571590926 
2444	 0.303521808884962 
2445	 0.302959494295472 
2446	 0.302456968687737 
2447	 0.301940523264245 
2448	 0.301427543170822 
2449	 0.301047849125954 
2450	 0.300535297294051 
2451	 0.299895040831439 
2452	 0.299347279352721 
2453	 0.298774427326231 
2454	 0.298269380854958 
2455	 0.297835224701911 
2456	 0.297373162216045 
2457	 0.296962825959624 
2458	 0.296568161111925 
2459	 0.296087620180584 
2460	 0.295706798288377 
2461	 0.295453814027463 
2462	 0.295187818993457 
2463	 0.294996350326828 
2464	 0.29468191263481 
2465	 0.294235314155378 
2466	 0.293882201857441 
2467	 0.293595454372363 
2468	 0.293279205737412 
2469	 0.293064504182967 
2470	 0.292880813469967 
2471	 0.29228149703307 
2472	 0.291917167002184 
2473	 0.291741121346143 
2474	 0.291433792670772 
2475	 0.291251915449677 
2476	 0.291099128234421 
2477	 0.290837219605302 
2478	 0.290380848649009 
2479	 0.290027002352426 
2480	 0.289855569674072 
2481	 0.289458337215148 
2482	 0.289108792103801 
2483	 0.288756179198937 
2484	 0.288229931118663 
2485	 0.287723750871853 
2486	 0.287112681799253 
2487	 0.28678235008235 
2488	 0.286697826225612 
2489	 0.286329820660318 
2490	 0.286037103492297 
2491	 0.285575095618964 
2492	 0.284707786222405 
2493	 0.28405326539507 
2494	 0.283424381824211 
2495	 0.282817937759392 
2496	 0.282338295641935 
2497	 0.281708133031705 
2498	 0.281233063424231 
2499	 0.280839694786453 
2500	 0.280314017076741 
