Wavelength	LMW7 profile 200016.asd
350	 6.49851631484809E-02 
351	 6.08667288489956E-02 
352	 5.53589547735721E-02 
353	 5.63477733427853E-02 
354	 6.54984181387178E-02 
355	 6.63036465349169E-02 
356	 6.35020414800264E-02 
357	 6.43990805010337E-02 
358	 0.062947583702458 
359	 6.18138283821958E-02 
360	 6.17222842949583E-02 
361	 6.18634444819578E-02 
362	 5.96550442773188E-02 
363	 0.061196609145527 
364	 0.066661173390685 
365	 6.55027241113284E-02 
366	 0.06364204299047 
367	 0.062687149183573 
368	 6.30971086514949E-02 
369	 6.57719588562069E-02 
370	 6.55632056217338E-02 
371	 6.42473544496231E-02 
372	 0.067476861600799 
373	 6.67373340345002E-02 
374	 6.59661637662903E-02 
375	 0.067206843678848 
376	 0.066466286730469 
377	 6.47017805319058E-02 
378	 0.065391242684909 
379	 7.01235881712065E-02 
380	 6.95877554044852E-02 
381	 0.069053588600284 
382	 7.07082908175214E-02 
383	 7.36031271487685E-02 
384	 7.27541189065077E-02 
385	 0.072468005358998 
386	 7.56690326852842E-02 
387	 8.05886025388986E-02 
388	 8.19866691907229E-02 
389	 0.080967630714987 
390	 8.09787792582241E-02 
391	 0.084845512364146 
392	 8.81290907929367E-02 
393	 8.99084888030383E-02 
394	 9.24647557367693E-02 
395	 9.45109473228048E-02 
396	 9.64142868115433E-02 
397	 9.85053492571518E-02 
398	 0.100531241131571 
399	 0.102911455528695 
400	 0.106104180130458 
401	 0.110174058901216 
402	 0.113313973109838 
403	 0.115509318208122 
404	 0.117431611091433 
405	 0.120223467913476 
406	 0.123565082517024 
407	 0.126834661541338 
408	 0.129547812267648 
409	 0.131729583024971 
410	 0.133561146194347 
411	 0.135485618470334 
412	 0.137882392192528 
413	 0.139942305885913 
414	 0.141155111536693 
415	 0.141833898809624 
416	 0.14326311400505 
417	 0.14359409158578 
418	 0.143989432156234 
419	 0.145418625950939 
420	 0.145801662834902 
421	 0.145363892514662 
422	 0.144661085591916 
423	 0.144327179957608 
424	 0.14357474494235 
425	 0.142937068561663 
426	 0.142510548619357 
427	 0.141311652482335 
428	 0.139862396210808 
429	 0.138367487151334 
430	 0.136920947680044 
431	 0.135500020954973 
432	 0.134330507431251 
433	 0.133506479682407 
434	 0.132986306013846 
435	 0.132763184866001 
436	 0.133087793098423 
437	 0.133893785985017 
438	 0.134037381238088 
439	 0.135332713732534 
440	 0.137580816422295 
441	 0.13964211475908 
442	 0.141810200037649 
443	 0.144107612692093 
444	 0.146408657551346 
445	 0.148341486370635 
446	 0.150907363352343 
447	 0.153798457292546 
448	 0.156473725857986 
449	 0.159190153031389 
450	 0.162051315371022 
451	 0.16494434501645 
452	 0.167586531240137 
453	 0.170053737965546 
454	 0.172512591848761 
455	 0.175066155469214 
456	 0.177664477210584 
457	 0.179953889068768 
458	 0.182094438221472 
459	 0.184417234119195 
460	 0.186636023063977 
461	 0.188437319471211 
462	 0.189965745578397 
463	 0.191992245220421 
464	 0.19384150880502 
465	 0.195533156207734 
466	 0.197211450812529 
467	 0.198700506295039 
468	 0.200231670069611 
469	 0.201680192030226 
470	 0.202697891618471 
471	 0.204249966386174 
472	 0.205798176518499 
473	 0.206940601909968 
474	 0.208194285472839 
475	 0.209405658239908 
476	 0.210474473992199 
477	 0.211399458621245 
478	 0.212760879768398 
479	 0.214143973413122 
480	 0.215280934871063 
481	 0.216220130772415 
482	 0.217343689337974 
483	 0.218566818997565 
484	 0.219725388592836 
485	 0.220971570560504 
486	 0.222087343792528 
487	 0.22302789706739 
488	 0.223915509104184 
489	 0.225030940721876 
490	 0.226135936020172 
491	 0.22707434838914 
492	 0.228129261509133 
493	 0.229120536717102 
494	 0.23007315739705 
495	 0.23109089599015 
496	 0.232115091548287 
497	 0.233118279783788 
498	 0.234143675875339 
499	 0.235347180427872 
500	 0.236332573489572 
501	 0.237269500765267 
502	 0.238370705039705 
503	 0.239236619777172 
504	 0.240128556831274 
505	 0.241088857005358 
506	 0.241953515051246 
507	 0.242970061539421 
508	 0.244019572174095 
509	 0.244980574198614 
510	 0.245920081215368 
511	 0.246879804615954 
512	 0.247816896031094 
513	 0.248659626174844 
514	 0.249491193886329 
515	 0.250407045811178 
516	 0.251413482715262 
517	 0.252371653972972 
518	 0.253344636412239 
519	 0.25420310140536 
520	 0.254878036472494 
521	 0.255908175533876 
522	 0.256957315144807 
523	 0.257874395296585 
524	 0.258755193649843 
525	 0.259567824653045 
526	 0.260379945940574 
527	 0.261257215724324 
528	 0.262218756965183 
529	 0.263054691827291 
530	 0.263830144458667 
531	 0.264771016793013 
532	 0.265675630201189 
533	 0.266598719013823 
534	 0.267538783038562 
535	 0.268270525828492 
536	 0.269170190145473 
537	 0.270135591125091 
538	 0.270915769982588 
539	 0.27165771885499 
540	 0.272490081859327 
541	 0.273424556188994 
542	 0.274324948558773 
543	 0.275181996678253 
544	 0.276007605634606 
545	 0.276840227402728 
546	 0.277798863128668 
547	 0.278624460946327 
548	 0.279373321503511 
549	 0.280353881851655 
550	 0.28120452369636 
551	 0.282048728620524 
552	 0.283007509862512 
553	 0.283963667804463 
554	 0.284936889604547 
555	 0.28589287612057 
556	 0.286789292536562 
557	 0.287765238455992 
558	 0.288765914280653 
559	 0.289763129501171 
560	 0.290829884440102 
561	 0.2917416274431 
562	 0.292586202622681 
563	 0.293538878487977 
564	 0.294597331221776 
565	 0.295546277382778 
566	 0.296421352304739 
567	 0.297546077577573 
568	 0.298757193988722 
569	 0.299967038603331 
570	 0.301132789214884 
571	 0.302316410200927 
572	 0.303483847799492 
573	 0.304617491007583 
574	 0.305701472379808 
575	 0.306595581622708 
576	 0.307515250624633 
577	 0.308587087864836 
578	 0.309624576450483 
579	 0.310695548415706 
580	 0.311865617849522 
581	 0.313179904969849 
582	 0.314517939867172 
583	 0.315866216915208 
584	 0.317172083577764 
585	 0.318316523417156 
586	 0.319395693781528 
587	 0.320455951127791 
588	 0.321519821871232 
589	 0.322579456807112 
590	 0.323586386088367 
591	 0.324592074622201 
592	 0.325729129512365 
593	 0.326789715982142 
594	 0.327828827029658 
595	 0.328940160349494 
596	 0.330185892399016 
597	 0.331497280581345 
598	 0.332809702406906 
599	 0.3340588642854 
600	 0.335125588313925 
601	 0.336147838410395 
602	 0.337170792373433 
603	 0.33801517183437 
604	 0.338858003346263 
605	 0.339729863515029 
606	 0.340611362829438 
607	 0.341518217919425 
608	 0.342364767436623 
609	 0.343168165665756 
610	 0.34406690374234 
611	 0.345003218060985 
612	 0.345911531974563 
613	 0.346755057254241 
614	 0.347629547110822 
615	 0.348402672643854 
616	 0.349059351908692 
617	 0.349670994020073 
618	 0.350297904544898 
619	 0.3509170523983 
620	 0.351498818433295 
621	 0.352020453617516 
622	 0.352566430553277 
623	 0.353130413583702 
624	 0.353671787306904 
625	 0.354204838599973 
626	 0.354709670271346 
627	 0.355172522599195 
628	 0.355588684263223 
629	 0.356128725232194 
630	 0.35664824877144 
631	 0.35701184712513 
632	 0.357487172201685 
633	 0.357893071994194 
634	 0.358262849986691 
635	 0.358788352623706 
636	 0.359136031192035 
637	 0.359508054536242 
638	 0.360021850557042 
639	 0.360353277211746 
640	 0.360687405732048 
641	 0.361036286725922 
642	 0.361360932009629 
643	 0.361845114332909 
644	 0.362315161594037 
645	 0.362689045708491 
646	 0.363063878146836 
647	 0.363481653272301 
648	 0.363878024942537 
649	 0.364207992477014 
650	 0.36465821747261 
651	 0.365112915810063 
652	 0.365509838933084 
653	 0.365852467681804 
654	 0.366317025948329 
655	 0.366779894281774 
656	 0.367154284953424 
657	 0.367577021258168 
658	 0.368095226244201 
659	 0.368619208430442 
660	 0.369018879950996 
661	 0.369447619810426 
662	 0.369942619863652 
663	 0.370484205448655 
664	 0.370991406072206 
665	 0.371412972168035 
666	 0.371828544016042 
667	 0.372323343611865 
668	 0.372817820966721 
669	 0.373352723575087 
670	 0.373888675403945 
671	 0.374328135545326 
672	 0.374815897189948 
673	 0.375360318505869 
674	 0.375929742515459 
675	 0.376458019376571 
676	 0.377014178557494 
677	 0.377551656995719 
678	 0.378006703000983 
679	 0.378563950113534 
680	 0.379105948974309 
681	 0.379618758506836 
682	 0.380258109655695 
683	 0.380807740398002 
684	 0.381332142726438 
685	 0.381912162682745 
686	 0.382396190767954 
687	 0.382937903177237 
688	 0.383559123737834 
689	 0.384173654816755 
690	 0.384643668594228 
691	 0.385091202150293 
692	 0.385627843071322 
693	 0.386283433329618 
694	 0.386815094616601 
695	 0.387291434952836 
696	 0.387851953932531 
697	 0.388294173390597 
698	 0.388833123604216 
699	 0.389483677118291 
700	 0.39003094670237 
701	 0.390515734667575 
702	 0.390956445136291 
703	 0.391389002837959 
704	 0.391909885683054 
705	 0.392348091068918 
706	 0.392732736961258 
707	 0.393185990027764 
708	 0.393647756529041 
709	 0.394059497116005 
710	 0.394428578699473 
711	 0.39485751920938 
712	 0.395250763996973 
713	 0.395621810053739 
714	 0.395993290889257 
715	 0.396295326584052 
716	 0.396624322232402 
717	 0.396959797445579 
718	 0.397203143571668 
719	 0.397442048866253 
720	 0.397636255018781 
721	 0.397773390157944 
722	 0.397915900339892 
723	 0.398212669788475 
724	 0.398500023614694 
725	 0.39858663516951 
726	 0.398749380102847 
727	 0.398879504039176 
728	 0.398924092432647 
729	 0.398906337509514 
730	 0.398976048441146 
731	 0.39902225705379 
732	 0.398955705877495 
733	 0.398849989246192 
734	 0.39876110966596 
735	 0.398682380204337 
736	 0.398583270210164 
737	 0.398502879895862 
738	 0.398333542520304 
739	 0.398072460651937 
740	 0.397840042573079 
741	 0.397666099075523 
742	 0.397448946976055 
743	 0.397114074051269 
744	 0.396735155604793 
745	 0.39636345813773 
746	 0.396020968090976 
747	 0.395689089981254 
748	 0.395198787710431 
749	 0.394780423653876 
750	 0.394450804773985 
751	 0.393933851924184 
752	 0.393372910819329 
753	 0.392847802580815 
754	 0.39237537589931 
755	 0.391827036205387 
756	 0.391302847492209 
757	 0.390739774779863 
758	 0.390037989306517 
759	 0.389476051081147 
760	 0.388846510554189 
761	 0.388108526145659 
762	 0.38748079470457 
763	 0.386890620432335 
764	 0.386235551321557 
765	 0.385473654613442 
766	 0.384750967024139 
767	 0.384096232925803 
768	 0.383426446705837 
769	 0.382631459997568 
770	 0.381866820496603 
771	 0.381159308062809 
772	 0.380459831389718 
773	 0.379650093102217 
774	 0.378906364130649 
775	 0.37817134553187 
776	 0.377382469709189 
777	 0.37660929939193 
778	 0.37586226421543 
779	 0.375094274569468 
780	 0.374251387685038 
781	 0.373414995486969 
782	 0.372669516643075 
783	 0.37196533901588 
784	 0.371128385958698 
785	 0.370378308417809 
786	 0.36968928900456 
787	 0.368955425570192 
788	 0.367964263359471 
789	 0.367172149093167 
790	 0.366509290337733 
791	 0.365739293145352 
792	 0.364931488977791 
793	 0.364196264359935 
794	 0.36350093723449 
795	 0.362703322748769 
796	 0.361942060565286 
797	 0.361222377039924 
798	 0.360499278763271 
799	 0.359670517633235 
800	 0.358936615620622 
801	 0.358286226742287 
802	 0.357623365389955 
803	 0.356804468517827 
804	 0.356063513971147 
805	 0.355423141867835 
806	 0.35476642931576 
807	 0.354077206145306 
808	 0.353350983178801 
809	 0.352629749409121 
810	 0.352001827157204 
811	 0.351379622556245 
812	 0.350716955507453 
813	 0.350020630660892 
814	 0.349416930098783 
815	 0.348759050408463 
816	 0.348094257793252 
817	 0.347515091195128 
818	 0.346888642045446 
819	 0.346272060780248 
820	 0.345673905780422 
821	 0.345058354709931 
822	 0.344489730514919 
823	 0.343895367518957 
824	 0.343273795403053 
825	 0.342772248887309 
826	 0.342262521372614 
827	 0.341754962639475 
828	 0.341267996751438 
829	 0.340732278464065 
830	 0.340072572604199 
831	 0.33942450393682 
832	 0.338973898824471 
833	 0.338528740431507 
834	 0.338083023013456 
835	 0.337636292056464 
836	 0.337180204924615 
837	 0.336654180942652 
838	 0.336171676988698 
839	 0.335762918460588 
840	 0.335271357127791 
841	 0.334796687029189 
842	 0.334335460586001 
843	 0.333894592235047 
844	 0.333614953163259 
845	 0.333258327184054 
846	 0.332833571568254 
847	 0.332451988001856 
848	 0.332044099051009 
849	 0.331697872082078 
850	 0.331381774198904 
851	 0.330972226307795 
852	 0.330569055445094 
853	 0.33025649261378 
854	 0.329993148243891 
855	 0.32957142285201 
856	 0.329312952173378 
857	 0.329073799282682 
858	 0.328719470267141 
859	 0.328423276974664 
860	 0.328168263580641 
861	 0.327901611821382 
862	 0.327595801891556 
863	 0.327420024602685 
864	 0.327125300655578 
865	 0.326786635712469 
866	 0.326632330177803 
867	 0.326391237336598 
868	 0.326219842841908 
869	 0.326106833972464 
870	 0.325847349919733 
871	 0.325473221209509 
872	 0.325204516080466 
873	 0.325139448994113 
874	 0.325131985699856 
875	 0.325071829845356 
876	 0.324886122609657 
877	 0.324609796077897 
878	 0.324495918937342 
879	 0.324443221120429 
880	 0.324332044355635 
881	 0.324124083996174 
882	 0.324142699643368 
883	 0.324163860086321 
884	 0.324021776834739 
885	 0.323693577358069 
886	 0.323679618340194 
887	 0.323767659770313 
888	 0.323765896821815 
889	 0.323591720142449 
890	 0.323508102881956 
891	 0.323482769646654 
892	 0.323501906823847 
893	 0.323611007431075 
894	 0.323523442949454 
895	 0.323465763483218 
896	 0.323564330295451 
897	 0.32358085335416 
898	 0.323682931964647 
899	 0.323759564870125 
900	 0.32372767939022 
901	 0.323766202953176 
902	 0.323770013539864 
903	 0.323844379450313 
904	 0.324057814663859 
905	 0.32407732771644 
906	 0.324189221365396 
907	 0.324396861004637 
908	 0.324564775285968 
909	 0.3246433594886 
910	 0.324786203967162 
911	 0.324964382615162 
912	 0.32504940094363 
913	 0.325174364782138 
914	 0.325305492394828 
915	 0.325462470971948 
916	 0.325697565169109 
917	 0.325783488297376 
918	 0.3259834771031 
919	 0.326369898640142 
920	 0.326721903794134 
921	 0.326952991106344 
922	 0.327098698037014 
923	 0.327250835607178 
924	 0.327526996828098 
925	 0.327784539340998 
926	 0.328073721887528 
927	 0.328410379282223 
928	 0.328674636837329 
929	 0.329068573663772 
930	 0.329395143392869 
931	 0.329557011375295 
932	 0.329916920409395 
933	 0.330264072159483 
934	 0.330508765951428 
935	 0.330706099533309 
936	 0.331216281527878 
937	 0.331667313202771 
938	 0.332009230205605 
939	 0.332337075905902 
940	 0.332827630775729 
941	 0.333217958175296 
942	 0.333577923943021 
943	 0.334049042039178 
944	 0.334474956602673 
945	 0.334947054133116 
946	 0.335432266269275 
947	 0.335846190162299 
948	 0.336151973177056 
949	 0.336522324232666 
950	 0.337015538619567 
951	 0.337596902458037 
952	 0.338171584811192 
953	 0.338687129514862 
954	 0.339150877377794 
955	 0.339625993238401 
956	 0.340271337351978 
957	 0.340779771124709 
958	 0.34117109103722 
959	 0.34166174717853 
960	 0.342212666842689 
961	 0.342840462275854 
962	 0.343503745101594 
963	 0.3441215081311 
964	 0.344637037026749 
965	 0.34504433524522 
966	 0.345548996167464 
967	 0.34637353755723 
968	 0.34705615964147 
969	 0.347585619932884 
970	 0.348061833505306 
971	 0.348634126138723 
972	 0.349396120726212 
973	 0.350124553477514 
974	 0.350742053581638 
975	 0.351328785041807 
976	 0.352106161811328 
977	 0.352816833412646 
978	 0.35346860634004 
979	 0.354216653397625 
980	 0.354881681151025 
981	 0.355364756622054 
982	 0.355872238404914 
983	 0.356676393604648 
984	 0.357370457136866 
985	 0.358259933688508 
986	 0.359141729445259 
987	 0.359683044115295 
988	 0.3605207755855 
989	 0.3611722566697 
990	 0.361684397032479 
991	 0.362365185969808 
992	 0.363238866858013 
993	 0.363894638603032 
994	 0.364484324522919 
995	 0.3652978376502 
996	 0.365999843530488 
997	 0.36680596946986 
998	 0.367533545875976 
999	 0.368079899277983 
1000	 0.369184071240126 
1001	 0.374647262257832 
1002	 0.375383519549236 
1003	 0.376083699805776 
1004	 0.376783795546965 
1005	 0.377478042609689 
1006	 0.378214823847197 
1007	 0.378968495638847 
1008	 0.379685915468233 
1009	 0.380410541734306 
1010	 0.381111915517229 
1011	 0.381753696491478 
1012	 0.382429751147537 
1013	 0.383157382263472 
1014	 0.38382202032482 
1015	 0.384468179482579 
1016	 0.385184459252 
1017	 0.385853733385143 
1018	 0.38649285866221 
1019	 0.387134312118413 
1020	 0.387831221990041 
1021	 0.388444322036435 
1022	 0.389054808975747 
1023	 0.389695488663806 
1024	 0.390327838192265 
1025	 0.390969994608298 
1026	 0.391620443444785 
1027	 0.392273192553107 
1028	 0.392864348718137 
1029	 0.393445203797926 
1030	 0.394085173744548 
1031	 0.394696266943163 
1032	 0.39529867348346 
1033	 0.395925399522815 
1034	 0.396618318940485 
1035	 0.397252472188707 
1036	 0.397946165050757 
1037	 0.398732967838116 
1038	 0.399416202519348 
1039	 0.40005671261437 
1040	 0.400709098281951 
1041	 0.401320508937733 
1042	 0.401949159417937 
1043	 0.402619227640001 
1044	 0.403255787597464 
1045	 0.403872509462941 
1046	 0.40452634971359 
1047	 0.405220336723297 
1048	 0.405796021558567 
1049	 0.406440805568038 
1050	 0.407136140272319 
1051	 0.407711028320955 
1052	 0.408394596478715 
1053	 0.409130690989617 
1054	 0.409742276030863 
1055	 0.410361206753137 
1056	 0.410992323398718 
1057	 0.411599461699958 
1058	 0.412162700094974 
1059	 0.412760360677407 
1060	 0.413393054163973 
1061	 0.413951912088758 
1062	 0.414465217220722 
1063	 0.415034889671233 
1064	 0.415551214221952 
1065	 0.416088289728239 
1066	 0.416692551372259 
1067	 0.417133674626744 
1068	 0.417552506597719 
1069	 0.41804111917046 
1070	 0.41849366436705 
1071	 0.418924029927635 
1072	 0.419404752536319 
1073	 0.419889878493945 
1074	 0.420344333883486 
1075	 0.420800018406428 
1076	 0.421262708769424 
1077	 0.421715191779876 
1078	 0.422160607334457 
1079	 0.422606331509798 
1080	 0.422998927029491 
1081	 0.423345385934504 
1082	 0.423684361605586 
1083	 0.424034981680494 
1084	 0.424381356947917 
1085	 0.424748701055095 
1086	 0.425113822116845 
1087	 0.42549873659468 
1088	 0.425928548007353 
1089	 0.426275919704248 
1090	 0.426635152807625 
1091	 0.427026796901871 
1092	 0.427368754527708 
1093	 0.427714811259025 
1094	 0.428067929951532 
1095	 0.42841350016785 
1096	 0.428785654388842 
1097	 0.429171200076649 
1098	 0.429550307108237 
1099	 0.429932574362066 
1100	 0.430325141917428 
1101	 0.43073025378187 
1102	 0.431123558214796 
1103	 0.431518254122681 
1104	 0.431918318820811 
1105	 0.432331257451674 
1106	 0.432716591772934 
1107	 0.433112461622752 
1108	 0.433555832065695 
1109	 0.433978770653966 
1110	 0.434384523347542 
1111	 0.434819906453477 
1112	 0.435273462456307 
1113	 0.435724820917622 
1114	 0.436205690342851 
1115	 0.436652195793739 
1116	 0.437074846821331 
1117	 0.437528140844357 
1118	 0.437981264116994 
1119	 0.438417436161361 
1120	 0.438920353318823 
1121	 0.439417088819274 
1122	 0.439885949555549 
1123	 0.440381894031687 
1124	 0.440858395315203 
1125	 0.441314391155652 
1126	 0.441786696879139 
1127	 0.442262842797687 
1128	 0.442736065609119 
1129	 0.443232034571056 
1130	 0.443697636558511 
1131	 0.444129296408375 
1132	 0.44459180103146 
1133	 0.445056956700921 
1134	 0.445514474484133 
1135	 0.445986606333892 
1136	 0.446455129264993 
1137	 0.44690797929804 
1138	 0.447337950871288 
1139	 0.44779509577126 
1140	 0.448263871548221 
1141	 0.448724269237308 
1142	 0.449206513523067 
1143	 0.449656053181594 
1144	 0.450076119466541 
1145	 0.450516742700568 
1146	 0.450955926418813 
1147	 0.451387344987228 
1148	 0.45183200075625 
1149	 0.452261733035758 
1150	 0.452679229906954 
1151	 0.453079904873088 
1152	 0.453493440151571 
1153	 0.453917115231553 
1154	 0.454325718909531 
1155	 0.454736528920698 
1156	 0.455133752383596 
1157	 0.455527068566697 
1158	 0.455893148575548 
1159	 0.456239451585401 
1160	 0.456593028338744 
1161	 0.456914548571502 
1162	 0.457269498649909 
1163	 0.45765759086426 
1164	 0.458018819170066 
1165	 0.458381986966802 
1166	 0.4587317560493 
1167	 0.459083004136821 
1168	 0.459458867161439 
1169	 0.459808293412379 
1170	 0.460179292097404 
1171	 0.46050115052715 
1172	 0.460776483907375 
1173	 0.461073589977255 
1174	 0.46134534954499 
1175	 0.461651749369958 
1176	 0.461983308889967 
1177	 0.462303203519998 
1178	 0.462645154171823 
1179	 0.462964305849244 
1180	 0.463248705985993 
1181	 0.463563563493847 
1182	 0.463896437623215 
1183	 0.464214227961147 
1184	 0.464536725011273 
1185	 0.464879104796902 
1186	 0.465199219975515 
1187	 0.465503362669427 
1188	 0.465810935942434 
1189	 0.466118827700513 
1190	 0.466421380535866 
1191	 0.466706505553533 
1192	 0.467011864160896 
1193	 0.467336012036354 
1194	 0.467642150364316 
1195	 0.467946764436755 
1196	 0.468252894958843 
1197	 0.468550470984486 
1198	 0.468844885521981 
1199	 0.469139094901315 
1200	 0.469439210244442 
1201	 0.469737346894836 
1202	 0.470030958876667 
1203	 0.470320961991154 
1204	 0.470615864614241 
1205	 0.470904423138451 
1206	 0.471181612454313 
1207	 0.471463206317865 
1208	 0.471748175172924 
1209	 0.472030623796643 
1210	 0.472301700782478 
1211	 0.472587716637546 
1212	 0.472885554131136 
1213	 0.473178518977565 
1214	 0.473492902469127 
1215	 0.473782431180889 
1216	 0.47405957304634 
1217	 0.474319374442221 
1218	 0.474590674837891 
1219	 0.474849414917079 
1220	 0.475118651155808 
1221	 0.475398014490634 
1222	 0.475674596004613 
1223	 0.475953122967099 
1224	 0.47622452138869 
1225	 0.476497974032597 
1226	 0.476767009471287 
1227	 0.477034503743326 
1228	 0.477290614008465 
1229	 0.477541705419487 
1230	 0.477789216358794 
1231	 0.478015506012892 
1232	 0.478253527189079 
1233	 0.47849575908362 
1234	 0.478742606559507 
1235	 0.478990741957826 
1236	 0.479240410504526 
1237	 0.479502730454323 
1238	 0.479780399035486 
1239	 0.480041449297623 
1240	 0.48031200882148 
1241	 0.48056416446415 
1242	 0.480791493679391 
1243	 0.481032790266715 
1244	 0.48127998241446 
1245	 0.481518487026415 
1246	 0.48175538406221 
1247	 0.481990420918429 
1248	 0.482218294968346 
1249	 0.482445216960133 
1250	 0.482676687284072 
1251	 0.482911926221696 
1252	 0.483123660702662 
1253	 0.483322485900543 
1254	 0.483520710288175 
1255	 0.4836900363373 
1256	 0.483896580971836 
1257	 0.484130189271532 
1258	 0.48433841099856 
1259	 0.484547657897022 
1260	 0.484759422252503 
1261	 0.484959783013197 
1262	 0.48516364322893 
1263	 0.485373005390956 
1264	 0.485588598722745 
1265	 0.48581091865578 
1266	 0.486016270784842 
1267	 0.486209916980113 
1268	 0.486423697073878 
1269	 0.486638547272142 
1270	 0.486831621340585 
1271	 0.487065943424751 
1272	 0.487334550688589 
1273	 0.487595260270686 
1274	 0.487867463534598 
1275	 0.488138188277698 
1276	 0.488420548140387 
1277	 0.488691278709858 
1278	 0.488958126581795 
1279	 0.489223918502648 
1280	 0.489482365072446 
1281	 0.489745636990007 
1282	 0.490008368520534 
1283	 0.490274493852465 
1284	 0.490556302949627 
1285	 0.490819903172145 
1286	 0.491068973176172 
1287	 0.491300311188146 
1288	 0.491498197795954 
1289	 0.491656824856061 
1290	 0.491819264821207 
1291	 0.491971650154253 
1292	 0.49209909484923 
1293	 0.492214191367068 
1294	 0.492300063271387 
1295	 0.492346259389804 
1296	 0.492398921034541 
1297	 0.49243065469714 
1298	 0.492473605325487 
1299	 0.492531214763003 
1300	 0.492554966360063 
1301	 0.492553378481107 
1302	 0.492562325993009 
1303	 0.492566341140719 
1304	 0.492550460356326 
1305	 0.49252941851329 
1306	 0.492538479748824 
1307	 0.492507454675029 
1308	 0.492447012899954 
1309	 0.492407686649791 
1310	 0.49236893965191 
1311	 0.49232966022104 
1312	 0.492293661629673 
1313	 0.492257045062898 
1314	 0.492206274035494 
1315	 0.492184126581651 
1316	 0.492157881671002 
1317	 0.492176303009216 
1318	 0.492237762461926 
1319	 0.49229229487391 
1320	 0.49238837820462 
1321	 0.492448782781506 
1322	 0.492488774529441 
1323	 0.492532525310622 
1324	 0.492586269863711 
1325	 0.49264133377087 
1326	 0.492710873622604 
1327	 0.492786434299208 
1328	 0.492837561011508 
1329	 0.492902083720664 
1330	 0.492978138593141 
1331	 0.493050837598471 
1332	 0.493158698458829 
1333	 0.493298940220293 
1334	 0.493423946794487 
1335	 0.493557693763891 
1336	 0.493704320966321 
1337	 0.493846160423109 
1338	 0.493998890600419 
1339	 0.494186365444307 
1340	 0.494350763765159 
1341	 0.494515401329347 
1342	 0.494663158925883 
1343	 0.494806975346811 
1344	 0.494920564836813 
1345	 0.495034756555922 
1346	 0.495158627048918 
1347	 0.495277555966964 
1348	 0.495406786558915 
1349	 0.495533838489153 
1350	 0.495625377909339 
1351	 0.495713828489974 
1352	 0.495788034142423 
1353	 0.495869786218363 
1354	 0.495937579790526 
1355	 0.496013878195388 
1356	 0.496101311218123 
1357	 0.496178180935934 
1358	 0.496246676769129 
1359	 0.496326996433673 
1360	 0.496398600754716 
1361	 0.496486749270051 
1362	 0.496584851953707 
1363	 0.496690379745857 
1364	 0.496817761217561 
1365	 0.496936324126122 
1366	 0.49704350294494 
1367	 0.497173800892028 
1368	 0.497333641967375 
1369	 0.497458819772092 
1370	 0.497585394805347 
1371	 0.497697044088404 
1372	 0.497722291222124 
1373	 0.49772750023888 
1374	 0.497731597227706 
1375	 0.497704121722316 
1376	 0.49768177425857 
1377	 0.497677752135771 
1378	 0.497623788231075 
1379	 0.497529516957118 
1380	 0.497452518835406 
1381	 0.497360362140204 
1382	 0.497260024514123 
1383	 0.497177823810566 
1384	 0.497057055367837 
1385	 0.4969253460906 
1386	 0.496749218852732 
1387	 0.496563080381991 
1388	 0.496313769997063 
1389	 0.496019826750042 
1390	 0.495669807673634 
1391	 0.495270141435484 
1392	 0.494848504016756 
1393	 0.494386062527631 
1394	 0.493903249814074 
1395	 0.493388344745544 
1396	 0.49286425793502 
1397	 0.492350750976569 
1398	 0.491831336088892 
1399	 0.491305241846944 
1400	 0.490783696280291 
1401	 0.490251836567099 
1402	 0.489700378255807 
1403	 0.48916936059975 
1404	 0.488634506419866 
1405	 0.488125249821422 
1406	 0.487627579202475 
1407	 0.487144833159167 
1408	 0.486656480920981 
1409	 0.486228159020608 
1410	 0.485788584353446 
1411	 0.485453609723057 
1412	 0.485169619606491 
1413	 0.484975255928263 
1414	 0.48491175979714 
1415	 0.484936180273832 
1416	 0.485076033595919 
1417	 0.485300749250254 
1418	 0.485533803424852 
1419	 0.485772900083025 
1420	 0.485999300205098 
1421	 0.486180051207323 
1422	 0.48631450016605 
1423	 0.486413289765173 
1424	 0.486445363517147 
1425	 0.486415909225046 
1426	 0.486348576302169 
1427	 0.486212291180406 
1428	 0.486076350083892 
1429	 0.485900202727958 
1430	 0.485720474345941 
1431	 0.485530982530487 
1432	 0.485315676862044 
1433	 0.485061347892247 
1434	 0.484831224754334 
1435	 0.484581253197726 
1436	 0.484359644903282 
1437	 0.484163731752781 
1438	 0.483962081725007 
1439	 0.483768587604151 
1440	 0.483577047326934 
1441	 0.483380199153595 
1442	 0.48319368390741 
1443	 0.482976735877242 
1444	 0.482746054102681 
1445	 0.482519423977405 
1446	 0.482263307836593 
1447	 0.482013529093208 
1448	 0.481741642967612 
1449	 0.481417592994038 
1450	 0.481078876692356 
1451	 0.480722512073663 
1452	 0.480333710203128 
1453	 0.479944262351342 
1454	 0.479552813398686 
1455	 0.479128894404913 
1456	 0.478694209712424 
1457	 0.478219503700827 
1458	 0.477695195418349 
1459	 0.477180248617976 
1460	 0.476630652814585 
1461	 0.476104766195972 
1462	 0.475576639445236 
1463	 0.475074660470387 
1464	 0.474569671823395 
1465	 0.4741018494715 
1466	 0.473647564901246 
1467	 0.473246609193698 
1468	 0.472862532574033 
1469	 0.472548647611799 
1470	 0.472293436816947 
1471	 0.472078343902102 
1472	 0.471924048678763 
1473	 0.471857682229984 
1474	 0.471849962059288 
1475	 0.471921237295587 
1476	 0.472076922691957 
1477	 0.472265986824718 
1478	 0.472525124433512 
1479	 0.472829805759627 
1480	 0.473162051089797 
1481	 0.47355232611159 
1482	 0.473919025934934 
1483	 0.47430256300565 
1484	 0.474681606718246 
1485	 0.47506588023164 
1486	 0.475433462021347 
1487	 0.475810082258295 
1488	 0.476153832429453 
1489	 0.476486276042247 
1490	 0.476774850480816 
1491	 0.477049094430708 
1492	 0.477279141898031 
1493	 0.47744829365169 
1494	 0.477622057381329 
1495	 0.477763997351653 
1496	 0.477907561338866 
1497	 0.478038593417183 
1498	 0.478169604294228 
1499	 0.478299773207228 
1500	 0.478412998241737 
1501	 0.478523118124236 
1502	 0.478626698674844 
1503	 0.478718616453192 
1504	 0.478795216971914 
1505	 0.47887884880518 
1506	 0.47893616370005 
1507	 0.478970435634925 
1508	 0.47900825260036 
1509	 0.479041132593293 
1510	 0.47905731047074 
1511	 0.479090502054734 
1512	 0.479132305544044 
1513	 0.479175370982648 
1514	 0.479229001923384 
1515	 0.47929684869824 
1516	 0.479359710961827 
1517	 0.479399767127634 
1518	 0.479429289049237 
1519	 0.479460208306047 
1520	 0.479464793103297 
1521	 0.479493809434987 
1522	 0.479535666838358 
1523	 0.479578640828812 
1524	 0.47962883747591 
1525	 0.479676440533597 
1526	 0.479728948610998 
1527	 0.479775411215332 
1528	 0.47981177679608 
1529	 0.479862729479844 
1530	 0.479914043704478 
1531	 0.47998670053839 
1532	 0.480086450318757 
1533	 0.480162570944557 
1534	 0.480246111291853 
1535	 0.480313202770119 
1536	 0.480344684106544 
1537	 0.480411221065728 
1538	 0.480494688711628 
1539	 0.480568515961063 
1540	 0.480667970351007 
1541	 0.480741438702828 
1542	 0.480803319845911 
1543	 0.48085060942022 
1544	 0.480866832728322 
1545	 0.480894814797786 
1546	 0.480903143285459 
1547	 0.480929651540731 
1548	 0.481008146215697 
1549	 0.481092576473309 
1550	 0.481177873430076 
1551	 0.481266915522321 
1552	 0.481343369837739 
1553	 0.481426533809708 
1554	 0.481521786757249 
1555	 0.481612072855919 
1556	 0.481709374952766 
1557	 0.481798518304506 
1558	 0.481863193856918 
1559	 0.481938701960547 
1560	 0.481997992316514 
1561	 0.482023650223496 
1562	 0.482082445241788 
1563	 0.482147652901347 
1564	 0.48222649699922 
1565	 0.482324510958896 
1566	 0.482412363597824 
1567	 0.482509573853092 
1568	 0.482602262207801 
1569	 0.482693185441409 
1570	 0.482766276279456 
1571	 0.482837929520339 
1572	 0.482903027772022 
1573	 0.482955670414702 
1574	 0.483000245343163 
1575	 0.483032013615495 
1576	 0.483074103863788 
1577	 0.483109364759823 
1578	 0.483144359030271 
1579	 0.483186063650422 
1580	 0.483230531882687 
1581	 0.483269103938632 
1582	 0.483310323401315 
1583	 0.483360858511266 
1584	 0.483412480281371 
1585	 0.483461912745367 
1586	 0.483507573595723 
1587	 0.483565724891425 
1588	 0.483606598224657 
1589	 0.483635923662923 
1590	 0.483658296382862 
1591	 0.483663447986809 
1592	 0.483679316959963 
1593	 0.483685373224766 
1594	 0.483704777060286 
1595	 0.483736888607507 
1596	 0.483772111464982 
1597	 0.483816277305709 
1598	 0.483858628165679 
1599	 0.483919447608406 
1600	 0.483953959443182 
1601	 0.483968419647123 
1602	 0.483989101727146 
1603	 0.483981520543063 
1604	 0.483999140210689 
1605	 0.484041693209035 
1606	 0.48407809032732 
1607	 0.484131173876513 
1608	 0.484171917177366 
1609	 0.484190960491697 
1610	 0.484210101600954 
1611	 0.484196462043525 
1612	 0.4842042318457 
1613	 0.484224898430827 
1614	 0.48421552033998 
1615	 0.48424359908068 
1616	 0.484262652353118 
1617	 0.484279904942247 
1618	 0.484336821556793 
1619	 0.484357104320928 
1620	 0.484352599171191 
1621	 0.484340261473834 
1622	 0.484300594262841 
1623	 0.484273738223269 
1624	 0.484240600729214 
1625	 0.484219877247678 
1626	 0.484201108654979 
1627	 0.484185334875799 
1628	 0.484181128799396 
1629	 0.484165845100232 
1630	 0.484138021738706 
1631	 0.484134913075028 
1632	 0.484143513570969 
1633	 0.484143329889923 
1634	 0.484161903558886 
1635	 0.484155364597597 
1636	 0.484131173176374 
1637	 0.484101276475303 
1638	 0.484056331371617 
1639	 0.484027625412991 
1640	 0.483985773197014 
1641	 0.483977712396639 
1642	 0.483993840033861 
1643	 0.484008932944683 
1644	 0.484044795443082 
1645	 0.48406425924831 
1646	 0.484096817501992 
1647	 0.484088062064555 
1648	 0.484052632018658 
1649	 0.484024986246113 
1650	 0.483971449676448 
1651	 0.483932437611011 
1652	 0.483908683105845 
1653	 0.483867653774423 
1654	 0.483811989646999 
1655	 0.483767548921207 
1656	 0.483718859188053 
1657	 0.483681765925332 
1658	 0.483658960693935 
1659	 0.483622640598371 
1660	 0.483582588101108 
1661	 0.483549980871333 
1662	 0.483517622770372 
1663	 0.483479245916518 
1664	 0.483451942122172 
1665	 0.483405452676337 
1666	 0.483330375494763 
1667	 0.483283722068978 
1668	 0.483244604015236 
1669	 0.483204745734415 
1670	 0.483176967315115 
1671	 0.483147916293065 
1672	 0.483112352173951 
1673	 0.48308770395761 
1674	 0.483084250438193 
1675	 0.483056038534739 
1676	 0.483005601774532 
1677	 0.482985772085077 
1678	 0.482973992701005 
1679	 0.482955934956299 
1680	 0.482966418502509 
1681	 0.482944240405086 
1682	 0.482887191210953 
1683	 0.482851833648687 
1684	 0.482812322884312 
1685	 0.482788557451314 
1686	 0.482784823086596 
1687	 0.482762796502373 
1688	 0.482738935279837 
1689	 0.482715843224541 
1690	 0.482678375493588 
1691	 0.48265894127394 
1692	 0.482672872088974 
1693	 0.482637653969233 
1694	 0.482578520467797 
1695	 0.482528839471333 
1696	 0.482442705700434 
1697	 0.482390817790978 
1698	 0.482367489999601 
1699	 0.482336888776157 
1700	 0.482323207303944 
1701	 0.482278616589868 
1702	 0.482222946708914 
1703	 0.482165758777807 
1704	 0.482088412323536 
1705	 0.482014443591838 
1706	 0.481938280009439 
1707	 0.481869486641746 
1708	 0.481802068954848 
1709	 0.481725074190369 
1710	 0.481641794324343 
1711	 0.481583256297132 
1712	 0.481514575363162 
1713	 0.48147270980572 
1714	 0.481479386430573 
1715	 0.481451288301884 
1716	 0.481414731839107 
1717	 0.481381247034408 
1718	 0.481347346848569 
1719	 0.481295330567518 
1720	 0.481249466829232 
1721	 0.481166910675239 
1722	 0.4810534344828 
1723	 0.480940483878368 
1724	 0.480792037640668 
1725	 0.480677472579363 
1726	 0.480567487008034 
1727	 0.480472654432801 
1728	 0.4804100925451 
1729	 0.480318204233882 
1730	 0.480224682301757 
1731	 0.480115108877848 
1732	 0.479993311190398 
1733	 0.479855226394565 
1734	 0.479706575119548 
1735	 0.479542674928614 
1736	 0.479342227524021 
1737	 0.479185726845284 
1738	 0.479025746301283 
1739	 0.478902893718798 
1740	 0.478825979299689 
1741	 0.478716180931839 
1742	 0.478624605842022 
1743	 0.478498813672465 
1744	 0.478330633830245 
1745	 0.478216613242815 
1746	 0.478111949232775 
1747	 0.47801393575766 
1748	 0.477929894900238 
1749	 0.477795275972595 
1750	 0.477654104139124 
1751	 0.47753108666039 
1752	 0.477394904149092 
1753	 0.477246712667759 
1754	 0.477080900342474 
1755	 0.47690427127648 
1756	 0.476741122567308 
1757	 0.476593915360873 
1758	 0.4764810265142 
1759	 0.47637192839037 
1760	 0.476235697157737 
1761	 0.476110995896 
1762	 0.475967132051083 
1763	 0.47580746900881 
1764	 0.475691876441131 
1765	 0.475573480702688 
1766	 0.475453794274441 
1767	 0.475354595703098 
1768	 0.475230155223125 
1769	 0.475122005331876 
1770	 0.475032114181487 
1771	 0.474939314194118 
1772	 0.474854430360203 
1773	 0.474732247609963 
1774	 0.47459853340322 
1775	 0.474460758180322 
1776	 0.474312109492009 
1777	 0.474191982481092 
1778	 0.474066418743369 
1779	 0.473959628790707 
1780	 0.473867189882155 
1781	 0.473754574794783 
1782	 0.473659192724846 
1783	 0.473537532991401 
1784	 0.4734201021475 
1785	 0.473290073580502 
1786	 0.473170861201997 
1787	 0.47305757564953 
1788	 0.472943353083536 
1789	 0.472843976747114 
1790	 0.47275051299223 
1791	 0.472660731504057 
1792	 0.472560767833368 
1793	 0.472466009283982 
1794	 0.472351283350843 
1795	 0.472232504455785 
1796	 0.472090904355967 
1797	 0.471930987630975 
1798	 0.471756103735753 
1799	 0.471537196178968 
1800	 0.471352898517045 
1801	 0.474907036493568 
1802	 0.474844854521547 
1803	 0.474801527157742 
1804	 0.47477066526294 
1805	 0.474752638204436 
1806	 0.474767397758997 
1807	 0.474780781459582 
1808	 0.474739490104041 
1809	 0.47470831912231 
1810	 0.474625087221077 
1811	 0.474487203247481 
1812	 0.474302268014779 
1813	 0.474146573608592 
1814	 0.473998932136334 
1815	 0.473800335309214 
1816	 0.47360724841679 
1817	 0.473405378039129 
1818	 0.47318126532147 
1819	 0.472954405624994 
1820	 0.472733751829717 
1821	 0.472495000844526 
1822	 0.472213981004262 
1823	 0.471948106587551 
1824	 0.471622950886907 
1825	 0.471241989734954 
1826	 0.470851919296241 
1827	 0.470382929912497 
1828	 0.469889565666392 
1829	 0.469370158625374 
1830	 0.468804909358312 
1831	 0.468188103586059 
1832	 0.467562145890104 
1833	 0.466887955461896 
1834	 0.466147605997482 
1835	 0.465410608506044 
1836	 0.464670863210009 
1837	 0.463908631525859 
1838	 0.463171417381356 
1839	 0.462481879791871 
1840	 0.461815138895684 
1841	 0.461172605991124 
1842	 0.460605796437159 
1843	 0.460107318099557 
1844	 0.459655140053093 
1845	 0.459272939690059 
1846	 0.458928132557189 
1847	 0.458640831109234 
1848	 0.458421711320827 
1849	 0.458240558536441 
1850	 0.458165016027634 
1851	 0.458183454391545 
1852	 0.45825974595546 
1853	 0.458400696445838 
1854	 0.458604380731659 
1855	 0.458800197633409 
1856	 0.459013536076688 
1857	 0.45923543689677 
1858	 0.459451476974556 
1859	 0.459659235219268 
1860	 0.459879235802363 
1861	 0.460104217599077 
1862	 0.460331140131177 
1863	 0.460568194539193 
1864	 0.460822256923418 
1865	 0.461089472673622 
1866	 0.461369579295437 
1867	 0.461658305913936 
1868	 0.461969468362497 
1869	 0.462283226045234 
1870	 0.462591517346803 
1871	 0.462855751831948 
1872	 0.463105287113091 
1873	 0.463312200061178 
1874	 0.463462725463191 
1875	 0.463587937062787 
1876	 0.463688748400597 
1877	 0.463694363446717 
1878	 0.463635397211112 
1879	 0.46350438400106 
1880	 0.463295043791332 
1881	 0.46298763945547 
1882	 0.462650763604471 
1883	 0.46226735095735 
1884	 0.461795118574687 
1885	 0.461281887844893 
1886	 0.460711787594988 
1887	 0.460040007851104 
1888	 0.459319615095528 
1889	 0.458523385070854 
1890	 0.457660728653572 
1891	 0.456753698537227 
1892	 0.455773663344564 
1893	 0.454773002390655 
1894	 0.453730964446752 
1895	 0.452642345909356 
1896	 0.45152406929143 
1897	 0.450403686122744 
1898	 0.449217505754499 
1899	 0.448017981909153 
1900	 0.446838384858266 
1901	 0.445639928860766 
1902	 0.444475475718902 
1903	 0.443347023040132 
1904	 0.44222079059787 
1905	 0.441096989186246 
1906	 0.440021737698926 
1907	 0.438935713681616 
1908	 0.43783253077763 
1909	 0.436763224132317 
1910	 0.435654857084026 
1911	 0.43456140620054 
1912	 0.433496204505504 
1913	 0.432420740551752 
1914	 0.431323062958083 
1915	 0.430263866494922 
1916	 0.429197739762239 
1917	 0.428182738763409 
1918	 0.427234299372885 
1919	 0.426322462659195 
1920	 0.425447398118393 
1921	 0.424595093921335 
1922	 0.423736175803506 
1923	 0.422904867780512 
1924	 0.422139950805772 
1925	 0.421419609285575 
1926	 0.42075471796057 
1927	 0.42014829737909 
1928	 0.419579117198932 
1929	 0.419060366694086 
1930	 0.418575546723991 
1931	 0.418141027269374 
1932	 0.417768359578741 
1933	 0.41744508612031 
1934	 0.417186024542342 
1935	 0.416980442843258 
1936	 0.416833117259695 
1937	 0.416739213683908 
1938	 0.416723690009629 
1939	 0.416714174742493 
1940	 0.416744335905462 
1941	 0.416809331954734 
1942	 0.416878821513591 
1943	 0.416990694259549 
1944	 0.417119288856501 
1945	 0.417216738965932 
1946	 0.417334210800915 
1947	 0.417460766571951 
1948	 0.417577612202229 
1949	 0.417703080641697 
1950	 0.417828243545739 
1951	 0.417939180135881 
1952	 0.418067187578855 
1953	 0.418206884051426 
1954	 0.418340042339835 
1955	 0.418498794559944 
1956	 0.418623563188159 
1957	 0.418738670386364 
1958	 0.418837675707252 
1959	 0.418940191642592 
1960	 0.419010573423757 
1961	 0.419123930573926 
1962	 0.419268401475944 
1963	 0.419396107546116 
1964	 0.419530192981721 
1965	 0.419669706773582 
1966	 0.419801902304727 
1967	 0.419917591738323 
1968	 0.420046341514919 
1969	 0.420187238726088 
1970	 0.420318057529111 
1971	 0.420434184993569 
1972	 0.420572143613716 
1973	 0.420724786181301 
1974	 0.420865008408701 
1975	 0.420989781130591 
1976	 0.42116412218402 
1977	 0.421320624680796 
1978	 0.42146093902243 
1979	 0.421608993478932 
1980	 0.421767182604226 
1981	 0.421931225331601 
1982	 0.422091438332083 
1983	 0.422260930387801 
1984	 0.422459164574193 
1985	 0.422626921012832 
1986	 0.422771012698099 
1987	 0.422939323855225 
1988	 0.423104539271109 
1989	 0.423278225760851 
1990	 0.423482302048664 
1991	 0.423667903970499 
1992	 0.42384514162347 
1993	 0.424030760555892 
1994	 0.424181619145203 
1995	 0.424297018908228 
1996	 0.424432370651133 
1997	 0.424524540923099 
1998	 0.42467246515614 
1999	 0.424864907247552 
2000	 0.425050609021679 
2001	 0.425247597141041 
2002	 0.425473340756761 
2003	 0.425696782920767 
2004	 0.425890630633493 
2005	 0.426115162782283 
2006	 0.426365960421912 
2007	 0.42659947663703 
2008	 0.426817932122835 
2009	 0.427069623803666 
2010	 0.427344711998163 
2011	 0.427597653140116 
2012	 0.42788144620961 
2013	 0.428132537537207 
2014	 0.428344169166616 
2015	 0.428551704014655 
2016	 0.428778999886759 
2017	 0.429032646038506 
2018	 0.429296371903438 
2019	 0.429597195056983 
2020	 0.429867779908057 
2021	 0.430149059860648 
2022	 0.430406834784548 
2023	 0.430656140015675 
2024	 0.430887232134579 
2025	 0.431107627575382 
2026	 0.43129988322343 
2027	 0.431454982357784 
2028	 0.431609656833634 
2029	 0.431777550597132 
2030	 0.431931689933276 
2031	 0.43210424682053 
2032	 0.432293952071707 
2033	 0.432483663094982 
2034	 0.432677672618766 
2035	 0.43287022682998 
2036	 0.433070487123155 
2037	 0.433268934772213 
2038	 0.433484189819018 
2039	 0.433664973841887 
2040	 0.433846363853947 
2041	 0.433996031928756 
2042	 0.434104525295497 
2043	 0.434222522567922 
2044	 0.43433915415695 
2045	 0.434451411141563 
2046	 0.434561831200217 
2047	 0.434676422832276 
2048	 0.43477675316547 
2049	 0.434864394005309 
2050	 0.43495521070782 
2051	 0.435044758027417 
2052	 0.435123495077465 
2053	 0.435179742939336 
2054	 0.435262692618645 
2055	 0.435350378722408 
2056	 0.43544873819746 
2057	 0.435538057350492 
2058	 0.435648632964169 
2059	 0.435732908421824 
2060	 0.435794627376738 
2061	 0.435862350993675 
2062	 0.435918965909724 
2063	 0.435995281006219 
2064	 0.43606958251346 
2065	 0.436157500905389 
2066	 0.436277419537908 
2067	 0.436378405440646 
2068	 0.436494386787717 
2069	 0.436572530994219 
2070	 0.436649672248717 
2071	 0.436719398172701 
2072	 0.436768275302025 
2073	 0.436791781260853 
2074	 0.436831976585456 
2075	 0.436850962785349 
2076	 0.436899397218597 
2077	 0.436970366740535 
2078	 0.437033556443287 
2079	 0.437115222434269 
2080	 0.437179393381292 
2081	 0.437231611022305 
2082	 0.437283403864154 
2083	 0.437342824789978 
2084	 0.43737891756934 
2085	 0.437402297566343 
2086	 0.437422235738221 
2087	 0.437422654726881 
2088	 0.437381326886822 
2089	 0.437378791665724 
2090	 0.437384598111069 
2091	 0.437386656713104 
2092	 0.437405451473759 
2093	 0.437412891709978 
2094	 0.437416364175055 
2095	 0.437409983123619 
2096	 0.437388336233277 
2097	 0.437380630359946 
2098	 0.437375675140523 
2099	 0.437357222306976 
2100	 0.437360145545441 
2101	 0.437385115159941 
2102	 0.437397269529668 
2103	 0.437398762651628 
2104	 0.437427519431057 
2105	 0.437458312640099 
2106	 0.437510837007935 
2107	 0.437602078063384 
2108	 0.437672167037331 
2109	 0.437751702316621 
2110	 0.437820319471278 
2111	 0.437872684196877 
2112	 0.437931060873061 
2113	 0.437976779509989 
2114	 0.438044873752663 
2115	 0.438114553295415 
2116	 0.438183231145993 
2117	 0.438275490336596 
2118	 0.438388853362547 
2119	 0.438495251213242 
2120	 0.438607062943183 
2121	 0.438735916611379 
2122	 0.438894839868061 
2123	 0.439008011691403 
2124	 0.43913262084171 
2125	 0.439219468828926 
2126	 0.439253224385786 
2127	 0.439292298882423 
2128	 0.439335834865152 
2129	 0.43934732744499 
2130	 0.439345791940061 
2131	 0.439312745163371 
2132	 0.439251531292482 
2133	 0.439165026243845 
2134	 0.439040699789423 
2135	 0.438870761675103 
2136	 0.438703238633879 
2137	 0.438509227207576 
2138	 0.438304573310871 
2139	 0.438098738416578 
2140	 0.437861283378426 
2141	 0.43760501975299 
2142	 0.437312861598889 
2143	 0.436974372467976 
2144	 0.436645536911406 
2145	 0.436287650309453 
2146	 0.435932510584062 
2147	 0.435595961489014 
2148	 0.435247092918427 
2149	 0.434840098734295 
2150	 0.434395737175058 
2151	 0.433946380463673 
2152	 0.433447227638999 
2153	 0.43296369188362 
2154	 0.432484062139346 
2155	 0.431994097829302 
2156	 0.431491889812761 
2157	 0.430983474358101 
2158	 0.430499055439295 
2159	 0.429953266085805 
2160	 0.42935856040561 
2161	 0.428769830083528 
2162	 0.428132893127994 
2163	 0.427516006525325 
2164	 0.42690436350336 
2165	 0.426319329092793 
2166	 0.425685198079323 
2167	 0.425020887630459 
2168	 0.424393331637374 
2169	 0.423755222747332 
2170	 0.423125962766133 
2171	 0.422557541475698 
2172	 0.421903105829065 
2173	 0.421211443866943 
2174	 0.420495374544651 
2175	 0.419724764448054 
2176	 0.418960378152141 
2177	 0.418162466754545 
2178	 0.41738337358111 
2179	 0.416617350666074 
2180	 0.415828962888019 
2181	 0.415023068069027 
2182	 0.414232113968469 
2183	 0.413447084722953 
2184	 0.412635370457879 
2185	 0.411822767360042 
2186	 0.411022938163339 
2187	 0.410195827052473 
2188	 0.409325181368523 
2189	 0.408494973069251 
2190	 0.407648774785658 
2191	 0.406867067049256 
2192	 0.406112836882927 
2193	 0.405391413273297 
2194	 0.404713784708055 
2195	 0.404065000364704 
2196	 0.403466008806136 
2197	 0.402856299797231 
2198	 0.402260917690916 
2199	 0.401695737684384 
2200	 0.401093746614125 
2201	 0.400583082185686 
2202	 0.400145755310746 
2203	 0.399749497284152 
2204	 0.399376856616613 
2205	 0.399058725789061 
2206	 0.398759718874904 
2207	 0.398464354560008 
2208	 0.398252100156076 
2209	 0.398084971451987 
2210	 0.397998083470409 
2211	 0.397989974887754 
2212	 0.398015749312137 
2213	 0.39815625402866 
2214	 0.398235521716667 
2215	 0.398351157964374 
2216	 0.398420122316925 
2217	 0.398488660281554 
2218	 0.398486940131693 
2219	 0.39842584998908 
2220	 0.398356545745527 
2221	 0.398213957910376 
2222	 0.398096216430289 
2223	 0.39798808096295 
2224	 0.397842578339882 
2225	 0.397661356129117 
2226	 0.397460833227715 
2227	 0.397199523760877 
2228	 0.396885957460564 
2229	 0.396558830236802 
2230	 0.396169148239521 
2231	 0.395809212751156 
2232	 0.395465382385319 
2233	 0.395062220252523 
2234	 0.394641822861697 
2235	 0.394189713755345 
2236	 0.3936849720455 
2237	 0.393168874994284 
2238	 0.39265841706382 
2239	 0.39208931689239 
2240	 0.391474968112422 
2241	 0.390826008438431 
2242	 0.390164134418053 
2243	 0.389416398509623 
2244	 0.388605361616941 
2245	 0.387756186824013 
2246	 0.386819457353468 
2247	 0.385796032706926 
2248	 0.384778569999579 
2249	 0.383705351929565 
2250	 0.38265444983997 
2251	 0.381570658317715 
2252	 0.380538330206277 
2253	 0.379510917062141 
2254	 0.378513276276496 
2255	 0.377534691016926 
2256	 0.376600886022413 
2257	 0.375636767980331 
2258	 0.374833318968896 
2259	 0.374091736575236 
2260	 0.373478235531628 
2261	 0.373007001991003 
2262	 0.372609319970988 
2263	 0.372280687911718 
2264	 0.372096963229629 
2265	 0.372061201467322 
2266	 0.372080882482747 
2267	 0.372228805289097 
2268	 0.372444136836318 
2269	 0.372719231145982 
2270	 0.373084163647406 
2271	 0.373547169090117 
2272	 0.374103905559684 
2273	 0.37472169739366 
2274	 0.375412645033113 
2275	 0.376151421938444 
2276	 0.376976630853807 
2277	 0.377784753180551 
2278	 0.378628756741869 
2279	 0.379502600158008 
2280	 0.380399897403371 
2281	 0.381327433271052 
2282	 0.382331104365255 
2283	 0.383277255986499 
2284	 0.384237427332263 
2285	 0.385145985519296 
2286	 0.386028411122939 
2287	 0.386872975905912 
2288	 0.387676808439275 
2289	 0.388459818651089 
2290	 0.389222498635917 
2291	 0.389939766122829 
2292	 0.390617588686632 
2293	 0.391261781610868 
2294	 0.391856095182723 
2295	 0.392428634739863 
2296	 0.392936870088034 
2297	 0.393489864424031 
2298	 0.394047547051251 
2299	 0.394542771300127 
2300	 0.395065331701913 
2301	 0.39558541949219 
2302	 0.396049413186152 
2303	 0.39654811881156 
2304	 0.397050859687458 
2305	 0.397524047917829 
2306	 0.397981075780938 
2307	 0.398410849078421 
2308	 0.398871099370402 
2309	 0.399340574217893 
2310	 0.399773542453147 
2311	 0.400234438422308 
2312	 0.400622831858604 
2313	 0.400939688274698 
2314	 0.401250405112405 
2315	 0.401534698189706 
2316	 0.401812810354692 
2317	 0.402047771574476 
2318	 0.402304079055421 
2319	 0.402579893107595 
2320	 0.402807394280035 
2321	 0.403023449327886 
2322	 0.403226570349978 
2323	 0.403393003855105 
2324	 0.403555705561416 
2325	 0.403734288177257 
2326	 0.403843962515362 
2327	 0.4039201670916 
2328	 0.403946244570613 
2329	 0.403915421163956 
2330	 0.403929753814379 
2331	 0.403946844510476 
2332	 0.403976731036138 
2333	 0.404026931318222 
2334	 0.404041846503349 
2335	 0.404034425589149 
2336	 0.404023711634394 
2337	 0.403971207187452 
2338	 0.403868404533564 
2339	 0.403721751568771 
2340	 0.403509078542657 
2341	 0.403327576696775 
2342	 0.40316989389607 
2343	 0.402982585515045 
2344	 0.40281219959132 
2345	 0.402594793499816 
2346	 0.402329907796513 
2347	 0.402036764098203 
2348	 0.401715218403906 
2349	 0.401391948873237 
2350	 0.401037963341332 
2351	 0.400674226298178 
2352	 0.400303215814084 
2353	 0.399899525580383 
2354	 0.399407089164323 
2355	 0.399041184593055 
2356	 0.398762531857335 
2357	 0.398415237585879 
2358	 0.398122106975431 
2359	 0.397766125076791 
2360	 0.397290423881126 
2361	 0.396896857566223 
2362	 0.396609134418553 
2363	 0.39618022089727 
2364	 0.395674553571882 
2365	 0.39519189873545 
2366	 0.394661930022003 
2367	 0.394086754110623 
2368	 0.393484065588414 
2369	 0.392932245114733 
2370	 0.392356910904725 
2371	 0.391767520262828 
2372	 0.39121464999417 
2373	 0.390544678073084 
2374	 0.389877195380713 
2375	 0.389225714101095 
2376	 0.388608821968565 
2377	 0.388039574887869 
2378	 0.387371260695668 
2379	 0.386536879140373 
2380	 0.385670261707335 
2381	 0.384866686381006 
2382	 0.384011975062215 
2383	 0.383224049621473 
2384	 0.382500466573414 
2385	 0.381711585134571 
2386	 0.380974158232507 
2387	 0.38019904978383 
2388	 0.379349414267967 
2389	 0.378568385547988 
2390	 0.377763767424787 
2391	 0.376986521074979 
2392	 0.376286646616952 
2393	 0.375505551480897 
2394	 0.37475418198616 
2395	 0.37403596130479 
2396	 0.373266600317096 
2397	 0.372495770268617 
2398	 0.371672598708204 
2399	 0.370828380802592 
2400	 0.370058156998311 
2401	 0.369338822479027 
2402	 0.368693718495452 
2403	 0.368125687363787 
2404	 0.367451091237741 
2405	 0.366718545938711 
2406	 0.365962595262155 
2407	 0.365140672399144 
2408	 0.364447902045131 
2409	 0.363843727470463 
2410	 0.363148856051894 
2411	 0.36250194239923 
2412	 0.361891660269778 
2413	 0.361214702108281 
2414	 0.360639420974897 
2415	 0.360071276059734 
2416	 0.359466548371389 
2417	 0.358813797293528 
2418	 0.358198288644214 
2419	 0.35758070652266 
2420	 0.356962543542871 
2421	 0.356320696407522 
2422	 0.355769225634695 
2423	 0.355277094190126 
2424	 0.354813203298424 
2425	 0.354469962765146 
2426	 0.353949667419474 
2427	 0.353325456010245 
2428	 0.352733797453508 
2429	 0.352055692174331 
2430	 0.351492657056072 
2431	 0.351035737377964 
2432	 0.35051863040864 
2433	 0.349999300367023 
2434	 0.349458970027286 
2435	 0.348910958985347 
2436	 0.348369747822558 
2437	 0.347821521064668 
2438	 0.347270557319926 
2439	 0.346696307820066 
2440	 0.346107762923451 
2441	 0.345512574327273 
2442	 0.344877301740747 
2443	 0.34422507760598 
2444	 0.34362245771724 
2445	 0.3430216661477 
2446	 0.342520074116555 
2447	 0.34213165847271 
2448	 0.341567862921929 
2449	 0.340904895015121 
2450	 0.340299739449773 
2451	 0.339616412352198 
2452	 0.338990234845414 
2453	 0.338478400327238 
2454	 0.337934889827515 
2455	 0.337372136041496 
2456	 0.336851075822664 
2457	 0.336355211424107 
2458	 0.33586595549349 
2459	 0.335342136972368 
2460	 0.334922046182318 
2461	 0.33461103181059 
2462	 0.334252359038994 
2463	 0.334028995296013 
2464	 0.33354691975094 
2465	 0.332826994488955 
2466	 0.332267106566821 
2467	 0.331516197982705 
2468	 0.331075722461537 
2469	 0.330959448363809 
2470	 0.330836123761791 
2471	 0.330693955452234 
2472	 0.330442654418595 
2473	 0.33011823724153 
2474	 0.329555170013349 
2475	 0.329026071518568 
2476	 0.328696224868512 
2477	 0.328336879279569 
2478	 0.328058742491086 
2479	 0.327846705550689 
2480	 0.327530670113528 
2481	 0.327142874550256 
2482	 0.326682606630045 
2483	 0.326301310117567 
2484	 0.325914641510859 
2485	 0.325283727350925 
2486	 0.324579552912808 
2487	 0.323958406573134 
2488	 0.323296193577724 
2489	 0.322788180923376 
2490	 0.32255827374021 
2491	 0.322157058473803 
2492	 0.321877930295684 
2493	 0.321447054276865 
2494	 0.320644565856041 
2495	 0.320174652492307 
2496	 0.319635295228287 
2497	 0.319055766096052 
2498	 0.318726824605638 
2499	 0.318173243794961 
2500	 0.31736264138486 
