Wavelength	LMW700006.asd
350	 6.98528534272729E-02 
351	 7.15835145397427E-02 
352	 6.49294872763136E-02 
353	 5.51097634435617E-02 
354	 5.81577994394032E-02 
355	 5.69669245110224E-02 
356	 5.62021616939515E-02 
357	 6.24333792649637E-02 
358	 6.84988970398611E-02 
359	 6.66553369931046E-02 
360	 6.11664061993416E-02 
361	 6.26592740600439E-02 
362	 6.13012623737064E-02 
363	 6.06341024666911E-02 
364	 0.062029832582737 
365	 0.06105612732278 
366	 5.90340371005209E-02 
367	 5.83963534957081E-02 
368	 6.06788570261736E-02 
369	 0.062985188225924 
370	 6.35167331246815E-02 
371	 6.26284517783152E-02 
372	 6.21310630744964E-02 
373	 6.25447137261788E-02 
374	 0.062799561307668 
375	 6.28430288332044E-02 
376	 6.49253762147987E-02 
377	 6.49028488124752E-02 
378	 6.52130807122231E-02 
379	 6.82396778431652E-02 
380	 6.75673594826661E-02 
381	 6.58036576859243E-02 
382	 6.57934008497155E-02 
383	 6.95724865422041E-02 
384	 7.01641929221904E-02 
385	 6.94371095222382E-02 
386	 6.97092402359218E-02 
387	 0.071576616341304 
388	 7.39880099711126E-02 
389	 7.54337565779508E-02 
390	 0.075085237366563 
391	 7.53086131348767E-02 
392	 7.76576155323626E-02 
393	 8.07120864932697E-02 
394	 8.09278429257384E-02 
395	 8.11175941842627E-02 
396	 8.17411522835829E-02 
397	 8.30896718398355E-02 
398	 8.63399781449849E-02 
399	 8.76488205809612E-02 
400	 8.87811571830983E-02 
401	 9.23266292035196E-02 
402	 9.28751048846189E-02 
403	 9.34724373996517E-02 
404	 9.50977714768166E-02 
405	 9.61750798536217E-02 
406	 9.86296459286211E-02 
407	 0.100853793032001 
408	 0.101582141286387 
409	 0.101975527706176 
410	 0.10309962431529 
411	 0.104717188147569 
412	 0.106010242658451 
413	 0.107209228846808 
414	 0.107723514434087 
415	 0.107897293132248 
416	 0.109323476283773 
417	 0.109808649760638 
418	 0.11008243341628 
419	 0.110975802153227 
420	 0.11119016598398 
421	 0.110952671483064 
422	 0.110670764581882 
423	 0.110760062762507 
424	 0.110564126425275 
425	 0.110276531078171 
426	 0.110066625435365 
427	 0.109915653925938 
428	 0.109125109587499 
429	 0.108173734402917 
430	 0.107715902287621 
431	 0.107189125570836 
432	 0.106628171495736 
433	 0.106217599143404 
434	 0.106227109248552 
435	 0.106092878856787 
436	 0.106000200117728 
437	 0.106225230398913 
438	 0.106938413975087 
439	 0.107453881958351 
440	 0.1080282704898 
441	 0.109246432173956 
442	 0.110131886867561 
443	 0.111234024573948 
444	 0.112602908471864 
445	 0.113278703973787 
446	 0.114618108472293 
447	 0.116258843537264 
448	 0.117521845473471 
449	 0.118634193449364 
450	 0.119955329795709 
451	 0.121483504915073 
452	 0.122901933979059 
453	 0.12408368344837 
454	 0.125091724817046 
455	 0.12606071486662 
456	 0.127201860078782 
457	 0.128282508392958 
458	 0.129288987840533 
459	 0.130298471603633 
460	 0.131317700190614 
461	 0.132092771242179 
462	 0.132677337611541 
463	 0.133572931237621 
464	 0.134554447798277 
465	 0.135382213827145 
466	 0.135927451148749 
467	 0.136515073026645 
468	 0.137102315121567 
469	 0.137655417147174 
470	 0.138160889431144 
471	 0.138703670955805 
472	 0.139297179098496 
473	 0.139897066316764 
474	 0.140346487306099 
475	 0.140794602219334 
476	 0.141305145927854 
477	 0.141869044203999 
478	 0.142245910095465 
479	 0.142684129970745 
480	 0.143206192648778 
481	 0.143463058363939 
482	 0.143791305599829 
483	 0.144324777146067 
484	 0.145012987732255 
485	 0.14535642330473 
486	 0.145572872453904 
487	 0.145819931806995 
488	 0.146180428713655 
489	 0.14662593494291 
490	 0.147064159670311 
491	 0.147450894282117 
492	 0.147904679811827 
493	 0.148154379517797 
494	 0.148401738794761 
495	 0.148991464413422 
496	 0.149519786375605 
497	 0.149882851442941 
498	 0.150158968774114 
499	 0.150647413168029 
500	 0.151079852310357 
501	 0.151397479478528 
502	 0.151644856662644 
503	 0.152005884239572 
504	 0.152496642163996 
505	 0.152965597038342 
506	 0.153146687932651 
507	 0.1535245364802 
508	 0.154015481660977 
509	 0.15444512202561 
510	 0.154712134870104 
511	 0.154926347888289 
512	 0.155242875033757 
513	 0.155774287107899 
514	 0.156023523698627 
515	 0.156290944615575 
516	 0.156757403427313 
517	 0.157270515223601 
518	 0.157553526674718 
519	 0.157742485909781 
520	 0.158076058572151 
521	 0.15849773987125 
522	 0.158866557912226 
523	 0.159173150828843 
524	 0.159547812278473 
525	 0.159853874254698 
526	 0.160186614345765 
527	 0.16060062095997 
528	 0.160845893360554 
529	 0.161184133237679 
530	 0.161621065345954 
531	 0.161994002460256 
532	 0.162287120469068 
533	 0.162647682401088 
534	 0.163101936222984 
535	 0.163369011340191 
536	 0.163634043630833 
537	 0.163979130020799 
538	 0.164416005468952 
539	 0.164763744388254 
540	 0.165096124324956 
541	 0.165462141823944 
542	 0.165850330396795 
543	 0.166188372635588 
544	 0.16653694613902 
545	 0.166967473169977 
546	 0.167449970447872 
547	 0.167866922722961 
548	 0.1682360589875 
549	 0.168683799448475 
550	 0.169082235707868 
551	 0.169473118092818 
552	 0.16992044506813 
553	 0.170480151372044 
554	 0.170977824139661 
555	 0.171448694684032 
556	 0.172020942178101 
557	 0.172556973866784 
558	 0.173122562777933 
559	 0.173741454075196 
560	 0.174332398680789 
561	 0.174817462350275 
562	 0.175319308372291 
563	 0.175984486416834 
564	 0.176667839480912 
565	 0.177284859129975 
566	 0.177869742322854 
567	 0.178582207613212 
568	 0.179372945644057 
569	 0.1801752244339 
570	 0.180958080290255 
571	 0.181837243503201 
572	 0.18274406901777 
573	 0.183604091959177 
574	 0.184352592932841 
575	 0.185103764258575 
576	 0.185931144829348 
577	 0.18684397489744 
578	 0.187730112051822 
579	 0.188677473002457 
580	 0.189650790121221 
581	 0.190590211264813 
582	 0.191642496650878 
583	 0.19274260983981 
584	 0.193840980157822 
585	 0.194944675540486 
586	 0.195979002393384 
587	 0.196983326038309 
588	 0.198013437896787 
589	 0.199030855683395 
590	 0.200071675657888 
591	 0.201143306165952 
592	 0.202226139660331 
593	 0.203284233273627 
594	 0.204338179748554 
595	 0.205428055621143 
596	 0.206629309914114 
597	 0.207810727213757 
598	 0.208957410481689 
599	 0.21011352525206 
600	 0.211191628627756 
601	 0.212215676208965 
602	 0.213196082643364 
603	 0.214092373013719 
604	 0.215004660512381 
605	 0.215917749015519 
606	 0.216796596395493 
607	 0.217757379830674 
608	 0.218624311900535 
609	 0.219409770452663 
610	 0.220353929850728 
611	 0.22119881286713 
612	 0.221990371475548 
613	 0.2227997799944 
614	 0.223538164856443 
615	 0.22422544086059 
616	 0.224875763861094 
617	 0.22549663486818 
618	 0.22609428978412 
619	 0.226650703490823 
620	 0.227168974257205 
621	 0.227703573056493 
622	 0.228215864768951 
623	 0.228707984180429 
624	 0.229195916789836 
625	 0.229675689695146 
626	 0.230134926084045 
627	 0.230547620235711 
628	 0.230868584004675 
629	 0.231339711774765 
630	 0.231822386122623 
631	 0.23214932649067 
632	 0.232477779211962 
633	 0.232830318921792 
634	 0.233215304662938 
635	 0.233624077459896 
636	 0.233949361757263 
637	 0.234286422323573 
638	 0.234686582700134 
639	 0.235001439257924 
640	 0.235317994375336 
641	 0.235653882872953 
642	 0.235995072769883 
643	 0.23632954612011 
644	 0.236704348051061 
645	 0.237110023938295 
646	 0.237448167298803 
647	 0.237761962778803 
648	 0.238092800004899 
649	 0.238460917615577 
650	 0.238789146579961 
651	 0.239158313331748 
652	 0.239565407935521 
653	 0.239935764424966 
654	 0.240327379424273 
655	 0.240709601825764 
656	 0.241071611832724 
657	 0.241487606921942 
658	 0.241939046062952 
659	 0.242375424971487 
660	 0.242742146204819 
661	 0.243091424236995 
662	 0.243523426219374 
663	 0.244039003005644 
664	 0.244492578358852 
665	 0.244932118749394 
666	 0.245410167413061 
667	 0.245937469366345 
668	 0.246325481993966 
669	 0.246780599357083 
670	 0.247335061803267 
671	 0.247863679979982 
672	 0.248318613869933 
673	 0.248827355943369 
674	 0.249445196218332 
675	 0.249983955666438 
676	 0.250522777596024 
677	 0.251051344110788 
678	 0.251544403690146 
679	 0.252122984427315 
680	 0.252715030962844 
681	 0.253296195358442 
682	 0.253928236821573 
683	 0.254533599717731 
684	 0.255106658012999 
685	 0.255678045535357 
686	 0.256335407296339 
687	 0.256969587235577 
688	 0.257587323764698 
689	 0.258270598950634 
690	 0.258931164555967 
691	 0.259532948699227 
692	 0.260110699473768 
693	 0.26082664328367 
694	 0.261565706737353 
695	 0.262251537870602 
696	 0.262848666550577 
697	 0.263448253619077 
698	 0.264139914601285 
699	 0.264921099220272 
700	 0.265691356120899 
701	 0.266326345903973 
702	 0.266931327933698 
703	 0.267595120644388 
704	 0.268194781429317 
705	 0.268885900870654 
706	 0.26960201386997 
707	 0.270194702040951 
708	 0.270888082787576 
709	 0.271583644919748 
710	 0.272222600436084 
711	 0.27285231306166 
712	 0.273491173451725 
713	 0.274125273868944 
714	 0.27473974240671 
715	 0.275359047168709 
716	 0.275952651110024 
717	 0.276518859121853 
718	 0.277077965746726 
719	 0.277649593330782 
720	 0.27817548619066 
721	 0.278630621690959 
722	 0.279065509310168 
723	 0.279572325438237 
724	 0.28010953040088 
725	 0.280586739975969 
726	 0.280943986659125 
727	 0.28131817998978 
728	 0.281716715298158 
729	 0.282025530117899 
730	 0.282388658650833 
731	 0.282695840692887 
732	 0.282891340380056 
733	 0.283157287526305 
734	 0.283424117314492 
735	 0.28363508136157 
736	 0.283758793015784 
737	 0.283901348039225 
738	 0.284042839199899 
739	 0.284139985249562 
740	 0.284139263169775 
741	 0.284131522521498 
742	 0.2841329115161 
743	 0.284123284022997 
744	 0.284033759735909 
745	 0.283913067605337 
746	 0.283773500931963 
747	 0.283607027144495 
748	 0.283384395707666 
749	 0.283183845459971 
750	 0.28301591038332 
751	 0.28279964721236 
752	 0.282483890519842 
753	 0.282128237286321 
754	 0.281799119666621 
755	 0.281496904275489 
756	 0.281195903603934 
757	 0.280837300457865 
758	 0.280370595256439 
759	 0.279920050945295 
760	 0.279437318538283 
761	 0.278933716529237 
762	 0.278511172521217 
763	 0.278062152915595 
764	 0.277562850577104 
765	 0.277022957266768 
766	 0.276480002929124 
767	 0.275944089018289 
768	 0.275385972152078 
769	 0.274777518870835 
770	 0.274259127180654 
771	 0.273733729171755 
772	 0.273149857526481 
773	 0.27253798095534 
774	 0.271925156542522 
775	 0.271325824466441 
776	 0.270736064667075 
777	 0.270113547509872 
778	 0.269512379054382 
779	 0.268902320400435 
780	 0.268236096820167 
781	 0.267619913304264 
782	 0.267020536483253 
783	 0.266415858860936 
784	 0.265810209030408 
785	 0.265232699830529 
786	 0.26464813936295 
787	 0.264028904570726 
788	 0.263389331584327 
789	 0.262754843176429 
790	 0.262161965142218 
791	 0.261626575916312 
792	 0.26105675230401 
793	 0.260479553889451 
794	 0.259877037871652 
795	 0.259201998277828 
796	 0.25858060326098 
797	 0.258058790685947 
798	 0.257578999410341 
799	 0.256920660562026 
800	 0.256367194801962 
801	 0.255880802546086 
802	 0.255339303431237 
803	 0.254695212884601 
804	 0.254167343627987 
805	 0.25372374135181 
806	 0.25318790180132 
807	 0.252658628765983 
808	 0.252090756462039 
809	 0.251516162835285 
810	 0.25107378508678 
811	 0.250589475598952 
812	 0.250107563955648 
813	 0.249680691501197 
814	 0.249259060814668 
815	 0.248729929202945 
816	 0.248186231341596 
817	 0.247771422384771 
818	 0.247372379208544 
819	 0.246999696093542 
820	 0.246617152956005 
821	 0.246158510212913 
822	 0.24573070275873 
823	 0.245357844367872 
824	 0.244999143390109 
825	 0.244532914062327 
826	 0.244132174653277 
827	 0.243804967009284 
828	 0.24349849572969 
829	 0.243127479158804 
830	 0.24276183406214 
831	 0.242392802898472 
832	 0.241995851711261 
833	 0.241702798899351 
834	 0.241389225431017 
835	 0.24107645013599 
836	 0.240912068211091 
837	 0.24059585533083 
838	 0.240266504323197 
839	 0.240017187822328 
840	 0.239738339452967 
841	 0.239483776556923 
842	 0.239205328843014 
843	 0.238883214189681 
844	 0.23866338644166 
845	 0.238509217033297 
846	 0.238343433608617 
847	 0.238101847182308 
848	 0.237910939440599 
849	 0.237717027687338 
850	 0.237501143415843 
851	 0.237283762298311 
852	 0.237069872751158 
853	 0.236871687191088 
854	 0.236712151176068 
855	 0.236626470120447 
856	 0.236553495797897 
857	 0.236442525389378 
858	 0.236278809841932 
859	 0.23611692002525 
860	 0.2360142405286 
861	 0.235927498758043 
862	 0.235800026183689 
863	 0.235698828798134 
864	 0.235629405386912 
865	 0.235578002607987 
866	 0.235519472707006 
867	 0.235436086044814 
868	 0.235400001633605 
869	 0.235392392679062 
870	 0.235304561337061 
871	 0.235200973885937 
872	 0.235147711525469 
873	 0.235173524760904 
874	 0.235247444980278 
875	 0.235251155541045 
876	 0.235232795377111 
877	 0.235258950262471 
878	 0.235320243696332 
879	 0.235414242195079 
880	 0.23546478004079 
881	 0.23543080511646 
882	 0.235512553895108 
883	 0.235574789913244 
884	 0.23560960079097 
885	 0.235687824624593 
886	 0.235860361132058 
887	 0.236028470746512 
888	 0.236130078798603 
889	 0.236163734079001 
890	 0.236253395217377 
891	 0.236362924721011 
892	 0.236513729914088 
893	 0.236806058582786 
894	 0.236907318678775 
895	 0.236975420628375 
896	 0.237163034633065 
897	 0.237428833180943 
898	 0.237648187373162 
899	 0.237842191555617 
900	 0.238035123130195 
901	 0.23812786881408 
902	 0.238331704114964 
903	 0.238601612667312 
904	 0.238836330961015 
905	 0.239096334708063 
906	 0.239385251054865 
907	 0.239706179895381 
908	 0.240038111697532 
909	 0.240256196137976 
910	 0.240462573458719 
911	 0.240735729886654 
912	 0.241091204648988 
913	 0.241327310953525 
914	 0.241557839139667 
915	 0.241891292988336 
916	 0.242362390252521 
917	 0.242640038823363 
918	 0.242964797135972 
919	 0.243464374632275 
920	 0.244029120945579 
921	 0.244445003444591 
922	 0.244677708812846 
923	 0.244866093788908 
924	 0.245313663365407 
925	 0.245782196643066 
926	 0.246243518207126 
927	 0.246698598322345 
928	 0.247120371388462 
929	 0.247678509772237 
930	 0.248240579070059 
931	 0.248684405683503 
932	 0.249104003204246 
933	 0.249497035545211 
934	 0.249962725498756 
935	 0.250555270494123 
936	 0.251136895850819 
937	 0.251689927834754 
938	 0.252198412027631 
939	 0.252679070475489 
940	 0.253226512343019 
941	 0.253790495405782 
942	 0.254432886731663 
943	 0.255174164373107 
944	 0.255704685346518 
945	 0.256324754267401 
946	 0.257012950931243 
947	 0.25761719159552 
948	 0.258154671985961 
949	 0.258749515303229 
950	 0.259395337488834 
951	 0.260044494092079 
952	 0.260835505827641 
953	 0.26159010140201 
954	 0.262213182058734 
955	 0.262738931527663 
956	 0.263506091969747 
957	 0.264237528248095 
958	 0.264894858294896 
959	 0.265605333257863 
960	 0.266381061581538 
961	 0.267161389777275 
962	 0.267943000186039 
963	 0.268748428827525 
964	 0.269507038909253 
965	 0.270197905308337 
966	 0.270973137329339 
967	 0.271983241868771 
968	 0.272697193270682 
969	 0.273456107878422 
970	 0.274265161160854 
971	 0.274940395943882 
972	 0.275897678128663 
973	 0.276832111846377 
974	 0.277703904145339 
975	 0.278648116164925 
976	 0.279478828317189 
977	 0.28024694702109 
978	 0.281072131395599 
979	 0.282034983424328 
980	 0.282841877382932 
981	 0.283630123161575 
982	 0.28443620858927 
983	 0.285237500205392 
984	 0.286128398191075 
985	 0.287180750916501 
986	 0.28821202969588 
987	 0.288995417711997 
988	 0.289805748071796 
989	 0.290740796773896 
990	 0.291689012287617 
991	 0.292515185308088 
992	 0.293519326243272 
993	 0.294259799474059 
994	 0.295041803044634 
995	 0.296254319240007 
996	 0.297162787717891 
997	 0.298005677926748 
998	 0.298810880085698 
999	 0.29961137387609 
1000	 0.300762137673796 
1001	 0.304949105074298 
1002	 0.305783682734505 
1003	 0.306636231941074 
1004	 0.30749855625967 
1005	 0.308414055441169 
1006	 0.309300425826862 
1007	 0.310185915239393 
1008	 0.311018709405647 
1009	 0.311885202579402 
1010	 0.312736863089128 
1011	 0.313573673459324 
1012	 0.314413228570405 
1013	 0.315213301937455 
1014	 0.315988627474748 
1015	 0.316774018634292 
1016	 0.317601006103285 
1017	 0.318419314361751 
1018	 0.319232557210394 
1019	 0.320069817725141 
1020	 0.320926276400082 
1021	 0.321707184302703 
1022	 0.322459756462405 
1023	 0.323192115578824 
1024	 0.323898731932237 
1025	 0.324617184721394 
1026	 0.325394320110689 
1027	 0.326192532486085 
1028	 0.326907024791478 
1029	 0.327592530303296 
1030	 0.328253069477888 
1031	 0.328943510037118 
1032	 0.329607665964303 
1033	 0.330354741534012 
1034	 0.331139165881497 
1035	 0.331910652737016 
1036	 0.332621151150791 
1037	 0.333356685670209 
1038	 0.334085543244101 
1039	 0.334805590756169 
1040	 0.335597983384245 
1041	 0.336315578334705 
1042	 0.336998419890849 
1043	 0.337725055292029 
1044	 0.338434543560385 
1045	 0.339120920105054 
1046	 0.339831452385221 
1047	 0.340563364918583 
1048	 0.341256126728362 
1049	 0.341969307699977 
1050	 0.342723378164644 
1051	 0.343440913832347 
1052	 0.34413943024573 
1053	 0.344821409235239 
1054	 0.345451457340523 
1055	 0.346099365627077 
1056	 0.346780884081606 
1057	 0.347414569126532 
1058	 0.34800481019404 
1059	 0.348605061970223 
1060	 0.349171041304128 
1061	 0.349786517256692 
1062	 0.350410561641666 
1063	 0.351054003969153 
1064	 0.351730256290768 
1065	 0.352331838399145 
1066	 0.352904758861802 
1067	 0.353514331759163 
1068	 0.354109388380009 
1069	 0.354686991306042 
1070	 0.355234904760426 
1071	 0.355746369418326 
1072	 0.35628864321729 
1073	 0.356812285423165 
1074	 0.357320443104694 
1075	 0.357834995711041 
1076	 0.358347839826974 
1077	 0.358836441589216 
1078	 0.359371246228223 
1079	 0.359923107224823 
1080	 0.360441227483929 
1081	 0.360913672097081 
1082	 0.361387141924445 
1083	 0.3618753515341 
1084	 0.36237386868252 
1085	 0.362845063452946 
1086	 0.363281398256706 
1087	 0.363777626406257 
1088	 0.364308431506472 
1089	 0.364774588910811 
1090	 0.365239712944102 
1091	 0.365741414262056 
1092	 0.366188126562365 
1093	 0.366684530448994 
1094	 0.367223556843473 
1095	 0.367721702342526 
1096	 0.368227039442135 
1097	 0.368742712320597 
1098	 0.369239783436574 
1099	 0.369726983747067 
1100	 0.370255596710912 
1101	 0.370794349925432 
1102	 0.371310407978008 
1103	 0.371834632132959 
1104	 0.372392740225909 
1105	 0.372913431604562 
1106	 0.37344918216314 
1107	 0.374038760413241 
1108	 0.374611120669239 
1109	 0.375140148232593 
1110	 0.375682334713564 
1111	 0.376236747121414 
1112	 0.376781909666789 
1113	 0.3773461485371 
1114	 0.37793955484934 
1115	 0.378512497013704 
1116	 0.379079395799494 
1117	 0.379656553039113 
1118	 0.380238334722701 
1119	 0.380818936206448 
1120	 0.381407140629419 
1121	 0.381967343041256 
1122	 0.382511836891358 
1123	 0.383077539566681 
1124	 0.383664181237176 
1125	 0.384264331142656 
1126	 0.384869302539117 
1127	 0.385501526436079 
1128	 0.386109560122975 
1129	 0.38671320898547 
1130	 0.387302978745522 
1131	 0.38788815998697 
1132	 0.388467894793371 
1133	 0.389036134048305 
1134	 0.389602709899614 
1135	 0.390162391712077 
1136	 0.390719622737506 
1137	 0.391273985361598 
1138	 0.391800248968432 
1139	 0.392361839398072 
1140	 0.392932858671021 
1141	 0.39349833941314 
1142	 0.394092179570396 
1143	 0.394657732202522 
1144	 0.395211220893996 
1145	 0.395754111824515 
1146	 0.396283874054021 
1147	 0.396807370290778 
1148	 0.397310193006283 
1149	 0.397823499631759 
1150	 0.398338310783505 
1151	 0.398861444084612 
1152	 0.39936072449699 
1153	 0.399843936626514 
1154	 0.400331659033416 
1155	 0.400801431928497 
1156	 0.401279913753288 
1157	 0.401792034661086 
1158	 0.402243156952788 
1159	 0.402647987589694 
1160	 0.403083475458132 
1161	 0.403488423567632 
1162	 0.403920810294493 
1163	 0.404383992400196 
1164	 0.404844064951758 
1165	 0.405308813042306 
1166	 0.40578675459339 
1167	 0.406231049947662 
1168	 0.406660584778508 
1169	 0.407071578742961 
1170	 0.407434807406683 
1171	 0.407837312106358 
1172	 0.408258413199239 
1173	 0.408653599540037 
1174	 0.409049460768999 
1175	 0.409431667145336 
1176	 0.409795524534404 
1177	 0.41015867177265 
1178	 0.41051795774091 
1179	 0.410874917435216 
1180	 0.411222292032892 
1181	 0.411569829650504 
1182	 0.411920935292999 
1183	 0.412266155475789 
1184	 0.412605972245675 
1185	 0.412931939630553 
1186	 0.413284003532403 
1187	 0.413652013576047 
1188	 0.413997365325669 
1189	 0.414359645588452 
1190	 0.414686783343197 
1191	 0.41497564384669 
1192	 0.415281072953023 
1193	 0.415566113238581 
1194	 0.415880964383191 
1195	 0.416232398023462 
1196	 0.416548526316574 
1197	 0.41686042476831 
1198	 0.41717149595796 
1199	 0.417473122034378 
1200	 0.417744408294269 
1201	 0.418041615330763 
1202	 0.418365344409535 
1203	 0.418649550394237 
1204	 0.418911128704127 
1205	 0.419188364572506 
1206	 0.41945113088651 
1207	 0.419726365128682 
1208	 0.420022408103957 
1209	 0.420303105831676 
1210	 0.420578670310928 
1211	 0.420850381901159 
1212	 0.421116149304564 
1213	 0.421382046398651 
1214	 0.421654398179989 
1215	 0.421910061741295 
1216	 0.422157277408214 
1217	 0.422393526623352 
1218	 0.422641439406902 
1219	 0.422881944854367 
1220	 0.423125976103931 
1221	 0.423378697673359 
1222	 0.423630992916334 
1223	 0.423889103474431 
1224	 0.424126945197788 
1225	 0.424358023779237 
1226	 0.42459298174557 
1227	 0.424815856646821 
1228	 0.425035825140367 
1229	 0.425262777656838 
1230	 0.425486173817142 
1231	 0.425687668784885 
1232	 0.425903457846363 
1233	 0.426126416832062 
1234	 0.426366667065562 
1235	 0.42658532287214 
1236	 0.426797661491353 
1237	 0.42701961545781 
1238	 0.42724451726113 
1239	 0.427453811272934 
1240	 0.427670971068439 
1241	 0.427870400915396 
1242	 0.428039634721418 
1243	 0.428222736002825 
1244	 0.428410389170578 
1245	 0.428593116609351 
1246	 0.428775609081913 
1247	 0.428954270966083 
1248	 0.429123015716296 
1249	 0.429295056304358 
1250	 0.429485593124245 
1251	 0.429695394666843 
1252	 0.42988516148079 
1253	 0.430093023105033 
1254	 0.430268426644424 
1255	 0.430406152687559 
1256	 0.430573902890033 
1257	 0.430759161645877 
1258	 0.430913338985806 
1259	 0.431059982533433 
1260	 0.431208715063761 
1261	 0.431331285311423 
1262	 0.431467333648107 
1263	 0.431623503714939 
1264	 0.43176396642274 
1265	 0.431885772162063 
1266	 0.432021744371025 
1267	 0.432157586057597 
1268	 0.432295367133449 
1269	 0.432459260221901 
1270	 0.432640501255678 
1271	 0.432824224999692 
1272	 0.433034371441887 
1273	 0.433224266133197 
1274	 0.433399703384331 
1275	 0.433597606918978 
1276	 0.433807519942356 
1277	 0.434006629462547 
1278	 0.434220168400549 
1279	 0.434419947414779 
1280	 0.434594670563695 
1281	 0.434785815513313 
1282	 0.435003954066656 
1283	 0.435188523165918 
1284	 0.435368300989073 
1285	 0.435526171734821 
1286	 0.43566657551303 
1287	 0.435804233367854 
1288	 0.43591517923384 
1289	 0.436015241410375 
1290	 0.436102639566559 
1291	 0.436165020844525 
1292	 0.436215093404353 
1293	 0.436261565196884 
1294	 0.436287405086336 
1295	 0.436284185373613 
1296	 0.436276919543945 
1297	 0.436257407679112 
1298	 0.436235673130391 
1299	 0.436197166266282 
1300	 0.436161959640844 
1301	 0.436143598371098 
1302	 0.436090517447225 
1303	 0.436002334071053 
1304	 0.435942543602685 
1305	 0.435847874074419 
1306	 0.435741132733066 
1307	 0.435664951375515 
1308	 0.435580358500925 
1309	 0.435506175491129 
1310	 0.435439014511661 
1311	 0.43537993022257 
1312	 0.43532566513513 
1313	 0.435273049269067 
1314	 0.435245259325319 
1315	 0.43518957060798 
1316	 0.43510189776753 
1317	 0.435055255695751 
1318	 0.435005467320233 
1319	 0.434973066156053 
1320	 0.434984741072612 
1321	 0.434978825302488 
1322	 0.434952826869988 
1323	 0.434955302842369 
1324	 0.435001414960574 
1325	 0.435043721315606 
1326	 0.435091452706139 
1327	 0.435153309561445 
1328	 0.435177781503942 
1329	 0.435206394923699 
1330	 0.435257475859357 
1331	 0.435316826162868 
1332	 0.43539781260703 
1333	 0.435509690610255 
1334	 0.435598883138598 
1335	 0.435681094309337 
1336	 0.435795552808132 
1337	 0.435911832523117 
1338	 0.436040334861789 
1339	 0.436219635273718 
1340	 0.436359263407298 
1341	 0.43647395669465 
1342	 0.436595137793356 
1343	 0.436696369522525 
1344	 0.436821816447147 
1345	 0.436975226558403 
1346	 0.437113835030737 
1347	 0.437246089252505 
1348	 0.437381022720072 
1349	 0.437477964392005 
1350	 0.437570170576043 
1351	 0.437675302468591 
1352	 0.437782942136886 
1353	 0.437888951547146 
1354	 0.438003351649986 
1355	 0.438105708924339 
1356	 0.438213227710724 
1357	 0.43829952568225 
1358	 0.438364098063494 
1359	 0.438444840273536 
1360	 0.438507859207677 
1361	 0.438589872142977 
1362	 0.438688320427521 
1363	 0.438787375240806 
1364	 0.438905355494156 
1365	 0.439008403585637 
1366	 0.439104753740013 
1367	 0.439198616340051 
1368	 0.439323099129319 
1369	 0.439429096264581 
1370	 0.439513810682932 
1371	 0.439611355688815 
1372	 0.439666976573143 
1373	 0.439686464616907 
1374	 0.439695743603212 
1375	 0.439705113722592 
1376	 0.439663364110591 
1377	 0.43958146228366 
1378	 0.439494533336456 
1379	 0.439365041313018 
1380	 0.439258426183002 
1381	 0.439147431007913 
1382	 0.43903203126779 
1383	 0.438939901860592 
1384	 0.438802973929984 
1385	 0.438676065578977 
1386	 0.438483346608295 
1387	 0.438234629051272 
1388	 0.437967798019253 
1389	 0.437670619460905 
1390	 0.437326581889499 
1391	 0.436961907045714 
1392	 0.436565571690632 
1393	 0.436099069896048 
1394	 0.435601760464597 
1395	 0.435092266829043 
1396	 0.43458104785212 
1397	 0.434062009278534 
1398	 0.433548793368921 
1399	 0.433006847329749 
1400	 0.432440846508883 
1401	 0.4318762524707 
1402	 0.431293511156933 
1403	 0.430721166648095 
1404	 0.430136640955689 
1405	 0.429577110654264 
1406	 0.42903807680028 
1407	 0.428487228724281 
1408	 0.427924506672714 
1409	 0.427399475953797 
1410	 0.426870455820965 
1411	 0.426380221986353 
1412	 0.42591123541974 
1413	 0.425496222253169 
1414	 0.425138468598936 
1415	 0.424784501746694 
1416	 0.424488131039095 
1417	 0.424226719940072 
1418	 0.423932037687685 
1419	 0.42365658481062 
1420	 0.423394701936312 
1421	 0.423134212473576 
1422	 0.422907797706603 
1423	 0.42268396943392 
1424	 0.422449267358965 
1425	 0.422221708018926 
1426	 0.421982026627532 
1427	 0.421717673873613 
1428	 0.421484004862182 
1429	 0.421256719817903 
1430	 0.42104327128047 
1431	 0.420856578584267 
1432	 0.420649206382001 
1433	 0.420427380002036 
1434	 0.420235616938776 
1435	 0.420039120694844 
1436	 0.419873798102521 
1437	 0.419751668648628 
1438	 0.419612927514606 
1439	 0.419485498719071 
1440	 0.419354092469266 
1441	 0.419189370869899 
1442	 0.419045173763508 
1443	 0.418891987737507 
1444	 0.418723773446806 
1445	 0.418585523254087 
1446	 0.41845251951491 
1447	 0.418313961970231 
1448	 0.418172222846748 
1449	 0.418034688612884 
1450	 0.417882622698739 
1451	 0.417723657945338 
1452	 0.417564305214767 
1453	 0.417394966165484 
1454	 0.417200263240813 
1455	 0.41703244723069 
1456	 0.416887313667147 
1457	 0.416707880423705 
1458	 0.416516231979507 
1459	 0.416332472569532 
1460	 0.416106070269452 
1461	 0.415935022415654 
1462	 0.415795292305082 
1463	 0.415673095120391 
1464	 0.415580396748506 
1465	 0.415493426498299 
1466	 0.415415494311411 
1467	 0.415361555957948 
1468	 0.415313484251379 
1469	 0.41530293504797 
1470	 0.415317256915107 
1471	 0.415370540124077 
1472	 0.415438948522301 
1473	 0.415544865648625 
1474	 0.415685335934165 
1475	 0.415861374990287 
1476	 0.416095698834132 
1477	 0.416348595027229 
1478	 0.416626129451689 
1479	 0.416903699221373 
1480	 0.417171538918603 
1481	 0.417461995468201 
1482	 0.417734033842382 
1483	 0.417997898898425 
1484	 0.418269758313423 
1485	 0.418532324143088 
1486	 0.418811131169862 
1487	 0.41910039814894 
1488	 0.419397517122988 
1489	 0.419725831229492 
1490	 0.420006548449747 
1491	 0.420280930913394 
1492	 0.420535053049795 
1493	 0.42074908386118 
1494	 0.420965613633407 
1495	 0.421180544080091 
1496	 0.421383958232669 
1497	 0.421570302152297 
1498	 0.421754217520276 
1499	 0.421935392058235 
1500	 0.422100155137942 
1501	 0.422242917103756 
1502	 0.422400032189106 
1503	 0.422552226053576 
1504	 0.422705457816716 
1505	 0.422883428453558 
1506	 0.423061515278664 
1507	 0.423229289867504 
1508	 0.423393464804716 
1509	 0.423534350221657 
1510	 0.423667268600504 
1511	 0.423795198905007 
1512	 0.42392370114119 
1513	 0.424087347273415 
1514	 0.424247715204777 
1515	 0.424410389908038 
1516	 0.4245807466985 
1517	 0.424719756605348 
1518	 0.424829963632859 
1519	 0.424958702775735 
1520	 0.425076120486956 
1521	 0.425201573673136 
1522	 0.425339503319986 
1523	 0.425465754252774 
1524	 0.425578763733394 
1525	 0.42571309722393 
1526	 0.425845873969274 
1527	 0.425995606268898 
1528	 0.42617944972999 
1529	 0.426332156717147 
1530	 0.426481927934192 
1531	 0.426629829900768 
1532	 0.426759633191792 
1533	 0.426893436255203 
1534	 0.427039267117055 
1535	 0.427164575591401 
1536	 0.427273748319853 
1537	 0.427382066742255 
1538	 0.427481391466295 
1539	 0.427578486869498 
1540	 0.427661363760139 
1541	 0.427764828821964 
1542	 0.42787749818021 
1543	 0.427985990716195 
1544	 0.428112035788963 
1545	 0.428225291017309 
1546	 0.428328010471245 
1547	 0.428425154388945 
1548	 0.428524757436332 
1549	 0.428624970500929 
1550	 0.428727310770386 
1551	 0.428824361275032 
1552	 0.428925519611805 
1553	 0.429007227607295 
1554	 0.429096533540737 
1555	 0.429213383827865 
1556	 0.42932406878209 
1557	 0.429441923997904 
1558	 0.429542754246641 
1559	 0.429621622420226 
1560	 0.429711862919546 
1561	 0.429788050357729 
1562	 0.429894465489668 
1563	 0.430020229649022 
1564	 0.430136931268289 
1565	 0.430269404039824 
1566	 0.430384972917202 
1567	 0.430484219739329 
1568	 0.430597204855708 
1569	 0.430720963595642 
1570	 0.430820882102951 
1571	 0.430922708095046 
1572	 0.431006924405153 
1573	 0.431059852144783 
1574	 0.431130945769681 
1575	 0.431202763459009 
1576	 0.43127483232774 
1577	 0.431352622790474 
1578	 0.431424196927399 
1579	 0.431501593104938 
1580	 0.431555019693386 
1581	 0.431587280485639 
1582	 0.431633169995013 
1583	 0.431665154921072 
1584	 0.431711252372659 
1585	 0.431762278486754 
1586	 0.431831274620196 
1587	 0.431924791972431 
1588	 0.43199642485632 
1589	 0.432094918930813 
1590	 0.432150703215666 
1591	 0.432152752139842 
1592	 0.432181093022284 
1593	 0.43218511140122 
1594	 0.432223485160572 
1595	 0.432291943562649 
1596	 0.432359632205954 
1597	 0.432460429046993 
1598	 0.432533140076764 
1599	 0.432604196998287 
1600	 0.432656209845555 
1601	 0.432678861288625 
1602	 0.432705333970281 
1603	 0.432713703240335 
1604	 0.432734296763659 
1605	 0.432751109617555 
1606	 0.432785362337374 
1607	 0.4328432377127 
1608	 0.43288873581 
1609	 0.432941584606147 
1610	 0.433008882947771 
1611	 0.43301483592525 
1612	 0.43302370510669 
1613	 0.43302690206599 
1614	 0.433010260461113 
1615	 0.433052217189772 
1616	 0.433104378035561 
1617	 0.433181491488056 
1618	 0.433281948386128 
1619	 0.433344370754464 
1620	 0.433398860541048 
1621	 0.433423215684244 
1622	 0.43340721780688 
1623	 0.433410233078759 
1624	 0.433401300447367 
1625	 0.433408352035608 
1626	 0.433417186118978 
1627	 0.433436492558576 
1628	 0.433464044783344 
1629	 0.433495243083805 
1630	 0.433541044144114 
1631	 0.433572090080314 
1632	 0.433599092676074 
1633	 0.43363356343803 
1634	 0.433662810908325 
1635	 0.433696172230296 
1636	 0.433746391517185 
1637	 0.433768911621439 
1638	 0.433776561077877 
1639	 0.433789007772294 
1640	 0.433788504100459 
1641	 0.433797717997438 
1642	 0.433810898651155 
1643	 0.433826467185875 
1644	 0.433835874557548 
1645	 0.433866681673975 
1646	 0.433921589740009 
1647	 0.433948131573972 
1648	 0.433973294193336 
1649	 0.433998825687408 
1650	 0.434009157120501 
1651	 0.434021874351228 
1652	 0.434056087820664 
1653	 0.434050783656206 
1654	 0.434014679324114 
1655	 0.433987607747874 
1656	 0.433936005829125 
1657	 0.433913855725589 
1658	 0.433901426088172 
1659	 0.433897513262808 
1660	 0.433909833085757 
1661	 0.43392174952421 
1662	 0.43395189643155 
1663	 0.433954429316263 
1664	 0.433949361165663 
1665	 0.433940686794262 
1666	 0.43391703796011 
1667	 0.433888470996773 
1668	 0.433848981730405 
1669	 0.433827496671661 
1670	 0.433806339849215 
1671	 0.433780372701821 
1672	 0.433772568690537 
1673	 0.433747614447509 
1674	 0.433679437685355 
1675	 0.433672789683799 
1676	 0.433691218467387 
1677	 0.433720804052278 
1678	 0.433814333185782 
1679	 0.433840510172121 
1680	 0.433835694345317 
1681	 0.43384449383529 
1682	 0.433824234569849 
1683	 0.433824922375541 
1684	 0.433852987687896 
1685	 0.433857631680168 
1686	 0.433853682946272 
1687	 0.43384041316847 
1688	 0.433819921188293 
1689	 0.433791878101927 
1690	 0.433736231370101 
1691	 0.433716368435424 
1692	 0.43371417243201 
1693	 0.433699200536184 
1694	 0.43370122748313 
1695	 0.433688292916113 
1696	 0.433655208862031 
1697	 0.433631131588649 
1698	 0.433615704920605 
1699	 0.433591909798964 
1700	 0.433568031117972 
1701	 0.433525844452868 
1702	 0.433470022937096 
1703	 0.43341873231231 
1704	 0.433356014042476 
1705	 0.433297689578509 
1706	 0.433227833810231 
1707	 0.433196201360922 
1708	 0.433177278443171 
1709	 0.43316555507827 
1710	 0.433193722635074 
1711	 0.433197098804958 
1712	 0.433202298568651 
1713	 0.433180898043401 
1714	 0.433143416334349 
1715	 0.433104889782184 
1716	 0.433037064785486 
1717	 0.432986411464898 
1718	 0.432940535077925 
1719	 0.43290791289914 
1720	 0.432887010296186 
1721	 0.432859213886674 
1722	 0.432844298265595 
1723	 0.432816601204965 
1724	 0.432770708860683 
1725	 0.43273788627162 
1726	 0.432717860723377 
1727	 0.432674671927195 
1728	 0.432637013265834 
1729	 0.432567557158176 
1730	 0.432462385636316 
1731	 0.432378799751202 
1732	 0.432298991331361 
1733	 0.43218525780053 
1734	 0.432056874780337 
1735	 0.431936424462807 
1736	 0.431783335986778 
1737	 0.4316644060729 
1738	 0.431579192151438 
1739	 0.431473767964105 
1740	 0.431356916903958 
1741	 0.431256941479002 
1742	 0.431164249580615 
1743	 0.431071008311059 
1744	 0.43099042242054 
1745	 0.43089359764577 
1746	 0.43079262847649 
1747	 0.430695150699789 
1748	 0.430584015842202 
1749	 0.430477937916683 
1750	 0.430349517434463 
1751	 0.430226644523298 
1752	 0.430132373368846 
1753	 0.430056098517431 
1754	 0.42996407086248 
1755	 0.429857215128232 
1756	 0.429734786907555 
1757	 0.429607187229612 
1758	 0.429520321431864 
1759	 0.429429491157724 
1760	 0.429314485269235 
1761	 0.429191766727776 
1762	 0.429064033872356 
1763	 0.428966291534758 
1764	 0.428903090418773 
1765	 0.428864404829988 
1766	 0.428829719206226 
1767	 0.428767318429734 
1768	 0.428688359092708 
1769	 0.428609166029663 
1770	 0.428516501922116 
1771	 0.428426976156021 
1772	 0.42834644073466 
1773	 0.428253321428347 
1774	 0.428144581113984 
1775	 0.428019088765343 
1776	 0.427916639365023 
1777	 0.42786090597472 
1778	 0.427818822393459 
1779	 0.427789459643978 
1780	 0.427761417419228 
1781	 0.427710832114258 
1782	 0.427651225136756 
1783	 0.427589971696398 
1784	 0.427520882216076 
1785	 0.427409736808666 
1786	 0.427322817016407 
1787	 0.42725481951525 
1788	 0.427183653938525 
1789	 0.42713856435569 
1790	 0.427080092539361 
1791	 0.426983530265025 
1792	 0.426912194677653 
1793	 0.426866453220585 
1794	 0.426803382990373 
1795	 0.426758077780702 
1796	 0.426697115288243 
1797	 0.426594349328818 
1798	 0.426511695735504 
1799	 0.426434140679833 
1800	 0.426377244002653 
1801	 0.428117723359009 
1802	 0.428163165858477 
1803	 0.428218176832976 
1804	 0.428258083669498 
1805	 0.428263496266825 
1806	 0.428280638139069 
1807	 0.428287342341525 
1808	 0.428266783453843 
1809	 0.428237011679156 
1810	 0.428197834864929 
1811	 0.428149159281681 
1812	 0.428051661936844 
1813	 0.427963899579101 
1814	 0.427855083345828 
1815	 0.427731741199531 
1816	 0.427625132900513 
1817	 0.427523175278778 
1818	 0.427429975768377 
1819	 0.427337012561031 
1820	 0.42726127866214 
1821	 0.42716041097411 
1822	 0.427023834382027 
1823	 0.426876646544876 
1824	 0.426731725919505 
1825	 0.426563355514008 
1826	 0.42639228893705 
1827	 0.426202891717228 
1828	 0.425979871036067 
1829	 0.425714315810435 
1830	 0.425439760063514 
1831	 0.425149976684195 
1832	 0.424842906744517 
1833	 0.424489899549192 
1834	 0.42411299488214 
1835	 0.423725037973407 
1836	 0.423315559245116 
1837	 0.422898290924053 
1838	 0.422498048637401 
1839	 0.422139655217454 
1840	 0.421799334919176 
1841	 0.421487440227841 
1842	 0.421212669932523 
1843	 0.420966610495628 
1844	 0.420717759516848 
1845	 0.420468075239443 
1846	 0.420264977103031 
1847	 0.420054809938492 
1848	 0.419830045432745 
1849	 0.419672602196845 
1850	 0.419544858189835 
1851	 0.419436352066109 
1852	 0.419366768663655 
1853	 0.419357044445703 
1854	 0.419336516178866 
1855	 0.419355463259012 
1856	 0.419377167210555 
1857	 0.419377881680234 
1858	 0.419359751351978 
1859	 0.419259642627991 
1860	 0.419138162651685 
1861	 0.418973622409831 
1862	 0.418781823838948 
1863	 0.418572758276742 
1864	 0.418356407769856 
1865	 0.41812874141329 
1866	 0.417885956137223 
1867	 0.417616576843492 
1868	 0.41736970421504 
1869	 0.417094051154573 
1870	 0.41677390492931 
1871	 0.416400297840385 
1872	 0.415998267976414 
1873	 0.415515597596012 
1874	 0.414989133353205 
1875	 0.414423470724407 
1876	 0.413807677534968 
1877	 0.413135763470089 
1878	 0.412358151333944 
1879	 0.411486918184328 
1880	 0.410511613815346 
1881	 0.40941391326272 
1882	 0.408252844923217 
1883	 0.407023461062488 
1884	 0.405651550081446 
1885	 0.404207288792603 
1886	 0.402695015514668 
1887	 0.401049865302978 
1888	 0.399374891458689 
1889	 0.397609170241455 
1890	 0.395788586217718 
1891	 0.393947214216836 
1892	 0.392028436784157 
1893	 0.39011158619184 
1894	 0.388190001241348 
1895	 0.386218274676337 
1896	 0.384202113071391 
1897	 0.382194180054858 
1898	 0.380170818070345 
1899	 0.378193430337303 
1900	 0.376262537575404 
1901	 0.374376050001265 
1902	 0.372571123535998 
1903	 0.370845922246016 
1904	 0.369165541262915 
1905	 0.367543011072634 
1906	 0.36600258738083 
1907	 0.364495086192959 
1908	 0.3630494091493 
1909	 0.361702600784797 
1910	 0.360390962146729 
1911	 0.359163829978789 
1912	 0.35796999023051 
1913	 0.356795247327519 
1914	 0.355622592267701 
1915	 0.354545756034359 
1916	 0.353513367176501 
1917	 0.352532006261898 
1918	 0.351641013192338 
1919	 0.350788997060001 
1920	 0.349991991840045 
1921	 0.349263465228902 
1922	 0.348597708148313 
1923	 0.347993422965134 
1924	 0.347440361006371 
1925	 0.346939738516271 
1926	 0.34649913052974 
1927	 0.346107356739743 
1928	 0.345786983233858 
1929	 0.345531715537542 
1930	 0.345313671940232 
1931	 0.345161573989432 
1932	 0.345056885980765 
1933	 0.344982508300839 
1934	 0.344972958879753 
1935	 0.345019754542186 
1936	 0.345132296638159 
1937	 0.345269815567742 
1938	 0.345463998383925 
1939	 0.34568559636348 
1940	 0.345938609983272 
1941	 0.34622621503018 
1942	 0.346553511836751 
1943	 0.346901245546305 
1944	 0.347247290282 
1945	 0.347597431451873 
1946	 0.347955042130091 
1947	 0.348310331351173 
1948	 0.34869296732716 
1949	 0.34909735333089 
1950	 0.349500656988767 
1951	 0.349927937259223 
1952	 0.350342701521577 
1953	 0.350745128301242 
1954	 0.351154361264224 
1955	 0.351538554100051 
1956	 0.35192412736042 
1957	 0.352339388245271 
1958	 0.352758035565242 
1959	 0.353195271680619 
1960	 0.353680775678033 
1961	 0.354141321306602 
1962	 0.354604036430839 
1963	 0.355061920484197 
1964	 0.355522540999431 
1965	 0.355955925299004 
1966	 0.356396461020764 
1967	 0.356838171382806 
1968	 0.357280669310706 
1969	 0.357709202505749 
1970	 0.358163775867427 
1971	 0.358635536187729 
1972	 0.359107894736113 
1973	 0.359604331745575 
1974	 0.360086683222882 
1975	 0.360573757607056 
1976	 0.361026812251434 
1977	 0.361516769372979 
1978	 0.362003933192268 
1979	 0.362475748173113 
1980	 0.362960069610069 
1981	 0.363440202045177 
1982	 0.363908453363171 
1983	 0.364378466104896 
1984	 0.364855974242123 
1985	 0.365331807247811 
1986	 0.365797522013131 
1987	 0.36626355776331 
1988	 0.366723177356981 
1989	 0.367211485099171 
1990	 0.367680971472568 
1991	 0.368149646231702 
1992	 0.368629856203702 
1993	 0.369132619262429 
1994	 0.369604384090654 
1995	 0.370080852979151 
1996	 0.370522960070183 
1997	 0.370923107493151 
1998	 0.371344574828874 
1999	 0.371743144352472 
2000	 0.372170843749026 
2001	 0.372639531587374 
2002	 0.373059853899421 
2003	 0.373533294998622 
2004	 0.373989587903883 
2005	 0.374443607653671 
2006	 0.37492159283257 
2007	 0.375358730891266 
2008	 0.375737818639942 
2009	 0.376179906245978 
2010	 0.376638934759261 
2011	 0.377084106232977 
2012	 0.377570821720897 
2013	 0.378031987288876 
2014	 0.37846492359291 
2015	 0.378887759106742 
2016	 0.379333449768801 
2017	 0.379772036884954 
2018	 0.380221770151058 
2019	 0.380684701277202 
2020	 0.381128022712986 
2021	 0.381573924214102 
2022	 0.382009730633763 
2023	 0.382436431693824 
2024	 0.382850835866009 
2025	 0.38326582631801 
2026	 0.383658983243631 
2027	 0.384022992318909 
2028	 0.384382293937518 
2029	 0.38475921531497 
2030	 0.385137457472498 
2031	 0.385509199490096 
2032	 0.385906132192603 
2033	 0.386255271270882 
2034	 0.386562356022949 
2035	 0.38689499386193 
2036	 0.387199135591361 
2037	 0.387541070891243 
2038	 0.38793824421572 
2039	 0.388287290469263 
2040	 0.388622340590182 
2041	 0.388960603536703 
2042	 0.389288282871575 
2043	 0.389606701091019 
2044	 0.389921584785463 
2045	 0.390263944849845 
2046	 0.390553888988504 
2047	 0.390797469680743 
2048	 0.391059391918106 
2049	 0.391300150851745 
2050	 0.391559163154723 
2051	 0.391830605318936 
2052	 0.39209450440584 
2053	 0.392369511321039 
2054	 0.392625904972639 
2055	 0.392854676263221 
2056	 0.393102372450388 
2057	 0.393361514295101 
2058	 0.393632709753586 
2059	 0.393879124481322 
2060	 0.39414011485036 
2061	 0.394375109953087 
2062	 0.394567597948085 
2063	 0.394783635891533 
2064	 0.395016050474433 
2065	 0.395229286749786 
2066	 0.395427769985279 
2067	 0.395633214731303 
2068	 0.395840553634565 
2069	 0.396025012032006 
2070	 0.396237081706645 
2071	 0.396473599602965 
2072	 0.396678295344948 
2073	 0.396872329249757 
2074	 0.397076444436281 
2075	 0.397263399000197 
2076	 0.39746796794815 
2077	 0.397707071181771 
2078	 0.397912824249183 
2079	 0.398102807056896 
2080	 0.398292040958188 
2081	 0.398472622157465 
2082	 0.398642617517745 
2083	 0.39879641970753 
2084	 0.398962142831735 
2085	 0.399129487881072 
2086	 0.399295133503009 
2087	 0.39944851480762 
2088	 0.399600195441037 
2089	 0.399762628159884 
2090	 0.399920740861224 
2091	 0.400069833491521 
2092	 0.400242515699393 
2093	 0.400383401900163 
2094	 0.40047339441193 
2095	 0.400598528136436 
2096	 0.40073980320816 
2097	 0.400869360780682 
2098	 0.400999277417366 
2099	 0.401137020620526 
2100	 0.401278221831186 
2101	 0.40141571727162 
2102	 0.401549934591476 
2103	 0.401686754135322 
2104	 0.401838244895112 
2105	 0.401974254542751 
2106	 0.402141090165975 
2107	 0.402356102858207 
2108	 0.402538470451787 
2109	 0.402709340696385 
2110	 0.402892914811672 
2111	 0.403073377306741 
2112	 0.403254584797133 
2113	 0.403442317542794 
2114	 0.403641268540225 
2115	 0.403823051451149 
2116	 0.40398341357447 
2117	 0.40417799816025 
2118	 0.404382612169425 
2119	 0.404590196396525 
2120	 0.404803512667814 
2121	 0.405045071202729 
2122	 0.40532327472644 
2123	 0.405557373281972 
2124	 0.405822249230727 
2125	 0.406034167887567 
2126	 0.406197033980727 
2127	 0.406343111577037 
2128	 0.406452664669558 
2129	 0.406565016687097 
2130	 0.406661163750224 
2131	 0.406739713891401 
2132	 0.406809725776776 
2133	 0.406884292809368 
2134	 0.406929049319149 
2135	 0.406956301105375 
2136	 0.406951632101949 
2137	 0.406920699117991 
2138	 0.40688150199991 
2139	 0.406824128669683 
2140	 0.406734338920269 
2141	 0.406618691427929 
2142	 0.406497044153155 
2143	 0.40633259555181 
2144	 0.40617940508579 
2145	 0.406043654741563 
2146	 0.405884521843589 
2147	 0.405727887843092 
2148	 0.405528049536688 
2149	 0.405314305358821 
2150	 0.405076648697234 
2151	 0.404830735821262 
2152	 0.404563383236532 
2153	 0.404282430517721 
2154	 0.40398344774778 
2155	 0.403685207117808 
2156	 0.403373096868175 
2157	 0.403054091427274 
2158	 0.402743309690791 
2159	 0.402403589970226 
2160	 0.402035377835224 
2161	 0.401665253937927 
2162	 0.401275265963047 
2163	 0.400888810893199 
2164	 0.400497076698762 
2165	 0.400110835846743 
2166	 0.39970571451658 
2167	 0.399288195192572 
2168	 0.398880238124992 
2169	 0.398469329460669 
2170	 0.398048334190136 
2171	 0.397632101849771 
2172	 0.397203375291061 
2173	 0.396754664171202 
2174	 0.396309693964933 
2175	 0.395863282836974 
2176	 0.395415966372706 
2177	 0.394956363613303 
2178	 0.394508548315897 
2179	 0.394068439493518 
2180	 0.393627295952528 
2181	 0.393177641870429 
2182	 0.3927480311693 
2183	 0.392327359398236 
2184	 0.391917593612486 
2185	 0.391504579027419 
2186	 0.391110027918652 
2187	 0.39069144301891 
2188	 0.390245646373332 
2189	 0.389842231346425 
2190	 0.389462445887662 
2191	 0.389061414104686 
2192	 0.388671866279485 
2193	 0.388273827108971 
2194	 0.387837242213446 
2195	 0.387440869938684 
2196	 0.387073235807434 
2197	 0.386706112726076 
2198	 0.386313672024989 
2199	 0.385991447772867 
2200	 0.385717655965556 
2201	 0.385446471716844 
2202	 0.385224594103131 
2203	 0.385031637121243 
2204	 0.384792504225319 
2205	 0.384533923480594 
2206	 0.384282879608156 
2207	 0.384006822002955 
2208	 0.383772125319867 
2209	 0.383546477608461 
2210	 0.383343995506705 
2211	 0.38316971657667 
2212	 0.383003257450162 
2213	 0.382875408765946 
2214	 0.382707275775349 
2215	 0.382512391440832 
2216	 0.382358863224134 
2217	 0.382209235800384 
2218	 0.382058916722752 
2219	 0.381973835431257 
2220	 0.381829293780381 
2221	 0.381654608437067 
2222	 0.381445013420944 
2223	 0.381223728362903 
2224	 0.380980481991139 
2225	 0.380744509077458 
2226	 0.380513074132135 
2227	 0.380232454311012 
2228	 0.379936303616131 
2229	 0.379612311848288 
2230	 0.379237957196334 
2231	 0.378870419788271 
2232	 0.378505050078396 
2233	 0.378108421532109 
2234	 0.377681765582693 
2235	 0.377250083064302 
2236	 0.37679136481974 
2237	 0.376336004420284 
2238	 0.375873601933701 
2239	 0.375408880486995 
2240	 0.374955206406566 
2241	 0.374469063630619 
2242	 0.373982835307175 
2243	 0.373455803056029 
2244	 0.372878253726816 
2245	 0.372305714199801 
2246	 0.371711205390567 
2247	 0.371075926377531 
2248	 0.370462313630055 
2249	 0.369838665749719 
2250	 0.369230001389322 
2251	 0.36861628897197 
2252	 0.368039342768379 
2253	 0.367465844601928 
2254	 0.366938771990449 
2255	 0.366447761627168 
2256	 0.365976348173875 
2257	 0.365516715339887 
2258	 0.365129421490573 
2259	 0.364767317630076 
2260	 0.364479982481951 
2261	 0.364260516042283 
2262	 0.364097488294598 
2263	 0.364008399124095 
2264	 0.363955280939778 
2265	 0.363978445651109 
2266	 0.364017640752108 
2267	 0.364079995356409 
2268	 0.364185685852403 
2269	 0.364320661543059 
2270	 0.364504747199411 
2271	 0.364760536047565 
2272	 0.365072346193944 
2273	 0.365378300808931 
2274	 0.36570965016362 
2275	 0.366061597965976 
2276	 0.366401911993036 
2277	 0.366804601410881 
2278	 0.36727862991926 
2279	 0.367721736825663 
2280	 0.368177335517257 
2281	 0.368644448772636 
2282	 0.369129916681293 
2283	 0.369593714709716 
2284	 0.370079510531144 
2285	 0.370532028061622 
2286	 0.370953356914053 
2287	 0.371361687403044 
2288	 0.371739102862896 
2289	 0.372129766256668 
2290	 0.372528077270373 
2291	 0.372903679989436 
2292	 0.37326203209863 
2293	 0.373639340898872 
2294	 0.374029048188302 
2295	 0.374370937027256 
2296	 0.374709672731931 
2297	 0.375026362197895 
2298	 0.375305699626463 
2299	 0.375581545643974 
2300	 0.375884300824755 
2301	 0.376199063481448 
2302	 0.37648464272817 
2303	 0.376768429963583 
2304	 0.377028136644698 
2305	 0.377261179504602 
2306	 0.377488376152068 
2307	 0.377669360854846 
2308	 0.377910034657745 
2309	 0.378203642497955 
2310	 0.37841800126046 
2311	 0.378632638706752 
2312	 0.378807710367679 
2313	 0.378908730269262 
2314	 0.379003688445349 
2315	 0.379087723605042 
2316	 0.379181597805062 
2317	 0.379236388197773 
2318	 0.379318136938757 
2319	 0.379437146183686 
2320	 0.379525511075794 
2321	 0.379574604177616 
2322	 0.379664144915678 
2323	 0.379801362336567 
2324	 0.379877182693225 
2325	 0.379951389302019 
2326	 0.380000139036505 
2327	 0.38000450046524 
2328	 0.379978003437994 
2329	 0.379975170612187 
2330	 0.379975570028723 
2331	 0.379954489429309 
2332	 0.379953957919623 
2333	 0.379974057563987 
2334	 0.37996497109334 
2335	 0.37996390527066 
2336	 0.379940869692976 
2337	 0.379910857859232 
2338	 0.379902780396407 
2339	 0.379756880095481 
2340	 0.379608489936023 
2341	 0.379526434599735 
2342	 0.379309947388624 
2343	 0.379111136978774 
2344	 0.378964103447021 
2345	 0.378763423291103 
2346	 0.378476626056983 
2347	 0.3782287734529 
2348	 0.378027140618397 
2349	 0.377752848064539 
2350	 0.377440711605635 
2351	 0.377100455309293 
2352	 0.376684486338188 
2353	 0.376331389956286 
2354	 0.375964478124582 
2355	 0.37561783096857 
2356	 0.375367584450492 
2357	 0.37501525242869 
2358	 0.374601827991437 
2359	 0.374207212502991 
2360	 0.373785871696337 
2361	 0.37333912936442 
2362	 0.372890051484922 
2363	 0.372410396595636 
2364	 0.371833972364658 
2365	 0.371340317437092 
2366	 0.370911744946806 
2367	 0.370450709674939 
2368	 0.369994153103705 
2369	 0.369559718822575 
2370	 0.369166423054254 
2371	 0.368656828148174 
2372	 0.368129823508007 
2373	 0.367689609817949 
2374	 0.367149309577526 
2375	 0.366536688640016 
2376	 0.36595618616407 
2377	 0.365380260949845 
2378	 0.364791441529918 
2379	 0.364173631747181 
2380	 0.363575278951933 
2381	 0.363007930763881 
2382	 0.362454163490754 
2383	 0.361994218861268 
2384	 0.361584778440837 
2385	 0.361066065847558 
2386	 0.360523158679376 
2387	 0.359944342850088 
2388	 0.359321163734668 
2389	 0.358682670282917 
2390	 0.357968530812489 
2391	 0.357338045920322 
2392	 0.356734560231084 
2393	 0.356115109403276 
2394	 0.355545647396429 
2395	 0.354939444640271 
2396	 0.354341560010197 
2397	 0.353746409152837 
2398	 0.353149744660189 
2399	 0.352531116288909 
2400	 0.351903474872516 
2401	 0.351277673861255 
2402	 0.350679630072766 
2403	 0.350036084179805 
2404	 0.349291582221861 
2405	 0.348689970603458 
2406	 0.34808870947906 
2407	 0.347484957711195 
2408	 0.347035774419096 
2409	 0.346490523764905 
2410	 0.345888901055769 
2411	 0.345355190156091 
2412	 0.344785627505691 
2413	 0.344306034777164 
2414	 0.343819153671283 
2415	 0.343285022230337 
2416	 0.342794512366252 
2417	 0.342277572967049 
2418	 0.341767447875998 
2419	 0.341335524432427 
2420	 0.340825062737864 
2421	 0.340279402074953 
2422	 0.339753232138041 
2423	 0.339194246036988 
2424	 0.338691450954716 
2425	 0.33819530770188 
2426	 0.33763639124455 
2427	 0.337079364199892 
2428	 0.33651863512452 
2429	 0.335929042912591 
2430	 0.335533764570303 
2431	 0.335180841405654 
2432	 0.334811148282275 
2433	 0.334596150879088 
2434	 0.334175480985581 
2435	 0.333691829581022 
2436	 0.333179553145588 
2437	 0.332544800880758 
2438	 0.3319837082634 
2439	 0.331478183872341 
2440	 0.330867190519924 
2441	 0.330138086431087 
2442	 0.329531016090217 
2443	 0.328931394131545 
2444	 0.328307926959329 
2445	 0.327792992254486 
2446	 0.327306882291125 
2447	 0.326716466995912 
2448	 0.326183120153377 
2449	 0.325811433690255 
2450	 0.325280703751965 
2451	 0.32460661566017 
2452	 0.323994667550497 
2453	 0.323403013263751 
2454	 0.322860214411453 
2455	 0.322368795550971 
2456	 0.321826610965463 
2457	 0.321284614471072 
2458	 0.320703102678432 
2459	 0.320066262597383 
2460	 0.319526657752501 
2461	 0.318981683958766 
2462	 0.318497274333626 
2463	 0.31802471650921 
2464	 0.317636637291682 
2465	 0.317436110512902 
2466	 0.317041946929449 
2467	 0.316622500765921 
2468	 0.316164107003944 
2469	 0.315537366476322 
2470	 0.315128578337685 
2471	 0.314722690504685 
2472	 0.314182350604136 
2473	 0.313608349868904 
2474	 0.313092164960807 
2475	 0.31258181384963 
2476	 0.312235907533114 
2477	 0.312031188629795 
2478	 0.311462622488301 
2479	 0.310823692217491 
2480	 0.310305727486685 
2481	 0.309577457904942 
2482	 0.309081592033999 
2483	 0.308804082755839 
2484	 0.308436160509545 
2485	 0.307918596814709 
2486	 0.30728298693309 
2487	 0.306732911165104 
2488	 0.306126748316746 
2489	 0.305538364346709 
2490	 0.305209888548014 
2491	 0.304813421600358 
2492	 0.304264607864737 
2493	 0.303854731204773 
2494	 0.303329782753303 
2495	 0.302682541358683 
2496	 0.302321205327211 
2497	 0.302010037172929 
2498	 0.301549623486826 
2499	 0.301246014985966 
2500	 0.300764167512303 
