Wavelength	LMW700008.asd
350	 7.18350158757356E-02 
351	 7.01716108038712E-02 
352	 6.63756367538788E-02 
353	 6.05166582916406E-02 
354	 6.04765627063381E-02 
355	 6.26544775799478E-02 
356	 6.28344229455264E-02 
357	 5.98171381888887E-02 
358	 6.44463124403474E-02 
359	 6.61027902978889E-02 
360	 0.063699429587484 
361	 6.22678453151185E-02 
362	 5.77546000186622E-02 
363	 5.82900860280443E-02 
364	 6.43989730000389E-02 
365	 6.27558578758958E-02 
366	 6.26202644503021E-02 
367	 6.40676291687853E-02 
368	 6.48534093631027E-02 
369	 6.38524916243595E-02 
370	 6.23044946929698E-02 
371	 6.16832804771908E-02 
372	 6.31477907746356E-02 
373	 6.30798378464587E-02 
374	 6.45776213186094E-02 
375	 6.77931757885713E-02 
376	 6.62698933163457E-02 
377	 0.065612073037433 
378	 0.066133960402045 
379	 6.67835752377991E-02 
380	 6.81929936164267E-02 
381	 6.72915379320368E-02 
382	 6.62806297470178E-02 
383	 7.05317506119534E-02 
384	 7.22810579181078E-02 
385	 7.23414304611666E-02 
386	 7.22758837129564E-02 
387	 7.24975384566287E-02 
388	 7.29572207358601E-02 
389	 7.38949894605332E-02 
390	 7.53401210902675E-02 
391	 7.59498607617947E-02 
392	 7.77124495402735E-02 
393	 8.01112919817707E-02 
394	 8.06666005089756E-02 
395	 8.26870992887351E-02 
396	 8.39435697250622E-02 
397	 8.36821916417992E-02 
398	 0.086406073763268 
399	 8.85353037592168E-02 
400	 8.97229289225354E-02 
401	 0.090911638799515 
402	 9.33473598197027E-02 
403	 9.40620427490096E-02 
404	 9.39628869087454E-02 
405	 9.77708110422915E-02 
406	 9.99165189931545E-02 
407	 0.100703797075666 
408	 0.101414452516165 
409	 0.102648299309907 
410	 0.103802192685892 
411	 0.104905421192807 
412	 0.106261878332765 
413	 0.108013133831323 
414	 0.108836717578769 
415	 0.108707100231497 
416	 0.109324687616303 
417	 0.110424402939923 
418	 0.111407111966234 
419	 0.111838659481566 
420	 0.112298779027853 
421	 0.111732846118792 
422	 0.110851569867945 
423	 0.111266212281631 
424	 0.111225670602757 
425	 0.110927282857418 
426	 0.110630842988495 
427	 0.110241162987643 
428	 0.109588692324822 
429	 0.108880704621064 
430	 0.108394114396074 
431	 0.108172631730285 
432	 0.107337357915416 
433	 0.106294077139571 
434	 0.106606023445134 
435	 0.106939090906013 
436	 0.106998000882601 
437	 0.106887152253251 
438	 0.107105201832349 
439	 0.107952007343498 
440	 0.109024614996586 
441	 0.10970080058165 
442	 0.110800571197915 
443	 0.112030633182294 
444	 0.113142264433331 
445	 0.114083020280069 
446	 0.115655238048713 
447	 0.117196230480396 
448	 0.118026708682681 
449	 0.119281611582055 
450	 0.120846093560141 
451	 0.122431319049767 
452	 0.123658149917649 
453	 0.124680672396255 
454	 0.12570292906118 
455	 0.126819032637091 
456	 0.127824962104075 
457	 0.128918111348069 
458	 0.130003040699816 
459	 0.130899171944026 
460	 0.131890254796549 
461	 0.132806785100996 
462	 0.133600590943172 
463	 0.134445198336513 
464	 0.13528336445053 
465	 0.136141200053047 
466	 0.136994221572525 
467	 0.137540199401066 
468	 0.13804100310788 
469	 0.138606295029826 
470	 0.139203440275638 
471	 0.139792061068617 
472	 0.140253809539655 
473	 0.14060309024928 
474	 0.141191533578233 
475	 0.141746046102726 
476	 0.142171216949055 
477	 0.142488089665787 
478	 0.142938356740803 
479	 0.143488498651889 
480	 0.144012805733926 
481	 0.144291144391472 
482	 0.144800248218064 
483	 0.14541958881735 
484	 0.145895232951474 
485	 0.146164911536402 
486	 0.146486290101555 
487	 0.146911218668285 
488	 0.14730938038976 
489	 0.147602315093953 
490	 0.147906750045225 
491	 0.14832521140972 
492	 0.148865891603789 
493	 0.149230905180111 
494	 0.149507486531293 
495	 0.149938830876841 
496	 0.150398711523716 
497	 0.150758723163518 
498	 0.151027160049153 
499	 0.15140864309595 
500	 0.151847447820317 
501	 0.152262022733339 
502	 0.152613316649006 
503	 0.153109859838855 
504	 0.153547804489632 
505	 0.153855527645788 
506	 0.154100798641432 
507	 0.154405334747843 
508	 0.154784548601701 
509	 0.155206867383307 
510	 0.155597877948836 
511	 0.155964868968556 
512	 0.156296509893648 
513	 0.156589004159499 
514	 0.156968306575085 
515	 0.157346262108061 
516	 0.157682889551485 
517	 0.158065838529214 
518	 0.158396863335339 
519	 0.158679027187702 
520	 0.158969983219228 
521	 0.159422391940213 
522	 0.159836567091776 
523	 0.160151870196656 
524	 0.160472669913147 
525	 0.160769960403564 
526	 0.161067038066128 
527	 0.161385602333622 
528	 0.16170981035913 
529	 0.162062490872173 
530	 0.162461559611914 
531	 0.16290476264035 
532	 0.163181237889857 
533	 0.163512037436543 
534	 0.16397630261666 
535	 0.16421757096737 
536	 0.164500308660906 
537	 0.164883112678113 
538	 0.165321914259447 
539	 0.165663637304618 
540	 0.165963244244585 
541	 0.16629512482998 
542	 0.166737207285391 
543	 0.167066440136397 
544	 0.167409209920706 
545	 0.167903040364415 
546	 0.168332455439981 
547	 0.168700320078811 
548	 0.169063617902021 
549	 0.169511160302725 
550	 0.169898857886902 
551	 0.170309488883575 
552	 0.17081141985163 
553	 0.171331473701114 
554	 0.171862272320562 
555	 0.172387605924249 
556	 0.172895546145182 
557	 0.173440278448159 
558	 0.173990736897997 
559	 0.174544294254816 
560	 0.175176277266205 
561	 0.175698004125243 
562	 0.176196846936853 
563	 0.176823202268287 
564	 0.177502335109739 
565	 0.178116126196059 
566	 0.178681177897452 
567	 0.179365217140809 
568	 0.180184554498812 
569	 0.181014891434922 
570	 0.181768402717838 
571	 0.182608206328878 
572	 0.183490854446755 
573	 0.184354918341782 
574	 0.185131934360016 
575	 0.185842540966234 
576	 0.186652582590737 
577	 0.187622586322805 
578	 0.188546732359982 
579	 0.189470437481221 
580	 0.190390454445202 
581	 0.191306186703029 
582	 0.192321845797568 
583	 0.193412500501992 
584	 0.19451244438594 
585	 0.195519815228581 
586	 0.196548878031018 
587	 0.197584007117725 
588	 0.198586550832847 
589	 0.199590516108969 
590	 0.200636056703726 
591	 0.201730844829804 
592	 0.202851526028572 
593	 0.203912033210751 
594	 0.20497152894194 
595	 0.206082468183807 
596	 0.207201393348907 
597	 0.20836349976286 
598	 0.209535805505931 
599	 0.210654107849736 
600	 0.211693190005263 
601	 0.212718337268593 
602	 0.213733917983966 
603	 0.214611962686818 
604	 0.215516261912936 
605	 0.216465898693224 
606	 0.217415732739445 
607	 0.218278431451144 
608	 0.219133290975503 
609	 0.22003628989694 
610	 0.221003305861449 
611	 0.221833514161185 
612	 0.222615850301508 
613	 0.223444206348546 
614	 0.224179208182366 
615	 0.224872689807294 
616	 0.225553138074915 
617	 0.226223705771487 
618	 0.226827338493593 
619	 0.227364682914937 
620	 0.227869135063967 
621	 0.228423968073957 
622	 0.22895075219113 
623	 0.229449441692204 
624	 0.229944713779762 
625	 0.230402549207329 
626	 0.230853334786709 
627	 0.231287804321557 
628	 0.231636952311216 
629	 0.232087071473598 
630	 0.232562907930304 
631	 0.232954009783735 
632	 0.233316184694299 
633	 0.233670969051598 
634	 0.234044409152283 
635	 0.234459698806405 
636	 0.234831021792911 
637	 0.235185922586091 
638	 0.235538775026294 
639	 0.235809133977521 
640	 0.236120649790991 
641	 0.236484205000108 
642	 0.236858451146049 
643	 0.237258834890351 
644	 0.237650048296311 
645	 0.238019562047973 
646	 0.238394222689199 
647	 0.238716663029123 
648	 0.239013997411737 
649	 0.239339190684451 
650	 0.239737145532263 
651	 0.240142327789119 
652	 0.240519196005207 
653	 0.240868589412447 
654	 0.241301555898278 
655	 0.241687551460941 
656	 0.241973769082897 
657	 0.24241253327981 
658	 0.242870926621185 
659	 0.243305675521385 
660	 0.243711958604747 
661	 0.244062491093083 
662	 0.244490319840226 
663	 0.245011207381892 
664	 0.245451893533068 
665	 0.245901680669584 
666	 0.246389940483996 
667	 0.246902171917091 
668	 0.247296964685824 
669	 0.247760000508924 
670	 0.248312498330819 
671	 0.248829461997869 
672	 0.249286815978008 
673	 0.249796483046675 
674	 0.250394749429448 
675	 0.250872896862769 
676	 0.251417413694832 
677	 0.251983946169434 
678	 0.252463045922255 
679	 0.25303175570069 
680	 0.253632296345153 
681	 0.254235197889655 
682	 0.254876950988933 
683	 0.25546102625619 
684	 0.256041154383882 
685	 0.256681114698103 
686	 0.257334443356224 
687	 0.257947703694978 
688	 0.258549288134741 
689	 0.259215178572589 
690	 0.259838548297096 
691	 0.26042000040323 
692	 0.261015757891111 
693	 0.261773156600322 
694	 0.262473839335469 
695	 0.263114873109997 
696	 0.263763194147624 
697	 0.264370650467834 
698	 0.265074716241099 
699	 0.265858597525037 
700	 0.266538459333306 
701	 0.26716010724614 
702	 0.267812721131807 
703	 0.268517860134842 
704	 0.269056980059818 
705	 0.269737646025073 
706	 0.270488898997261 
707	 0.271079729669458 
708	 0.271759818662376 
709	 0.272437628314612 
710	 0.27306208087295 
711	 0.273691334195925 
712	 0.274314068833113 
713	 0.274933088876259 
714	 0.2755507774172 
715	 0.276154438084859 
716	 0.27676436962025 
717	 0.277362097617295 
718	 0.277907047402547 
719	 0.278468220058807 
720	 0.279001084835707 
721	 0.279474585457642 
722	 0.27990744756678 
723	 0.280387787856755 
724	 0.280908256189757 
725	 0.281409097600705 
726	 0.281770055715176 
727	 0.282147063591752 
728	 0.282546219090224 
729	 0.282830987511937 
730	 0.283141834461345 
731	 0.283434545793493 
732	 0.283670916455225 
733	 0.283904755834983 
734	 0.284158396439611 
735	 0.284380480044726 
736	 0.28451009211498 
737	 0.284642786920844 
738	 0.284749700008456 
739	 0.284822714774241 
740	 0.284884622061235 
741	 0.284888169210607 
742	 0.284881830948501 
743	 0.284885646961995 
744	 0.2847851361064 
745	 0.284653799105413 
746	 0.284527960095905 
747	 0.284407039711872 
748	 0.284159014124892 
749	 0.283954630638538 
750	 0.283814154831912 
751	 0.28354876752811 
752	 0.283263826206779 
753	 0.28295040066492 
754	 0.282598382288184 
755	 0.282259930597871 
756	 0.281970836752788 
757	 0.281648015320825 
758	 0.281179071360375 
759	 0.280727648308997 
760	 0.280238828807584 
761	 0.279716256548543 
762	 0.279258331810878 
763	 0.278838434942408 
764	 0.278376122192309 
765	 0.277830967337603 
766	 0.277312837043562 
767	 0.276800760181154 
768	 0.276247565591974 
769	 0.275622288898701 
770	 0.275119496864992 
771	 0.274595082790427 
772	 0.273991988185641 
773	 0.273394156110246 
774	 0.272813391204703 
775	 0.272218999524061 
776	 0.271589567491263 
777	 0.270955993568635 
778	 0.270358479841706 
779	 0.269760298190062 
780	 0.269103464887554 
781	 0.268445996623633 
782	 0.267833911005535 
783	 0.267241581030961 
784	 0.266579622953774 
785	 0.266010780240892 
786	 0.265454906000522 
787	 0.264837100273956 
788	 0.26420767500872 
789	 0.263555329428858 
790	 0.262938850707215 
791	 0.262405338917569 
792	 0.261816528194117 
793	 0.261210393244073 
794	 0.260590088471635 
795	 0.259932068599708 
796	 0.259340818159642 
797	 0.258823727059095 
798	 0.258320044424887 
799	 0.257672330024553 
800	 0.257152071008996 
801	 0.256680885950961 
802	 0.256114227130694 
803	 0.255491507184042 
804	 0.254970404528331 
805	 0.254517030302883 
806	 0.25398943191785 
807	 0.253471569816268 
808	 0.25292444185526 
809	 0.252362542170082 
810	 0.251877892053304 
811	 0.251385472860602 
812	 0.250928662358222 
813	 0.250528810183067 
814	 0.250079225593883 
815	 0.249575375177942 
816	 0.249077003471562 
817	 0.248649063572174 
818	 0.248203377087318 
819	 0.24782337987445 
820	 0.247465364976668 
821	 0.246990464775427 
822	 0.246553554025652 
823	 0.246198092351788 
824	 0.245866951115771 
825	 0.245372150708495 
826	 0.244943047189335 
827	 0.244593775833182 
828	 0.244271713526012 
829	 0.243924403830116 
830	 0.243528606123077 
831	 0.24312610221975 
832	 0.242784206872229 
833	 0.242504843878574 
834	 0.242222689891073 
835	 0.241935256626678 
836	 0.241694471395709 
837	 0.24137320956303 
838	 0.241076372513495 
839	 0.240847390638926 
840	 0.240561453539994 
841	 0.240309320727559 
842	 0.240037062365081 
843	 0.239712262359873 
844	 0.239486219219034 
845	 0.239333768708311 
846	 0.239156720699811 
847	 0.238872622830828 
848	 0.238695689272272 
849	 0.238487602682772 
850	 0.238247987321167 
851	 0.238092826056082 
852	 0.237861092814796 
853	 0.237673509344601 
854	 0.237570308109648 
855	 0.237421965025993 
856	 0.237362196994334 
857	 0.237283629772807 
858	 0.237098010298331 
859	 0.236896402063945 
860	 0.236782095141234 
861	 0.236689096684957 
862	 0.23653402500065 
863	 0.236471052191404 
864	 0.23637258302505 
865	 0.236285197513195 
866	 0.236321404038251 
867	 0.236217794152227 
868	 0.236174421081949 
869	 0.236203218246421 
870	 0.236100333184253 
871	 0.23599148454633 
872	 0.235930804905115 
873	 0.235950884975926 
874	 0.236066354089575 
875	 0.236083603282532 
876	 0.23606917690939 
877	 0.236109548879449 
878	 0.236148714031682 
879	 0.236271158398266 
880	 0.236339135061028 
881	 0.236241688135425 
882	 0.236298440731092 
883	 0.236378139819144 
884	 0.236435134853896 
885	 0.236489242171214 
886	 0.236608452174991 
887	 0.23675828825554 
888	 0.236885365642088 
889	 0.236939913082189 
890	 0.236966241346894 
891	 0.237072170685038 
892	 0.237295395137471 
893	 0.237566031471453 
894	 0.237626336822217 
895	 0.237655771220985 
896	 0.237831574221955 
897	 0.238155504460122 
898	 0.238432494299767 
899	 0.238603576058624 
900	 0.238702396850963 
901	 0.238873571359377 
902	 0.239111042524238 
903	 0.239355807988609 
904	 0.239559985289868 
905	 0.239800623229694 
906	 0.240097655096322 
907	 0.240432935066466 
908	 0.240752802763065 
909	 0.240937419954534 
910	 0.241173992382425 
911	 0.241483078489807 
912	 0.241764556021485 
913	 0.242004789725745 
914	 0.242262568212267 
915	 0.242596378223863 
916	 0.243026995138248 
917	 0.24330925453848 
918	 0.243644360789234 
919	 0.244117872663969 
920	 0.244605505150189 
921	 0.245007833334959 
922	 0.245278870409989 
923	 0.245512641731213 
924	 0.245961068612455 
925	 0.246443216843236 
926	 0.246906129038493 
927	 0.247345423823219 
928	 0.247794088095012 
929	 0.248311220019886 
930	 0.248853859445186 
931	 0.249348090383786 
932	 0.249725353410415 
933	 0.250066478954629 
934	 0.250535116317375 
935	 0.251185000676749 
936	 0.251707425278355 
937	 0.252283986103721 
938	 0.252804726783387 
939	 0.253186975564012 
940	 0.253760667660162 
941	 0.254318073536159 
942	 0.254917256418578 
943	 0.255641300905913 
944	 0.256244982424371 
945	 0.25686032501552 
946	 0.257501394182569 
947	 0.258119332213717 
948	 0.258661303630056 
949	 0.259269429010178 
950	 0.259916694623723 
951	 0.260527548052339 
952	 0.261269661934792 
953	 0.2620393767031 
954	 0.262712296587247 
955	 0.263248057025285 
956	 0.264031991741357 
957	 0.264731444843574 
958	 0.265363471373595 
959	 0.266133276573182 
960	 0.266846085127563 
961	 0.267591001487991 
962	 0.26839857201604 
963	 0.269223164465712 
964	 0.269903681994542 
965	 0.270613013218129 
966	 0.271394934788623 
967	 0.272188553021256 
968	 0.27297948838406 
969	 0.2737885916925 
970	 0.274571935917715 
971	 0.27528784989977 
972	 0.276186482081463 
973	 0.277121008245892 
974	 0.278050421105665 
975	 0.279000645588062 
976	 0.279818073111944 
977	 0.280612817458596 
978	 0.281460731706071 
979	 0.282360477614726 
980	 0.283131618565686 
981	 0.283841095875161 
982	 0.284633242807276 
983	 0.285611039771947 
984	 0.286503998985243 
985	 0.287337973704374 
986	 0.288199743772651 
987	 0.28915438268055 
988	 0.290050841256547 
989	 0.290887959595221 
990	 0.291805745481408 
991	 0.292880307246253 
992	 0.29362845059705 
993	 0.294314795237692 
994	 0.295190904046091 
995	 0.296323316853611 
996	 0.297209772842032 
997	 0.298083484947806 
998	 0.298942831827735 
999	 0.299770491156297 
1000	 0.300853256470824 
1001	 0.304899676729533 
1002	 0.305840628926802 
1003	 0.306720519883452 
1004	 0.30759256627934 
1005	 0.308434589140447 
1006	 0.309304791656052 
1007	 0.310170873940404 
1008	 0.31106233161893 
1009	 0.311961705939102 
1010	 0.312771885484489 
1011	 0.313522086833061 
1012	 0.314323891361199 
1013	 0.315099133059882 
1014	 0.315847319292259 
1015	 0.316614548913301 
1016	 0.317398468215478 
1017	 0.318194195809955 
1018	 0.318980564591314 
1019	 0.319788858021194 
1020	 0.320628603378024 
1021	 0.321399723133691 
1022	 0.322153005493809 
1023	 0.322911551091338 
1024	 0.323647132518 
1025	 0.324410981491563 
1026	 0.32514572961017 
1027	 0.325846158155594 
1028	 0.326556082415589 
1029	 0.327260252975804 
1030	 0.327994955995323 
1031	 0.328737809279035 
1032	 0.329515473341545 
1033	 0.330280009185079 
1034	 0.331038605373102 
1035	 0.331760021603182 
1036	 0.332445726418058 
1037	 0.333142270366567 
1038	 0.333847324676933 
1039	 0.334529503572747 
1040	 0.335182616341725 
1041	 0.335878800285876 
1042	 0.336610271038639 
1043	 0.337309985494227 
1044	 0.338014411084775 
1045	 0.338747044832479 
1046	 0.339482489352079 
1047	 0.340168745537883 
1048	 0.340865990808935 
1049	 0.341587086078518 
1050	 0.342289319505736 
1051	 0.342977235686725 
1052	 0.343648788231086 
1053	 0.34436461446088 
1054	 0.345099017484392 
1055	 0.345764283069986 
1056	 0.346452046562762 
1057	 0.347107677237792 
1058	 0.347682951010878 
1059	 0.348298433968915 
1060	 0.348930588439633 
1061	 0.349547721655892 
1062	 0.350186026329514 
1063	 0.350852481239728 
1064	 0.351464576592334 
1065	 0.352069473655253 
1066	 0.352628935614242 
1067	 0.353162159116068 
1068	 0.353737678183172 
1069	 0.354287747133103 
1070	 0.354825722542598 
1071	 0.355344431856196 
1072	 0.355901397552783 
1073	 0.356456987619548 
1074	 0.357001203186531 
1075	 0.35756728941874 
1076	 0.358127047668119 
1077	 0.358624861075149 
1078	 0.359142604193644 
1079	 0.359730084648665 
1080	 0.360244689796176 
1081	 0.360722510464051 
1082	 0.361258493241513 
1083	 0.361758285879297 
1084	 0.362237853416485 
1085	 0.362697783328529 
1086	 0.363105516287204 
1087	 0.36355850951944 
1088	 0.364001286062427 
1089	 0.364471142441328 
1090	 0.364954352769895 
1091	 0.365482643012428 
1092	 0.365983002575273 
1093	 0.366464075287882 
1094	 0.366976879978977 
1095	 0.367466474376996 
1096	 0.367948764827057 
1097	 0.36844015012471 
1098	 0.368937199746835 
1099	 0.369440933293029 
1100	 0.369959063446737 
1101	 0.370468187775359 
1102	 0.371005093652674 
1103	 0.371573701116404 
1104	 0.372131857218819 
1105	 0.372662608042673 
1106	 0.373214333319552 
1107	 0.373750721909586 
1108	 0.374271639042831 
1109	 0.374803282156033 
1110	 0.375359041909317 
1111	 0.375923967891232 
1112	 0.376465610566335 
1113	 0.377064616935391 
1114	 0.377747011988915 
1115	 0.37835220825087 
1116	 0.378957765492882 
1117	 0.379549603495962 
1118	 0.380106549701656 
1119	 0.38063190268724 
1120	 0.381239893341815 
1121	 0.381828317442189 
1122	 0.382377736880691 
1123	 0.38297359196139 
1124	 0.38356567071109 
1125	 0.384152966577264 
1126	 0.384731834268441 
1127	 0.38532612815877 
1128	 0.38590715758026 
1129	 0.386458551893453 
1130	 0.387023911945722 
1131	 0.387595879608888 
1132	 0.388180124876655 
1133	 0.388776757335907 
1134	 0.389360119647383 
1135	 0.389955346238506 
1136	 0.390541594592843 
1137	 0.391092397993239 
1138	 0.391627450700591 
1139	 0.392185671069461 
1140	 0.392740125216996 
1141	 0.393308171250056 
1142	 0.393914147396305 
1143	 0.394469365853657 
1144	 0.395020358378061 
1145	 0.395540191492509 
1146	 0.395995650172051 
1147	 0.396498513562471 
1148	 0.397013632579033 
1149	 0.397518987708131 
1150	 0.398041486696444 
1151	 0.398558129474205 
1152	 0.399059162205909 
1153	 0.399559363240768 
1154	 0.400043861832798 
1155	 0.400520502191797 
1156	 0.401003619416503 
1157	 0.401472191978575 
1158	 0.401947020849792 
1159	 0.402459008704664 
1160	 0.402915392291953 
1161	 0.403328920082035 
1162	 0.403765114535058 
1163	 0.404167431059173 
1164	 0.404601077483429 
1165	 0.405067262840109 
1166	 0.405526952164754 
1167	 0.405985364627247 
1168	 0.406468070864306 
1169	 0.406907043235876 
1170	 0.407334748744811 
1171	 0.407748652377922 
1172	 0.408139013303766 
1173	 0.408520452201106 
1174	 0.408885541155013 
1175	 0.409261140986243 
1176	 0.409622589832058 
1177	 0.409993408167293 
1178	 0.41038322753504 
1179	 0.410756609247189 
1180	 0.411127818290965 
1181	 0.411487729277032 
1182	 0.411836902630834 
1183	 0.412183306708782 
1184	 0.412524538790355 
1185	 0.412855044773993 
1186	 0.413189357798039 
1187	 0.413514417413117 
1188	 0.413859786537797 
1189	 0.414219763000342 
1190	 0.414563954305281 
1191	 0.414923391084525 
1192	 0.415259259946357 
1193	 0.415572108098991 
1194	 0.41588791908828 
1195	 0.416196888213212 
1196	 0.41650580669449 
1197	 0.416811521248447 
1198	 0.417114591739321 
1199	 0.417415447610223 
1200	 0.417715871425267 
1201	 0.418010518623639 
1202	 0.418306734316596 
1203	 0.418585176340733 
1204	 0.418848957736211 
1205	 0.419121583480634 
1206	 0.419373635109642 
1207	 0.419654725120087 
1208	 0.419972386792248 
1209	 0.420253953376813 
1210	 0.420532082862835 
1211	 0.420804424641491 
1212	 0.421045360601071 
1213	 0.421302669610175 
1214	 0.421575793887067 
1215	 0.421839915337119 
1216	 0.422101645249089 
1217	 0.422365249602056 
1218	 0.422617429471207 
1219	 0.422864053290402 
1220	 0.423104647672844 
1221	 0.423327011117388 
1222	 0.42357227267308 
1223	 0.423823410366982 
1224	 0.424073734064907 
1225	 0.424348265430323 
1226	 0.42459656098276 
1227	 0.424835444939359 
1228	 0.42506424633749 
1229	 0.425274775519096 
1230	 0.425487777301428 
1231	 0.425694334637849 
1232	 0.42589704698415 
1233	 0.426097042248155 
1234	 0.426295754860032 
1235	 0.426493424394754 
1236	 0.426676370310328 
1237	 0.426889191908754 
1238	 0.427123887363779 
1239	 0.427338184881626 
1240	 0.42756884430944 
1241	 0.427776579748754 
1242	 0.427957630319777 
1243	 0.428147842450746 
1244	 0.428338853487874 
1245	 0.428523662529235 
1246	 0.428700405367437 
1247	 0.428882086527047 
1248	 0.429062953624537 
1249	 0.429244749540882 
1250	 0.42941422530474 
1251	 0.429595581388248 
1252	 0.429779638997717 
1253	 0.429961031230356 
1254	 0.430146206327496 
1255	 0.430347757747631 
1256	 0.430532498423053 
1257	 0.430707315562636 
1258	 0.430886881219832 
1259	 0.431067593179999 
1260	 0.431241044741391 
1261	 0.431415806518501 
1262	 0.431580292149123 
1263	 0.43172687921694 
1264	 0.431883366416069 
1265	 0.432047404743255 
1266	 0.432201158943804 
1267	 0.4323454052239 
1268	 0.432503163532159 
1269	 0.432655671912825 
1270	 0.432793352445655 
1271	 0.432952620112185 
1272	 0.433125089288062 
1273	 0.433297220274512 
1274	 0.433466278799351 
1275	 0.433656945419452 
1276	 0.433866994124196 
1277	 0.434070153944166 
1278	 0.434295917369989 
1279	 0.434500357932806 
1280	 0.434691494649833 
1281	 0.434880012713073 
1282	 0.435066423570867 
1283	 0.435239983258976 
1284	 0.435410402676224 
1285	 0.435566900884521 
1286	 0.435693926613756 
1287	 0.435811233065169 
1288	 0.435927023731612 
1289	 0.436032125733383 
1290	 0.4361223906951 
1291	 0.436210901768001 
1292	 0.436278786649646 
1293	 0.436334694233932 
1294	 0.436357438933522 
1295	 0.436351515646313 
1296	 0.43635024664972 
1297	 0.436309134705803 
1298	 0.436289549688365 
1299	 0.43630042689107 
1300	 0.436275541312267 
1301	 0.436237398700308 
1302	 0.436191528035176 
1303	 0.436134381175416 
1304	 0.436053267305819 
1305	 0.435963408494065 
1306	 0.435866302884551 
1307	 0.435748541737745 
1308	 0.435639246911746 
1309	 0.43555282202713 
1310	 0.435475865670404 
1311	 0.435419277402169 
1312	 0.435397855587669 
1313	 0.435342671347019 
1314	 0.435293260416473 
1315	 0.435227338324162 
1316	 0.435113087615321 
1317	 0.435064701774739 
1318	 0.435048565613653 
1319	 0.43502433785724 
1320	 0.43503144281982 
1321	 0.435026392437304 
1322	 0.43500614640268 
1323	 0.4349914182518 
1324	 0.435010382416468 
1325	 0.435041125282958 
1326	 0.435056336140527 
1327	 0.435085730784703 
1328	 0.43510118465361 
1329	 0.435104231062176 
1330	 0.435142189943164 
1331	 0.435195848133587 
1332	 0.435261849578223 
1333	 0.435350882370888 
1334	 0.435441003631926 
1335	 0.435526163106503 
1336	 0.435646035172857 
1337	 0.435793420538847 
1338	 0.435935623923306 
1339	 0.436110666724796 
1340	 0.436259284265629 
1341	 0.436401888020026 
1342	 0.436530021386881 
1343	 0.436640506201056 
1344	 0.436753776568538 
1345	 0.436867798009604 
1346	 0.436978367188341 
1347	 0.437105486546601 
1348	 0.437232439452399 
1349	 0.437332490056176 
1350	 0.437412517825206 
1351	 0.437493511458506 
1352	 0.437545055590648 
1353	 0.437632270430117 
1354	 0.437741503822638 
1355	 0.437833248833687 
1356	 0.437935075969794 
1357	 0.438023139980374 
1358	 0.438090642642575 
1359	 0.438168650890869 
1360	 0.43823198582179 
1361	 0.438328907856553 
1362	 0.438450981083789 
1363	 0.438562793851467 
1364	 0.438708971696137 
1365	 0.438823481732714 
1366	 0.438906112256729 
1367	 0.438996764979501 
1368	 0.439107823145195 
1369	 0.439201901197345 
1370	 0.439316375080899 
1371	 0.439401377443173 
1372	 0.439422311399287 
1373	 0.439428026373203 
1374	 0.439404378151786 
1375	 0.439338936697639 
1376	 0.439263103357794 
1377	 0.439166507821649 
1378	 0.439054314642729 
1379	 0.438911375563388 
1380	 0.438772272112228 
1381	 0.43863305088132 
1382	 0.438472461444806 
1383	 0.438305932585117 
1384	 0.438111004177334 
1385	 0.437923160885719 
1386	 0.437665509978689 
1387	 0.437364021654166 
1388	 0.437035256060594 
1389	 0.436661506130198 
1390	 0.436246734185411 
1391	 0.43581733421771 
1392	 0.435351615681027 
1393	 0.434843934863165 
1394	 0.434297872586 
1395	 0.433713321074709 
1396	 0.433120563404783 
1397	 0.432535009946249 
1398	 0.431935838424891 
1399	 0.431336191789234 
1400	 0.430746420207315 
1401	 0.430138335004668 
1402	 0.429511742973757 
1403	 0.428892806781959 
1404	 0.428256193827214 
1405	 0.427653731111339 
1406	 0.42706038679635 
1407	 0.426478818258784 
1408	 0.425913077408802 
1409	 0.425365799882102 
1410	 0.424819423768145 
1411	 0.424305595770371 
1412	 0.423798805898479 
1413	 0.423354525819041 
1414	 0.422958644753797 
1415	 0.422579757842006 
1416	 0.422251940862488 
1417	 0.421948793078269 
1418	 0.421638813435172 
1419	 0.421343276294759 
1420	 0.421076555076762 
1421	 0.420828688871794 
1422	 0.420586018154209 
1423	 0.420349545539904 
1424	 0.420099450336977 
1425	 0.419837153243262 
1426	 0.419578788463323 
1427	 0.419313647232447 
1428	 0.419064685957088 
1429	 0.418817546477558 
1430	 0.418589112171823 
1431	 0.418377754597315 
1432	 0.418159164392982 
1433	 0.417933716204678 
1434	 0.417737963416629 
1435	 0.417548969461138 
1436	 0.417377422494948 
1437	 0.417244596307202 
1438	 0.417104050546861 
1439	 0.416971936384448 
1440	 0.416835176013644 
1441	 0.41667917647573 
1442	 0.41652841129493 
1443	 0.416375348553988 
1444	 0.416237441122379 
1445	 0.416128908145474 
1446	 0.41600902941417 
1447	 0.415890866788008 
1448	 0.4157450806009 
1449	 0.41557215322141 
1450	 0.415408367764642 
1451	 0.415240112154641 
1452	 0.415056491371264 
1453	 0.414886280456945 
1454	 0.414721641970439 
1455	 0.414557181866296 
1456	 0.414399098002378 
1457	 0.414227332178928 
1458	 0.414045370669084 
1459	 0.413883255784037 
1460	 0.413705794006693 
1461	 0.413558877552675 
1462	 0.41343629554151 
1463	 0.413325687712206 
1464	 0.413224735669555 
1465	 0.413148958469927 
1466	 0.41308715346452 
1467	 0.413057816781834 
1468	 0.413047958400689 
1469	 0.413066540356393 
1470	 0.413117501974069 
1471	 0.413194323288274 
1472	 0.413278314343287 
1473	 0.413407781572917 
1474	 0.413567838778297 
1475	 0.413753864178621 
1476	 0.413982728359853 
1477	 0.414245132625445 
1478	 0.414540451739556 
1479	 0.414826806727454 
1480	 0.415113007761121 
1481	 0.41541602702097 
1482	 0.415705286845152 
1483	 0.415974687307992 
1484	 0.416286063862816 
1485	 0.41661343202079 
1486	 0.416937676162463 
1487	 0.417295388135848 
1488	 0.417614976119838 
1489	 0.417923546855942 
1490	 0.418214877629732 
1491	 0.418489611639179 
1492	 0.418756165954599 
1493	 0.419006856032074 
1494	 0.419250562401944 
1495	 0.419488337183527 
1496	 0.419707631137798 
1497	 0.419902361344633 
1498	 0.420106484707418 
1499	 0.420306975911464 
1500	 0.420498515389934 
1501	 0.420684453362601 
1502	 0.420873473181163 
1503	 0.421053351278723 
1504	 0.421231819581715 
1505	 0.421432356286864 
1506	 0.421641145652816 
1507	 0.421843283095473 
1508	 0.422035862834917 
1509	 0.422203546786245 
1510	 0.422365404634738 
1511	 0.42250233985048 
1512	 0.422636468870665 
1513	 0.4228183165432 
1514	 0.42299267566734 
1515	 0.423182736684152 
1516	 0.42338583044955 
1517	 0.42354749853329 
1518	 0.423674325984338 
1519	 0.423819899389631 
1520	 0.423950132595267 
1521	 0.424094931600778 
1522	 0.42424977875806 
1523	 0.424403245755674 
1524	 0.424558014419335 
1525	 0.42471460041169 
1526	 0.424879352717194 
1527	 0.425033831267369 
1528	 0.425173351203715 
1529	 0.425331647786136 
1530	 0.425496979861605 
1531	 0.425663567662765 
1532	 0.425860598684453 
1533	 0.426019082459419 
1534	 0.42615208815724 
1535	 0.42628994398183 
1536	 0.426408627116882 
1537	 0.426531287380669 
1538	 0.42665998175728 
1539	 0.426785224765597 
1540	 0.426890358572788 
1541	 0.427020257171773 
1542	 0.427184403494562 
1543	 0.427313629372701 
1544	 0.427438861906646 
1545	 0.427557912422778 
1546	 0.427653336632549 
1547	 0.42773524794517 
1548	 0.42785854490163 
1549	 0.427983483909569 
1550	 0.428097583682127 
1551	 0.428216615794939 
1552	 0.428310896593311 
1553	 0.428388526557248 
1554	 0.428486082874906 
1555	 0.42859459002525 
1556	 0.428720819886846 
1557	 0.428846538281084 
1558	 0.42894778906554 
1559	 0.42905651364663 
1560	 0.429169107277134 
1561	 0.429268964114624 
1562	 0.429394491829386 
1563	 0.42954422538067 
1564	 0.429671950314627 
1565	 0.429799697694623 
1566	 0.429928157986158 
1567	 0.43005619100856 
1568	 0.430169939989075 
1569	 0.4302841371352 
1570	 0.430383411099261 
1571	 0.430462362930472 
1572	 0.430548551789514 
1573	 0.430623386354535 
1574	 0.430713906010428 
1575	 0.430811972486595 
1576	 0.430902614741345 
1577	 0.431015192539023 
1578	 0.431093859655729 
1579	 0.431146179864394 
1580	 0.431204377719351 
1581	 0.431245200462356 
1582	 0.431294819077139 
1583	 0.431347566369657 
1584	 0.431402620193327 
1585	 0.43144584405804 
1586	 0.431512945993628 
1587	 0.431615296591424 
1588	 0.431681550315369 
1589	 0.431752192652952 
1590	 0.43180170564979 
1591	 0.431801624603163 
1592	 0.431833043836478 
1593	 0.431860177793768 
1594	 0.431913447635517 
1595	 0.431989234008888 
1596	 0.432072088882191 
1597	 0.432189578042569 
1598	 0.432283315737173 
1599	 0.432394468139281 
1600	 0.432464927880784 
1601	 0.432496684321954 
1602	 0.432531304698158 
1603	 0.432528083346488 
1604	 0.432547349151608 
1605	 0.432569049954601 
1606	 0.432606227261777 
1607	 0.432671035197387 
1608	 0.432724192278144 
1609	 0.432756834402134 
1610	 0.432813092625873 
1611	 0.432833412063649 
1612	 0.432832880725243 
1613	 0.432839091187762 
1614	 0.432821303377314 
1615	 0.432814402437596 
1616	 0.432817029800336 
1617	 0.432834344410894 
1618	 0.432894823285309 
1619	 0.432943699951476 
1620	 0.432990423714606 
1621	 0.433023417489634 
1622	 0.433045808432644 
1623	 0.43306290237543 
1624	 0.433066001133588 
1625	 0.433084774158254 
1626	 0.43309299616833 
1627	 0.433141099417855 
1628	 0.433227887609892 
1629	 0.433268896185788 
1630	 0.433315156852716 
1631	 0.433347215808947 
1632	 0.433338626510439 
1633	 0.433364387285255 
1634	 0.433412418172851 
1635	 0.43344439866393 
1636	 0.433474512431879 
1637	 0.433502035166797 
1638	 0.43352005350733 
1639	 0.433554121585664 
1640	 0.433600552660237 
1641	 0.433628338985708 
1642	 0.43365780459364 
1643	 0.433682353113051 
1644	 0.43368817007437 
1645	 0.433705107535466 
1646	 0.433734237426045 
1647	 0.433750243953227 
1648	 0.433759831294006 
1649	 0.433767202445105 
1650	 0.433764593190593 
1651	 0.433773881078035 
1652	 0.433800382764171 
1653	 0.433789308074015 
1654	 0.433759687427679 
1655	 0.433745284456436 
1656	 0.433707110723836 
1657	 0.433688009763632 
1658	 0.433688219101215 
1659	 0.433693761211942 
1660	 0.433693515642752 
1661	 0.433711841867429 
1662	 0.433762794177698 
1663	 0.433791268660771 
1664	 0.433822976539748 
1665	 0.433835396192519 
1666	 0.433831314038607 
1667	 0.433832170910579 
1668	 0.433825872508704 
1669	 0.433813389113352 
1670	 0.433803756776305 
1671	 0.433781178037465 
1672	 0.433731801901242 
1673	 0.43370960710224 
1674	 0.433695108773643 
1675	 0.433681316898977 
1676	 0.433668049406142 
1677	 0.433681786748745 
1678	 0.433710094150625 
1679	 0.433738702642632 
1680	 0.433817124040193 
1681	 0.433828348936688 
1682	 0.433790773381652 
1683	 0.433783031103545 
1684	 0.43375487410818 
1685	 0.433741505120932 
1686	 0.433752511902298 
1687	 0.43375112737487 
1688	 0.433748779325095 
1689	 0.433729886315499 
1690	 0.433697193561922 
1691	 0.433683369417567 
1692	 0.433664979368765 
1693	 0.433643840516387 
1694	 0.433643432694185 
1695	 0.43362432893504 
1696	 0.433574666424587 
1697	 0.433551204761083 
1698	 0.433546436656656 
1699	 0.433527014480173 
1700	 0.433514619739631 
1701	 0.4334847716197 
1702	 0.433441970771691 
1703	 0.433392888459379 
1704	 0.433323855048884 
1705	 0.433275133524212 
1706	 0.433218219630872 
1707	 0.43318935664277 
1708	 0.433201587507146 
1709	 0.433173580223639 
1710	 0.433122660284289 
1711	 0.433107683131708 
1712	 0.433095314752752 
1713	 0.43307944391844 
1714	 0.43311594928482 
1715	 0.433084435270061 
1716	 0.432986946249444 
1717	 0.432936671100373 
1718	 0.432876622939273 
1719	 0.432834745830828 
1720	 0.432825841681275 
1721	 0.432800636081541 
1722	 0.432775482823172 
1723	 0.432741014263452 
1724	 0.432701960330037 
1725	 0.432662071400129 
1726	 0.432612382098479 
1727	 0.4325703007468 
1728	 0.432544840831646 
1729	 0.432479834916857 
1730	 0.432396263844502 
1731	 0.432313354079428 
1732	 0.432215355973468 
1733	 0.432105039119999 
1734	 0.431989761961713 
1735	 0.431864247759177 
1736	 0.431714701049884 
1737	 0.43158425211354 
1738	 0.431453388883847 
1739	 0.431333075294731 
1740	 0.431214685570251 
1741	 0.43110233340219 
1742	 0.431005587796326 
1743	 0.430913826328901 
1744	 0.430826254403563 
1745	 0.430721663664442 
1746	 0.4306215184689 
1747	 0.430499639357898 
1748	 0.430398150165238 
1749	 0.430267769231653 
1750	 0.43012787804644 
1751	 0.430015323892422 
1752	 0.429901692675341 
1753	 0.429798149148375 
1754	 0.429712353895758 
1755	 0.429637553364724 
1756	 0.429530808958072 
1757	 0.429402686783557 
1758	 0.429289084895422 
1759	 0.429136667525794 
1760	 0.428962812076079 
1761	 0.428860421978415 
1762	 0.428770556154138 
1763	 0.428648482268638 
1764	 0.428568415082271 
1765	 0.428508331388198 
1766	 0.428423601907082 
1767	 0.428355843614913 
1768	 0.428287639747848 
1769	 0.428191543887533 
1770	 0.428074971167972 
1771	 0.42795133843658 
1772	 0.427827676012347 
1773	 0.427683367539724 
1774	 0.427581333106701 
1775	 0.427490843659005 
1776	 0.427411180215033 
1777	 0.427381927857771 
1778	 0.427319748515862 
1779	 0.427296836105356 
1780	 0.427299222930422 
1781	 0.427266826404078 
1782	 0.427245034997367 
1783	 0.427199436489227 
1784	 0.427131685213758 
1785	 0.42703006370828 
1786	 0.426941854742314 
1787	 0.426824232095672 
1788	 0.426744054697023 
1789	 0.426716780491145 
1790	 0.426653651978658 
1791	 0.426578634218678 
1792	 0.4265073175431 
1793	 0.426412274765301 
1794	 0.426341248804937 
1795	 0.426312628326102 
1796	 0.426248036632695 
1797	 0.426162011132101 
1798	 0.426072660380672 
1799	 0.425961300232392 
1800	 0.425867263640331 
1801	 0.42781927747366 
1802	 0.427845964692866 
1803	 0.427879695526127 
1804	 0.427926521127446 
1805	 0.427956918445696 
1806	 0.427984744778085 
1807	 0.42800681641689 
1808	 0.427995626648827 
1809	 0.427956922995452 
1810	 0.427916179436015 
1811	 0.427862045593943 
1812	 0.427786209978566 
1813	 0.427710227337993 
1814	 0.42759604824603 
1815	 0.427453764297118 
1816	 0.427329356906023 
1817	 0.427220320976177 
1818	 0.427113253027608 
1819	 0.427009644820821 
1820	 0.426933138335764 
1821	 0.4268408523623 
1822	 0.426691090410595 
1823	 0.426562180519745 
1824	 0.426435806167803 
1825	 0.426249571326752 
1826	 0.426085541458767 
1827	 0.425907050610556 
1828	 0.425669627697155 
1829	 0.425377321166397 
1830	 0.425093021788884 
1831	 0.424789349794132 
1832	 0.424444289157116 
1833	 0.424063683599612 
1834	 0.423680881526672 
1835	 0.423289194524827 
1836	 0.422904243310011 
1837	 0.422547864701407 
1838	 0.422203101889351 
1839	 0.42186234248506 
1840	 0.421524691025314 
1841	 0.421162321002562 
1842	 0.420852115849622 
1843	 0.420588131289442 
1844	 0.420305743085916 
1845	 0.420068479544623 
1846	 0.419832018242065 
1847	 0.419578423237209 
1848	 0.419378629907714 
1849	 0.419222477174769 
1850	 0.41909580473848 
1851	 0.419016719690696 
1852	 0.418955374706937 
1853	 0.418895036272059 
1854	 0.418846841105368 
1855	 0.418806008068096 
1856	 0.418754095964751 
1857	 0.418716079940822 
1858	 0.418640242836689 
1859	 0.418493884291823 
1860	 0.418330238895244 
1861	 0.418146983250044 
1862	 0.417896604129768 
1863	 0.417615719066694 
1864	 0.417354177273144 
1865	 0.41708308285736 
1866	 0.416784932950224 
1867	 0.416470991828355 
1868	 0.416137279712193 
1869	 0.415749982421622 
1870	 0.415341697236647 
1871	 0.414869039046121 
1872	 0.414367389838453 
1873	 0.413784019236181 
1874	 0.413136529037613 
1875	 0.412437385036157 
1876	 0.411652185873499 
1877	 0.410778698537964 
1878	 0.409817771773941 
1879	 0.408739721604474 
1880	 0.407564503980986 
1881	 0.406280680531227 
1882	 0.404924779106259 
1883	 0.403488823839277 
1884	 0.40191475466311 
1885	 0.4002750437951 
1886	 0.398552820157679 
1887	 0.396689531873065 
1888	 0.394789847326229 
1889	 0.392808227402572 
1890	 0.390761936281042 
1891	 0.388697298146345 
1892	 0.386557980057527 
1893	 0.384416741921032 
1894	 0.382249176415199 
1895	 0.380080754395289 
1896	 0.377851059378851 
1897	 0.375671472189448 
1898	 0.373485502230122 
1899	 0.371301621892231 
1900	 0.369201743205123 
1901	 0.367183826760941 
1902	 0.36525623240279 
1903	 0.363442715989306 
1904	 0.361666659247 
1905	 0.359961174250583 
1906	 0.35833359169486 
1907	 0.356730337861606 
1908	 0.355204831943628 
1909	 0.353786421874756 
1910	 0.352409170227326 
1911	 0.351116682685308 
1912	 0.349879554867312 
1913	 0.34869014285412 
1914	 0.347547662285642 
1915	 0.346459726485211 
1916	 0.345407739662745 
1917	 0.344445437976762 
1918	 0.343560814906949 
1919	 0.342707312341761 
1920	 0.341944023056657 
1921	 0.341236196310771 
1922	 0.340558779278704 
1923	 0.339961876471524 
1924	 0.339425180437914 
1925	 0.338963717848146 
1926	 0.338543376496689 
1927	 0.33817649741614 
1928	 0.337867992106868 
1929	 0.337610569646843 
1930	 0.337390442998915 
1931	 0.337238170294915 
1932	 0.337145782318736 
1933	 0.337084408899413 
1934	 0.337087751370711 
1935	 0.337151646791294 
1936	 0.337277775953758 
1937	 0.337438574084323 
1938	 0.337676236143052 
1939	 0.337923789724001 
1940	 0.33819331174148 
1941	 0.338503338506847 
1942	 0.338860160285491 
1943	 0.339256471158752 
1944	 0.339664751542362 
1945	 0.340088014353813 
1946	 0.34052678467926 
1947	 0.340975694362383 
1948	 0.341428041869711 
1949	 0.341915067920357 
1950	 0.342384389175352 
1951	 0.342841662279455 
1952	 0.343316529910605 
1953	 0.343769034757943 
1954	 0.344222953219413 
1955	 0.34468206560158 
1956	 0.345108759573195 
1957	 0.345557397374446 
1958	 0.345992626366601 
1959	 0.346472420696507 
1960	 0.34698733064272 
1961	 0.347496913957342 
1962	 0.348047897338671 
1963	 0.348576796254591 
1964	 0.349114228870287 
1965	 0.349594726928659 
1966	 0.350084708935791 
1967	 0.350564830110964 
1968	 0.351071873502766 
1969	 0.351583365739969 
1970	 0.352097826333845 
1971	 0.352641662108453 
1972	 0.353171283483755 
1973	 0.353674731527902 
1974	 0.354203334466498 
1975	 0.354752281285773 
1976	 0.355295908970299 
1977	 0.35585022587336 
1978	 0.356380941996437 
1979	 0.356889731286138 
1980	 0.357413280182107 
1981	 0.357924447704041 
1982	 0.358416154056899 
1983	 0.358926693313373 
1984	 0.359445614100008 
1985	 0.359955758546457 
1986	 0.360465478738769 
1987	 0.360980648079726 
1988	 0.361481417134059 
1989	 0.362007187417112 
1990	 0.36255057139974 
1991	 0.363102995269864 
1992	 0.36365473561669 
1993	 0.364238252482983 
1994	 0.364775124430798 
1995	 0.365295390301543 
1996	 0.365801700607 
1997	 0.366277019756618 
1998	 0.366762205555895 
1999	 0.367235992302925 
2000	 0.367720454916132 
2001	 0.368220132240346 
2002	 0.368685645084512 
2003	 0.369189104783827 
2004	 0.36969727795387 
2005	 0.370196812503387 
2006	 0.370715665920217 
2007	 0.371207915312867 
2008	 0.371664853763525 
2009	 0.372151709694029 
2010	 0.372658159430462 
2011	 0.373138056226889 
2012	 0.373616233344041 
2013	 0.374094270086731 
2014	 0.374564257613605 
2015	 0.375005536046114 
2016	 0.375462980654483 
2017	 0.375941224798984 
2018	 0.376416647239493 
2019	 0.376898280092073 
2020	 0.377365401589317 
2021	 0.377837266830862 
2022	 0.378299985904554 
2023	 0.37875383373658 
2024	 0.379196261917561 
2025	 0.379633996089396 
2026	 0.380065311217607 
2027	 0.380476460841893 
2028	 0.380884408601033 
2029	 0.381308532333392 
2030	 0.381751754216822 
2031	 0.382159804348666 
2032	 0.382558169103317 
2033	 0.382955683001931 
2034	 0.38332374406763 
2035	 0.383717336293244 
2036	 0.384135662479436 
2037	 0.384533704102372 
2038	 0.384938076759596 
2039	 0.385318696256249 
2040	 0.385674347702446 
2041	 0.386041186933936 
2042	 0.386375386148279 
2043	 0.386703348072954 
2044	 0.387034029010913 
2045	 0.387361001981378 
2046	 0.387675369610175 
2047	 0.387997936210313 
2048	 0.388289612016589 
2049	 0.388539386390662 
2050	 0.388818698149894 
2051	 0.389098333324913 
2052	 0.389371619165387 
2053	 0.389656924359057 
2054	 0.389937705378618 
2055	 0.390206532712932 
2056	 0.390471701984807 
2057	 0.390743993027864 
2058	 0.391025735429088 
2059	 0.391297480895485 
2060	 0.391567256555219 
2061	 0.391831383100975 
2062	 0.392092643977628 
2063	 0.392349554016024 
2064	 0.392596911432584 
2065	 0.392848773484172 
2066	 0.393096449341427 
2067	 0.393350911792479 
2068	 0.39361696562907 
2069	 0.393869151862492 
2070	 0.394123293642603 
2071	 0.39438862401117 
2072	 0.394623550862064 
2073	 0.394847682230163 
2074	 0.395057621017502 
2075	 0.395229932329099 
2076	 0.395434198044271 
2077	 0.395646972416275 
2078	 0.395852646455163 
2079	 0.396073745900963 
2080	 0.396280912314318 
2081	 0.396480302122804 
2082	 0.396665602701696 
2083	 0.396831984048998 
2084	 0.397009946168158 
2085	 0.397189417859426 
2086	 0.397354441809021 
2087	 0.397540032499933 
2088	 0.397746268891447 
2089	 0.397944913121075 
2090	 0.398168971449274 
2091	 0.398340650871762 
2092	 0.398483547140502 
2093	 0.398634551943399 
2094	 0.398746764095593 
2095	 0.398877323487826 
2096	 0.399023532703792 
2097	 0.399171011513933 
2098	 0.39930446932248 
2099	 0.39946888435891 
2100	 0.399609360164174 
2101	 0.399746414630882 
2102	 0.399896439611021 
2103	 0.400036309049183 
2104	 0.400192972547598 
2105	 0.400364172990816 
2106	 0.400550332272991 
2107	 0.400745640482277 
2108	 0.400945317583587 
2109	 0.401177622059428 
2110	 0.401388628323541 
2111	 0.401578789703952 
2112	 0.401786195399118 
2113	 0.402010566247143 
2114	 0.40221736947893 
2115	 0.402416768759177 
2116	 0.40261004057495 
2117	 0.402821580643602 
2118	 0.403014271016073 
2119	 0.403246500231941 
2120	 0.403522096753677 
2121	 0.403777108326687 
2122	 0.404055731408986 
2123	 0.404293562484414 
2124	 0.404526875881485 
2125	 0.404728610562137 
2126	 0.404893846516769 
2127	 0.405051482274142 
2128	 0.405198409907294 
2129	 0.405317178582136 
2130	 0.405411708514868 
2131	 0.405490125427768 
2132	 0.405554167925878 
2133	 0.405587611448212 
2134	 0.405627831266659 
2135	 0.405665021482406 
2136	 0.405684305195705 
2137	 0.40570317350223 
2138	 0.405686719295746 
2139	 0.40566190877814 
2140	 0.40559247941051 
2141	 0.405469850132822 
2142	 0.40535300522295 
2143	 0.405203029232093 
2144	 0.405054440405892 
2145	 0.404909642078735 
2146	 0.404750763845225 
2147	 0.404582155767205 
2148	 0.404400520361807 
2149	 0.404198272079886 
2150	 0.403989376955323 
2151	 0.403742686995355 
2152	 0.403453797310553 
2153	 0.403180626741285 
2154	 0.402872650639735 
2155	 0.402604290130671 
2156	 0.402389666674241 
2157	 0.402105056151024 
2158	 0.401818833829833 
2159	 0.401490558651394 
2160	 0.401087731143523 
2161	 0.400703810132109 
2162	 0.400317231169437 
2163	 0.399914715103121 
2164	 0.399487630640237 
2165	 0.399072014211155 
2166	 0.398659695610578 
2167	 0.398227795790457 
2168	 0.39783770908355 
2169	 0.397483788539609 
2170	 0.397101273171121 
2171	 0.39674894063602 
2172	 0.396337660677603 
2173	 0.395872859714922 
2174	 0.395439408668077 
2175	 0.394983686872061 
2176	 0.394544595757608 
2177	 0.394136931786761 
2178	 0.393708104333866 
2179	 0.39326356578143 
2180	 0.392824843255742 
2181	 0.39237847727608 
2182	 0.39194087399194 
2183	 0.391518225262453 
2184	 0.391079824353066 
2185	 0.390644301192643 
2186	 0.390190045597068 
2187	 0.389793557248981 
2188	 0.389419777869867 
2189	 0.389043186194693 
2190	 0.388718590188252 
2191	 0.388352518261649 
2192	 0.387961429985361 
2193	 0.387575324345548 
2194	 0.387176258011346 
2195	 0.386791102258569 
2196	 0.386389508059505 
2197	 0.386021155679547 
2198	 0.385665952450783 
2199	 0.38534252287741 
2200	 0.385040906107356 
2201	 0.384765941795867 
2202	 0.384536852297482 
2203	 0.384317513893687 
2204	 0.384075052277921 
2205	 0.383848599806072 
2206	 0.383597201965732 
2207	 0.383307372402983 
2208	 0.383054023681042 
2209	 0.382801799096294 
2210	 0.382577652931741 
2211	 0.382362610815642 
2212	 0.382184281470955 
2213	 0.382043517579847 
2214	 0.381901926764131 
2215	 0.381809107458664 
2216	 0.381678047362484 
2217	 0.381549841483387 
2218	 0.381391447245746 
2219	 0.381203388011098 
2220	 0.381005192928018 
2221	 0.380770683446279 
2222	 0.380561152006282 
2223	 0.380320956375289 
2224	 0.38008086403274 
2225	 0.37981999666314 
2226	 0.379540903058889 
2227	 0.379257706813275 
2228	 0.378968256301754 
2229	 0.378656551468579 
2230	 0.378339672332399 
2231	 0.377988592308186 
2232	 0.377610113101113 
2233	 0.377212790782744 
2234	 0.37677816303041 
2235	 0.376357602393697 
2236	 0.37592890217032 
2237	 0.375484243160373 
2238	 0.375048717074954 
2239	 0.374574276236679 
2240	 0.374067752711038 
2241	 0.373554245870973 
2242	 0.373027340915187 
2243	 0.372472462161628 
2244	 0.371909391469673 
2245	 0.371301657016666 
2246	 0.370651944876007 
2247	 0.370008526836627 
2248	 0.369376708570847 
2249	 0.368724846040454 
2250	 0.368114419593419 
2251	 0.367525472209758 
2252	 0.366960256023927 
2253	 0.366415981846766 
2254	 0.365880124256886 
2255	 0.365349995915744 
2256	 0.364873559021174 
2257	 0.364408114778648 
2258	 0.364005652864782 
2259	 0.363641731851961 
2260	 0.363350816684563 
2261	 0.363109299700638 
2262	 0.362940137255871 
2263	 0.362870607855914 
2264	 0.362824523212062 
2265	 0.362818691868614 
2266	 0.362871148763073 
2267	 0.362986291516625 
2268	 0.363127761293437 
2269	 0.363321331313017 
2270	 0.363560460657317 
2271	 0.363800312984575 
2272	 0.364087666925828 
2273	 0.364430171872024 
2274	 0.364795601896925 
2275	 0.365178843245623 
2276	 0.365616958217802 
2277	 0.366020930389871 
2278	 0.366420791215534 
2279	 0.366831339442029 
2280	 0.367236960010484 
2281	 0.36766830073518 
2282	 0.368134152166342 
2283	 0.368568490519518 
2284	 0.369012095667312 
2285	 0.369423979451874 
2286	 0.369795991061668 
2287	 0.370184693427265 
2288	 0.370563973860384 
2289	 0.370955475168316 
2290	 0.371354534163831 
2291	 0.371756307162833 
2292	 0.372198015688807 
2293	 0.372578212722467 
2294	 0.37293010558786 
2295	 0.373271194224504 
2296	 0.373572996798555 
2297	 0.373849590880356 
2298	 0.374158870250049 
2299	 0.374442344724573 
2300	 0.374725287114706 
2301	 0.375014935059325 
2302	 0.375297524411064 
2303	 0.375575548803594 
2304	 0.375823063718281 
2305	 0.376060792027021 
2306	 0.376298923123638 
2307	 0.376513497286699 
2308	 0.376753381755977 
2309	 0.377051131185897 
2310	 0.377232199372109 
2311	 0.37736670198283 
2312	 0.377490449328587 
2313	 0.377519288558931 
2314	 0.37758570444012 
2315	 0.377667699410534 
2316	 0.377750179984185 
2317	 0.377810036988477 
2318	 0.377895731413671 
2319	 0.378028197075942 
2320	 0.378114857435761 
2321	 0.378160147644362 
2322	 0.378258297438966 
2323	 0.378404657062975 
2324	 0.378470828087749 
2325	 0.378523218285229 
2326	 0.378564470924648 
2327	 0.37854845301144 
2328	 0.378516640339665 
2329	 0.37849593443569 
2330	 0.378542621311374 
2331	 0.378548752566789 
2332	 0.378506692729697 
2333	 0.378496992409893 
2334	 0.378468016007518 
2335	 0.378434390124492 
2336	 0.378413630695999 
2337	 0.378336559237841 
2338	 0.378238451222857 
2339	 0.378111086744191 
2340	 0.377883832150352 
2341	 0.377700461483318 
2342	 0.37752895295943 
2343	 0.377315050764594 
2344	 0.377157964632285 
2345	 0.376958942138659 
2346	 0.376771578348093 
2347	 0.37648933406892 
2348	 0.376157019451202 
2349	 0.375788691801537 
2350	 0.37529424916251 
2351	 0.374907729186516 
2352	 0.374555314440486 
2353	 0.374193867134295 
2354	 0.37387569995124 
2355	 0.373532167898271 
2356	 0.373171470066355 
2357	 0.372809585425472 
2358	 0.372458997699209 
2359	 0.372098367255255 
2360	 0.37173379038696 
2361	 0.37132433384436 
2362	 0.370905145263842 
2363	 0.370440327091134 
2364	 0.369889622996305 
2365	 0.369388463508754 
2366	 0.368915769965996 
2367	 0.368396522644474 
2368	 0.367842185500733 
2369	 0.367340626525063 
2370	 0.366858444414587 
2371	 0.366298747158304 
2372	 0.365846167323958 
2373	 0.365404511470762 
2374	 0.36488819444552 
2375	 0.364392558806166 
2376	 0.363805828144797 
2377	 0.363131226947174 
2378	 0.362496000499457 
2379	 0.361867102499407 
2380	 0.361248816006324 
2381	 0.360678471626198 
2382	 0.360057780886683 
2383	 0.35946191655248 
2384	 0.358937638545337 
2385	 0.358404200783157 
2386	 0.357903211069889 
2387	 0.357342665252564 
2388	 0.356678716691476 
2389	 0.355956844871318 
2390	 0.355249426817171 
2391	 0.354601120928701 
2392	 0.353951809683171 
2393	 0.353376979942845 
2394	 0.352836207449747 
2395	 0.352209147189569 
2396	 0.351596864032848 
2397	 0.351017606213277 
2398	 0.350383668646492 
2399	 0.349754329613227 
2400	 0.349168285217958 
2401	 0.348594737596496 
2402	 0.348030405714534 
2403	 0.347446810289099 
2404	 0.346837210197077 
2405	 0.346262739108563 
2406	 0.345652217912008 
2407	 0.345013205842198 
2408	 0.344502443526894 
2409	 0.343954824479655 
2410	 0.343352203076525 
2411	 0.342876515607787 
2412	 0.342430606083651 
2413	 0.341907812748645 
2414	 0.341442596791219 
2415	 0.34101444185123 
2416	 0.340471565551553 
2417	 0.339801600492144 
2418	 0.339212604065863 
2419	 0.338569222906949 
2420	 0.337970163877325 
2421	 0.337420280531579 
2422	 0.336852586584639 
2423	 0.336289761393405 
2424	 0.335729736906769 
2425	 0.33516948413335 
2426	 0.334629718626908 
2427	 0.334118926721963 
2428	 0.333604533943765 
2429	 0.333081487227431 
2430	 0.332570881196542 
2431	 0.332059844269091 
2432	 0.331569824441259 
2433	 0.331147295397673 
2434	 0.330648888306299 
2435	 0.330110826996149 
2436	 0.329588366208673 
2437	 0.329017022302504 
2438	 0.328483234989148 
2439	 0.328051879497446 
2440	 0.327479734889029 
2441	 0.326763920248474 
2442	 0.326156207795864 
2443	 0.32551634322304 
2444	 0.324916804531258 
2445	 0.324487300661292 
2446	 0.323989930209073 
2447	 0.323404661977812 
2448	 0.322785235742271 
2449	 0.322143687678044 
2450	 0.32148903789313 
2451	 0.320789633643003 
2452	 0.320194018012608 
2453	 0.3196538780133 
2454	 0.31907008974994 
2455	 0.318494087589852 
2456	 0.317904598372149 
2457	 0.317330926224245 
2458	 0.316768018011958 
2459	 0.316172466246143 
2460	 0.315628255119009 
2461	 0.315103765580323 
2462	 0.314565958554633 
2463	 0.31402858319305 
2464	 0.313602978648348 
2465	 0.31325576619974 
2466	 0.312758866079577 
2467	 0.312271906769665 
2468	 0.311837921843691 
2469	 0.311379226138347 
2470	 0.310991737162282 
2471	 0.310439879567344 
2472	 0.309950054877435 
2473	 0.309490954966787 
2474	 0.309037128013666 
2475	 0.308672892835842 
2476	 0.308205982290974 
2477	 0.307674020693527 
2478	 0.307050048341223 
2479	 0.306325474303989 
2480	 0.305596279240681 
2481	 0.304821816194248 
2482	 0.304364363089487 
2483	 0.304188929254617 
2484	 0.304052435178953 
2485	 0.303800433157805 
2486	 0.303147808582035 
2487	 0.302409291514862 
2488	 0.301817837804536 
2489	 0.301171557236258 
2490	 0.300631925643598 
2491	 0.300160938747493 
2492	 0.299629665040982 
2493	 0.299057659148698 
2494	 0.298447839220299 
2495	 0.297968635351927 
2496	 0.297533179532804 
2497	 0.29723314985239 
2498	 0.296909274480295 
2499	 0.296537153966836 
2500	 0.295984345285703 
