Wavelength	LMW800012.asd
350	 5.00925913080615E-02 
351	 5.16016970066803E-02 
352	 4.65558396978659E-02 
353	 0.038412381230611 
354	 4.70045011532722E-02 
355	 5.27766118855912E-02 
356	 5.31371411663913E-02 
357	 5.05772135057353E-02 
358	 4.87899566547208E-02 
359	 4.87660274594289E-02 
360	 4.89156359076467E-02 
361	 4.67813479182271E-02 
362	 4.87642678295326E-02 
363	 5.15929545510424E-02 
364	 5.24171030511497E-02 
365	 5.06636673480575E-02 
366	 4.94485127636852E-02 
367	 4.83905959365985E-02 
368	 4.75974264732744E-02 
369	 5.42151290803923E-02 
370	 5.32672642333907E-02 
371	 4.76577843675954E-02 
372	 5.14174035099453E-02 
373	 5.33722764781706E-02 
374	 5.31794193674331E-02 
375	 5.22834297622126E-02 
376	 5.26774936695763E-02 
377	 5.21136586820854E-02 
378	 5.29499910584891E-02 
379	 5.66694537455585E-02 
380	 5.58214029947236E-02 
381	 5.23615328087619E-02 
382	 5.01864672063822E-02 
383	 5.35277820959093E-02 
384	 5.55433281161963E-02 
385	 5.57042852506906E-02 
386	 5.50721849384514E-02 
387	 5.57612069872392E-02 
388	 5.64426324440982E-02 
389	 5.58531185769137E-02 
390	 5.37360246365943E-02 
391	 5.41835812075366E-02 
392	 5.46321199047657E-02 
393	 5.49943465385272E-02 
394	 5.72277810458212E-02 
395	 5.68237965909247E-02 
396	 5.64171187016247E-02 
397	 5.76358155075382E-02 
398	 5.72774128587333E-02 
399	 5.80753651991195E-02 
400	 5.91876977747698E-02 
401	 5.89069707751643E-02 
402	 5.82910721461306E-02 
403	 5.85098695337732E-02 
404	 5.93352735025614E-02 
405	 0.059233777839385 
406	 5.99545342406512E-02 
407	 6.06707205096607E-02 
408	 6.05540037151997E-02 
409	 5.99871846734584E-02 
410	 5.95463654756714E-02 
411	 5.90241178522133E-02 
412	 5.82073283689346E-02 
413	 6.00199525656839E-02 
414	 6.06840178715559E-02 
415	 5.94456940914654E-02 
416	 6.00776094720644E-02 
417	 5.96076647437846E-02 
418	 5.92685655349475E-02 
419	 6.02330776879137E-02 
420	 6.00905414034227E-02 
421	 5.97700192111958E-02 
422	 5.95505800069902E-02 
423	 5.93029160000414E-02 
424	 5.97339291961464E-02 
425	 5.98546005938501E-02 
426	 5.92777461997985E-02 
427	 0.059022269290004 
428	 5.89087843167627E-02 
429	 0.058971692718949 
430	 5.92242107953805E-02 
431	 5.94728797602743E-02 
432	 5.91970564136288E-02 
433	 5.87255216192697E-02 
434	 5.91257575767691E-02 
435	 5.91804167945386E-02 
436	 5.91899372144489E-02 
437	 5.93878508787589E-02 
438	 5.89643669781737E-02 
439	 5.89178704712334E-02 
440	 5.92977114803179E-02 
441	 0.059623564309389 
442	 5.93704875856088E-02 
443	 5.92028172295283E-02 
444	 5.94725609634801E-02 
445	 5.99220335280604E-02 
446	 5.98920851566597E-02 
447	 5.97449558221624E-02 
448	 5.99820624431453E-02 
449	 6.02980989518481E-02 
450	 6.04093028025856E-02 
451	 6.04281119549697E-02 
452	 6.07544195814371E-02 
453	 6.06739924464724E-02 
454	 6.05843161037426E-02 
455	 6.08236306344584E-02 
456	 0.061162713249271 
457	 6.11458218797177E-02 
458	 6.09231445926872E-02 
459	 6.09103921855195E-02 
460	 6.10809044683197E-02 
461	 6.11228782869883E-02 
462	 6.10843401535904E-02 
463	 6.15598666986743E-02 
464	 0.061622122937953 
465	 6.15274707205987E-02 
466	 6.16933981099127E-02 
467	 6.17615077471121E-02 
468	 6.18247499862376E-02 
469	 6.18531982740191E-02 
470	 6.17362668271615E-02 
471	 6.18125668537604E-02 
472	 6.19494986947512E-02 
473	 6.20219506373145E-02 
474	 6.21185071720536E-02 
475	 6.22679643348247E-02 
476	 6.22641641048605E-02 
477	 6.19257117335127E-02 
478	 6.20231921876165E-02 
479	 0.062167483266326 
480	 6.21801477144884E-02 
481	 0.062319552142497 
482	 6.23864482793305E-02 
483	 6.24625104746417E-02 
484	 6.26134885664767E-02 
485	 6.25053848219104E-02 
486	 6.25382759832992E-02 
487	 6.26754445018358E-02 
488	 6.25363282035086E-02 
489	 6.25561446699012E-02 
490	 6.25693948477725E-02 
491	 6.24474879488513E-02 
492	 6.23893591586814E-02 
493	 6.25191526641963E-02 
494	 6.26339496262569E-02 
495	 0.062469069629861 
496	 0.062648007791017 
497	 0.06272575775736 
498	 0.062592813373693 
499	 6.27966441057402E-02 
500	 6.27048595938811E-02 
501	 6.25126775782512E-02 
502	 6.25400754671173E-02 
503	 6.25108043922794E-02 
504	 0.062545111422307 
505	 6.25996341446173E-02 
506	 0.06249212467235 
507	 6.26198933895573E-02 
508	 6.27038418859582E-02 
509	 6.25409686909319E-02 
510	 6.24707824755667E-02 
511	 6.24684306122453E-02 
512	 6.24791864249307E-02 
513	 6.24397271668767E-02 
514	 6.24350363834469E-02 
515	 6.24358876158223E-02 
516	 6.24407751387922E-02 
517	 6.25295067644675E-02 
518	 0.062498384656747 
519	 6.23869775533583E-02 
520	 6.23316898457881E-02 
521	 6.25055110646784E-02 
522	 6.26137183031631E-02 
523	 6.25715132791531E-02 
524	 6.25397728495766E-02 
525	 6.25515226808087E-02 
526	 6.25730421465904E-02 
527	 6.25674834285716E-02 
528	 6.25428427413534E-02 
529	 6.25879155037063E-02 
530	 6.26545631412527E-02 
531	 6.26228428599838E-02 
532	 0.062676499027839 
533	 6.27367121401751E-02 
534	 6.27537470864607E-02 
535	 6.28224800936521E-02 
536	 6.28530516678804E-02 
537	 6.28452620739283E-02 
538	 6.28422079067293E-02 
539	 6.29307709434164E-02 
540	 6.29143168669096E-02 
541	 0.062815913036155 
542	 6.29775880476179E-02 
543	 6.30430803316407E-02 
544	 6.30753561006889E-02 
545	 6.31777936841269E-02 
546	 6.31219869133198E-02 
547	 6.31320934361911E-02 
548	 6.32455315867835E-02 
549	 6.33309899856396E-02 
550	 6.33450257317201E-02 
551	 6.33786153048201E-02 
552	 6.34824314652628E-02 
553	 0.063533093145532 
554	 6.35800027351035E-02 
555	 0.063640596333478 
556	 6.37168016204318E-02 
557	 6.38142949811739E-02 
558	 6.39164127969494E-02 
559	 6.40190820811563E-02 
560	 6.41482475146646E-02 
561	 6.42302265170467E-02 
562	 6.43257300496525E-02 
563	 6.45081791664512E-02 
564	 6.46462450671255E-02 
565	 6.47816587786113E-02 
566	 6.49381328140026E-02 
567	 6.51084970272808E-02 
568	 6.53665478736977E-02 
569	 6.56324775424643E-02 
570	 6.58393471936389E-02 
571	 6.60926502831535E-02 
572	 0.066359938146793 
573	 6.66380990484188E-02 
574	 6.69392683942016E-02 
575	 6.71941103740143E-02 
576	 6.74658199562284E-02 
577	 6.77939071699442E-02 
578	 6.81187122985774E-02 
579	 0.068481838343629 
580	 6.88823467027219E-02 
581	 6.93021726619976E-02 
582	 6.97364522458456E-02 
583	 7.01864961982024E-02 
584	 7.06579080465296E-02 
585	 7.11643315854118E-02 
586	 7.16541149869421E-02 
587	 7.21450853276785E-02 
588	 7.26668972288348E-02 
589	 7.32059588794646E-02 
590	 7.37394234057395E-02 
591	 7.42854334789225E-02 
592	 7.48949614562766E-02 
593	 7.54645973963361E-02 
594	 7.60250956655356E-02 
595	 7.66078482321896E-02 
596	 7.71701022624091E-02 
597	 7.77671747685164E-02 
598	 7.83911017079572E-02 
599	 7.90018688376019E-02 
600	 7.95895622346268E-02 
601	 8.01829301942323E-02 
602	 0.080769816017494 
603	 8.12538138571546E-02 
604	 8.17351666013194E-02 
605	 8.22602778356566E-02 
606	 0.082829697159582 
607	 8.33137325738647E-02 
608	 0.083762619048728 
609	 0.084227914570412 
610	 8.47479822291813E-02 
611	 8.51987591641934E-02 
612	 8.56311593167093E-02 
613	 8.60892289561575E-02 
614	 8.64473930625014E-02 
615	 8.67579765856299E-02 
616	 8.70798037943267E-02 
617	 0.087460768693599 
618	 0.087779833809312 
619	 8.80624565144523E-02 
620	 8.83394793842419E-02 
621	 8.86038131617506E-02 
622	 8.88230460389169E-02 
623	 8.90434279628938E-02 
624	 8.93214309431814E-02 
625	 8.95454320332817E-02 
626	 8.97538158366241E-02 
627	 8.99534722905024E-02 
628	 9.00922323010764E-02 
629	 0.090335576332602 
630	 9.05847781915672E-02 
631	 9.07241520308438E-02 
632	 0.090874691336785 
633	 9.10171265664172E-02 
634	 9.11808703028198E-02 
635	 9.14256810870456E-02 
636	 9.16137440380618E-02 
637	 9.17897299658312E-02 
638	 9.19842780774338E-02 
639	 9.21042061593389E-02 
640	 9.22492723823461E-02 
641	 9.24424667461278E-02 
642	 9.26612532924506E-02 
643	 9.28418137531686E-02 
644	 9.30177340748797E-02 
645	 9.32131109922417E-02 
646	 9.34246592127728E-02 
647	 0.09359685316466 
648	 9.37687339886118E-02 
649	 9.39879365252645E-02 
650	 9.42130691739637E-02 
651	 9.44107052996263E-02 
652	 0.094602824131048 
653	 9.48534830950198E-02 
654	 9.50855492362402E-02 
655	 9.53141147053636E-02 
656	 0.095550788840387 
657	 9.57442389957649E-02 
658	 9.60074846454018E-02 
659	 9.63200728745223E-02 
660	 9.65976832807788E-02 
661	 9.68221936125234E-02 
662	 9.70714591048152E-02 
663	 0.097381310149049 
664	 9.77151455633035E-02 
665	 9.79960439839818E-02 
666	 9.82815769916058E-02 
667	 0.098625760775979 
668	 9.88751416384513E-02 
669	 9.91992856209095E-02 
670	 9.95996748798451E-02 
671	 9.99364502903347E-02 
672	 0.100281629762522 
673	 0.100658798894942 
674	 0.101062470865254 
675	 0.10143674492175 
676	 0.101821880722552 
677	 0.102193332013203 
678	 0.102522966917501 
679	 0.102950581085323 
680	 0.10341445153566 
681	 0.103865625881595 
682	 0.104297344601638 
683	 0.10473960888726 
684	 0.105220148422978 
685	 0.105737729242262 
686	 0.106194908380455 
687	 0.106668289772294 
688	 0.107169283155884 
689	 0.107661799099446 
690	 0.108147739522165 
691	 0.108654849644893 
692	 0.109202151033069 
693	 0.10979338827469 
694	 0.110328773408675 
695	 0.110845902324197 
696	 0.111414337465616 
697	 0.111950401633908 
698	 0.112546481521361 
699	 0.113194952726157 
700	 0.11377673676397 
701	 0.114344741859903 
702	 0.114922916064759 
703	 0.115523290030682 
704	 0.116143032778393 
705	 0.116746202647424 
706	 0.117348842807104 
707	 0.117983000554222 
708	 0.118563684664938 
709	 0.119171164276906 
710	 0.119828800136876 
711	 0.12045519766404 
712	 0.121073502394847 
713	 0.121674109951584 
714	 0.122255341800625 
715	 0.122868257660802 
716	 0.123489537482265 
717	 0.124089356303477 
718	 0.12464183892637 
719	 0.125223208585565 
720	 0.125783619938284 
721	 0.126301219835072 
722	 0.126843297919883 
723	 0.127384464740854 
724	 0.127913366251583 
725	 0.128422602961206 
726	 0.128905099261566 
727	 0.129374047930679 
728	 0.129820034027287 
729	 0.130215309967181 
730	 0.130638659734477 
731	 0.13101706140808 
732	 0.13132201438665 
733	 0.131703820674472 
734	 0.132040947796265 
735	 0.132305415532705 
736	 0.132521318064406 
737	 0.132773661389162 
738	 0.132996948003328 
739	 0.133176743085158 
740	 0.133364374338052 
741	 0.133487430502111 
742	 0.133579681059626 
743	 0.133666414744386 
744	 0.133683357124038 
745	 0.133684476905402 
746	 0.133688436219705 
747	 0.133686472569109 
748	 0.133609637464992 
749	 0.133536046575255 
750	 0.133469370596907 
751	 0.133310656542595 
752	 0.133161572380677 
753	 0.133001649335962 
754	 0.132805697559261 
755	 0.132625370561783 
756	 0.132388518308062 
757	 0.13211574893718 
758	 0.131864810122669 
759	 0.131576448806185 
760	 0.131264406085743 
761	 0.130943987229909 
762	 0.13062283324364 
763	 0.130280860804909 
764	 0.129925780888766 
765	 0.129565631073707 
766	 0.129184577572465 
767	 0.12881745148225 
768	 0.128432625225057 
769	 0.127986495760984 
770	 0.127608711719043 
771	 0.127238915978876 
772	 0.126832790797181 
773	 0.126388138901331 
774	 0.125932131548235 
775	 0.125501200613682 
776	 0.125099094726053 
777	 0.124638474641417 
778	 0.124179678301911 
779	 0.123744929449493 
780	 0.123331193954232 
781	 0.122899291061821 
782	 0.122467210716228 
783	 0.122030334278667 
784	 0.121561599580131 
785	 0.121168018774977 
786	 0.120783562290809 
787	 0.120346170689804 
788	 0.119876383943869 
789	 0.119469529838727 
790	 0.119077636641633 
791	 0.118623793479898 
792	 0.118204222479484 
793	 0.117807414710484 
794	 0.117410053538637 
795	 0.116990806635137 
796	 0.116622871994525 
797	 0.11626744320267 
798	 0.115885940712747 
799	 0.115470650568424 
800	 0.115111945947317 
801	 0.114768644440255 
802	 0.114384925702485 
803	 0.114018118046929 
804	 0.11368550629628 
805	 0.113376189665579 
806	 0.113062008165451 
807	 0.112731885625538 
808	 0.112385838690789 
809	 0.112046020522498 
810	 0.111756257119633 
811	 0.111483932901024 
812	 0.111198176893236 
813	 0.110889676672283 
814	 0.110605730601699 
815	 0.110311455306854 
816	 0.110020237726003 
817	 0.109760901804506 
818	 0.109532777627962 
819	 0.109292868446039 
820	 0.109047373561899 
821	 0.108837619368472 
822	 0.108563731942204 
823	 0.108320365275476 
824	 0.108147158917622 
825	 0.107947975043783 
826	 0.107727798092349 
827	 0.107531595099121 
828	 0.107381243597036 
829	 0.107184933763692 
830	 0.10697508412256 
831	 0.106781591836002 
832	 0.10662665078822 
833	 0.106495025869242 
834	 0.106356061263824 
835	 0.106212466381734 
836	 0.106095083328961 
837	 0.105952776261985 
838	 0.105820553685278 
839	 0.105715069866015 
840	 0.105598463092056 
841	 0.105489541652972 
842	 0.105364054132879 
843	 0.105220965951157 
844	 0.105167274730418 
845	 0.105113043442551 
846	 0.105039620162572 
847	 0.104963452874314 
848	 0.104884179729135 
849	 0.10482251637998 
850	 0.104772490973844 
851	 0.104707994093759 
852	 0.104652445311761 
853	 0.104615498914681 
854	 0.104593749898637 
855	 0.104568789678181 
856	 0.104567524040083 
857	 0.104589193555816 
858	 0.104607952484115 
859	 0.104545116818102 
860	 0.104541515988332 
861	 0.104577412819053 
862	 0.104594757607955 
863	 0.104655860644991 
864	 0.10467201999496 
865	 0.104671023945143 
866	 0.104735622847664 
867	 0.104767690450987 
868	 0.10481004839213 
869	 0.104868815665765 
870	 0.104907454257092 
871	 0.105013387650919 
872	 0.105120420058531 
873	 0.105191434569202 
874	 0.105276666094464 
875	 0.10540296054459 
876	 0.105512108276499 
877	 0.105572874430978 
878	 0.105681852795785 
879	 0.105802088270051 
880	 0.105913714200234 
881	 0.106017599571348 
882	 0.10618011047721 
883	 0.106325126631305 
884	 0.106456636413855 
885	 0.106621096075159 
886	 0.106811748978192 
887	 0.107005345160428 
888	 0.107189227005866 
889	 0.107362329552343 
890	 0.107517129102227 
891	 0.107699450042721 
892	 0.107913129281187 
893	 0.108104125440538 
894	 0.108289613371489 
895	 0.108475141649141 
896	 0.108689058714042 
897	 0.109000463057533 
898	 0.109274203055413 
899	 0.109499888354929 
900	 0.109714513581681 
901	 0.109977208485027 
902	 0.110257030359325 
903	 0.110547565156108 
904	 0.110846820374293 
905	 0.111143032814074 
906	 0.11143351734638 
907	 0.111739377927537 
908	 0.1120815150623 
909	 0.112421594516172 
910	 0.112767709248303 
911	 0.113110446345853 
912	 0.113434942427587 
913	 0.113777201425074 
914	 0.114145730421592 
915	 0.114527591951468 
916	 0.114894075272435 
917	 0.115210111048285 
918	 0.115592206674087 
919	 0.116066619347741 
920	 0.116529986671642 
921	 0.116919649496729 
922	 0.117297642393215 
923	 0.117725715662775 
924	 0.118222293478567 
925	 0.11869065199989 
926	 0.119173203817255 
927	 0.119686763766833 
928	 0.120144793859456 
929	 0.120661582678804 
930	 0.12118031721189 
931	 0.121666729447033 
932	 0.122246964880486 
933	 0.122767923770186 
934	 0.123258655107806 
935	 0.123793421579887 
936	 0.1244122616809 
937	 0.124978118263366 
938	 0.125534488637861 
939	 0.126163453558273 
940	 0.126857158330257 
941	 0.127468644128821 
942	 0.128057514396605 
943	 0.128719836859801 
944	 0.129321907405334 
945	 0.129969891137957 
946	 0.130699437267091 
947	 0.131470793243131 
948	 0.132099351014332 
949	 0.132838930120456 
950	 0.133622318432591 
951	 0.134282509813331 
952	 0.135074751359993 
953	 0.135844140635974 
954	 0.136555423657063 
955	 0.137270290714876 
956	 0.138099349051483 
957	 0.138976382537128 
958	 0.139825717898201 
959	 0.140606669253455 
960	 0.141436065915976 
961	 0.142266137732335 
962	 0.143084843353343 
963	 0.143916826069488 
964	 0.144825521779461 
965	 0.145698763289675 
966	 0.146528407570017 
967	 0.147405049540217 
968	 0.148480929477924 
969	 0.149459854167864 
970	 0.150344679085561 
971	 0.151338522728406 
972	 0.15239736203454 
973	 0.153401502705887 
974	 0.154303697045582 
975	 0.155169321520506 
976	 0.156339383311838 
977	 0.157360724230194 
978	 0.158262104871543 
979	 0.159367961882469 
980	 0.160553063352784 
981	 0.161521084066931 
982	 0.162362072406266 
983	 0.163382565295927 
984	 0.164586432805135 
985	 0.165786125580182 
986	 0.166863069131993 
987	 0.167822553455452 
988	 0.168953432679788 
989	 0.170092985446372 
990	 0.171147213770677 
991	 0.172153998908105 
992	 0.173496990333476 
993	 0.174598137042878 
994	 0.175674229204476 
995	 0.177066645679779 
996	 0.177989533468363 
997	 0.179069919076719 
998	 0.180235104907356 
999	 0.18126488320013 
1000	 0.182522332444372 
1001	 0.185228790697374 
1002	 0.186319716789112 
1003	 0.187435398918473 
1004	 0.188556868570461 
1005	 0.189713387021458 
1006	 0.19084755582597 
1007	 0.191993412814239 
1008	 0.193101031342232 
1009	 0.194172291464054 
1010	 0.195224267879182 
1011	 0.196293443513069 
1012	 0.197299867197206 
1013	 0.198295707640908 
1014	 0.199329271734908 
1015	 0.200372648640463 
1016	 0.201423538961378 
1017	 0.202452553511129 
1018	 0.203487021484857 
1019	 0.204483901048499 
1020	 0.205456254298907 
1021	 0.206436026786395 
1022	 0.207499002647215 
1023	 0.208557366689292 
1024	 0.2095580466557 
1025	 0.21061865959583 
1026	 0.211587685225656 
1027	 0.212468692885885 
1028	 0.213430425182911 
1029	 0.214326739998933 
1030	 0.215186535998068 
1031	 0.216116031753238 
1032	 0.217088368767439 
1033	 0.218061996641214 
1034	 0.219070220042198 
1035	 0.220060604282991 
1036	 0.220975410534692 
1037	 0.221844084260468 
1038	 0.222660812938069 
1039	 0.223522359357055 
1040	 0.224430316075067 
1041	 0.225342211112845 
1042	 0.226287711085016 
1043	 0.227174194824893 
1044	 0.228072020141193 
1045	 0.228966133389903 
1046	 0.229877604361617 
1047	 0.230737606898729 
1048	 0.231666241353486 
1049	 0.232601449630181 
1050	 0.233473945054272 
1051	 0.234391937687052 
1052	 0.23526949351835 
1053	 0.236127299828334 
1054	 0.237027541879712 
1055	 0.237894066506747 
1056	 0.238793218388071 
1057	 0.23966919638486 
1058	 0.24054001819863 
1059	 0.241376254455224 
1060	 0.242199454796181 
1061	 0.242990149317257 
1062	 0.243740994447577 
1063	 0.244514939909447 
1064	 0.245321646114824 
1065	 0.246143247553655 
1066	 0.247029672914704 
1067	 0.247899460656256 
1068	 0.248703781972971 
1069	 0.249502206828873 
1070	 0.250276497431978 
1071	 0.250982343085319 
1072	 0.251751958857824 
1073	 0.252539764303828 
1074	 0.253296169185217 
1075	 0.254045303969199 
1076	 0.254792403712194 
1077	 0.25557298919209 
1078	 0.256401700740082 
1079	 0.257197026914772 
1080	 0.257957324364534 
1081	 0.258671386967222 
1082	 0.259351080261064 
1083	 0.260068346435388 
1084	 0.260804965932425 
1085	 0.261563916988109 
1086	 0.262328474529122 
1087	 0.263088332352082 
1088	 0.263877129838666 
1089	 0.264634607280692 
1090	 0.265346718439626 
1091	 0.266125546346837 
1092	 0.266918905427537 
1093	 0.267701084694468 
1094	 0.268520116720581 
1095	 0.269338294790989 
1096	 0.270119876398426 
1097	 0.27089129613519 
1098	 0.27169981896672 
1099	 0.272522721801057 
1100	 0.273354486183055 
1101	 0.274208190124658 
1102	 0.275070005588405 
1103	 0.27595970290386 
1104	 0.276800329519202 
1105	 0.277642354145887 
1106	 0.278552113383786 
1107	 0.279482000743897 
1108	 0.280413030211273 
1109	 0.281323723491851 
1110	 0.282242174358651 
1111	 0.283173749061276 
1112	 0.284072062322488 
1113	 0.285005596401942 
1114	 0.285995548608069 
1115	 0.286958776649195 
1116	 0.287895761801025 
1117	 0.288869372184568 
1118	 0.289876246997786 
1119	 0.290847008534265 
1120	 0.291842584892992 
1121	 0.292867715626857 
1122	 0.293870871400188 
1123	 0.294887886305818 
1124	 0.295895659961003 
1125	 0.29688760670411 
1126	 0.29790933823275 
1127	 0.298945649923711 
1128	 0.299969210575904 
1129	 0.301019350517217 
1130	 0.302034472911877 
1131	 0.30301091593059 
1132	 0.304018405803712 
1133	 0.305023630621781 
1134	 0.306036243407436 
1135	 0.307077515393637 
1136	 0.308090368555013 
1137	 0.309090458419101 
1138	 0.310098197581936 
1139	 0.311102351884588 
1140	 0.312100001169572 
1141	 0.313095480170414 
1142	 0.314103212226706 
1143	 0.315086757557266 
1144	 0.316054883106703 
1145	 0.317018163880749 
1146	 0.317967098968822 
1147	 0.318912625283115 
1148	 0.319849242981178 
1149	 0.320789318516806 
1150	 0.321739991337336 
1151	 0.322669078957618 
1152	 0.323578262239725 
1153	 0.324481410677662 
1154	 0.325376316914347 
1155	 0.326252269116881 
1156	 0.327126100789341 
1157	 0.3280069246831 
1158	 0.328864073873728 
1159	 0.329702291082009 
1160	 0.330533984803021 
1161	 0.331343564370961 
1162	 0.332168025984487 
1163	 0.332996257537368 
1164	 0.333817240009544 
1165	 0.334643587262525 
1166	 0.33547294359194 
1167	 0.336276868752961 
1168	 0.337068882352257 
1169	 0.337853184587625 
1170	 0.338635196147937 
1171	 0.339388086228242 
1172	 0.340128816573415 
1173	 0.3408500961293 
1174	 0.341536627048754 
1175	 0.342238866516718 
1176	 0.342935479431079 
1177	 0.343631497210281 
1178	 0.34433906169534 
1179	 0.345026495996409 
1180	 0.345711534061879 
1181	 0.34637678283844 
1182	 0.347017918421514 
1183	 0.347660723214089 
1184	 0.348299111970853 
1185	 0.348927142823575 
1186	 0.349552740911392 
1187	 0.350186183820344 
1188	 0.350794103449364 
1189	 0.351383391505145 
1190	 0.351973235522414 
1191	 0.352555564114907 
1192	 0.353129313085292 
1193	 0.353718420808704 
1194	 0.354263516578507 
1195	 0.354754479426476 
1196	 0.355277606678777 
1197	 0.355799963194868 
1198	 0.356309871745984 
1199	 0.356820367505433 
1200	 0.357356827330446 
1201	 0.357854947420666 
1202	 0.358325359219013 
1203	 0.358797025004511 
1204	 0.359257339735676 
1205	 0.359725455966 
1206	 0.360184896530217 
1207	 0.36064750203112 
1208	 0.361141900063832 
1209	 0.361585916498053 
1210	 0.361999645788771 
1211	 0.362414043177961 
1212	 0.362792738149206 
1213	 0.363185932288918 
1214	 0.363601246845822 
1215	 0.363991537115238 
1216	 0.36437063761407 
1217	 0.36473334014597 
1218	 0.365114214755776 
1219	 0.365500255869841 
1220	 0.365855662809747 
1221	 0.366215126631522 
1222	 0.366555500689601 
1223	 0.366854814612411 
1224	 0.367171732255184 
1225	 0.367504895290532 
1226	 0.367815502387614 
1227	 0.368101542505378 
1228	 0.368402320040732 
1229	 0.368709080554417 
1230	 0.369003100772135 
1231	 0.369311576722742 
1232	 0.36959509745535 
1233	 0.369862072372658 
1234	 0.370093846644408 
1235	 0.370367512784601 
1236	 0.370647232037035 
1237	 0.370919928379764 
1238	 0.371223569378452 
1239	 0.371484957604803 
1240	 0.371721468597672 
1241	 0.371951792934483 
1242	 0.372158198275564 
1243	 0.372376962324273 
1244	 0.372589022927221 
1245	 0.372800846895218 
1246	 0.373020315980638 
1247	 0.37323463951268 
1248	 0.373440882396047 
1249	 0.373650001673381 
1250	 0.373865072434867 
1251	 0.374060981951926 
1252	 0.374253730118239 
1253	 0.374441826902927 
1254	 0.37461700363386 
1255	 0.374774991799237 
1256	 0.37494591264015 
1257	 0.375110182072064 
1258	 0.375280741788676 
1259	 0.375475241960387 
1260	 0.375635057059059 
1261	 0.375784983668463 
1262	 0.375919204328401 
1263	 0.376008564038925 
1264	 0.376128995771067 
1265	 0.376249565402263 
1266	 0.376381891714491 
1267	 0.37653346784918 
1268	 0.376691933855004 
1269	 0.376844373171089 
1270	 0.37699690767271 
1271	 0.377151300417743 
1272	 0.37729127514871 
1273	 0.377473328275297 
1274	 0.377681543865495 
1275	 0.377878555562093 
1276	 0.378114425876336 
1277	 0.378306753648303 
1278	 0.378457574044457 
1279	 0.378636931590935 
1280	 0.378819774039304 
1281	 0.378996706228601 
1282	 0.3791864511346 
1283	 0.379365930332078 
1284	 0.379543854482221 
1285	 0.379702854570093 
1286	 0.379846827372507 
1287	 0.379977752198417 
1288	 0.380081634344859 
1289	 0.38015057407603 
1290	 0.380221281239684 
1291	 0.380287759804663 
1292	 0.380320967388177 
1293	 0.380334791798306 
1294	 0.38032677150532 
1295	 0.380291104304382 
1296	 0.380242260239364 
1297	 0.380168597993314 
1298	 0.380091902727405 
1299	 0.380000871173727 
1300	 0.379898671371857 
1301	 0.37978005475621 
1302	 0.379663898393371 
1303	 0.37954481716502 
1304	 0.379410835962087 
1305	 0.379258491446267 
1306	 0.379136444761515 
1307	 0.379009429261746 
1308	 0.378859279024081 
1309	 0.378712810581912 
1310	 0.378565607245827 
1311	 0.378430046427004 
1312	 0.378272410804764 
1313	 0.378160072942127 
1314	 0.378096500795741 
1315	 0.377999977500136 
1316	 0.377887004622058 
1317	 0.377816338698901 
1318	 0.377745581418221 
1319	 0.377697804146734 
1320	 0.377703206653884 
1321	 0.377694433007609 
1322	 0.377680275046671 
1323	 0.37766900267876 
1324	 0.377702377122801 
1325	 0.377740892684031 
1326	 0.377790475893852 
1327	 0.37786575733746 
1328	 0.37791803067439 
1329	 0.377972495122006 
1330	 0.37805702417647 
1331	 0.378149704032096 
1332	 0.378271244644477 
1333	 0.378433818021284 
1334	 0.378577684811687 
1335	 0.378722261772147 
1336	 0.378889749213528 
1337	 0.379054322340379 
1338	 0.379239947684853 
1339	 0.379474102592725 
1340	 0.379671977649523 
1341	 0.379860654942553 
1342	 0.380051828770845 
1343	 0.380228321206645 
1344	 0.380406216957819 
1345	 0.380617903207479 
1346	 0.380817358040905 
1347	 0.380997556135692 
1348	 0.381197563893871 
1349	 0.381399913500994 
1350	 0.381575748747443 
1351	 0.381751551460834 
1352	 0.381932063874591 
1353	 0.382106934372345 
1354	 0.382261032346871 
1355	 0.382434826277309 
1356	 0.382622212379531 
1357	 0.382803364782829 
1358	 0.382982618397178 
1359	 0.383167826914805 
1360	 0.383356651515114 
1361	 0.383544055772972 
1362	 0.383728505764618 
1363	 0.383920820843242 
1364	 0.384126157321342 
1365	 0.384322999683908 
1366	 0.384519257037429 
1367	 0.384716249410488 
1368	 0.384922264591248 
1369	 0.385086153563912 
1370	 0.385250330997844 
1371	 0.385417994867155 
1372	 0.385548914042237 
1373	 0.385672017083552 
1374	 0.385768605424892 
1375	 0.385850525706763 
1376	 0.385899960740844 
1377	 0.385921162479489 
1378	 0.385926630155105 
1379	 0.385901617544243 
1380	 0.385876605788432 
1381	 0.38583006251024 
1382	 0.385788771921137 
1383	 0.385750017658536 
1384	 0.385695283944262 
1385	 0.385661414091386 
1386	 0.38556717413566 
1387	 0.385445217500614 
1388	 0.385291054321368 
1389	 0.385102077907441 
1390	 0.384869895020346 
1391	 0.384615085184971 
1392	 0.384317380227313 
1393	 0.383975519026406 
1394	 0.383626057820912 
1395	 0.383233330996832 
1396	 0.382807650666651 
1397	 0.382367083490031 
1398	 0.381888296799967 
1399	 0.381408908498851 
1400	 0.380929518246748 
1401	 0.380412094447956 
1402	 0.379873297381788 
1403	 0.379312391139246 
1404	 0.378699098006267 
1405	 0.378117536642052 
1406	 0.377533167712247 
1407	 0.376948920642283 
1408	 0.376376746959953 
1409	 0.375800172577101 
1410	 0.375205639504128 
1411	 0.374633707484418 
1412	 0.374058409478586 
1413	 0.373511586908546 
1414	 0.37301499148647 
1415	 0.37253184693781 
1416	 0.372086261388702 
1417	 0.37167923512384 
1418	 0.371259540039838 
1419	 0.370855685270696 
1420	 0.370489307019746 
1421	 0.370120936518625 
1422	 0.369785359170457 
1423	 0.369482739942181 
1424	 0.36918255263325 
1425	 0.368897119195173 
1426	 0.368626881651443 
1427	 0.368358144592849 
1428	 0.368127990888021 
1429	 0.367931678847753 
1430	 0.367736605340264 
1431	 0.367567990873043 
1432	 0.367398331214169 
1433	 0.367228122306116 
1434	 0.367073662402883 
1435	 0.366914278229971 
1436	 0.366798203758236 
1437	 0.366725717674433 
1438	 0.366634551498877 
1439	 0.366563540850482 
1440	 0.366499037411452 
1441	 0.366391895206308 
1442	 0.366290776891121 
1443	 0.366195441048157 
1444	 0.366101983792717 
1445	 0.366030048600942 
1446	 0.365969951448419 
1447	 0.365939901872668 
1448	 0.365917925459512 
1449	 0.365892775637269 
1450	 0.365879368176372 
1451	 0.365880893222122 
1452	 0.36587483656943 
1453	 0.365923109654909 
1454	 0.366011959435379 
1455	 0.366097692643626 
1456	 0.366224497257049 
1457	 0.366321625285883 
1458	 0.366411165512695 
1459	 0.36650029173538 
1460	 0.366574653225504 
1461	 0.366670288268737 
1462	 0.366781860179348 
1463	 0.36688035540348 
1464	 0.366995745611537 
1465	 0.367083129799259 
1466	 0.367135599935924 
1467	 0.367210972230616 
1468	 0.367275540632538 
1469	 0.367359492099273 
1470	 0.367466651654152 
1471	 0.367575801116258 
1472	 0.367654697007395 
1473	 0.367749380447538 
1474	 0.367839373716937 
1475	 0.367934001342817 
1476	 0.368076557239894 
1477	 0.368213788851834 
1478	 0.368354233327621 
1479	 0.368490876205076 
1480	 0.368622794254101 
1481	 0.368772093804672 
1482	 0.368901069576473 
1483	 0.369017246282953 
1484	 0.369154156795979 
1485	 0.369287287556252 
1486	 0.369429164411796 
1487	 0.369596790210862 
1488	 0.369746859095351 
1489	 0.369888121710863 
1490	 0.370023158452763 
1491	 0.370153706712148 
1492	 0.370287992148481 
1493	 0.370417948650368 
1494	 0.370545103468202 
1495	 0.37067419275564 
1496	 0.370802366809305 
1497	 0.370921249501321 
1498	 0.371050855687875 
1499	 0.371197107881782 
1500	 0.371319347507641 
1501	 0.371436628469807 
1502	 0.371542339680101 
1503	 0.371614177235765 
1504	 0.371718874898983 
1505	 0.371836495939649 
1506	 0.371947503411647 
1507	 0.372062861626633 
1508	 0.372172600100185 
1509	 0.372258736958326 
1510	 0.372347678925955 
1511	 0.372443176254511 
1512	 0.372536642518693 
1513	 0.372659778203308 
1514	 0.372783023713097 
1515	 0.372912574108486 
1516	 0.373045367076471 
1517	 0.373136493233832 
1518	 0.373190751592318 
1519	 0.373263023264915 
1520	 0.373311176897795 
1521	 0.373386378462929 
1522	 0.373475220166965 
1523	 0.373569198829627 
1524	 0.373674039028029 
1525	 0.373778203084607 
1526	 0.373897149964897 
1527	 0.373999620804145 
1528	 0.374091912157367 
1529	 0.374181810645994 
1530	 0.374268163181763 
1531	 0.37435292192259 
1532	 0.374439616483927 
1533	 0.374520448000962 
1534	 0.374594019106827 
1535	 0.374662214970327 
1536	 0.374715855759129 
1537	 0.374781930558512 
1538	 0.374848755874094 
1539	 0.37491915452131 
1540	 0.375006413864894 
1541	 0.375081999938562 
1542	 0.375160194078838 
1543	 0.375224361320442 
1544	 0.375268173089892 
1545	 0.375318848191301 
1546	 0.375365919005725 
1547	 0.375403824125586 
1548	 0.375460466668445 
1549	 0.375540203276584 
1550	 0.375611780745671 
1551	 0.375691391078268 
1552	 0.375762286159294 
1553	 0.375814813603993 
1554	 0.375885172022701 
1555	 0.375946672151297 
1556	 0.376009035881038 
1557	 0.376083974482247 
1558	 0.376141710829766 
1559	 0.37620778939199 
1560	 0.376261441465559 
1561	 0.376305914243551 
1562	 0.376355195011672 
1563	 0.376392988864665 
1564	 0.376451289254565 
1565	 0.376523841977375 
1566	 0.376593417285284 
1567	 0.376671276502143 
1568	 0.376745010003183 
1569	 0.376823144478422 
1570	 0.376884620952951 
1571	 0.37694708219148 
1572	 0.376993108636142 
1573	 0.37701246723503 
1574	 0.377047845974642 
1575	 0.377082454978992 
1576	 0.377117344599399 
1577	 0.377162079152136 
1578	 0.377192632600513 
1579	 0.377211319569141 
1580	 0.377234739936191 
1581	 0.377253518576669 
1582	 0.377279373560204 
1583	 0.377293938007095 
1584	 0.377340830389045 
1585	 0.377411784944609 
1586	 0.377468242425056 
1587	 0.377548284788533 
1588	 0.377612641042122 
1589	 0.377669865441545 
1590	 0.377711613982004 
1591	 0.377740749887011 
1592	 0.377769478340505 
1593	 0.377778791152786 
1594	 0.377792228623571 
1595	 0.377800688656549 
1596	 0.377828126641347 
1597	 0.377856478744677 
1598	 0.377894207567796 
1599	 0.377972791848459 
1600	 0.378017063027672 
1601	 0.378039454815081 
1602	 0.378070739852768 
1603	 0.378092523401815 
1604	 0.378108393244396 
1605	 0.378121352088499 
1606	 0.378141582727163 
1607	 0.378150732804957 
1608	 0.378172241866299 
1609	 0.378214439221268 
1610	 0.378261431160587 
1611	 0.378284543650266 
1612	 0.378303423979827 
1613	 0.378305019023205 
1614	 0.378294971967482 
1615	 0.378307988416221 
1616	 0.378312156572613 
1617	 0.378317642359158 
1618	 0.378335915063543 
1619	 0.378339662826917 
1620	 0.378343093082256 
1621	 0.378348396082628 
1622	 0.378357202410458 
1623	 0.378352107128053 
1624	 0.378339310001843 
1625	 0.378337602168214 
1626	 0.378327161674367 
1627	 0.378330421036696 
1628	 0.378350580384364 
1629	 0.37836221279104 
1630	 0.378376498819947 
1631	 0.378378145015428 
1632	 0.378369378075406 
1633	 0.378376879105041 
1634	 0.378390538361309 
1635	 0.378383510995921 
1636	 0.378379696704546 
1637	 0.378371805919288 
1638	 0.378339380311479 
1639	 0.378322645310771 
1640	 0.37832399964283 
1641	 0.378307202135717 
1642	 0.378270641501491 
1643	 0.378259377252071 
1644	 0.378254922194652 
1645	 0.378257346837068 
1646	 0.378274275634336 
1647	 0.37828601621817 
1648	 0.37830074003147 
1649	 0.378313914242387 
1650	 0.378327712512597 
1651	 0.378344316045577 
1652	 0.378370102388779 
1653	 0.378372872881848 
1654	 0.378373680251565 
1655	 0.378357356791212 
1656	 0.378311901949582 
1657	 0.378282844273511 
1658	 0.378247706558769 
1659	 0.378224893446479 
1660	 0.378214122141038 
1661	 0.378193960996703 
1662	 0.378181345583914 
1663	 0.378153378523813 
1664	 0.378110009646454 
1665	 0.37807562200082 
1666	 0.37803400611845 
1667	 0.378003744078554 
1668	 0.377976647782949 
1669	 0.377961957121758 
1670	 0.377967652339925 
1671	 0.377951316973651 
1672	 0.377930899414124 
1673	 0.377916038147396 
1674	 0.377885693482189 
1675	 0.377871117497005 
1676	 0.377869230145133 
1677	 0.377873579778501 
1678	 0.377883602956424 
1679	 0.377895640503632 
1680	 0.377945457223411 
1681	 0.377930745119216 
1682	 0.377880884893719 
1683	 0.377833854496465 
1684	 0.377732002590166 
1685	 0.377684445554176 
1686	 0.377659795305497 
1687	 0.377645607687315 
1688	 0.377668021977873 
1689	 0.377658007896118 
1690	 0.377647803336963 
1691	 0.377627533796454 
1692	 0.37757981908143 
1693	 0.37755343528208 
1694	 0.377540931977094 
1695	 0.377513214139279 
1696	 0.37747406982904 
1697	 0.377457558578147 
1698	 0.377433334162067 
1699	 0.377439486476636 
1700	 0.377488266899597 
1701	 0.377507105253299 
1702	 0.37754171900327 
1703	 0.37753490155011 
1704	 0.377497325657969 
1705	 0.377462989889226 
1706	 0.377404621345472 
1707	 0.377357088668352 
1708	 0.37730805934504 
1709	 0.377262541698272 
1710	 0.377207625488642 
1711	 0.377175188304477 
1712	 0.37715561013784 
1713	 0.377146614265355 
1714	 0.377159175595146 
1715	 0.377157063720198 
1716	 0.377162861227841 
1717	 0.377151726774691 
1718	 0.37713619453011 
1719	 0.377105002554601 
1720	 0.377060651673423 
1721	 0.377009255299528 
1722	 0.376930735301972 
1723	 0.376882911930549 
1724	 0.376830776392794 
1725	 0.376803294149347 
1726	 0.376817480616684 
1727	 0.376791976806574 
1728	 0.376767952891392 
1729	 0.376728573609468 
1730	 0.376675878262399 
1731	 0.376589003596382 
1732	 0.376483522244122 
1733	 0.376374396394621 
1734	 0.376225835420105 
1735	 0.376095977352685 
1736	 0.375957407971594 
1737	 0.375863288047418 
1738	 0.375779779060337 
1739	 0.375720339521905 
1740	 0.375715387293076 
1741	 0.375674912510953 
1742	 0.375629120758257 
1743	 0.375576772455438 
1744	 0.375517713815104 
1745	 0.375451109142477 
1746	 0.375366738203238 
1747	 0.375305744557378 
1748	 0.375280285854756 
1749	 0.375269589444037 
1750	 0.375236788016312 
1751	 0.375175936867119 
1752	 0.375121767855424 
1753	 0.375039149466558 
1754	 0.37493560009205 
1755	 0.374894467155089 
1756	 0.374826220138339 
1757	 0.374764234037904 
1758	 0.374747212632233 
1759	 0.374668469626839 
1760	 0.374571016136888 
1761	 0.374481424280222 
1762	 0.374378605793961 
1763	 0.37428668558372 
1764	 0.374201818832772 
1765	 0.374132672342954 
1766	 0.37409684783256 
1767	 0.374059642184403 
1768	 0.374030128785602 
1769	 0.374023514724705 
1770	 0.373987823123694 
1771	 0.373943189104179 
1772	 0.373896032775824 
1773	 0.37380709628587 
1774	 0.373730369278626 
1775	 0.373666871762266 
1776	 0.373603273690787 
1777	 0.373580716456429 
1778	 0.373548561666033 
1779	 0.373552472339046 
1780	 0.373580414310987 
1781	 0.373557796442817 
1782	 0.373554643184725 
1783	 0.37351796248968 
1784	 0.373479118829889 
1785	 0.373446064747519 
1786	 0.373407885894382 
1787	 0.373337249481794 
1788	 0.373310456087615 
1789	 0.373323184664955 
1790	 0.373325406497631 
1791	 0.373343790697404 
1792	 0.373350485604104 
1793	 0.373352674144553 
1794	 0.37333987879802 
1795	 0.373321520533692 
1796	 0.373292433329382 
1797	 0.373229577052891 
1798	 0.373212945000304 
1799	 0.373214500452098 
1800	 0.373228366222357 
1801	 0.366147158187844 
1802	 0.366270001674832 
1803	 0.366430143545921 
1804	 0.366589978032751 
1805	 0.366759766728101 
1806	 0.366923746509768 
1807	 0.367081364736903 
1808	 0.367211502295567 
1809	 0.367353787204421 
1810	 0.367440723050901 
1811	 0.367486481758427 
1812	 0.367506445189419 
1813	 0.367536173739191 
1814	 0.367563068121527 
1815	 0.367561467506573 
1816	 0.367589780510741 
1817	 0.367621140403178 
1818	 0.367631058668528 
1819	 0.367659365891114 
1820	 0.367725995284386 
1821	 0.367761305215432 
1822	 0.367768397393366 
1823	 0.367783747545906 
1824	 0.367823145079497 
1825	 0.36787954886933 
1826	 0.367948274181284 
1827	 0.368017568008723 
1828	 0.368037090389219 
1829	 0.368011851555366 
1830	 0.368001213720553 
1831	 0.367971350856255 
1832	 0.367930172053006 
1833	 0.367879574064123 
1834	 0.36782874288784 
1835	 0.367795916863721 
1836	 0.367778114703409 
1837	 0.367789490960511 
1838	 0.367821885080721 
1839	 0.36786164889341 
1840	 0.367922765830848 
1841	 0.367943850417303 
1842	 0.367954693963201 
1843	 0.367978703817437 
1844	 0.367941823478252 
1845	 0.367901065943083 
1846	 0.367890024997043 
1847	 0.367857975856293 
1848	 0.367793850596922 
1849	 0.367741419451169 
1850	 0.36771220732072 
1851	 0.367694440992253 
1852	 0.367674676538461 
1853	 0.367674766510256 
1854	 0.367659892178468 
1855	 0.367602511060087 
1856	 0.36752487932823 
1857	 0.367450247578846 
1858	 0.36736084908251 
1859	 0.367244597373114 
1860	 0.367102552456263 
1861	 0.366945282246279 
1862	 0.366737622972704 
1863	 0.366492938030053 
1864	 0.366233134787428 
1865	 0.365969244934863 
1866	 0.365655188210222 
1867	 0.365328687765827 
1868	 0.365011742226048 
1869	 0.364652365160478 
1870	 0.364316477894411 
1871	 0.363969122703699 
1872	 0.363631553558294 
1873	 0.363270265343978 
1874	 0.36289055633095 
1875	 0.3624663928855 
1876	 0.36199553457659 
1877	 0.361468729901107 
1878	 0.360898397333725 
1879	 0.360276084533698 
1880	 0.359595866061985 
1881	 0.358867068237377 
1882	 0.358084609527647 
1883	 0.357254213818781 
1884	 0.356336151254417 
1885	 0.355372665682738 
1886	 0.354359713473563 
1887	 0.353233172951669 
1888	 0.352070895221833 
1889	 0.350848564891302 
1890	 0.349523408291422 
1891	 0.348169424569121 
1892	 0.346756417743981 
1893	 0.345293103628234 
1894	 0.343774573644176 
1895	 0.342233481809679 
1896	 0.340598615184215 
1897	 0.338926246971272 
1898	 0.337226816998258 
1899	 0.335535935069783 
1900	 0.33386080740567 
1901	 0.332180515280373 
1902	 0.330544089048166 
1903	 0.328929020576339 
1904	 0.327339242877244 
1905	 0.325764452383605 
1906	 0.324264264182291 
1907	 0.322776955560214 
1908	 0.321331799106553 
1909	 0.319970968866471 
1910	 0.318665375036457 
1911	 0.317416062569761 
1912	 0.316251776415473 
1913	 0.315132153855161 
1914	 0.314046965913893 
1915	 0.313038539271629 
1916	 0.312100641689309 
1917	 0.311219034096144 
1918	 0.31038619431091 
1919	 0.30963599606525 
1920	 0.308967765770638 
1921	 0.308334813813524 
1922	 0.307765246958181 
1923	 0.30727463936058 
1924	 0.306815900734459 
1925	 0.306388785820281 
1926	 0.30604320021019 
1927	 0.305759436135478 
1928	 0.305525042919231 
1929	 0.305364318933359 
1930	 0.305219363884174 
1931	 0.305093780261351 
1932	 0.304994936622114 
1933	 0.30491138988106 
1934	 0.30485928384267 
1935	 0.304838864454194 
1936	 0.304846627203781 
1937	 0.304884748106118 
1938	 0.304956106234522 
1939	 0.305054990795499 
1940	 0.305189488376086 
1941	 0.30533264854054 
1942	 0.305512919932439 
1943	 0.305722407591876 
1944	 0.305946016904323 
1945	 0.306189497534054 
1946	 0.306439075769013 
1947	 0.306699722401813 
1948	 0.306970372398392 
1949	 0.307255118968961 
1950	 0.307548677651612 
1951	 0.307851141542486 
1952	 0.308165396769479 
1953	 0.308493685373113 
1954	 0.308828650936391 
1955	 0.309169799754873 
1956	 0.309516633214448 
1957	 0.309867473196264 
1958	 0.310218258021769 
1959	 0.310574052095345 
1960	 0.3109354158401 
1961	 0.311307060194093 
1962	 0.311686600557202 
1963	 0.312074829736254 
1964	 0.312481326204914 
1965	 0.312879850676899 
1966	 0.313274710896129 
1967	 0.313652805929857 
1968	 0.314042808471851 
1969	 0.314429882779188 
1970	 0.314813125106707 
1971	 0.315196063002781 
1972	 0.315593904894905 
1973	 0.315996577936403 
1974	 0.316391636818388 
1975	 0.316787454206115 
1976	 0.317192422845204 
1977	 0.317620070730863 
1978	 0.318042464382867 
1979	 0.318473029652919 
1980	 0.318916235375406 
1981	 0.319345650507657 
1982	 0.31974034264088 
1983	 0.320167672230423 
1984	 0.320618354550483 
1985	 0.321058656108732 
1986	 0.321507514387925 
1987	 0.321949129930225 
1988	 0.322392070380462 
1989	 0.322823381951963 
1990	 0.323267023254488 
1991	 0.323678451670272 
1992	 0.32410114012793 
1993	 0.324536086659126 
1994	 0.324947693713415 
1995	 0.325331533711582 
1996	 0.325739307392289 
1997	 0.326136688902097 
1998	 0.326549390474218 
1999	 0.326996066751846 
2000	 0.327424410061657 
2001	 0.327865071694061 
2002	 0.328269363496697 
2003	 0.32866946956742 
2004	 0.329065378279835 
2005	 0.329454061379287 
2006	 0.329822947765913 
2007	 0.330215879769395 
2008	 0.330604593990186 
2009	 0.331012700431444 
2010	 0.331446871424061 
2011	 0.331870518202111 
2012	 0.332312924257121 
2013	 0.33272882771945 
2014	 0.333131846540551 
2015	 0.333529608834234 
2016	 0.333890100638131 
2017	 0.334291079573536 
2018	 0.334694709284895 
2019	 0.335112909454793 
2020	 0.335520660608124 
2021	 0.33593991570113 
2022	 0.336347564651636 
2023	 0.336758301035652 
2024	 0.337146015574529 
2025	 0.337524505216079 
2026	 0.337896275768656 
2027	 0.33824813640935 
2028	 0.338588959306434 
2029	 0.33893577322427 
2030	 0.339277633449918 
2031	 0.339632457200264 
2032	 0.33998617957364 
2033	 0.340350250780855 
2034	 0.340729789008496 
2035	 0.341104861751307 
2036	 0.341495384299907 
2037	 0.34185935871144 
2038	 0.342227372108117 
2039	 0.342568617451263 
2040	 0.342884721243351 
2041	 0.343182676722261 
2042	 0.343485953604016 
2043	 0.343772724466375 
2044	 0.344061634688607 
2045	 0.344347220228018 
2046	 0.344636462684448 
2047	 0.344923446208006 
2048	 0.345205791117993 
2049	 0.345492380573153 
2050	 0.345767543587681 
2051	 0.34602518325151 
2052	 0.346293910534199 
2053	 0.34656236800852 
2054	 0.346833853419156 
2055	 0.34711958215304 
2056	 0.347396634918636 
2057	 0.34765182237575 
2058	 0.347893876594317 
2059	 0.348138523732827 
2060	 0.348350744539266 
2061	 0.348599675313575 
2062	 0.348877747563946 
2063	 0.349133901734013 
2064	 0.349393890857878 
2065	 0.349651891120728 
2066	 0.349900014367294 
2067	 0.350147966988979 
2068	 0.350402203821822 
2069	 0.350643609319985 
2070	 0.350899134554367 
2071	 0.3511576785378 
2072	 0.351405088529346 
2073	 0.351671920088201 
2074	 0.351897928144797 
2075	 0.352079543822751 
2076	 0.352294916885611 
2077	 0.352507163666629 
2078	 0.352720571421189 
2079	 0.352941559788451 
2080	 0.353173429049318 
2081	 0.353411535304964 
2082	 0.353640811154539 
2083	 0.353886562848935 
2084	 0.354114439961219 
2085	 0.354355322021893 
2086	 0.354587745724235 
2087	 0.354823990606139 
2088	 0.355071238948849 
2089	 0.35531859795189 
2090	 0.355564007023665 
2091	 0.355801470285168 
2092	 0.356039483333505 
2093	 0.356283023885647 
2094	 0.356529522052735 
2095	 0.356757693614034 
2096	 0.356998908259471 
2097	 0.357215742904748 
2098	 0.357400953581324 
2099	 0.357575047221868 
2100	 0.357762920371951 
2101	 0.357938058379595 
2102	 0.358145875251145 
2103	 0.358371945369686 
2104	 0.358596157535327 
2105	 0.358833674376062 
2106	 0.359078083198573 
2107	 0.359319862058393 
2108	 0.359578165979732 
2109	 0.359866658050089 
2110	 0.360139301632116 
2111	 0.360415340601412 
2112	 0.360685053383079 
2113	 0.360954126499647 
2114	 0.361216579414236 
2115	 0.361454275296511 
2116	 0.361676262310015 
2117	 0.361901655275317 
2118	 0.362090392406455 
2119	 0.362329883343427 
2120	 0.36260065619208 
2121	 0.362856177156783 
2122	 0.363138529779077 
2123	 0.363390013471519 
2124	 0.363627285628467 
2125	 0.363854366996264 
2126	 0.364071685468283 
2127	 0.364275402995779 
2128	 0.364468554335427 
2129	 0.364644664384223 
2130	 0.364790910495317 
2131	 0.364950454673828 
2132	 0.365094317380692 
2133	 0.365233923249852 
2134	 0.365341548521964 
2135	 0.365436783520391 
2136	 0.365512135112729 
2137	 0.365557513543557 
2138	 0.365593353516305 
2139	 0.365615012417551 
2140	 0.365627489339255 
2141	 0.365608020812183 
2142	 0.365601897607371 
2143	 0.365595563516269 
2144	 0.365590457405048 
2145	 0.36562176217792 
2146	 0.365596625753083 
2147	 0.365558687240747 
2148	 0.365471465144312 
2149	 0.365383541675747 
2150	 0.365245281575226 
2151	 0.365130464803606 
2152	 0.365026578662217 
2153	 0.364898826992032 
2154	 0.364740903378585 
2155	 0.364611624132883 
2156	 0.364499870907366 
2157	 0.364359581312992 
2158	 0.364240114438412 
2159	 0.364074833881336 
2160	 0.363849239813475 
2161	 0.36364498161399 
2162	 0.3634302857046 
2163	 0.363214782197447 
2164	 0.362994164295856 
2165	 0.36279409947086 
2166	 0.362571919970562 
2167	 0.362335911636635 
2168	 0.362108709863579 
2169	 0.361871800418246 
2170	 0.361656114274575 
2171	 0.361456674048078 
2172	 0.361244854174278 
2173	 0.361047837527377 
2174	 0.360829051982173 
2175	 0.360576343297201 
2176	 0.360355577435718 
2177	 0.360137023129958 
2178	 0.359930508741335 
2179	 0.359746587465276 
2180	 0.359563232365839 
2181	 0.359383663130672 
2182	 0.359209700721654 
2183	 0.35903065950501 
2184	 0.358884503255014 
2185	 0.35872448316443 
2186	 0.358572524249741 
2187	 0.358399220124181 
2188	 0.358207632302718 
2189	 0.358043155037813 
2190	 0.357892110447129 
2191	 0.357715779982995 
2192	 0.357541089191317 
2193	 0.357367810645124 
2194	 0.357149792025028 
2195	 0.356981324067389 
2196	 0.356847931691806 
2197	 0.356719168669765 
2198	 0.356605567860783 
2199	 0.35650504553729 
2200	 0.356430648582265 
2201	 0.356348120925463 
2202	 0.356278709152264 
2203	 0.356199671900792 
2204	 0.35612364145083 
2205	 0.356045249726053 
2206	 0.355963743127089 
2207	 0.355874155316895 
2208	 0.355806947909177 
2209	 0.355735321875657 
2210	 0.355688111346576 
2211	 0.355686628422261 
2212	 0.355642862269555 
2213	 0.355587236843684 
2214	 0.355536457525561 
2215	 0.35545977326865 
2216	 0.355409436680563 
2217	 0.355364758404443 
2218	 0.355341937373055 
2219	 0.355356781493108 
2220	 0.355344960130986 
2221	 0.355326057553305 
2222	 0.35533019901671 
2223	 0.355303222243076 
2224	 0.355280527769314 
2225	 0.355261771836664 
2226	 0.355267199815181 
2227	 0.355216610823647 
2228	 0.355134151743602 
2229	 0.355073332297187 
2230	 0.354978889822044 
2231	 0.354928443858619 
2232	 0.354908479271475 
2233	 0.354885495591621 
2234	 0.354885468008171 
2235	 0.354862709742318 
2236	 0.354837538660378 
2237	 0.354810786953434 
2238	 0.354757148341928 
2239	 0.354728120362698 
2240	 0.354739382426517 
2241	 0.354711411711753 
2242	 0.354657004929574 
2243	 0.354622536920569 
2244	 0.354572641384674 
2245	 0.354525933175604 
2246	 0.354513196891599 
2247	 0.354524997335737 
2248	 0.354505625223133 
2249	 0.354484480689355 
2250	 0.354439301171428 
2251	 0.354363270189561 
2252	 0.354321504960346 
2253	 0.354269464486783 
2254	 0.35424960083535 
2255	 0.3542632949185 
2256	 0.354264602419407 
2257	 0.354262557959265 
2258	 0.354290094389234 
2259	 0.354358891660141 
2260	 0.354379296754381 
2261	 0.35441303310073 
2262	 0.35440697778286 
2263	 0.354311025242845 
2264	 0.354290537782291 
2265	 0.354289821668041 
2266	 0.354303370454694 
2267	 0.354367739065976 
2268	 0.354411655477516 
2269	 0.35445361270416 
2270	 0.354505812307907 
2271	 0.35451269512123 
2272	 0.35451770166374 
2273	 0.354505996656605 
2274	 0.354440075605967 
2275	 0.354389057500301 
2276	 0.354323143884008 
2277	 0.354287425993392 
2278	 0.354257123550478 
2279	 0.354214387222046 
2280	 0.354181329341748 
2281	 0.354156890762411 
2282	 0.354113298802042 
2283	 0.354099826794794 
2284	 0.354152016991199 
2285	 0.354132777997665 
2286	 0.35407553053633 
2287	 0.354024758804114 
2288	 0.353927727575634 
2289	 0.353861480452019 
2290	 0.353800888880523 
2291	 0.353779473305416 
2292	 0.353782445177297 
2293	 0.353794558793726 
2294	 0.353864777058057 
2295	 0.353890596120637 
2296	 0.35389001849082 
2297	 0.353924739132077 
2298	 0.353884483667906 
2299	 0.353796690045286 
2300	 0.353782278068671 
2301	 0.353730272203073 
2302	 0.353701328134758 
2303	 0.353732055675664 
2304	 0.353708915828081 
2305	 0.353703283748342 
2306	 0.353688368113247 
2307	 0.353698388524813 
2308	 0.353656784369424 
2309	 0.353579447307231 
2310	 0.353504576557328 
2311	 0.353417545092638 
2312	 0.353299130629156 
2313	 0.353167786175997 
2314	 0.353019815692576 
2315	 0.352779575867236 
2316	 0.352669846559263 
2317	 0.352643699441082 
2318	 0.352562056158226 
2319	 0.352542356867648 
2320	 0.352461533844967 
2321	 0.352261675779143 
2322	 0.352175676860952 
2323	 0.352172283267061 
2324	 0.352122031994328 
2325	 0.352104926975671 
2326	 0.352060629000284 
2327	 0.351967262777451 
2328	 0.35188097508044 
2329	 0.351861594056298 
2330	 0.351791430677514 
2331	 0.351723293061899 
2332	 0.351652043417029 
2333	 0.351517021402445 
2334	 0.351426121804486 
2335	 0.351350593592172 
2336	 0.351285765697919 
2337	 0.351238828703254 
2338	 0.351159708382239 
2339	 0.351001572084709 
2340	 0.350797109330705 
2341	 0.350649863496974 
2342	 0.350452502883269 
2343	 0.35028505179074 
2344	 0.350157001500695 
2345	 0.349973117038492 
2346	 0.349726365525273 
2347	 0.349535656440101 
2348	 0.349351634166531 
2349	 0.349184523138827 
2350	 0.349066799965602 
2351	 0.34888848540987 
2352	 0.348701291663509 
2353	 0.348461173635443 
2354	 0.348125794771518 
2355	 0.347883007272867 
2356	 0.347688561241258 
2357	 0.347430594750039 
2358	 0.347179866475849 
2359	 0.346919959004475 
2360	 0.346590518148688 
2361	 0.346326518980457 
2362	 0.346144698614306 
2363	 0.345886861262227 
2364	 0.345579721848743 
2365	 0.34527316541632 
2366	 0.344930908086102 
2367	 0.344628182480118 
2368	 0.344335238647358 
2369	 0.344084573612326 
2370	 0.343891512404996 
2371	 0.343645329306345 
2372	 0.343396423027408 
2373	 0.343122917017046 
2374	 0.342745648406982 
2375	 0.34236332754337 
2376	 0.342048387278233 
2377	 0.341685843265788 
2378	 0.341331920071551 
2379	 0.341005866509509 
2380	 0.340637228263465 
2381	 0.340302351518917 
2382	 0.339993736836855 
2383	 0.339690715447833 
2384	 0.33942312139894 
2385	 0.339135724278879 
2386	 0.338871363554507 
2387	 0.338604553872634 
2388	 0.338242064474264 
2389	 0.337925958218953 
2390	 0.337696218382828 
2391	 0.337436599381996 
2392	 0.337144389742594 
2393	 0.336827714461896 
2394	 0.336476003012788 
2395	 0.336132570001484 
2396	 0.335816845384545 
2397	 0.335516217220143 
2398	 0.335148582914194 
2399	 0.334714967377555 
2400	 0.334374775791429 
2401	 0.334034849393448 
2402	 0.333703331079779 
2403	 0.333450853428125 
2404	 0.33313830303879 
2405	 0.33281482019354 
2406	 0.332498721604565 
2407	 0.332125579608059 
2408	 0.331735000277042 
2409	 0.331375284023117 
2410	 0.330963048699355 
2411	 0.330652486211062 
2412	 0.330461682649276 
2413	 0.330184493999894 
2414	 0.329898579109352 
2415	 0.329493153457763 
2416	 0.329147484582135 
2417	 0.328779057121263 
2418	 0.328393909052503 
2419	 0.328039753567888 
2420	 0.327701906732663 
2421	 0.327260823220395 
2422	 0.32691370761127 
2423	 0.326721119169804 
2424	 0.326390721924095 
2425	 0.326015378382259 
2426	 0.325626136938219 
2427	 0.325141176746336 
2428	 0.324782180139476 
2429	 0.324425546358671 
2430	 0.324152102776642 
2431	 0.324059622725404 
2432	 0.323776228497918 
2433	 0.323449054474508 
2434	 0.323120171938711 
2435	 0.322667541243976 
2436	 0.322279407677974 
2437	 0.321953181791967 
2438	 0.321593025666436 
2439	 0.321237793049038 
2440	 0.320874211317094 
2441	 0.320463823703304 
2442	 0.320080348657943 
2443	 0.319720979463326 
2444	 0.319320035423673 
2445	 0.318874059926356 
2446	 0.318585031886713 
2447	 0.318310252854831 
2448	 0.318017410635567 
2449	 0.317925100270721 
2450	 0.317617152802159 
2451	 0.317188590395665 
2452	 0.316844958921924 
2453	 0.316434054316397 
2454	 0.31601026734606 
2455	 0.315602052943561 
2456	 0.315128904909108 
2457	 0.314564328988927 
2458	 0.314112857003384 
2459	 0.313678604473433 
2460	 0.313311525382739 
2461	 0.31307965053695 
2462	 0.312650372926762 
2463	 0.312114867742478 
2464	 0.311722714485902 
2465	 0.311312535828536 
2466	 0.310907999091582 
2467	 0.310647093263149 
2468	 0.310315182809415 
2469	 0.309829944755023 
2470	 0.309540307549783 
2471	 0.309255414535863 
2472	 0.309061883451758 
2473	 0.308874974625279 
2474	 0.308611457630931 
2475	 0.308385985310067 
2476	 0.308094886863516 
2477	 0.307735388210651 
2478	 0.307440466966142 
2479	 0.307191214155981 
2480	 0.307043794157953 
2481	 0.306888693624405 
2482	 0.306603079246277 
2483	 0.306220918112129 
2484	 0.305667544327362 
2485	 0.305341582383297 
2486	 0.305178428410207 
2487	 0.30509573796632 
2488	 0.305035666729207 
2489	 0.304627400667179 
2490	 0.304392941292341 
2491	 0.30423832424752 
2492	 0.303969849374839 
2493	 0.303760828705127 
2494	 0.303363763519939 
2495	 0.302950058878489 
2496	 0.302781243539178 
2497	 0.302696984637272 
2498	 0.302530444450959 
2499	 0.302272512334639 
2500	 0.301877596981383 
