Wavelength	LMW800009.asd
350	 6.43516956750978E-02 
351	 0.06478959308001 
352	 0.061901910189604 
353	 5.75006658338857E-02 
354	 0.061787937641765 
355	 0.062428300848622 
356	 5.99409305267739E-02 
357	 5.89279758249595E-02 
358	 6.69299005025389E-02 
359	 0.0636120996878 
360	 5.45425906900427E-02 
361	 5.96444496338988E-02 
362	 5.74207530885415E-02 
363	 5.57470761448163E-02 
364	 5.88723160932232E-02 
365	 5.99821960285976E-02 
366	 6.09108996948564E-02 
367	 5.96078289314446E-02 
368	 5.58648749045437E-02 
369	 6.02117893859995E-02 
370	 6.30311062363343E-02 
371	 6.15507712452948E-02 
372	 5.87104617875002E-02 
373	 0.060972620791988 
374	 6.29210788648042E-02 
375	 6.16881800041693E-02 
376	 6.16461795374446E-02 
377	 5.94208295883387E-02 
378	 5.86630041823095E-02 
379	 6.23595747290767E-02 
380	 6.20583142921273E-02 
381	 0.061568504372898 
382	 6.18662016811864E-02 
383	 6.16394298512594E-02 
384	 6.31607079876317E-02 
385	 6.29555666183097E-02 
386	 6.04918273079833E-02 
387	 6.24078017634227E-02 
388	 6.33158314769106E-02 
389	 6.23206362903463E-02 
390	 0.060603777423621 
391	 6.15399926394891E-02 
392	 6.31465482306947E-02 
393	 6.41604604524449E-02 
394	 6.43223632861144E-02 
395	 6.54635980787464E-02 
396	 0.066194812884235 
397	 6.58984061873274E-02 
398	 6.69833895660423E-02 
399	 6.61798643210543E-02 
400	 6.52593215396802E-02 
401	 6.67846667827078E-02 
402	 0.066801072353277 
403	 6.63644821342059E-02 
404	 6.62145585415062E-02 
405	 6.64224574195236E-02 
406	 6.71077305939077E-02 
407	 0.06788627979557 
408	 6.81025451322176E-02 
409	 6.63666580006002E-02 
410	 6.59101366038656E-02 
411	 6.68878773923346E-02 
412	 6.79011226772298E-02 
413	 6.82948817634783E-02 
414	 6.80657224878562E-02 
415	 6.77763547540188E-02 
416	 6.86055461705607E-02 
417	 6.80313435567141E-02 
418	 6.75270136147248E-02 
419	 6.85064338190076E-02 
420	 6.89120008387406E-02 
421	 6.84460030893864E-02 
422	 6.79814235603327E-02 
423	 6.88464531987117E-02 
424	 0.068878887252119 
425	 0.06831015874125 
426	 6.77164465914499E-02 
427	 6.76996253790812E-02 
428	 6.76180496658955E-02 
429	 6.74908754332943E-02 
430	 6.75062049456773E-02 
431	 6.76081457308198E-02 
432	 6.75003161340543E-02 
433	 6.74056001556776E-02 
434	 6.79866273280886E-02 
435	 6.79024808578633E-02 
436	 6.76851298036189E-02 
437	 6.77742711501363E-02 
438	 6.73080291763482E-02 
439	 6.71516124461113E-02 
440	 6.73658340094728E-02 
441	 0.067600107344705 
442	 6.77672953143585E-02 
443	 0.067979873422455 
444	 6.81747914628774E-02 
445	 6.79705017709052E-02 
446	 6.80600512111399E-02 
447	 6.81846634451291E-02 
448	 6.80201980528329E-02 
449	 6.82108918643617E-02 
450	 6.84296710632849E-02 
451	 6.85746209910196E-02 
452	 0.068752489454934 
453	 6.88487478857626E-02 
454	 6.87162033652947E-02 
455	 6.84673180273925E-02 
456	 6.88980787204053E-02 
457	 6.90960656568978E-02 
458	 6.90560108768848E-02 
459	 6.91352835829101E-02 
460	 6.90155723825651E-02 
461	 6.90116161914339E-02 
462	 6.91911497959939E-02 
463	 6.92028668829552E-02 
464	 6.94634703139958E-02 
465	 0.069695598361753 
466	 6.95943050339736E-02 
467	 6.95065591035131E-02 
468	 6.95824808766374E-02 
469	 0.069728525158086 
470	 6.96726588348802E-02 
471	 6.95341280088725E-02 
472	 6.94333278863938E-02 
473	 6.94017441781112E-02 
474	 6.92167146777345E-02 
475	 6.94478486698633E-02 
476	 6.97402740456242E-02 
477	 6.94937195560268E-02 
478	 6.95710969344257E-02 
479	 0.069745929316951 
480	 6.97886807890785E-02 
481	 6.95919441872192E-02 
482	 6.96724861445295E-02 
483	 6.98700802485544E-02 
484	 6.99147504735206E-02 
485	 6.99488751011456E-02 
486	 0.069944303105558 
487	 6.99021361987792E-02 
488	 0.069853276258503 
489	 6.98614804446278E-02 
490	 6.99364616582823E-02 
491	 7.00525897015829E-02 
492	 7.01612579576936E-02 
493	 7.00045015119869E-02 
494	 6.97673422322925E-02 
495	 6.98067911568216E-02 
496	 6.99987469090476E-02 
497	 7.00456743160503E-02 
498	 6.99274907737417E-02 
499	 7.00600546419775E-02 
500	 6.99893808542981E-02 
501	 6.98772291882014E-02 
502	 6.99517682154523E-02 
503	 6.98977488152371E-02 
504	 6.98517359312658E-02 
505	 6.98749191973111E-02 
506	 6.99386820394557E-02 
507	 6.98649697976425E-02 
508	 6.97842623099335E-02 
509	 6.98071191809414E-02 
510	 6.98319233082744E-02 
511	 6.97933196749129E-02 
512	 6.97668338674122E-02 
513	 6.98677476068991E-02 
514	 6.98056961540818E-02 
515	 6.97626683735734E-02 
516	 6.98288481136009E-02 
517	 6.98548617160919E-02 
518	 6.98155487962423E-02 
519	 6.98023636298153E-02 
520	 6.98994857250008E-02 
521	 6.99185484221141E-02 
522	 0.069967025545813 
523	 7.00181279504908E-02 
524	 6.98949740496696E-02 
525	 0.069866982703858 
526	 6.98706249237884E-02 
527	 6.98251928970562E-02 
528	 6.98415469673601E-02 
529	 6.99198783134063E-02 
530	 6.99997106419601E-02 
531	 6.99881680961646E-02 
532	 0.069895101106393 
533	 6.98955019456947E-02 
534	 7.00339420716671E-02 
535	 7.00446028916038E-02 
536	 7.00325205894471E-02 
537	 7.00428608606683E-02 
538	 0.070095885706613 
539	 0.070176974419453 
540	 0.070184962890139 
541	 7.01420097460682E-02 
542	 7.02403659133888E-02 
543	 7.02788681575874E-02 
544	 7.02908212164414E-02 
545	 0.070346143984744 
546	 0.070393522976507 
547	 7.04252046089868E-02 
548	 7.04533461775307E-02 
549	 7.05011048172057E-02 
550	 0.070460407470696 
551	 7.04616139108027E-02 
552	 7.05861928242245E-02 
553	 7.06909256204465E-02 
554	 7.07130190831203E-02 
555	 7.07203047927765E-02 
556	 7.08365528198897E-02 
557	 7.09683775088139E-02 
558	 7.10606244865058E-02 
559	 0.071117631844734 
560	 7.12414642534883E-02 
561	 7.13259118765709E-02 
562	 7.14080740714286E-02 
563	 7.15510939744975E-02 
564	 7.16755944835275E-02 
565	 7.18064054916498E-02 
566	 7.19390601836314E-02 
567	 7.20321517913378E-02 
568	 7.22341018751377E-02 
569	 7.24603107664909E-02 
570	 7.26269902102699E-02 
571	 7.28541395923723E-02 
572	 7.30993528204641E-02 
573	 7.33432222990519E-02 
574	 0.073580199470685 
575	 7.37565549686567E-02 
576	 7.39767269777894E-02 
577	 7.42855950857059E-02 
578	 0.074544248877868 
579	 7.48211376770552E-02 
580	 7.51594708242997E-02 
581	 7.55704814356044E-02 
582	 7.59018186790157E-02 
583	 7.62533734462593E-02 
584	 7.66549646105432E-02 
585	 7.70040692550975E-02 
586	 0.077400218223271 
587	 7.78331881818511E-02 
588	 7.82708592665949E-02 
589	 7.87383769519906E-02 
590	 7.92304318616676E-02 
591	 7.97056096987197E-02 
592	 8.01014670070538E-02 
593	 8.05835693508046E-02 
594	 8.10810657317991E-02 
595	 8.15462470725899E-02 
596	 8.21378875137538E-02 
597	 0.082691090464878 
598	 8.31861829702176E-02 
599	 8.36861174217681E-02 
600	 8.42062503315971E-02 
601	 8.47169967830702E-02 
602	 8.52081669421811E-02 
603	 0.08571953369691 
604	 8.61931083903816E-02 
605	 8.66635557136704E-02 
606	 8.71795952888275E-02 
607	 8.76722061142341E-02 
608	 8.81691572013998E-02 
609	 8.86680549872115E-02 
610	 8.91279062922642E-02 
611	 8.95831748216879E-02 
612	 9.00296200061114E-02 
613	 9.04539077095757E-02 
614	 9.08525251072373E-02 
615	 9.12148161185075E-02 
616	 9.15605302582237E-02 
617	 9.19250317188713E-02 
618	 9.22802454401115E-02 
619	 9.25785419879218E-02 
620	 9.28238669563644E-02 
621	 9.31371056248058E-02 
622	 9.34273607737679E-02 
623	 9.36880258992421E-02 
624	 9.39453607299186E-02 
625	 9.42104547187102E-02 
626	 9.44679175619002E-02 
627	 9.47150755298698E-02 
628	 9.49693429214594E-02 
629	 9.52242672001166E-02 
630	 9.54326519347717E-02 
631	 9.55782964055826E-02 
632	 9.58048653865898E-02 
633	 9.60144241741205E-02 
634	 9.62042856874472E-02 
635	 9.64460998527294E-02 
636	 9.66219149921569E-02 
637	 9.68392047070828E-02 
638	 9.71286262904909E-02 
639	 9.72277833376039E-02 
640	 0.097358377242142 
641	 9.75613266894303E-02 
642	 9.77896111973762E-02 
643	 9.80129998958267E-02 
644	 9.82108772639668E-02 
645	 9.83851303452981E-02 
646	 9.85658366633906E-02 
647	 9.87456505916727E-02 
648	 9.89433445208884E-02 
649	 9.91714930651805E-02 
650	 0.099387788774892 
651	 9.96302024130867E-02 
652	 9.98750847814485E-02 
653	 0.100051931254327 
654	 0.100267788101907 
655	 0.100481999040448 
656	 0.100670413456517 
657	 0.10091873448196 
658	 0.101184726802524 
659	 0.101450272331829 
660	 0.101708212164193 
661	 0.101958642005456 
662	 0.102224478149678 
663	 0.102509384551139 
664	 0.102786166900141 
665	 0.103067564583819 
666	 0.103361665498705 
667	 0.103663556615844 
668	 0.103910533141832 
669	 0.104209265202267 
670	 0.104553440910127 
671	 0.104845493206286 
672	 0.10518846440034 
673	 0.105541256365415 
674	 0.105868966822965 
675	 0.106207731354081 
676	 0.106572480764135 
677	 0.106931811276747 
678	 0.107251768250016 
679	 0.107640997996328 
680	 0.108033710969039 
681	 0.108409697869987 
682	 0.108828910463094 
683	 0.109212247695787 
684	 0.109594330146922 
685	 0.110024453292337 
686	 0.110497110643058 
687	 0.110945315382066 
688	 0.111385188378676 
689	 0.111880838020119 
690	 0.112297163407098 
691	 0.112710011601212 
692	 0.113182584645356 
693	 0.113700566849404 
694	 0.11415761455456 
695	 0.114600292486429 
696	 0.115112800543327 
697	 0.115628225583221 
698	 0.116152061923185 
699	 0.116686698476988 
700	 0.117225641040442 
701	 0.117725701618735 
702	 0.118226348313205 
703	 0.118756059611755 
704	 0.119258599532677 
705	 0.119772826065013 
706	 0.120310938137299 
707	 0.120863983326942 
708	 0.121381026579581 
709	 0.12189540196422 
710	 0.122430402290995 
711	 0.122982440523156 
712	 0.123524275449187 
713	 0.124047797991864 
714	 0.124559544288453 
715	 0.125094048734434 
716	 0.125608396085322 
717	 0.126105859682126 
718	 0.126619252640163 
719	 0.127103174758004 
720	 0.127557149573641 
721	 0.127994761700707 
722	 0.128440685468681 
723	 0.128907342830402 
724	 0.129377825103893 
725	 0.129823885531137 
726	 0.130222254465566 
727	 0.130615211799986 
728	 0.131000047284984 
729	 0.131332489465263 
730	 0.131673555084225 
731	 0.132002512482957 
732	 0.132305007048776 
733	 0.132625849648083 
734	 0.132883979243888 
735	 0.133106798091363 
736	 0.133353284893946 
737	 0.133571072489084 
738	 0.133758497791807 
739	 0.133922501436601 
740	 0.134074698156746 
741	 0.134192094661547 
742	 0.134291489988195 
743	 0.134375427120238 
744	 0.134380173090034 
745	 0.134373920279455 
746	 0.134390729084204 
747	 0.134428502858335 
748	 0.134370824148539 
749	 0.134297394788179 
750	 0.134237864258131 
751	 0.134140312097589 
752	 0.134023936044044 
753	 0.133896532483823 
754	 0.133758052823954 
755	 0.133590494909969 
756	 0.133419998799865 
757	 0.133225351990844 
758	 0.132975706736237 
759	 0.132757975195748 
760	 0.132523178288925 
761	 0.132255416635457 
762	 0.131995380551242 
763	 0.131741897245165 
764	 0.131470156096559 
765	 0.131166671540622 
766	 0.130867086552526 
767	 0.130564803881217 
768	 0.13024625815512 
769	 0.129901999974804 
770	 0.129585392238986 
771	 0.129246839184371 
772	 0.128872236031887 
773	 0.128500681389172 
774	 0.128152264236761 
775	 0.127805249094246 
776	 0.127439783775236 
777	 0.127066219402421 
778	 0.126738756132918 
779	 0.126401132963457 
780	 0.125974678971821 
781	 0.125586477088534 
782	 0.125249046555289 
783	 0.124918028106269 
784	 0.124508436354181 
785	 0.12415873778044 
786	 0.123830871422525 
787	 0.123478356289472 
788	 0.123117662700145 
789	 0.122762754516031 
790	 0.122418021442271 
791	 0.122077717346435 
792	 0.121712104438121 
793	 0.121350770519063 
794	 0.121007801426106 
795	 0.120679420517207 
796	 0.120340960880314 
797	 0.120011018362159 
798	 0.119693107520892 
799	 0.119348080198724 
800	 0.119044325585823 
801	 0.118763269835214 
802	 0.118465189273847 
803	 0.118139618835508 
804	 0.117844180060167 
805	 0.117568555191126 
806	 0.117266627585278 
807	 0.116987639870173 
808	 0.116696893936803 
809	 0.116403394053678 
810	 0.116178925993075 
811	 0.115921757213181 
812	 0.115655571570776 
813	 0.115416312844753 
814	 0.115196202879418 
815	 0.114951967592516 
816	 0.114696093997624 
817	 0.114463142692159 
818	 0.114260008627408 
819	 0.114051121210826 
820	 0.11383183499211 
821	 0.113624576063227 
822	 0.113409309871862 
823	 0.113212181671154 
824	 0.113043512031774 
825	 0.112878351054052 
826	 0.112697124019734 
827	 0.112527536630723 
828	 0.112387903257571 
829	 0.112224114117949 
830	 0.112030132176299 
831	 0.111843003399843 
832	 0.111709367758368 
833	 0.111591156434476 
834	 0.111481943951005 
835	 0.111373048933744 
836	 0.111252823629386 
837	 0.111113450094527 
838	 0.110978407233893 
839	 0.110861646887182 
840	 0.110751198168605 
841	 0.110685923683684 
842	 0.110603522449005 
843	 0.110468559910847 
844	 0.110417991831604 
845	 0.110382868497155 
846	 0.110315813067569 
847	 0.11020445392305 
848	 0.110164734223277 
849	 0.110112404772632 
850	 0.110032625992274 
851	 0.109978242177223 
852	 0.109939959837125 
853	 0.109914823394913 
854	 0.109901003554093 
855	 0.109898212733251 
856	 0.109876405020959 
857	 0.109843971576021 
858	 0.109817656656238 
859	 0.109806580535522 
860	 0.109822274537569 
861	 0.109847454262297 
862	 0.109857703979811 
863	 0.109849901439937 
864	 0.109846185594666 
865	 0.109864967795496 
866	 0.109912113723493 
867	 0.109934286784662 
868	 0.109990284822244 
869	 0.110071944809408 
870	 0.110099510394065 
871	 0.110104570968773 
872	 0.110170238956068 
873	 0.110307317838256 
874	 0.110401334022539 
875	 0.110457857399678 
876	 0.11051798840919 
877	 0.110609216181205 
878	 0.110687703464887 
879	 0.110834780054047 
880	 0.110965826126573 
881	 0.111001994722985 
882	 0.111136474153347 
883	 0.111295013674968 
884	 0.111427143686919 
885	 0.111514705688857 
886	 0.111614323756979 
887	 0.11179409324388 
888	 0.111989089535988 
889	 0.112054653307238 
890	 0.11221312223495 
891	 0.112377942460687 
892	 0.112529859954196 
893	 0.112772459916224 
894	 0.112948160874175 
895	 0.113095825180907 
896	 0.113271721303241 
897	 0.113488913036813 
898	 0.113694435337575 
899	 0.113882381291313 
900	 0.114074755050438 
901	 0.114331728328051 
902	 0.114552129349036 
903	 0.114776872638282 
904	 0.11505490674935 
905	 0.115268551704092 
906	 0.115499673359313 
907	 0.115781196416144 
908	 0.116096605772808 
909	 0.11633151677794 
910	 0.116578293135821 
911	 0.116878495542129 
912	 0.117211514507349 
913	 0.117451865044692 
914	 0.117721135638407 
915	 0.118057509205486 
916	 0.11839845844018 
917	 0.118657688134148 
918	 0.11898392868126 
919	 0.119391461296203 
920	 0.119717184560967 
921	 0.120083726749445 
922	 0.120435589150737 
923	 0.120753739690489 
924	 0.121111247494334 
925	 0.121486790208168 
926	 0.121910910913159 
927	 0.122375593933896 
928	 0.122789411777521 
929	 0.123198654468105 
930	 0.123581516499365 
931	 0.123944508994998 
932	 0.124395008706022 
933	 0.124847326905 
934	 0.125287570651152 
935	 0.125724919668203 
936	 0.126168501188067 
937	 0.126604916426107 
938	 0.12707237951829 
939	 0.127601840500709 
940	 0.128153923593316 
941	 0.128619513720936 
942	 0.129106261861147 
943	 0.129730564637634 
944	 0.130285709274751 
945	 0.130743939145116 
946	 0.131267753733726 
947	 0.131976751819471 
948	 0.132418051634976 
949	 0.132932485736652 
950	 0.133559243972266 
951	 0.134180354631649 
952	 0.134823676353058 
953	 0.135482611024964 
954	 0.136083115917421 
955	 0.13657007847105 
956	 0.137164774857016 
957	 0.137814698524878 
958	 0.138492922935424 
959	 0.139199873788869 
960	 0.139961483468828 
961	 0.140578496932523 
962	 0.141148966125369 
963	 0.141904793795229 
964	 0.142612262688156 
965	 0.143298935732615 
966	 0.144029633938031 
967	 0.144833351536744 
968	 0.145435479085271 
969	 0.146094248923677 
970	 0.146868666432016 
971	 0.147655120360204 
972	 0.148464665130918 
973	 0.14929129894831 
974	 0.150080624523932 
975	 0.150796747280885 
976	 0.151686650477638 
977	 0.152505673245465 
978	 0.153203507655054 
979	 0.153896799767238 
980	 0.15470073311503 
981	 0.155503662841285 
982	 0.156288540608986 
983	 0.157109079099107 
984	 0.15798826873971 
985	 0.158895336537624 
986	 0.159769263167902 
987	 0.160572979619737 
988	 0.161440811310173 
989	 0.162383300614716 
990	 0.163281378895381 
991	 0.16405126722796 
992	 0.165067509485662 
993	 0.165878134156908 
994	 0.166583396186861 
995	 0.167478102255245 
996	 0.168474817823515 
997	 0.169342121810672 
998	 0.170098033648465 
999	 0.17090253530343 
1000	 0.17197333657619 
1001	 0.17415431823758 
1002	 0.175038498220371 
1003	 0.175893112901327 
1004	 0.176747571331656 
1005	 0.17758973365845 
1006	 0.178460027722614 
1007	 0.179355805768009 
1008	 0.180219957002929 
1009	 0.181038118517654 
1010	 0.181913086120259 
1011	 0.182845158098611 
1012	 0.183745366986092 
1013	 0.184684740791108 
1014	 0.185533810615663 
1015	 0.186263914520112 
1016	 0.187064368659205 
1017	 0.187875792399937 
1018	 0.188673581118459 
1019	 0.189484833315214 
1020	 0.190334938819524 
1021	 0.191108404832518 
1022	 0.191855251012691 
1023	 0.192650298078186 
1024	 0.193446486889023 
1025	 0.194222406327619 
1026	 0.194956673722866 
1027	 0.195704100522061 
1028	 0.196514971588985 
1029	 0.197286079145749 
1030	 0.19803714270949 
1031	 0.198796030868285 
1032	 0.199546548811369 
1033	 0.200261611505197 
1034	 0.201016173551932 
1035	 0.201732103444971 
1036	 0.202442705368546 
1037	 0.203198727897126 
1038	 0.203898865928959 
1039	 0.204646389995269 
1040	 0.205396860894356 
1041	 0.206014172073464 
1042	 0.206670671578938 
1043	 0.20740958469405 
1044	 0.208120627288818 
1045	 0.20883519039235 
1046	 0.20958237897768 
1047	 0.210317870581083 
1048	 0.211022091733731 
1049	 0.211743731587453 
1050	 0.212450918340645 
1051	 0.213173709909375 
1052	 0.213870683524346 
1053	 0.214537091320414 
1054	 0.215283214396174 
1055	 0.215977939830959 
1056	 0.21662844011009 
1057	 0.217338618836435 
1058	 0.218057122612959 
1059	 0.218774715818703 
1060	 0.2195174407755 
1061	 0.220312683052969 
1062	 0.221020933282857 
1063	 0.22177291147723 
1064	 0.222521322558229 
1065	 0.223220304106439 
1066	 0.223963999444308 
1067	 0.224662540253932 
1068	 0.225392509793322 
1069	 0.226173532937673 
1070	 0.226897736642844 
1071	 0.22762275779269 
1072	 0.228336356695622 
1073	 0.228966978644632 
1074	 0.229636173839701 
1075	 0.230302490719968 
1076	 0.231010410648306 
1077	 0.231760431811093 
1078	 0.232523836289183 
1079	 0.23325681174884 
1080	 0.233964747002608 
1081	 0.234669605809142 
1082	 0.235392712602754 
1083	 0.236094341125691 
1084	 0.236808403368601 
1085	 0.237529053471196 
1086	 0.238223184871855 
1087	 0.238912097954359 
1088	 0.239619365566599 
1089	 0.240333808251454 
1090	 0.240986716271782 
1091	 0.241643783502269 
1092	 0.242341415756591 
1093	 0.243041471341409 
1094	 0.243743198519655 
1095	 0.244452349407524 
1096	 0.245157910254671 
1097	 0.245854055497713 
1098	 0.246572808903495 
1099	 0.2473057780203 
1100	 0.248040826140672 
1101	 0.248800778763583 
1102	 0.249538440323976 
1103	 0.250290746991737 
1104	 0.250992322271074 
1105	 0.251649530879825 
1106	 0.252332820814706 
1107	 0.253018578032756 
1108	 0.253729590059462 
1109	 0.254479491879381 
1110	 0.255237617494369 
1111	 0.255987239089731 
1112	 0.256737312208293 
1113	 0.25746926724718 
1114	 0.258190964807176 
1115	 0.258928761398718 
1116	 0.259651379572 
1117	 0.260400954057928 
1118	 0.261178588404537 
1119	 0.261946690697635 
1120	 0.262724538829266 
1121	 0.263472176996924 
1122	 0.264241548435899 
1123	 0.265044330754265 
1124	 0.265820155584974 
1125	 0.26660472914364 
1126	 0.267380685580531 
1127	 0.26812176602561 
1128	 0.268894750361812 
1129	 0.269693704877573 
1130	 0.270470737349501 
1131	 0.27126269045063 
1132	 0.272032823372839 
1133	 0.272769222182551 
1134	 0.273525231731094 
1135	 0.27429091780435 
1136	 0.275035250086031 
1137	 0.275780902799577 
1138	 0.276523894630575 
1139	 0.277282770615239 
1140	 0.278034136667435 
1141	 0.278804370349018 
1142	 0.279618745140358 
1143	 0.280386012535643 
1144	 0.281139124616226 
1145	 0.281877623806216 
1146	 0.282580082618995 
1147	 0.283302709518947 
1148	 0.284030023375073 
1149	 0.284755378491752 
1150	 0.285491718927907 
1151	 0.286207275329373 
1152	 0.286933165874285 
1153	 0.287671134130882 
1154	 0.288396749020932 
1155	 0.289135594989183 
1156	 0.289844773746689 
1157	 0.290540487622981 
1158	 0.29122236109017 
1159	 0.291876218587314 
1160	 0.29255395142382 
1161	 0.293229772811696 
1162	 0.293905064554191 
1163	 0.294595926147193 
1164	 0.295277448698115 
1165	 0.295945977980427 
1166	 0.296626672964304 
1167	 0.297312332487621 
1168	 0.297990967606055 
1169	 0.298635468436472 
1170	 0.299260625418947 
1171	 0.299883466410193 
1172	 0.300474517564015 
1173	 0.301084497216596 
1174	 0.301713863307927 
1175	 0.302317684575475 
1176	 0.302908811041228 
1177	 0.303500284260287 
1178	 0.304066330139161 
1179	 0.304656079809213 
1180	 0.305275941715312 
1181	 0.305867442876303 
1182	 0.306457454582322 
1183	 0.307049145013671 
1184	 0.307605548290345 
1185	 0.3081209654213 
1186	 0.308667785898855 
1187	 0.30920674693139 
1188	 0.309758553734994 
1189	 0.310345995509865 
1190	 0.310884019097674 
1191	 0.311399632098781 
1192	 0.311918379586419 
1193	 0.312420676383408 
1194	 0.312913674562009 
1195	 0.313401574433708 
1196	 0.31388930647853 
1197	 0.314370688970772 
1198	 0.314837800104342 
1199	 0.31529841933653 
1200	 0.315763013127264 
1201	 0.316212392797121 
1202	 0.31663914357376 
1203	 0.317075875908184 
1204	 0.317515932933907 
1205	 0.317950005190255 
1206	 0.31838979584601 
1207	 0.318804027675699 
1208	 0.319211339054143 
1209	 0.31960372251668 
1210	 0.319968579273189 
1211	 0.320337509358626 
1212	 0.320700210831761 
1213	 0.321060532693538 
1214	 0.321416065960288 
1215	 0.321769139209017 
1216	 0.322119478719914 
1217	 0.322466473833919 
1218	 0.322814071372174 
1219	 0.323169904182487 
1220	 0.323497767998416 
1221	 0.323813304156049 
1222	 0.324128246259507 
1223	 0.324420895079241 
1224	 0.324724743917743 
1225	 0.32504762717191 
1226	 0.325343587453236 
1227	 0.325618463641958 
1228	 0.325902559363255 
1229	 0.326182828635588 
1230	 0.326455960424546 
1231	 0.326738629170197 
1232	 0.327006027209854 
1233	 0.327262121895126 
1234	 0.327498752873068 
1235	 0.327742307241237 
1236	 0.327983250346395 
1237	 0.328218221589367 
1238	 0.328447822517504 
1239	 0.328680706577218 
1240	 0.328913563234694 
1241	 0.329136802716466 
1242	 0.329366156995178 
1243	 0.329578273851659 
1244	 0.329766764903311 
1245	 0.329965031541673 
1246	 0.330158435689759 
1247	 0.330353385595781 
1248	 0.330538872175192 
1249	 0.330754643972932 
1250	 0.330952927401873 
1251	 0.331134948897018 
1252	 0.331313832812619 
1253	 0.33148396107968 
1254	 0.331650462956728 
1255	 0.331813446333547 
1256	 0.331966077686154 
1257	 0.332104969853313 
1258	 0.332252812265743 
1259	 0.332394840292557 
1260	 0.332540337935157 
1261	 0.332705434784338 
1262	 0.332844590099355 
1263	 0.332968464770498 
1264	 0.333090541046437 
1265	 0.333193480767556 
1266	 0.333301397373182 
1267	 0.333407201467183 
1268	 0.333519181248577 
1269	 0.333628189783682 
1270	 0.333739756404119 
1271	 0.333842848346376 
1272	 0.333930681948915 
1273	 0.334049516663991 
1274	 0.334170310615208 
1275	 0.334309919195378 
1276	 0.334484943006037 
1277	 0.334640703689159 
1278	 0.334800272124784 
1279	 0.334951693773156 
1280	 0.33508634296893 
1281	 0.33524238393506 
1282	 0.335400548748304 
1283	 0.335564848745165 
1284	 0.335747853074577 
1285	 0.335933118615514 
1286	 0.336088785985012 
1287	 0.336271267675765 
1288	 0.336428500705138 
1289	 0.336570579161053 
1290	 0.33671464325093 
1291	 0.336853136615592 
1292	 0.33698987780837 
1293	 0.337119216795718 
1294	 0.337254758537759 
1295	 0.337394505599175 
1296	 0.337524944152796 
1297	 0.337664841197417 
1298	 0.337781909107964 
1299	 0.337879822249966 
1300	 0.337978208285284 
1301	 0.338067452523499 
1302	 0.338146088810503 
1303	 0.338219998694733 
1304	 0.338287969540655 
1305	 0.338334752162965 
1306	 0.338375575812672 
1307	 0.338424447237552 
1308	 0.338455559102182 
1309	 0.33848282354893 
1310	 0.338509759693737 
1311	 0.338522791956812 
1312	 0.338513425052692 
1313	 0.338520444851384 
1314	 0.338527212447891 
1315	 0.338530984613991 
1316	 0.338528047838557 
1317	 0.338548679463854 
1318	 0.338582814788316 
1319	 0.338605291571222 
1320	 0.338660949052813 
1321	 0.338675713614371 
1322	 0.33864911655797 
1323	 0.338636157603467 
1324	 0.338628653910077 
1325	 0.338624684659829 
1326	 0.338641876277719 
1327	 0.338657724977729 
1328	 0.338665948131193 
1329	 0.338652406946247 
1330	 0.338656032309929 
1331	 0.338662265513942 
1332	 0.338673280436995 
1333	 0.338694971652288 
1334	 0.338707713676929 
1335	 0.338709134931879 
1336	 0.338729619618372 
1337	 0.338751801920289 
1338	 0.338785679178162 
1339	 0.338850066020716 
1340	 0.338887233573085 
1341	 0.338924140706022 
1342	 0.338945476992575 
1343	 0.33895000727246 
1344	 0.338944943305154 
1345	 0.338946645039922 
1346	 0.338955838242166 
1347	 0.338971777133521 
1348	 0.338981908070829 
1349	 0.338981081869691 
1350	 0.338963705204212 
1351	 0.338938137096123 
1352	 0.338887454280025 
1353	 0.338867347364041 
1354	 0.338847788761945 
1355	 0.338833972351479 
1356	 0.338843223249316 
1357	 0.338835807345805 
1358	 0.338814207940444 
1359	 0.338812236486513 
1360	 0.338804286219243 
1361	 0.338815532491852 
1362	 0.338855378848128 
1363	 0.338880202182456 
1364	 0.338905110776305 
1365	 0.338943347447431 
1366	 0.338985578490764 
1367	 0.339018961968059 
1368	 0.339083194353978 
1369	 0.339126788733408 
1370	 0.339156121215341 
1371	 0.339170545212013 
1372	 0.339168478058963 
1373	 0.339160676133342 
1374	 0.33913427918532 
1375	 0.339100273691372 
1376	 0.339043119596551 
1377	 0.338967560845682 
1378	 0.338871527400448 
1379	 0.338749982358748 
1380	 0.338624391513936 
1381	 0.33846554898069 
1382	 0.33833251900278 
1383	 0.338202130246108 
1384	 0.338079029369839 
1385	 0.337993681782065 
1386	 0.337865861566608 
1387	 0.337730495053317 
1388	 0.33756768789765 
1389	 0.337381862510684 
1390	 0.337168432524172 
1391	 0.336932380348547 
1392	 0.336677679288905 
1393	 0.336380502221111 
1394	 0.336060629733643 
1395	 0.335727968816746 
1396	 0.335388081176325 
1397	 0.335050264573949 
1398	 0.334719097363319 
1399	 0.334360131926274 
1400	 0.333985586078373 
1401	 0.33361107919227 
1402	 0.333214433995826 
1403	 0.332830681226056 
1404	 0.332448118711165 
1405	 0.332071688734115 
1406	 0.33169140977549 
1407	 0.33132825233375 
1408	 0.330978941752454 
1409	 0.33063229912888 
1410	 0.330294932891975 
1411	 0.329961264952511 
1412	 0.329621308692122 
1413	 0.329305736226252 
1414	 0.329017225754726 
1415	 0.328713525047773 
1416	 0.328430615232832 
1417	 0.328171056937308 
1418	 0.327901812195935 
1419	 0.32765385154926 
1420	 0.327432139822005 
1421	 0.327228624207731 
1422	 0.327049924093218 
1423	 0.32687743256626 
1424	 0.326716696765332 
1425	 0.326581429492748 
1426	 0.326420691600733 
1427	 0.326247927188982 
1428	 0.326103722152311 
1429	 0.32595104101481 
1430	 0.325824017102827 
1431	 0.325728674321254 
1432	 0.325631489656162 
1433	 0.325538094142149 
1434	 0.325457968382514 
1435	 0.325392626425938 
1436	 0.325335956578797 
1437	 0.325286127287178 
1438	 0.325244573696498 
1439	 0.325225430704062 
1440	 0.325192301338138 
1441	 0.325135650451874 
1442	 0.325099591573675 
1443	 0.325034789824886 
1444	 0.324971668535033 
1445	 0.324954793753257 
1446	 0.324944770291535 
1447	 0.32494939395543 
1448	 0.3249590793243 
1449	 0.324960395871398 
1450	 0.324976554226782 
1451	 0.325001737392971 
1452	 0.325037035487677 
1453	 0.325080524962241 
1454	 0.325135430506162 
1455	 0.325187071172862 
1456	 0.325252010543396 
1457	 0.325306624659541 
1458	 0.325357563420522 
1459	 0.325409932786757 
1460	 0.325446400638126 
1461	 0.325505915784408 
1462	 0.32558059803394 
1463	 0.325652997676998 
1464	 0.325740248916219 
1465	 0.325823268105919 
1466	 0.325901707437129 
1467	 0.325983348510821 
1468	 0.32606561206117 
1469	 0.326151191115645 
1470	 0.326242080021163 
1471	 0.326328948521731 
1472	 0.326403024641071 
1473	 0.326496034878654 
1474	 0.326604302373659 
1475	 0.326720131089108 
1476	 0.326861274580581 
1477	 0.327010111285824 
1478	 0.327145703755077 
1479	 0.327265751673557 
1480	 0.327391697398392 
1481	 0.327522848778323 
1482	 0.32762959431096 
1483	 0.327717928595432 
1484	 0.3278269908143 
1485	 0.327912211918018 
1486	 0.328040205294069 
1487	 0.328207899283027 
1488	 0.328358724942401 
1489	 0.328528556960983 
1490	 0.328671852039818 
1491	 0.328808903367044 
1492	 0.328931830764312 
1493	 0.329031009085228 
1494	 0.329144803734034 
1495	 0.329242902782811 
1496	 0.329361590794215 
1497	 0.329506768785161 
1498	 0.329631106753862 
1499	 0.329765791905393 
1500	 0.329880459705899 
1501	 0.329960342141234 
1502	 0.330059178184746 
1503	 0.330156544033098 
1504	 0.330262072957865 
1505	 0.33037021733673 
1506	 0.330487884884177 
1507	 0.330585945952935 
1508	 0.33067660912833 
1509	 0.330771325895787 
1510	 0.330863802281628 
1511	 0.330962060141892 
1512	 0.331057719847563 
1513	 0.3311820807835 
1514	 0.331288495040793 
1515	 0.331376717010366 
1516	 0.331475694614059 
1517	 0.3315503136932 
1518	 0.331585566726612 
1519	 0.33166114967268 
1520	 0.331747458775049 
1521	 0.331829863483774 
1522	 0.331924024080951 
1523	 0.332010286882972 
1524	 0.332088712274794 
1525	 0.332173987719641 
1526	 0.332264711531136 
1527	 0.332352984622085 
1528	 0.332451245649079 
1529	 0.332531845635265 
1530	 0.332598834307545 
1531	 0.332671257162293 
1532	 0.332732515464411 
1533	 0.332798403054029 
1534	 0.332873790880364 
1535	 0.332944927478147 
1536	 0.333011151322838 
1537	 0.333080748188766 
1538	 0.333148838057233 
1539	 0.333218246216427 
1540	 0.333280107640221 
1541	 0.333360092244702 
1542	 0.33347455700026 
1543	 0.333552855715861 
1544	 0.333627361211145 
1545	 0.333687282218928 
1546	 0.333707903898836 
1547	 0.333734492668526 
1548	 0.333794316549376 
1549	 0.333851379030546 
1550	 0.333921562742345 
1551	 0.333987261095871 
1552	 0.334026640169804 
1553	 0.334063382055286 
1554	 0.334091261976055 
1555	 0.33412962818132 
1556	 0.334194499115947 
1557	 0.334258470235248 
1558	 0.33432008424303 
1559	 0.334376287282492 
1560	 0.334419972974353 
1561	 0.334436237896947 
1562	 0.334482006670466 
1563	 0.334532345119992 
1564	 0.33459167644007 
1565	 0.334672985121712 
1566	 0.334737848668537 
1567	 0.334801311028339 
1568	 0.334857153283 
1569	 0.334909468723901 
1570	 0.334946650526691 
1571	 0.334973085706099 
1572	 0.335004310950414 
1573	 0.335022814269907 
1574	 0.335047128759353 
1575	 0.335079067775891 
1576	 0.335102294183481 
1577	 0.335117895568713 
1578	 0.335140899448025 
1579	 0.33516086141712 
1580	 0.335188487315687 
1581	 0.335230713563094 
1582	 0.335255220436409 
1583	 0.33527233723995 
1584	 0.335296695056968 
1585	 0.335301327571022 
1586	 0.33533098742545 
1587	 0.335388264460254 
1588	 0.33543073864294 
1589	 0.335485805023709 
1590	 0.335524141545989 
1591	 0.335543281277271 
1592	 0.335570520117674 
1593	 0.335608923301173 
1594	 0.335620472857784 
1595	 0.335602646702651 
1596	 0.335611411760517 
1597	 0.335609950157089 
1598	 0.335619118195808 
1599	 0.335672264835787 
1600	 0.335695597168972 
1601	 0.335684579504094 
1602	 0.335700578516624 
1603	 0.335721058419171 
1604	 0.335744269773543 
1605	 0.335788554239927 
1606	 0.335824393075478 
1607	 0.33585887441468 
1608	 0.335887374870854 
1609	 0.335896599937786 
1610	 0.335926421008744 
1611	 0.335936859394004 
1612	 0.335931229178692 
1613	 0.3359434060755 
1614	 0.335939151604486 
1615	 0.335938596190168 
1616	 0.335944397045866 
1617	 0.335940422975788 
1618	 0.33593464321338 
1619	 0.335928972593578 
1620	 0.335921764311858 
1621	 0.335911414856283 
1622	 0.335899934549525 
1623	 0.335893245749161 
1624	 0.335877261339945 
1625	 0.335885531800271 
1626	 0.335911039362168 
1627	 0.335926492427137 
1628	 0.335954568752957 
1629	 0.335965994028535 
1630	 0.33596204613356 
1631	 0.335973672397009 
1632	 0.3359893098534 
1633	 0.335998992005238 
1634	 0.33601187143875 
1635	 0.336026571041897 
1636	 0.336044577318446 
1637	 0.33603984326032 
1638	 0.336030831521117 
1639	 0.336016613793004 
1640	 0.335977126360413 
1641	 0.335953860235185 
1642	 0.335944536630255 
1643	 0.335921025235376 
1644	 0.335879442503467 
1645	 0.335866183870277 
1646	 0.335859795938407 
1647	 0.335860510754157 
1648	 0.335879468654087 
1649	 0.335897105139236 
1650	 0.335920382274574 
1651	 0.335936302668383 
1652	 0.335958792397591 
1653	 0.335972943704652 
1654	 0.335984459281234 
1655	 0.335979163668975 
1656	 0.335972431734747 
1657	 0.335943730492703 
1658	 0.335876742150474 
1659	 0.335842478959033 
1660	 0.335817373680812 
1661	 0.335779337113335 
1662	 0.335743049945959 
1663	 0.335715738375248 
1664	 0.335672078630406 
1665	 0.335654000827355 
1666	 0.335679795697879 
1667	 0.335660034859184 
1668	 0.335619914923478 
1669	 0.335592018536913 
1670	 0.335534237517875 
1671	 0.335519403608154 
1672	 0.335538324563523 
1673	 0.33554610773943 
1674	 0.335572150376152 
1675	 0.335582582869429 
1676	 0.335582317439611 
1677	 0.335589707458855 
1678	 0.335611113524149 
1679	 0.335599476300794 
1680	 0.335569207873714 
1681	 0.335548351256056 
1682	 0.335509762497697 
1683	 0.335475170556546 
1684	 0.335445854104514 
1685	 0.335423877586759 
1686	 0.335387793052709 
1687	 0.33537636394298 
1688	 0.335391772819011 
1689	 0.335401751586537 
1690	 0.335425766048296 
1691	 0.335430198377762 
1692	 0.335435416451308 
1693	 0.335426630535201 
1694	 0.335401256386441 
1695	 0.335372435997779 
1696	 0.335324544094364 
1697	 0.335299244424026 
1698	 0.335267661806371 
1699	 0.335262018596573 
1700	 0.335305104440419 
1701	 0.335294717736775 
1702	 0.335276837769813 
1703	 0.33523795080698 
1704	 0.335146852555489 
1705	 0.335096734305947 
1706	 0.335051303744797 
1707	 0.335022190602142 
1708	 0.33502826766618 
1709	 0.334997793770687 
1710	 0.334942636118517 
1711	 0.334926659880241 
1712	 0.334917588185581 
1713	 0.334897839394449 
1714	 0.33491284465623 
1715	 0.334893873146527 
1716	 0.334821097172613 
1717	 0.334804736704482 
1718	 0.334824035363245 
1719	 0.334812282819051 
1720	 0.334809907411676 
1721	 0.334798984295579 
1722	 0.334762921076566 
1723	 0.334735518304167 
1724	 0.334733642625767 
1725	 0.334685435872615 
1726	 0.33459979815298 
1727	 0.334542698680526 
1728	 0.334470963570136 
1729	 0.334416049539707 
1730	 0.334395771514768 
1731	 0.334335138157547 
1732	 0.334246889586164 
1733	 0.334177185536641 
1734	 0.33410235112539 
1735	 0.334035014072803 
1736	 0.333989732408771 
1737	 0.333918524554446 
1738	 0.333819723986608 
1739	 0.33375253615952 
1740	 0.333679796399372 
1741	 0.333640173590025 
1742	 0.333645688169123 
1743	 0.333615216137476 
1744	 0.333583019548143 
1745	 0.333544385994982 
1746	 0.333494311456604 
1747	 0.333417397417241 
1748	 0.333371672469858 
1749	 0.333287706455041 
1750	 0.33319397476577 
1751	 0.333143965673522 
1752	 0.333070339962137 
1753	 0.33297774646562 
1754	 0.332896545775227 
1755	 0.332803191040374 
1756	 0.332713777226949 
1757	 0.332668452824263 
1758	 0.332627503603153 
1759	 0.332575330418809 
1760	 0.332539727407893 
1761	 0.332478251640082 
1762	 0.332408514523106 
1763	 0.332359474728955 
1764	 0.332301649347407 
1765	 0.332272387541917 
1766	 0.332260997485762 
1767	 0.332238878144205 
1768	 0.332217656736097 
1769	 0.332175036748093 
1770	 0.332126705363418 
1771	 0.332074369164119 
1772	 0.331994592723904 
1773	 0.331908353523241 
1774	 0.331845473457942 
1775	 0.331796261528013 
1776	 0.331751477717318 
1777	 0.33172394757301 
1778	 0.331683105045209 
1779	 0.331627234338244 
1780	 0.331591931808767 
1781	 0.331577631062179 
1782	 0.331577498615988 
1783	 0.331567118850541 
1784	 0.331549456972133 
1785	 0.331512569755114 
1786	 0.331476699712593 
1787	 0.331442589124671 
1788	 0.331421484266544 
1789	 0.331405266306108 
1790	 0.331383701193936 
1791	 0.331360975329021 
1792	 0.331347916651041 
1793	 0.331342556142693 
1794	 0.331321463884325 
1795	 0.331309601898405 
1796	 0.331288418243054 
1797	 0.331235185782639 
1798	 0.331205516436872 
1799	 0.331199046978258 
1800	 0.331176248185281 
1801	 0.328968720569346 
1802	 0.329022485132415 
1803	 0.329096399351978 
1804	 0.32922240998766 
1805	 0.329373430643124 
1806	 0.329520460238198 
1807	 0.329649818866696 
1808	 0.32975588304409 
1809	 0.329827107719245 
1810	 0.329913303256518 
1811	 0.330006350000869 
1812	 0.330070969850437 
1813	 0.330121750681248 
1814	 0.330157988862766 
1815	 0.330143598800306 
1816	 0.330115655237601 
1817	 0.330092775782923 
1818	 0.330024541906925 
1819	 0.330014666851193 
1820	 0.330024617221475 
1821	 0.330063472387734 
1822	 0.330085217815015 
1823	 0.330129857464306 
1824	 0.330152054713343 
1825	 0.330128137403847 
1826	 0.33010444355503 
1827	 0.330095732485019 
1828	 0.330078602064511 
1829	 0.330043583701065 
1830	 0.330017851146002 
1831	 0.330006009875177 
1832	 0.329978461652958 
1833	 0.329935955009796 
1834	 0.329876926980094 
1835	 0.329811625707799 
1836	 0.329787812194385 
1837	 0.329778879005054 
1838	 0.329784697996281 
1839	 0.329804739100421 
1840	 0.329863925338951 
1841	 0.329882436160564 
1842	 0.329891964504242 
1843	 0.3299262238334 
1844	 0.329920219790951 
1845	 0.329878534538863 
1846	 0.329824176242359 
1847	 0.329751477584237 
1848	 0.329681899034471 
1849	 0.329642149810927 
1850	 0.32960874888444 
1851	 0.329597922933829 
1852	 0.329575893993351 
1853	 0.329541185165543 
1854	 0.329497592418565 
1855	 0.329457961737804 
1856	 0.329420957880303 
1857	 0.32939283218211 
1858	 0.329336654091368 
1859	 0.329224934044776 
1860	 0.329085795458306 
1861	 0.328913197027225 
1862	 0.328691542077097 
1863	 0.328444124742953 
1864	 0.328202468780409 
1865	 0.327943061488793 
1866	 0.327632464880354 
1867	 0.327314527127229 
1868	 0.327002558058556 
1869	 0.326657303571937 
1870	 0.32633209592966 
1871	 0.325990994090409 
1872	 0.325657483838298 
1873	 0.325285009039421 
1874	 0.324904678689871 
1875	 0.324504668374896 
1876	 0.324081066949514 
1877	 0.323610216855359 
1878	 0.323062887927579 
1879	 0.322465140159929 
1880	 0.321801492017908 
1881	 0.321056089250825 
1882	 0.320276595023499 
1883	 0.31946317513604 
1884	 0.318553714163874 
1885	 0.317590970358368 
1886	 0.316576521619499 
1887	 0.31547487373913 
1888	 0.314329661189597 
1889	 0.313126948646165 
1890	 0.311882794102691 
1891	 0.310616279707501 
1892	 0.309287134239448 
1893	 0.307967327674516 
1894	 0.306635982346547 
1895	 0.305288360154256 
1896	 0.303907591410081 
1897	 0.302513577193618 
1898	 0.301085800017758 
1899	 0.299653056940928 
1900	 0.298243558176492 
1901	 0.296858078930678 
1902	 0.295524828348298 
1903	 0.294229548701382 
1904	 0.29298807757135 
1905	 0.291797546060961 
1906	 0.290655714018351 
1907	 0.289529871020926 
1908	 0.288432596169862 
1909	 0.287379997275343 
1910	 0.286355309598205 
1911	 0.28539979687865 
1912	 0.284506195387851 
1913	 0.283636042108135 
1914	 0.282799981040129 
1915	 0.282002902720287 
1916	 0.281244781803738 
1917	 0.280506693327833 
1918	 0.279826242162403 
1919	 0.279202460669898 
1920	 0.27863462036757 
1921	 0.27815125016186 
1922	 0.277735439077191 
1923	 0.277359135603597 
1924	 0.277007739893544 
1925	 0.276693890839758 
1926	 0.276427126128984 
1927	 0.276188658471624 
1928	 0.275992488829629 
1929	 0.275869285881288 
1930	 0.275773562508483 
1931	 0.275688603910232 
1932	 0.27563779247356 
1933	 0.275611558181068 
1934	 0.275624074956274 
1935	 0.275658903411514 
1936	 0.275730607434896 
1937	 0.275820418924658 
1938	 0.275933150855873 
1939	 0.276061153862051 
1940	 0.276211654328402 
1941	 0.276379145968325 
1942	 0.276571051343168 
1943	 0.276815789266603 
1944	 0.277073733185126 
1945	 0.277338871733603 
1946	 0.277607341381901 
1947	 0.27786512968426 
1948	 0.27816043059404 
1949	 0.278493001487602 
1950	 0.27880525207773 
1951	 0.279133835088748 
1952	 0.279458590374348 
1953	 0.279756344584796 
1954	 0.280077974133881 
1955	 0.280403490567005 
1956	 0.280713486957788 
1957	 0.281032537937024 
1958	 0.281345617515858 
1959	 0.281666400527488 
1960	 0.281978308308865 
1961	 0.282327542318639 
1962	 0.282703769354373 
1963	 0.283072078337989 
1964	 0.283461038848346 
1965	 0.283857443904758 
1966	 0.284236490474655 
1967	 0.284595119997892 
1968	 0.284964558310462 
1969	 0.285334058496935 
1970	 0.285709079716759 
1971	 0.286094122629449 
1972	 0.286464205316391 
1973	 0.286825495532684 
1974	 0.287196325331654 
1975	 0.28755344045678 
1976	 0.287917914150209 
1977	 0.288345852707988 
1978	 0.288762104353757 
1979	 0.289158384006639 
1980	 0.289599746167909 
1981	 0.290004539375113 
1982	 0.290383003289281 
1983	 0.290762333844041 
1984	 0.291121224994058 
1985	 0.291504458006609 
1986	 0.291894125866778 
1987	 0.292282668595857 
1988	 0.292687755855096 
1989	 0.293095608089373 
1990	 0.293481592477028 
1991	 0.293870523999274 
1992	 0.294271941502865 
1993	 0.294695300204188 
1994	 0.295095622249387 
1995	 0.295492787493457 
1996	 0.295881362330532 
1997	 0.296248703984457 
1998	 0.296629695276538 
1999	 0.297032028179727 
2000	 0.297408421257091 
2001	 0.297781734268612 
2002	 0.298129857975583 
2003	 0.29848410211286 
2004	 0.298831764279392 
2005	 0.299184548925527 
2006	 0.299553810030135 
2007	 0.299908758243414 
2008	 0.300236862535205 
2009	 0.300594697064504 
2010	 0.300975178658247 
2011	 0.30134015684594 
2012	 0.301714283105456 
2013	 0.302082271053887 
2014	 0.302444214741012 
2015	 0.302789941832854 
2016	 0.303137275739546 
2017	 0.303503720886181 
2018	 0.303863504759663 
2019	 0.304230703381023 
2020	 0.30457253530299 
2021	 0.304898120616448 
2022	 0.305240184653679 
2023	 0.305570896807393 
2024	 0.305908024571254 
2025	 0.306269422994595 
2026	 0.3066141368433 
2027	 0.306948940795598 
2028	 0.307275500765992 
2029	 0.307600641661999 
2030	 0.307921116052419 
2031	 0.308245845295156 
2032	 0.30856527898903 
2033	 0.308888502245115 
2034	 0.309209939722713 
2035	 0.309543867633069 
2036	 0.309897563972051 
2037	 0.310225590412638 
2038	 0.310567392057657 
2039	 0.310878738313157 
2040	 0.311163136986968 
2041	 0.311427734731698 
2042	 0.311682312562588 
2043	 0.311938211213425 
2044	 0.31220903812459 
2045	 0.312489466239655 
2046	 0.312754463522843 
2047	 0.313019818226231 
2048	 0.313291802684124 
2049	 0.313560696195946 
2050	 0.313821327760042 
2051	 0.314097377178887 
2052	 0.314354217585756 
2053	 0.314561590935992 
2054	 0.314812569615042 
2055	 0.315100118852187 
2056	 0.315367642972398 
2057	 0.315619746997894 
2058	 0.315881218747034 
2059	 0.316127165524277 
2060	 0.31633749654503 
2061	 0.316567250186985 
2062	 0.316807174843577 
2063	 0.31704877868139 
2064	 0.317285733482045 
2065	 0.317525463717737 
2066	 0.317793954307751 
2067	 0.318029440643269 
2068	 0.318232384486986 
2069	 0.318443794626477 
2070	 0.318679579214963 
2071	 0.318921019946658 
2072	 0.319148728341962 
2073	 0.31940270486579 
2074	 0.319625707650818 
2075	 0.319800847818483 
2076	 0.320017760961348 
2077	 0.320258848022347 
2078	 0.320483345460631 
2079	 0.320716956206107 
2080	 0.32093997423766 
2081	 0.32114540911996 
2082	 0.321357107730929 
2083	 0.32157170281737 
2084	 0.321781764563678 
2085	 0.32199546768985 
2086	 0.322213368559454 
2087	 0.32242430687238 
2088	 0.322629221555782 
2089	 0.322842621178958 
2090	 0.323050879829637 
2091	 0.323269613835705 
2092	 0.323512385629294 
2093	 0.323730771689656 
2094	 0.323940646393807 
2095	 0.324150244007901 
2096	 0.324342084283322 
2097	 0.324542202059961 
2098	 0.324755725410798 
2099	 0.324956940078584 
2100	 0.325151334305164 
2101	 0.325338697324965 
2102	 0.325528635793808 
2103	 0.325695289990588 
2104	 0.325906019734154 
2105	 0.326133876388647 
2106	 0.326371715663609 
2107	 0.32663052236368 
2108	 0.326902057386607 
2109	 0.327212715192242 
2110	 0.32748419413425 
2111	 0.327765436597148 
2112	 0.328020865984674 
2113	 0.328229802754024 
2114	 0.328449973526336 
2115	 0.328660164292272 
2116	 0.328856469875906 
2117	 0.329075217710433 
2118	 0.329293626683158 
2119	 0.32951551897677 
2120	 0.329759604393583 
2121	 0.329987278143184 
2122	 0.330205478485446 
2123	 0.330424242400889 
2124	 0.330656255186921 
2125	 0.330858797576997 
2126	 0.331054296392091 
2127	 0.331226530697529 
2128	 0.331362738313927 
2129	 0.331502252980733 
2130	 0.331620712689023 
2131	 0.331750202789518 
2132	 0.331871223909006 
2133	 0.332004448384977 
2134	 0.332093947261429 
2135	 0.332169105886281 
2136	 0.332220545468862 
2137	 0.332238170294442 
2138	 0.332248919913071 
2139	 0.332235713682068 
2140	 0.332226296686715 
2141	 0.332194602636716 
2142	 0.332175418152279 
2143	 0.33217708254308 
2144	 0.332154261723475 
2145	 0.332116716469473 
2146	 0.332081485694347 
2147	 0.332051755201453 
2148	 0.3319881027026 
2149	 0.331915310958587 
2150	 0.331838963967246 
2151	 0.331742762997343 
2152	 0.331624512606834 
2153	 0.33148932835313 
2154	 0.331318452909541 
2155	 0.331189058394838 
2156	 0.331048052050696 
2157	 0.330926119025206 
2158	 0.330870011958024 
2159	 0.330755159918426 
2160	 0.330629362910261 
2161	 0.330470008708205 
2162	 0.330273078485558 
2163	 0.33006467652009 
2164	 0.329828249286046 
2165	 0.329566083328173 
2166	 0.329333715589464 
2167	 0.329088142967266 
2168	 0.328880247652498 
2169	 0.328706732190115 
2170	 0.32851555202649 
2171	 0.328355580397249 
2172	 0.328144384019315 
2173	 0.327899482190793 
2174	 0.327664342179255 
2175	 0.327384471987134 
2176	 0.327153038830591 
2177	 0.326956832435457 
2178	 0.326749530171208 
2179	 0.326559584768319 
2180	 0.326364496624832 
2181	 0.326159913411426 
2182	 0.325960592699087 
2183	 0.325760692662994 
2184	 0.3255769679052 
2185	 0.325382340682928 
2186	 0.325172538327484 
2187	 0.324998154358486 
2188	 0.324838437417754 
2189	 0.324679483349734 
2190	 0.324555671900825 
2191	 0.324397957252653 
2192	 0.324222002974288 
2193	 0.324050840753728 
2194	 0.323853877151714 
2195	 0.323690582772527 
2196	 0.323552267448335 
2197	 0.323401998631434 
2198	 0.323245733830412 
2199	 0.323120746113286 
2200	 0.322999356979093 
2201	 0.322891260247148 
2202	 0.322810817359206 
2203	 0.322755408997878 
2204	 0.322682105299573 
2205	 0.322619285153233 
2206	 0.322519645507844 
2207	 0.322398445048916 
2208	 0.322291459940197 
2209	 0.322149361529633 
2210	 0.322053379083848 
2211	 0.321981859478797 
2212	 0.321925874440394 
2213	 0.321891743842278 
2214	 0.321864620295242 
2215	 0.321878503386309 
2216	 0.321860375327457 
2217	 0.32183571209543 
2218	 0.321801561549432 
2219	 0.321749458288715 
2220	 0.321695228655834 
2221	 0.321612913176012 
2222	 0.321576804959219 
2223	 0.321524514241043 
2224	 0.321465990862243 
2225	 0.321417081612388 
2226	 0.321379592304944 
2227	 0.321329641299934 
2228	 0.321286939908832 
2229	 0.321217241019895 
2230	 0.321130665564906 
2231	 0.321045697908918 
2232	 0.320947138744934 
2233	 0.320843282599168 
2234	 0.320742588455627 
2235	 0.320626291495895 
2236	 0.320463790688425 
2237	 0.320352757601842 
2238	 0.320234046657795 
2239	 0.320173957791864 
2240	 0.320173967794875 
2241	 0.320178101733238 
2242	 0.320260154566209 
2243	 0.320273402813779 
2244	 0.320272317869481 
2245	 0.320248130678842 
2246	 0.320171108285963 
2247	 0.320095382130772 
2248	 0.320025435449493 
2249	 0.31994364097281 
2250	 0.319888510278534 
2251	 0.3198410357275 
2252	 0.31981185625436 
2253	 0.319808688247259 
2254	 0.319793826192881 
2255	 0.319780139591128 
2256	 0.319772352631748 
2257	 0.319756701117414 
2258	 0.319770472137045 
2259	 0.319819632549617 
2260	 0.319847346910582 
2261	 0.319883760064849 
2262	 0.319907959077943 
2263	 0.319912992798184 
2264	 0.319922572144159 
2265	 0.319944887960832 
2266	 0.319951227958528 
2267	 0.319941564746364 
2268	 0.319932467114967 
2269	 0.319913609645698 
2270	 0.319891516959242 
2271	 0.319872900150348 
2272	 0.319877052916861 
2273	 0.319859089489772 
2274	 0.319832117210188 
2275	 0.319799723446268 
2276	 0.319747588207755 
2277	 0.319711780518521 
2278	 0.3196744699464 
2279	 0.319655426957498 
2280	 0.319651221529357 
2281	 0.319638194921775 
2282	 0.319642794230787 
2283	 0.319621966053671 
2284	 0.319600006298604 
2285	 0.319556356285091 
2286	 0.319468595899635 
2287	 0.319413268408114 
2288	 0.319346418819217 
2289	 0.319295441106803 
2290	 0.319279372855096 
2291	 0.319260818743444 
2292	 0.319231014353151 
2293	 0.319230121776464 
2294	 0.319260574827751 
2295	 0.319270189493569 
2296	 0.319286635053084 
2297	 0.319315326814611 
2298	 0.319291035872988 
2299	 0.319234224406825 
2300	 0.319193247728454 
2301	 0.319136744612437 
2302	 0.319047374002936 
2303	 0.319014834496039 
2304	 0.318986990836054 
2305	 0.318893138995021 
2306	 0.318847660520167 
2307	 0.318846024760444 
2308	 0.318784519448564 
2309	 0.318716602065884 
2310	 0.318634068187647 
2311	 0.31850371599433 
2312	 0.318408381879592 
2313	 0.318328073237361 
2314	 0.318212889363811 
2315	 0.31808141220876 
2316	 0.317964013050348 
2317	 0.317806337686945 
2318	 0.317723744520261 
2319	 0.31771471613268 
2320	 0.31765569915765 
2321	 0.317611717027537 
2322	 0.317547111629112 
2323	 0.317443975365647 
2324	 0.317362296829154 
2325	 0.317309584090975 
2326	 0.317225663971724 
2327	 0.31713338961618 
2328	 0.317004383408966 
2329	 0.316888395957749 
2330	 0.316776862714832 
2331	 0.316666865587975 
2332	 0.316603148132017 
2333	 0.316505130047802 
2334	 0.316375697867483 
2335	 0.316284922705811 
2336	 0.316193959582583 
2337	 0.316135559173551 
2338	 0.316092262282819 
2339	 0.315978522708577 
2340	 0.315809584327422 
2341	 0.315670235447134 
2342	 0.315488252261065 
2343	 0.315283703482613 
2344	 0.315160336720643 
2345	 0.314973940906035 
2346	 0.314735828972369 
2347	 0.314509598454372 
2348	 0.314277687036793 
2349	 0.314021823471365 
2350	 0.313747055683062 
2351	 0.313479890662014 
2352	 0.31320760366291 
2353	 0.312917822677985 
2354	 0.312600031448577 
2355	 0.312337724308183 
2356	 0.31206969028042 
2357	 0.311845624488393 
2358	 0.311696022550738 
2359	 0.311481160708628 
2360	 0.311276088932962 
2361	 0.311046530660815 
2362	 0.310810864658547 
2363	 0.310525535797772 
2364	 0.310159070921396 
2365	 0.309845308403501 
2366	 0.309531477054649 
2367	 0.309207728183309 
2368	 0.308892766186135 
2369	 0.308596477862245 
2370	 0.30831617712304 
2371	 0.307970286687638 
2372	 0.307666607026112 
2373	 0.307441291747328 
2374	 0.307195167135808 
2375	 0.306948304442206 
2376	 0.306658774763453 
2377	 0.306310400441937 
2378	 0.30594362102324 
2379	 0.305537554588597 
2380	 0.305148615073184 
2381	 0.304827708521456 
2382	 0.304479527700376 
2383	 0.304119368498788 
2384	 0.303838451239275 
2385	 0.303621927650598 
2386	 0.303457430898517 
2387	 0.303246858273535 
2388	 0.302927076776105 
2389	 0.302584286609223 
2390	 0.302160297528123 
2391	 0.301791779738789 
2392	 0.301528884134531 
2393	 0.301195290465827 
2394	 0.300893241476491 
2395	 0.300560568430508 
2396	 0.30021588755534 
2397	 0.299889833134752 
2398	 0.299483599268761 
2399	 0.299142401074478 
2400	 0.298825971489086 
2401	 0.298480354787319 
2402	 0.298200630915277 
2403	 0.297970879443267 
2404	 0.297754891583875 
2405	 0.297563667538779 
2406	 0.29733504587571 
2407	 0.296983147698111 
2408	 0.296675918239766 
2409	 0.296474652543754 
2410	 0.296184090732325 
2411	 0.295909524940206 
2412	 0.295635921967375 
2413	 0.295230560823166 
2414	 0.294880256152433 
2415	 0.29453757414433 
2416	 0.294185589597419 
2417	 0.293793102750423 
2418	 0.293456906747912 
2419	 0.293155177880336 
2420	 0.292826282449919 
2421	 0.292514978992752 
2422	 0.292173117745975 
2423	 0.291777115610756 
2424	 0.291496305633432 
2425	 0.29127962956136 
2426	 0.290992848883514 
2427	 0.290741474001593 
2428	 0.290452256252497 
2429	 0.290078320770394 
2430	 0.289782336824328 
2431	 0.289516080074863 
2432	 0.289229322414467 
2433	 0.289009306292877 
2434	 0.288767965522129 
2435	 0.288486025186253 
2436	 0.288219345828386 
2437	 0.287941797885115 
2438	 0.287604310530122 
2439	 0.287269884307455 
2440	 0.286970688725323 
2441	 0.286651020322566 
2442	 0.286338598623697 
2443	 0.286043267119825 
2444	 0.285688773655197 
2445	 0.285286508201635 
2446	 0.2849741461733 
2447	 0.284670979456805 
2448	 0.284341529228254 
2449	 0.284120531321615 
2450	 0.283747926920396 
2451	 0.283233608200654 
2452	 0.282844389151039 
2453	 0.282463154581428 
2454	 0.282018221725487 
2455	 0.281568468933336 
2456	 0.281183576728777 
2457	 0.280728321537217 
2458	 0.280369579953954 
2459	 0.280204381738628 
2460	 0.279949650566694 
2461	 0.279611266877497 
2462	 0.279369166125834 
2463	 0.279157432934407 
2464	 0.278928084092586 
2465	 0.2788307385712 
2466	 0.27856571257326 
2467	 0.278123200551362 
2468	 0.277810244879402 
2469	 0.277510899497393 
2470	 0.277140780812074 
2471	 0.276932291987117 
2472	 0.276636433804408 
2473	 0.276245546795722 
2474	 0.276039384626867 
2475	 0.275690430480359 
2476	 0.275174172826767 
2477	 0.274676869523853 
2478	 0.274111641615609 
2479	 0.27376804116881 
2480	 0.273658810450402 
2481	 0.273452682808822 
2482	 0.273222904059908 
2483	 0.27298608077893 
2484	 0.272480785102666 
2485	 0.271885075952916 
2486	 0.271476550883886 
2487	 0.27111058661527 
2488	 0.270811849167448 
2489	 0.270704666262922 
2490	 0.270724126071754 
2491	 0.270614508618019 
2492	 0.270400700136124 
2493	 0.270165985394592 
2494	 0.269676996455357 
2495	 0.269308304897128 
2496	 0.269253657558786 
2497	 0.269055719199301 
2498	 0.268867712584686 
2499	 0.268654324923295 
2500	 0.268193791086084 
