Wavelength	LMW800002.asd
350	 6.46020120519429E-02 
351	 6.65959362272224E-02 
352	 6.65556822246575E-02 
353	 6.30689395297285E-02 
354	 6.03021271732677E-02 
355	 0.061350489931732 
356	 6.19414871644605E-02 
357	 5.95403495362696E-02 
358	 6.65876308493593E-02 
359	 6.80734472481814E-02 
360	 6.32244214225536E-02 
361	 6.07271495521101E-02 
362	 6.16132229810136E-02 
363	 6.12460754989009E-02 
364	 5.85523219382417E-02 
365	 5.91542016522141E-02 
366	 5.92962556336272E-02 
367	 0.059295077384683 
368	 6.00605812821006E-02 
369	 0.060716945529199 
370	 0.059270814502578 
371	 5.73749032891823E-02 
372	 5.88035477073571E-02 
373	 6.19258474070712E-02 
374	 6.22167290375405E-02 
375	 5.89834070956304E-02 
376	 5.83834516852896E-02 
377	 5.95044066817751E-02 
378	 6.07431232516847E-02 
379	 6.09134230461062E-02 
380	 6.28459952342668E-02 
381	 5.98834271229984E-02 
382	 5.63308400706905E-02 
383	 6.31587078125508E-02 
384	 6.40420198823729E-02 
385	 6.22959963430176E-02 
386	 6.19111537091688E-02 
387	 0.062572801630367 
388	 6.27097846110747E-02 
389	 6.22984331372049E-02 
390	 6.18883569929999E-02 
391	 6.18031536943975E-02 
392	 6.23906971521253E-02 
393	 6.35496042195854E-02 
394	 6.47306435212016E-02 
395	 6.41671715270503E-02 
396	 6.34559830071356E-02 
397	 6.41594172428066E-02 
398	 6.70615531105383E-02 
399	 6.67057147573735E-02 
400	 6.51189782787165E-02 
401	 6.60632516993089E-02 
402	 6.56859148322566E-02 
403	 0.065675050459942 
404	 6.59594138843526E-02 
405	 6.45201372705316E-02 
406	 6.50468895989727E-02 
407	 6.64401437975925E-02 
408	 6.71159791791291E-02 
409	 6.67952073337671E-02 
410	 6.60581053218856E-02 
411	 6.56972930189072E-02 
412	 6.63086550729192E-02 
413	 0.066638304857729 
414	 6.64559757118218E-02 
415	 6.60008977349636E-02 
416	 6.59239185559417E-02 
417	 6.65971245267942E-02 
418	 6.73724633720822E-02 
419	 6.75738903967685E-02 
420	 0.067363248144755 
421	 6.67188243907169E-02 
422	 6.63326149697136E-02 
423	 6.70898787993839E-02 
424	 6.68190123684698E-02 
425	 0.066322990137285 
426	 6.62167764073611E-02 
427	 6.60538896152958E-02 
428	 0.065962880987594 
429	 6.59414935126151E-02 
430	 6.59765644104158E-02 
431	 6.62454220634046E-02 
432	 6.61499206702101E-02 
433	 6.57860056171853E-02 
434	 6.59031836395429E-02 
435	 6.61346161940755E-02 
436	 6.61320889276424E-02 
437	 6.57708790439055E-02 
438	 6.54004954329365E-02 
439	 6.55696132400123E-02 
440	 6.59269243450549E-02 
441	 6.57925700279777E-02 
442	 6.59444094518791E-02 
443	 6.60629766558455E-02 
444	 6.60094554375576E-02 
445	 0.066061699117215 
446	 6.63877148019032E-02 
447	 6.66005012899973E-02 
448	 6.63862015668279E-02 
449	 6.64245301751278E-02 
450	 6.67779163016694E-02 
451	 6.71557057312584E-02 
452	 6.70428318006432E-02 
453	 6.71546192793293E-02 
454	 6.71286765901105E-02 
455	 6.68315427453502E-02 
456	 6.72030869267331E-02 
457	 0.067275165212833 
458	 6.70957558078785E-02 
459	 6.71461037884915E-02 
460	 0.067403145451074 
461	 6.74674527858467E-02 
462	 6.73451141244208E-02 
463	 6.76567056296877E-02 
464	 0.067680124638156 
465	 6.75030298038912E-02 
466	 0.067435175297896 
467	 6.77328620855381E-02 
468	 6.78144133186076E-02 
469	 6.75993938465547E-02 
470	 6.74499909501921E-02 
471	 6.77754105256398E-02 
472	 6.78878560079664E-02 
473	 6.75049304794158E-02 
474	 6.77569155652132E-02 
475	 6.79135143637206E-02 
476	 6.78436084921889E-02 
477	 6.76980645789464E-02 
478	 6.76800755344175E-02 
479	 6.77385491599776E-02 
480	 6.78354871366774E-02 
481	 6.79924809857926E-02 
482	 6.80641802869776E-02 
483	 6.80570054010659E-02 
484	 6.80428674346412E-02 
485	 6.81627247602387E-02 
486	 6.81981174109943E-02 
487	 6.81240391596805E-02 
488	 6.80824971133471E-02 
489	 6.80709451517029E-02 
490	 6.81138069640172E-02 
491	 6.81747753798272E-02 
492	 6.80598012026295E-02 
493	 0.067934263168276 
494	 6.79137340580686E-02 
495	 6.80524938012925E-02 
496	 6.81541595591478E-02 
497	 6.81271252965513E-02 
498	 6.80233432264347E-02 
499	 0.06808469322965 
500	 6.81194450558008E-02 
501	 6.80689746331697E-02 
502	 0.06794919720027 
503	 6.79003697617991E-02 
504	 6.79530100917187E-02 
505	 6.80422074638732E-02 
506	 6.80328448524039E-02 
507	 0.068121612057419 
508	 6.81492720680838E-02 
509	 6.80001444217504E-02 
510	 6.78148666576714E-02 
511	 6.78842845434125E-02 
512	 6.80219335660416E-02 
513	 6.78477676282602E-02 
514	 6.78027541116327E-02 
515	 6.78084199847668E-02 
516	 6.78144035273479E-02 
517	 6.79373040325114E-02 
518	 6.79026367261981E-02 
519	 6.78238301190227E-02 
520	 6.78825517244064E-02 
521	 6.78780262943678E-02 
522	 6.79089262700554E-02 
523	 6.79860863502794E-02 
524	 6.80140879829256E-02 
525	 6.79809278937409E-02 
526	 6.79559235664133E-02 
527	 6.79931709349759E-02 
528	 6.80436340279293E-02 
529	 6.80536240201607E-02 
530	 6.80478788473336E-02 
531	 0.068091044966582 
532	 0.068045422905441 
533	 6.80246093219778E-02 
534	 6.80849984821204E-02 
535	 6.80837775588996E-02 
536	 6.81709020224815E-02 
537	 6.82514020251685E-02 
538	 6.81833591216286E-02 
539	 6.81986917252571E-02 
540	 6.82304954315393E-02 
541	 6.82306911942611E-02 
542	 6.82050380268454E-02 
543	 0.068306590773564 
544	 6.84245099599763E-02 
545	 6.84319093667156E-02 
546	 0.068454416269334 
547	 6.84705439377179E-02 
548	 6.84993459217363E-02 
549	 6.85896045393477E-02 
550	 6.86244530903833E-02 
551	 6.86466616844438E-02 
552	 6.87038191081111E-02 
553	 6.87775333761725E-02 
554	 6.88514428077913E-02 
555	 6.89181485753713E-02 
556	 6.89736942652615E-02 
557	 6.89784963559676E-02 
558	 6.90629628742273E-02 
559	 6.92548363785412E-02 
560	 6.93773507482558E-02 
561	 6.94550495271379E-02 
562	 6.95222628376653E-02 
563	 6.96217185672375E-02 
564	 6.97861992913448E-02 
565	 6.99204824331027E-02 
566	 7.00213847311662E-02 
567	 7.01945337699468E-02 
568	 7.03527026877058E-02 
569	 0.070518256402786 
570	 7.07205580488704E-02 
571	 7.09140237084955E-02 
572	 7.12177359882477E-02 
573	 7.15456209903387E-02 
574	 7.16893895181544E-02 
575	 7.18824542886045E-02 
576	 7.21443178551947E-02 
577	 7.24458267450306E-02 
578	 7.27289687485911E-02 
579	 7.30338316057547E-02 
580	 7.33579513389259E-02 
581	 0.07369139705219 
582	 7.41043551147534E-02 
583	 7.44910213234024E-02 
584	 7.48308425483304E-02 
585	 7.52462247590804E-02 
586	 7.56961012457572E-02 
587	 7.61336403846991E-02 
588	 7.65374262994546E-02 
589	 7.70151014422955E-02 
590	 7.74970463290098E-02 
591	 7.79635690623043E-02 
592	 7.84457490649042E-02 
593	 7.89145089677819E-02 
594	 7.94041028701324E-02 
595	 7.99359196154141E-02 
596	 8.04688426477747E-02 
597	 8.10316298734036E-02 
598	 8.15743597022085E-02 
599	 8.20268794252438E-02 
600	 8.25199814956744E-02 
601	 8.30626059110034E-02 
602	 8.36089298448712E-02 
603	 8.40377108121146E-02 
604	 8.45276006321464E-02 
605	 8.50275973077233E-02 
606	 8.54482263160248E-02 
607	 8.59711674040138E-02 
608	 8.64640663699497E-02 
609	 0.086901882806848 
610	 8.74006648921764E-02 
611	 8.78569529041036E-02 
612	 8.82774452172954E-02 
613	 8.86858804605978E-02 
614	 8.90785703286527E-02 
615	 8.94276263932428E-02 
616	 8.97554490159541E-02 
617	 9.01102417320311E-02 
618	 9.04060894759985E-02 
619	 9.06965221142693E-02 
620	 9.10102252475402E-02 
621	 9.12741070962593E-02 
622	 9.15350180123842E-02 
623	 9.17961572079761E-02 
624	 9.20483927517401E-02 
625	 9.23189111897469E-02 
626	 9.25638155294246E-02 
627	 9.27701381208109E-02 
628	 9.29719963612794E-02 
629	 9.31959515100741E-02 
630	 9.34256518828088E-02 
631	 0.093635706734732 
632	 9.38216912764487E-02 
633	 9.39916848633552E-02 
634	 9.41749570757929E-02 
635	 9.44085605283739E-02 
636	 9.45619110087735E-02 
637	 9.47320093913363E-02 
638	 9.49705733164475E-02 
639	 9.51177574784075E-02 
640	 9.52600585073156E-02 
641	 9.54356126467854E-02 
642	 9.56526400809195E-02 
643	 9.58584453117249E-02 
644	 9.60588572590237E-02 
645	 9.62566344585471E-02 
646	 9.64404457743262E-02 
647	 9.66316779928335E-02 
648	 9.68204367776767E-02 
649	 9.70019180317258E-02 
650	 0.097233838367646 
651	 9.74686754903502E-02 
652	 9.76749672871546E-02 
653	 9.78444177003332E-02 
654	 9.80699195466833E-02 
655	 9.82887886044171E-02 
656	 9.84664404562434E-02 
657	 0.098714319721613 
658	 9.89563665696693E-02 
659	 0.099196757397542 
660	 9.94686975475541E-02 
661	 9.97314516495805E-02 
662	 9.99824840463966E-02 
663	 0.100234129770554 
664	 0.100514155503351 
665	 0.100791056774716 
666	 0.101087691457121 
667	 0.101411496352995 
668	 0.101630035154202 
669	 0.101920179748199 
670	 0.102284401248808 
671	 0.102580179517872 
672	 0.102909813818603 
673	 0.103243846656581 
674	 0.10356129879602 
675	 0.103914801534021 
676	 0.10426955538951 
677	 0.104607842830377 
678	 0.104928715340138 
679	 0.105287124211627 
680	 0.105679315780521 
681	 0.10608617644134 
682	 0.106477753550815 
683	 0.106895071986102 
684	 0.107313123373582 
685	 0.107714521899283 
686	 0.10817574123744 
687	 0.108625096697569 
688	 0.109053502610477 
689	 0.109496528726969 
690	 0.109933394284973 
691	 0.110372419969585 
692	 0.110826528688263 
693	 0.111313821189117 
694	 0.111792410585234 
695	 0.112265482067211 
696	 0.112749450774794 
697	 0.113221005186881 
698	 0.113741661274286 
699	 0.114307563918248 
700	 0.114842477376103 
701	 0.115342834617086 
702	 0.115842646858925 
703	 0.116365897410634 
704	 0.116881869996931 
705	 0.117394993495762 
706	 0.117915455210695 
707	 0.118452025519539 
708	 0.11897235042387 
709	 0.119516293785964 
710	 0.120079855301384 
711	 0.120585660968936 
712	 0.121113936874887 
713	 0.121653336367168 
714	 0.122176292158139 
715	 0.122695954513716 
716	 0.123197867634807 
717	 0.123692151686118 
718	 0.124202621817482 
719	 0.124697404028776 
720	 0.125165184571416 
721	 0.125614455830903 
722	 0.126085463446121 
723	 0.126547236841632 
724	 0.126994277663576 
725	 0.127424592651124 
726	 0.127801191237613 
727	 0.128214816830299 
728	 0.128643580158771 
729	 0.12896443786601 
730	 0.129292825708419 
731	 0.129631120288713 
732	 0.129955294148213 
733	 0.130228182458837 
734	 0.13050017969628 
735	 0.130758502014917 
736	 0.130972163079495 
737	 0.131172666737958 
738	 0.131348316866762 
739	 0.131509613499055 
740	 0.131691178198028 
741	 0.131807122006288 
742	 0.131886553942527 
743	 0.131962718433999 
744	 0.132011424823307 
745	 0.132005903998154 
746	 0.13198385648113 
747	 0.131996147672431 
748	 0.131943130634233 
749	 0.131889917977826 
750	 0.131845472247709 
751	 0.131735733796108 
752	 0.131626675869839 
753	 0.131507877812014 
754	 0.131355969091642 
755	 0.131155099667763 
756	 0.130992839382821 
757	 0.130837706109863 
758	 0.130608998590821 
759	 0.130367468647809 
760	 0.130107057243207 
761	 0.12983959243562 
762	 0.129604149600005 
763	 0.129333078623834 
764	 0.129033834021702 
765	 0.128733054870977 
766	 0.128459205570235 
767	 0.128149350596623 
768	 0.127804422545993 
769	 0.127462596191007 
770	 0.127170575829173 
771	 0.126832781962941 
772	 0.126431833481409 
773	 0.126057683044559 
774	 0.125712918440832 
775	 0.125370399582878 
776	 0.125009829351699 
777	 0.124656682392178 
778	 0.12428224344553 
779	 0.123896808719641 
780	 0.123523154171052 
781	 0.123133946920387 
782	 0.122782824964942 
783	 0.122455887438558 
784	 0.122068831603972 
785	 0.121705616201462 
786	 0.121369909730198 
787	 0.12103686043665 
788	 0.12064794605009 
789	 0.120272080606891 
790	 0.119925426762614 
791	 0.11959622441397 
792	 0.119245930827418 
793	 0.118905703818953 
794	 0.118573796673465 
795	 0.118222005282655 
796	 0.117895305838335 
797	 0.117583842934902 
798	 0.117260772933598 
799	 0.11688121750156 
800	 0.116567161015653 
801	 0.116288278639569 
802	 0.115981136405023 
803	 0.115650832186906 
804	 0.11538180148946 
805	 0.115132868761731 
806	 0.114802956905749 
807	 0.114511785737849 
808	 0.114233175763095 
809	 0.113957806891712 
810	 0.113716221596098 
811	 0.113476235206498 
812	 0.113228644288474 
813	 0.112971933938764 
814	 0.112709304565095 
815	 0.112441766273996 
816	 0.112195516521814 
817	 0.111996111274744 
818	 0.11181382343951 
819	 0.11161466602149 
820	 0.111388546553643 
821	 0.111150302265786 
822	 0.110938289005388 
823	 0.110747472362589 
824	 0.110561890022871 
825	 0.1103608325129 
826	 0.110198255709479 
827	 0.1100699611492 
828	 0.10994519551662 
829	 0.109768194252063 
830	 0.109578186333621 
831	 0.10939477808293 
832	 0.109232468684539 
833	 0.109139977428001 
834	 0.109046031014632 
835	 0.108920294729634 
836	 0.108783002377033 
837	 0.108661206892412 
838	 0.108553999688718 
839	 0.108452054244503 
840	 0.108341314314657 
841	 0.108268967608379 
842	 0.10816608919389 
843	 0.108000928720847 
844	 0.107960706181273 
845	 0.107916507090592 
846	 0.107842382405936 
847	 0.10776780114966 
848	 0.107731631412353 
849	 0.107695308322048 
850	 0.10763991405763 
851	 0.10757209070087 
852	 0.107525340672803 
853	 0.107499656444761 
854	 0.107483817829964 
855	 0.107459647359148 
856	 0.107428348080491 
857	 0.107400179161482 
858	 0.10738199726329 
859	 0.107360017941146 
860	 0.107397102695053 
861	 0.107452244311597 
862	 0.107461422742105 
863	 0.107437634283696 
864	 0.107460598496658 
865	 0.107519682587252 
866	 0.10755096792132 
867	 0.107562466062766 
868	 0.107600041528534 
869	 0.107655688568908 
870	 0.107670518184175 
871	 0.107719385815849 
872	 0.107772929775344 
873	 0.107834775063309 
874	 0.107986098529585 
875	 0.108093178403106 
876	 0.108172954576348 
877	 0.10825879614069 
878	 0.1083110231039 
879	 0.108447817114433 
880	 0.108587986125436 
881	 0.108640522993438 
882	 0.108787197374534 
883	 0.10894887995339 
884	 0.109054112654568 
885	 0.109079834293921 
886	 0.109221416076058 
887	 0.109421726937213 
888	 0.109588438605725 
889	 0.109649175010417 
890	 0.109834437458468 
891	 0.110032665691398 
892	 0.110197054387145 
893	 0.110411668070083 
894	 0.110547793435891 
895	 0.110693285360767 
896	 0.110903654371799 
897	 0.111100055445554 
898	 0.111297467443731 
899	 0.111494076588153 
900	 0.111690756262377 
901	 0.111901075719636 
902	 0.112119168843006 
903	 0.112353367049748 
904	 0.112609713433599 
905	 0.112872362677155 
906	 0.113119304022721 
907	 0.113393616123304 
908	 0.113725775492295 
909	 0.113917672383746 
910	 0.114154472978177 
911	 0.114483571173485 
912	 0.114834862519278 
913	 0.115138151181956 
914	 0.115382310107887 
915	 0.115646455106012 
916	 0.116045408401459 
917	 0.11632285373036 
918	 0.11661015178073 
919	 0.116973944113499 
920	 0.117343945693198 
921	 0.117686862350933 
922	 0.118021388505021 
923	 0.118361013149338 
924	 0.118697365584573 
925	 0.119091166187338 
926	 0.119537371359902 
927	 0.119995081380626 
928	 0.120391266891809 
929	 0.120825368394677 
930	 0.121274312666158 
931	 0.121696410500021 
932	 0.122085505711546 
933	 0.122511681692862 
934	 0.122977269783346 
935	 0.123454017078431 
936	 0.123898015978974 
937	 0.124306584538873 
938	 0.124741742427972 
939	 0.125263007944276 
940	 0.125856377642326 
941	 0.126348550966015 
942	 0.126817937093617 
943	 0.127389770293808 
944	 0.127926004703271 
945	 0.128477066988239 
946	 0.129043227465273 
947	 0.129611497201684 
948	 0.130240006409917 
949	 0.130738060138133 
950	 0.131203568188208 
951	 0.131837492848896 
952	 0.132530106437926 
953	 0.133231083907311 
954	 0.133838246315175 
955	 0.134306163030205 
956	 0.134993191199426 
957	 0.135675534915866 
958	 0.136297202450229 
959	 0.136935510903539 
960	 0.137651239575182 
961	 0.138343339585458 
962	 0.138986544734473 
963	 0.139629509095473 
964	 0.140382674080022 
965	 0.14113060169755 
966	 0.141862982530683 
967	 0.142639593207403 
968	 0.143406811997716 
969	 0.144085104532228 
970	 0.144766070684455 
971	 0.145602537564629 
972	 0.146402849762339 
973	 0.147192134727588 
974	 0.14799688965211 
975	 0.148824105786487 
976	 0.149623418952674 
977	 0.150366468449535 
978	 0.151129973540339 
979	 0.151999247993171 
980	 0.152730329988389 
981	 0.153478230800217 
982	 0.154309785079772 
983	 0.155192328263647 
984	 0.15597642825437 
985	 0.156965985084507 
986	 0.157976776990663 
987	 0.158679171818629 
988	 0.159553480803345 
989	 0.160458241016918 
990	 0.16129698564102 
991	 0.162078220174967 
992	 0.163099055802802 
993	 0.163951536271161 
994	 0.164742501580343 
995	 0.165729637207333 
996	 0.166707963238744 
997	 0.167564979148616 
998	 0.168368691342411 
999	 0.169238061877586 
1000	 0.170170766397965 
1001	 0.172309915089811 
1002	 0.173213655083204 
1003	 0.174067789428188 
1004	 0.174942659625246 
1005	 0.175836702465761 
1006	 0.17672918747814 
1007	 0.177606857236534 
1008	 0.178539551680891 
1009	 0.179418176880963 
1010	 0.180234807704589 
1011	 0.181057616873703 
1012	 0.18185866751031 
1013	 0.182717177829658 
1014	 0.183591795234295 
1015	 0.184427574252669 
1016	 0.185295905756433 
1017	 0.186145733485512 
1018	 0.186988199162714 
1019	 0.187783158420353 
1020	 0.188598266629713 
1021	 0.189398314590896 
1022	 0.190172041950602 
1023	 0.190992505940039 
1024	 0.191777545329345 
1025	 0.192551231529406 
1026	 0.1933130820017 
1027	 0.194010780806276 
1028	 0.194751829399631 
1029	 0.195496830241569 
1030	 0.196225357496512 
1031	 0.196972922110552 
1032	 0.197759272011727 
1033	 0.198525180339264 
1034	 0.199263519509214 
1035	 0.199982678867861 
1036	 0.200679695725022 
1037	 0.201392958162397 
1038	 0.202094424697078 
1039	 0.202815212309749 
1040	 0.203582306769407 
1041	 0.204300273338797 
1042	 0.205004636750001 
1043	 0.205712871457402 
1044	 0.206413123080893 
1045	 0.207075244675672 
1046	 0.207794910123852 
1047	 0.208548596878793 
1048	 0.209272270712943 
1049	 0.20998158392309 
1050	 0.210677884597092 
1051	 0.211395226214716 
1052	 0.212130771233161 
1053	 0.212888075251588 
1054	 0.213664412771944 
1055	 0.214370319362973 
1056	 0.215039980466912 
1057	 0.215727108928176 
1058	 0.21637887226925 
1059	 0.217080371879853 
1060	 0.217821314448834 
1061	 0.218528922054585 
1062	 0.219230193076557 
1063	 0.219979887170038 
1064	 0.220699989567194 
1065	 0.22141494520927 
1066	 0.222171020071175 
1067	 0.22289059423954 
1068	 0.223577231669814 
1069	 0.224288092597284 
1070	 0.225017715223083 
1071	 0.225775461705359 
1072	 0.226506714163485 
1073	 0.227238120745313 
1074	 0.227972635021744 
1075	 0.228704187767663 
1076	 0.22938565034248 
1077	 0.230123188002997 
1078	 0.230842582349531 
1079	 0.231504320643417 
1080	 0.232213668851518 
1081	 0.232948156080315 
1082	 0.233657277990086 
1083	 0.234348213883963 
1084	 0.235045925422761 
1085	 0.235737329678102 
1086	 0.236372810905168 
1087	 0.237051759320684 
1088	 0.237760034194544 
1089	 0.238478665340974 
1090	 0.23914794222045 
1091	 0.239845022807324 
1092	 0.240578969583439 
1093	 0.241285320312496 
1094	 0.242002758965855 
1095	 0.242715828095685 
1096	 0.243388355081607 
1097	 0.24406433873137 
1098	 0.244775892265161 
1099	 0.245533756600098 
1100	 0.246244577038761 
1101	 0.246970688386433 
1102	 0.247670122904738 
1103	 0.248329252604711 
1104	 0.248980857256204 
1105	 0.249703317698387 
1106	 0.250422011044981 
1107	 0.251139414055975 
1108	 0.251883691034179 
1109	 0.252637452708212 
1110	 0.253392459778477 
1111	 0.254129599021594 
1112	 0.254882555212514 
1113	 0.255618619218367 
1114	 0.256314870811193 
1115	 0.257040787322697 
1116	 0.257798582265484 
1117	 0.258532679877646 
1118	 0.259261820436173 
1119	 0.259974114242926 
1120	 0.260712364391033 
1121	 0.261430220021109 
1122	 0.262151656564081 
1123	 0.262905673854658 
1124	 0.26366962783549 
1125	 0.264442092073824 
1126	 0.265222710739437 
1127	 0.266035054456922 
1128	 0.266819549087866 
1129	 0.267598071927272 
1130	 0.268362213765063 
1131	 0.269129034988381 
1132	 0.269869735843546 
1133	 0.270563297393378 
1134	 0.271293297387475 
1135	 0.27202888013976 
1136	 0.272756555656114 
1137	 0.273502418837168 
1138	 0.274255910830291 
1139	 0.275000080980339 
1140	 0.275733345558951 
1141	 0.27646390083633 
1142	 0.27719372695819 
1143	 0.277933271409853 
1144	 0.278674691445011 
1145	 0.27940649955291 
1146	 0.280157614102477 
1147	 0.280872354099696 
1148	 0.281541126792354 
1149	 0.282239905162115 
1150	 0.282943393150827 
1151	 0.28364130873735 
1152	 0.284347385838654 
1153	 0.285058318836262 
1154	 0.285756444550417 
1155	 0.286440990731029 
1156	 0.287128241945955 
1157	 0.287819863102657 
1158	 0.288499799441233 
1159	 0.289176976685023 
1160	 0.289841766330323 
1161	 0.290487167060713 
1162	 0.291147398027472 
1163	 0.29181028590278 
1164	 0.292464643253678 
1165	 0.293123070665295 
1166	 0.293787810278117 
1167	 0.29442513227552 
1168	 0.295060424561693 
1169	 0.29568719851591 
1170	 0.296309806787122 
1171	 0.2969216625468 
1172	 0.297523965843612 
1173	 0.298123745314376 
1174	 0.29872289530535 
1175	 0.299304985139809 
1176	 0.299868456120078 
1177	 0.300444169154089 
1178	 0.301014835699911 
1179	 0.301586686396695 
1180	 0.302173017342226 
1181	 0.302745184518465 
1182	 0.30331253915532 
1183	 0.303868624506605 
1184	 0.304418221378954 
1185	 0.304962996776834 
1186	 0.305502659347891 
1187	 0.306035292964788 
1188	 0.306558841849376 
1189	 0.307082763955964 
1190	 0.307587675914428 
1191	 0.308072943796218 
1192	 0.308561149680969 
1193	 0.309043348140974 
1194	 0.309518526294572 
1195	 0.309990005002517 
1196	 0.310456902254009 
1197	 0.310919476564701 
1198	 0.311371092169007 
1199	 0.311815738534744 
1200	 0.312258982827906 
1201	 0.312687935074817 
1202	 0.313103210862843 
1203	 0.313516255646177 
1204	 0.3139131445728 
1205	 0.314327166553435 
1206	 0.314756333126938 
1207	 0.315157690652798 
1208	 0.315568776709509 
1209	 0.315948138803784 
1210	 0.316279401131546 
1211	 0.316634384418564 
1212	 0.316995068854422 
1213	 0.317341914676036 
1214	 0.317699624212715 
1215	 0.318036378551169 
1216	 0.318358007158016 
1217	 0.318648826234582 
1218	 0.318969761926219 
1219	 0.319298085240225 
1220	 0.319607858336684 
1221	 0.319922989371562 
1222	 0.320228930450632 
1223	 0.320522037874632 
1224	 0.320804814508683 
1225	 0.321080766868244 
1226	 0.321360653549855 
1227	 0.321632020270533 
1228	 0.321895586026056 
1229	 0.322164270859578 
1230	 0.322427174811138 
1231	 0.322681686770933 
1232	 0.322922686830315 
1233	 0.323156661255055 
1234	 0.323387668752525 
1235	 0.323619424291191 
1236	 0.323832939611056 
1237	 0.324065090659319 
1238	 0.324325471629112 
1239	 0.324546514043556 
1240	 0.324755512308085 
1241	 0.324956811260472 
1242	 0.325129407670939 
1243	 0.32531629586083 
1244	 0.325497914256175 
1245	 0.325690666767961 
1246	 0.325907328872356 
1247	 0.326097443784653 
1248	 0.326272579666594 
1249	 0.326459215881874 
1250	 0.326646504142011 
1251	 0.326803443534832 
1252	 0.326974513897939 
1253	 0.327162221978058 
1254	 0.327329718597453 
1255	 0.327477785591992 
1256	 0.327637462041377 
1257	 0.327802904345881 
1258	 0.327954979223999 
1259	 0.328107755513473 
1260	 0.328249495225785 
1261	 0.328382147069761 
1262	 0.328506271670817 
1263	 0.328610838193704 
1264	 0.32872614387863 
1265	 0.32885432290381 
1266	 0.328958560041956 
1267	 0.329058631537891 
1268	 0.32914413827144 
1269	 0.32923340873794 
1270	 0.329293896819947 
1271	 0.329389249773654 
1272	 0.329505222422996 
1273	 0.329617290405022 
1274	 0.329734527551782 
1275	 0.329856954179927 
1276	 0.32998298316309 
1277	 0.330116139070004 
1278	 0.330256085391444 
1279	 0.330399865457672 
1280	 0.330549258425253 
1281	 0.330703219169708 
1282	 0.33086318343537 
1283	 0.331026743722551 
1284	 0.331200294588466 
1285	 0.33137230224406 
1286	 0.331523743083083 
1287	 0.331676346229122 
1288	 0.331829256170966 
1289	 0.331970015445767 
1290	 0.332116752034242 
1291	 0.332268794241029 
1292	 0.33242132496743 
1293	 0.332576262885066 
1294	 0.332717444845853 
1295	 0.332864804639581 
1296	 0.33299623049904 
1297	 0.333099637316156 
1298	 0.333218863652344 
1299	 0.333356321842987 
1300	 0.33346360484374 
1301	 0.333551880371522 
1302	 0.333643499091584 
1303	 0.333732007316105 
1304	 0.333794545598158 
1305	 0.333843677224282 
1306	 0.333917341692782 
1307	 0.333943023257785 
1308	 0.333947090282179 
1309	 0.333978408524858 
1310	 0.334016506481981 
1311	 0.334051317170714 
1312	 0.33409569661941 
1313	 0.334133940900392 
1314	 0.334169906541348 
1315	 0.334195871367017 
1316	 0.334207107844279 
1317	 0.334244041031501 
1318	 0.334294545959322 
1319	 0.334329196956515 
1320	 0.334390249472851 
1321	 0.334414939127628 
1322	 0.334412708459351 
1323	 0.334392556396901 
1324	 0.334371747128889 
1325	 0.334354980651104 
1326	 0.334340770068906 
1327	 0.334330398963768 
1328	 0.334301912935109 
1329	 0.334283518362529 
1330	 0.334273848524357 
1331	 0.334258497041046 
1332	 0.334260554627334 
1333	 0.334286202334731 
1334	 0.334298831335754 
1335	 0.334311080414928 
1336	 0.3343263069836 
1337	 0.334341085219631 
1338	 0.334359132759429 
1339	 0.334385600043693 
1340	 0.334404145157921 
1341	 0.334427106175324 
1342	 0.334434476595131 
1343	 0.334426348222925 
1344	 0.334424238768869 
1345	 0.334413058467116 
1346	 0.334411177662341 
1347	 0.334418163264833 
1348	 0.334413143152783 
1349	 0.334401322011956 
1350	 0.334376160337705 
1351	 0.334357209989355 
1352	 0.334331996274971 
1353	 0.334311942370736 
1354	 0.334301052087322 
1355	 0.334278543602183 
1356	 0.334247322541919 
1357	 0.334216243316365 
1358	 0.334166686592739 
1359	 0.334149506914756 
1360	 0.334134850774727 
1361	 0.334147065418213 
1362	 0.334203573110474 
1363	 0.334237482368761 
1364	 0.334278992372759 
1365	 0.334316274204347 
1366	 0.334343631247606 
1367	 0.334369328664432 
1368	 0.334418926787779 
1369	 0.334447347127615 
1370	 0.334470904487013 
1371	 0.334481140939742 
1372	 0.334454619903067 
1373	 0.334439840034378 
1374	 0.334405090435844 
1375	 0.334355174529276 
1376	 0.334293662935372 
1377	 0.334231634135396 
1378	 0.334131597638298 
1379	 0.333990308664543 
1380	 0.33387960416162 
1381	 0.333743789940451 
1382	 0.333639503942225 
1383	 0.333572566400654 
1384	 0.333486927597414 
1385	 0.333420137533156 
1386	 0.333320922165275 
1387	 0.333217865402015 
1388	 0.333082674435903 
1389	 0.332922567401612 
1390	 0.332737134341611 
1391	 0.332533047761071 
1392	 0.332318695218409 
1393	 0.332065958979644 
1394	 0.331786248010503 
1395	 0.331482579144353 
1396	 0.331160891445163 
1397	 0.330843388973685 
1398	 0.330523333842632 
1399	 0.33018980266515 
1400	 0.329847501930539 
1401	 0.329503461282208 
1402	 0.32915215731299 
1403	 0.328796427112998 
1404	 0.328421546274199 
1405	 0.32807205318197 
1406	 0.32773068754087 
1407	 0.327386399897486 
1408	 0.327059916924531 
1409	 0.326727993509926 
1410	 0.326384664982627 
1411	 0.326049460102141 
1412	 0.325708244077193 
1413	 0.325390197412926 
1414	 0.325107135331123 
1415	 0.324826222895177 
1416	 0.324571229553975 
1417	 0.324334022620619 
1418	 0.324078362362507 
1419	 0.32383260363262 
1420	 0.323621638372909 
1421	 0.323422477963788 
1422	 0.323234307879464 
1423	 0.323052773075243 
1424	 0.322889456824586 
1425	 0.322742674423786 
1426	 0.322595792211948 
1427	 0.3224599607371 
1428	 0.322337798637246 
1429	 0.322216939822963 
1430	 0.322108188170984 
1431	 0.322015031761406 
1432	 0.321933214619314 
1433	 0.321860919637792 
1434	 0.321796685531438 
1435	 0.321748741944077 
1436	 0.321702363575199 
1437	 0.321666457709616 
1438	 0.321624908032104 
1439	 0.321585170005767 
1440	 0.321548496731016 
1441	 0.32151513972722 
1442	 0.32146915715338 
1443	 0.321411710530342 
1444	 0.321372511302364 
1445	 0.321340115012333 
1446	 0.321311338191345 
1447	 0.32133009272202 
1448	 0.321350307775016 
1449	 0.321343554614584 
1450	 0.321358043242864 
1451	 0.321372628693685 
1452	 0.321369258577841 
1453	 0.3214037126634 
1454	 0.321466025627464 
1455	 0.321522864916548 
1456	 0.321602693244573 
1457	 0.321660592933056 
1458	 0.321715771203728 
1459	 0.321765654358176 
1460	 0.321789008877476 
1461	 0.321843886254188 
1462	 0.321909645137713 
1463	 0.321980903680953 
1464	 0.322086355409658 
1465	 0.322161450085275 
1466	 0.322226776822452 
1467	 0.322290478129997 
1468	 0.322328243265405 
1469	 0.322382956275803 
1470	 0.322451121433477 
1471	 0.322502620412904 
1472	 0.322573230347322 
1473	 0.322666012242651 
1474	 0.322754729659217 
1475	 0.322856723478653 
1476	 0.322955087212501 
1477	 0.323060972578469 
1478	 0.323181963813612 
1479	 0.323293562091163 
1480	 0.323413079556774 
1481	 0.323526766306163 
1482	 0.323614859159338 
1483	 0.323674869578089 
1484	 0.323763600854405 
1485	 0.323834423289523 
1486	 0.32394038390333 
1487	 0.324074582642637 
1488	 0.324211901273395 
1489	 0.324381140560086 
1490	 0.324509048428683 
1491	 0.32463568574084 
1492	 0.324749955209386 
1493	 0.324824532992625 
1494	 0.324920506244182 
1495	 0.325022986526049 
1496	 0.325123848722371 
1497	 0.325228383714879 
1498	 0.325332977549532 
1499	 0.325441988546059 
1500	 0.325545642443001 
1501	 0.325649818265933 
1502	 0.325743727305025 
1503	 0.325829560289607 
1504	 0.325916496988705 
1505	 0.325988831222835 
1506	 0.326058014952406 
1507	 0.326138106310658 
1508	 0.326213557147807 
1509	 0.32629007698698 
1510	 0.326368871685756 
1511	 0.326439484476872 
1512	 0.326510801609791 
1513	 0.326591811502923 
1514	 0.326668356655328 
1515	 0.326759477171582 
1516	 0.326854009600293 
1517	 0.32692985269958 
1518	 0.327007002544336 
1519	 0.327067999461883 
1520	 0.327102844252199 
1521	 0.327152415927587 
1522	 0.327193646629583 
1523	 0.327252660669188 
1524	 0.327324380496397 
1525	 0.327392466908073 
1526	 0.327465012664276 
1527	 0.327545868796817 
1528	 0.327635233653157 
1529	 0.327708297525143 
1530	 0.327783890607202 
1531	 0.327856515246356 
1532	 0.327912305782104 
1533	 0.327978781651921 
1534	 0.328065015502891 
1535	 0.328128363242864 
1536	 0.328178193186852 
1537	 0.328226575889537 
1538	 0.328255438584339 
1539	 0.328298025735177 
1540	 0.328335047291668 
1541	 0.328394054749691 
1542	 0.328490427021756 
1543	 0.328555450555703 
1544	 0.328623724546986 
1545	 0.328676153987545 
1546	 0.328701931301624 
1547	 0.328712898602463 
1548	 0.328757422620711 
1549	 0.328808817306927 
1550	 0.328864770724723 
1551	 0.328929650994442 
1552	 0.328977545200716 
1553	 0.329013053110759 
1554	 0.329047573133561 
1555	 0.329088301142302 
1556	 0.329135221178948 
1557	 0.329185975888418 
1558	 0.329222527426036 
1559	 0.329244166605842 
1560	 0.329271171800127 
1561	 0.32927517333724 
1562	 0.329317223126869 
1563	 0.329383267174511 
1564	 0.329435165267391 
1565	 0.329497033171587 
1566	 0.329555702262178 
1567	 0.329605850846206 
1568	 0.329667291257562 
1569	 0.32974940729295 
1570	 0.329799324552374 
1571	 0.329840172465054 
1572	 0.329870637410119 
1573	 0.329874608045543 
1574	 0.329894875981986 
1575	 0.329914511369324 
1576	 0.329935216015478 
1577	 0.329970623605945 
1578	 0.329983578416844 
1579	 0.329972121005473 
1580	 0.329989288395006 
1581	 0.3300108177739 
1582	 0.330026124722101 
1583	 0.330050122987887 
1584	 0.33008583161578 
1585	 0.330118964702969 
1586	 0.33015345861947 
1587	 0.330215798185681 
1588	 0.330253987918622 
1589	 0.330273903502949 
1590	 0.330293079919151 
1591	 0.330304815157502 
1592	 0.330319101900318 
1593	 0.330327424967267 
1594	 0.330336560269065 
1595	 0.330351608195567 
1596	 0.330358832215098 
1597	 0.33035586709758 
1598	 0.330358183898209 
1599	 0.330362479861057 
1600	 0.330363686404827 
1601	 0.330354523493999 
1602	 0.33036406537418 
1603	 0.330381924830616 
1604	 0.330399710731266 
1605	 0.330427579329899 
1606	 0.330464393482322 
1607	 0.330519103127369 
1608	 0.330549038419891 
1609	 0.330576000061398 
1610	 0.330615322832181 
1611	 0.330614454499336 
1612	 0.330601112800841 
1613	 0.330611226965951 
1614	 0.33059490541145 
1615	 0.330581011934094 
1616	 0.330568249405036 
1617	 0.330522443415884 
1618	 0.330504260808913 
1619	 0.330515029669988 
1620	 0.330524469283716 
1621	 0.330524539113362 
1622	 0.330538367171695 
1623	 0.330542790203883 
1624	 0.330526827394823 
1625	 0.330528571790412 
1626	 0.330543254952347 
1627	 0.330561037772031 
1628	 0.330579665110292 
1629	 0.330595452442737 
1630	 0.33062759465093 
1631	 0.330634147424137 
1632	 0.330622607108808 
1633	 0.330616611418958 
1634	 0.33060210814368 
1635	 0.33059723373933 
1636	 0.330597146019331 
1637	 0.330587535075912 
1638	 0.330578154531501 
1639	 0.33056428303609 
1640	 0.330541441128699 
1641	 0.330522550869576 
1642	 0.330507708698636 
1643	 0.330485747327345 
1644	 0.330445500412167 
1645	 0.330441246621094 
1646	 0.330460304994188 
1647	 0.33045375689269 
1648	 0.330456100046408 
1649	 0.330456160313354 
1650	 0.330425636647249 
1651	 0.330430708832866 
1652	 0.330481830195705 
1653	 0.330481090861645 
1654	 0.330467290962537 
1655	 0.330445691446889 
1656	 0.33038553492982 
1657	 0.330358767510879 
1658	 0.330348134141962 
1659	 0.330326774187149 
1660	 0.330311628297313 
1661	 0.33029114980999 
1662	 0.330261428464391 
1663	 0.33023798349964 
1664	 0.330213623114411 
1665	 0.33019957737096 
1666	 0.330197668392507 
1667	 0.330180107605822 
1668	 0.330169958255748 
1669	 0.330141220824975 
1670	 0.330087775524347 
1671	 0.3300479220486 
1672	 0.329997676044553 
1673	 0.329970475272057 
1674	 0.329948043157315 
1675	 0.329946614713744 
1676	 0.329978897620766 
1677	 0.329988288866495 
1678	 0.330007964550577 
1679	 0.330010227162833 
1680	 0.33001013413821 
1681	 0.329974244066944 
1682	 0.32990161853883 
1683	 0.329856643590675 
1684	 0.329772939738956 
1685	 0.32975004198445 
1686	 0.329783600536221 
1687	 0.329796315004257 
1688	 0.329835450636756 
1689	 0.329843125680317 
1690	 0.329837791805716 
1691	 0.329824341307925 
1692	 0.32979201379544 
1693	 0.329768081292231 
1694	 0.32973688217052 
1695	 0.329713102273946 
1696	 0.32969010128211 
1697	 0.329675009685233 
1698	 0.32966384050573 
1699	 0.329659570948308 
1700	 0.329670514436112 
1701	 0.329665809484354 
1702	 0.329674207255319 
1703	 0.32964732047455 
1704	 0.329594529349475 
1705	 0.329541741998465 
1706	 0.329450285107303 
1707	 0.329402206476698 
1708	 0.329372164547485 
1709	 0.329345995195009 
1710	 0.32934724291273 
1711	 0.329326498668844 
1712	 0.329293445048692 
1713	 0.329273212413201 
1714	 0.329255596091024 
1715	 0.329236266930494 
1716	 0.329228096236149 
1717	 0.329206221278559 
1718	 0.329164020896989 
1719	 0.329149062795868 
1720	 0.329156344905448 
1721	 0.329129075315068 
1722	 0.329100269909469 
1723	 0.329065919186264 
1724	 0.328997724387514 
1725	 0.328954721624055 
1726	 0.328932445446066 
1727	 0.328894621134548 
1728	 0.328858868970614 
1729	 0.328802799034424 
1730	 0.328734196976928 
1731	 0.328669929609559 
1732	 0.32859003995112 
1733	 0.328521093341988 
1734	 0.328465124435201 
1735	 0.328387741369954 
1736	 0.3282979695034 
1737	 0.328212738215629 
1738	 0.328119481083336 
1739	 0.328038906811075 
1740	 0.327959744558227 
1741	 0.327896069889034 
1742	 0.32784511982673 
1743	 0.327782103687863 
1744	 0.327720546619293 
1745	 0.327669930952986 
1746	 0.327623446465239 
1747	 0.327576799438316 
1748	 0.327532169174103 
1749	 0.327474683365615 
1750	 0.327386447137216 
1751	 0.327309921884811 
1752	 0.327237991785605 
1753	 0.32714966226986 
1754	 0.327065554592061 
1755	 0.327006673381799 
1756	 0.326948406135938 
1757	 0.326885848853081 
1758	 0.326861028386551 
1759	 0.326816213915817 
1760	 0.326742811858159 
1761	 0.32671203784168 
1762	 0.326669254654715 
1763	 0.3265872251227 
1764	 0.326543256524507 
1765	 0.326518386910354 
1766	 0.326463960483038 
1767	 0.326438063458451 
1768	 0.326433842164807 
1769	 0.326390131112507 
1770	 0.326337015179895 
1771	 0.326292901437627 
1772	 0.326228177618574 
1773	 0.326153423460461 
1774	 0.326084610997621 
1775	 0.325989062060957 
1776	 0.325904059765069 
1777	 0.325855319387928 
1778	 0.325789215241149 
1779	 0.325748337103781 
1780	 0.3257364466104 
1781	 0.325701886257964 
1782	 0.325679211784134 
1783	 0.32571024757501 
1784	 0.325697826053282 
1785	 0.325678407599368 
1786	 0.325646353841363 
1787	 0.325576196203585 
1788	 0.325518311277366 
1789	 0.32544063887509 
1790	 0.325400326097375 
1791	 0.325377178389786 
1792	 0.325357988624902 
1793	 0.3253711320786 
1794	 0.325380324509064 
1795	 0.325422034586035 
1796	 0.325393546986685 
1797	 0.325321732681709 
1798	 0.325258922526288 
1799	 0.325128091543589 
1800	 0.325078328503955 
1801	 0.323151668180548 
1802	 0.323187248847569 
1803	 0.323255497309077 
1804	 0.323341529324634 
1805	 0.323450819682247 
1806	 0.323577799199742 
1807	 0.3236978579853 
1808	 0.32379487896655 
1809	 0.323892938354642 
1810	 0.323970099471087 
1811	 0.324024761444616 
1812	 0.324073274409905 
1813	 0.324105759086205 
1814	 0.324114723873273 
1815	 0.324121405505598 
1816	 0.324123322973641 
1817	 0.324143042516666 
1818	 0.324184269009633 
1819	 0.324200482909595 
1820	 0.324220338275199 
1821	 0.324224140102468 
1822	 0.324207521881562 
1823	 0.324204887093674 
1824	 0.324217806586553 
1825	 0.324241840006726 
1826	 0.324244693807262 
1827	 0.324235216917039 
1828	 0.32422953484749 
1829	 0.324218684198338 
1830	 0.324188959941036 
1831	 0.324155281179546 
1832	 0.324124362349884 
1833	 0.324052691419148 
1834	 0.323976953828073 
1835	 0.323902634174102 
1836	 0.323855926670898 
1837	 0.323853725446718 
1838	 0.323858677419811 
1839	 0.323871297351198 
1840	 0.323911664883911 
1841	 0.323947075216792 
1842	 0.323983542256716 
1843	 0.324003597012466 
1844	 0.323996680031004 
1845	 0.323965319760999 
1846	 0.323876223063193 
1847	 0.323795702198483 
1848	 0.323711747964053 
1849	 0.323626151271172 
1850	 0.323576334066374 
1851	 0.323552142736841 
1852	 0.323521390401313 
1853	 0.323526341702448 
1854	 0.323565920979695 
1855	 0.323581834826006 
1856	 0.323585640587053 
1857	 0.323580857291857 
1858	 0.323521314508871 
1859	 0.323422851165751 
1860	 0.323305201962778 
1861	 0.323166502774915 
1862	 0.322975665498713 
1863	 0.322769000564344 
1864	 0.322561656312136 
1865	 0.322345446234198 
1866	 0.322114200630828 
1867	 0.321862359496604 
1868	 0.321612981967128 
1869	 0.321353512087428 
1870	 0.321087181296916 
1871	 0.320808480598849 
1872	 0.320538774458223 
1873	 0.320235333711552 
1874	 0.319904904925318 
1875	 0.319595692546732 
1876	 0.319269813798259 
1877	 0.318909823263054 
1878	 0.318504831981799 
1879	 0.318024351793959 
1880	 0.317485781568898 
1881	 0.316870524825788 
1882	 0.316229391611398 
1883	 0.315551201663357 
1884	 0.314792393251272 
1885	 0.314001637758126 
1886	 0.313156344487586 
1887	 0.31223684380914 
1888	 0.311300839516041 
1889	 0.310310839773205 
1890	 0.309298301829908 
1891	 0.308244231328065 
1892	 0.307137375385109 
1893	 0.306008776753649 
1894	 0.30485548365033 
1895	 0.303655344728225 
1896	 0.302416659181598 
1897	 0.301145184715016 
1898	 0.299842578632073 
1899	 0.29853298047064 
1900	 0.297218351955876 
1901	 0.295925419437025 
1902	 0.294668513965818 
1903	 0.293429659196675 
1904	 0.292231444465461 
1905	 0.291059272070768 
1906	 0.289950335444176 
1907	 0.288870876656017 
1908	 0.287797177208899 
1909	 0.28679824648945 
1910	 0.285797856896483 
1911	 0.284834058331671 
1912	 0.283933887138606 
1913	 0.283053315667922 
1914	 0.282181677788967 
1915	 0.281390455351531 
1916	 0.280649321597597 
1917	 0.27994397453945 
1918	 0.279325295505575 
1919	 0.278717649151554 
1920	 0.278148956972316 
1921	 0.277656982858261 
1922	 0.277199735363816 
1923	 0.276814943464893 
1924	 0.276477431363827 
1925	 0.276205371043398 
1926	 0.27596082724919 
1927	 0.275767711691114 
1928	 0.275608494601936 
1929	 0.275449302211133 
1930	 0.275356871319887 
1931	 0.275284029439461 
1932	 0.275210050181421 
1933	 0.275191861227099 
1934	 0.27518073348028 
1935	 0.275195563148509 
1936	 0.275230342090211 
1937	 0.275291191697559 
1938	 0.275384757499907 
1939	 0.275484325361059 
1940	 0.275585294277403 
1941	 0.275725582788728 
1942	 0.275898790204841 
1943	 0.276105605488667 
1944	 0.276347915740727 
1945	 0.27658522107718 
1946	 0.276812859273296 
1947	 0.27701566929365 
1948	 0.277255171989652 
1949	 0.27750937514188 
1950	 0.277770161612953 
1951	 0.278049821146846 
1952	 0.278345685233542 
1953	 0.278625646986375 
1954	 0.278889354135969 
1955	 0.279156950067935 
1956	 0.279422879606072 
1957	 0.27969581353858 
1958	 0.279959242010112 
1959	 0.280253254010365 
1960	 0.280574287329122 
1961	 0.280880803834093 
1962	 0.281204014880791 
1963	 0.281516872193757 
1964	 0.28181243557747 
1965	 0.282117021104258 
1966	 0.282434018454062 
1967	 0.282749411459598 
1968	 0.283071649866749 
1969	 0.283395186483582 
1970	 0.283728772039161 
1971	 0.284079149877018 
1972	 0.28441892625153 
1973	 0.28476333823567 
1974	 0.285104101757758 
1975	 0.285433690339095 
1976	 0.285768469698221 
1977	 0.28612745304652 
1978	 0.286471325667361 
1979	 0.286808741426785 
1980	 0.287172362869696 
1981	 0.287535145032549 
1982	 0.287901484390886 
1983	 0.288265243598119 
1984	 0.288645332697537 
1985	 0.289002527411412 
1986	 0.289346088019706 
1987	 0.2896891779265 
1988	 0.290010158317662 
1989	 0.290360910030908 
1990	 0.290718647120725 
1991	 0.291053672595111 
1992	 0.291406115288017 
1993	 0.291786077963279 
1994	 0.292130175768273 
1995	 0.292447788294407 
1996	 0.29279126702449 
1997	 0.293138402959597 
1998	 0.293472519588241 
1999	 0.293812799352342 
2000	 0.294157125464782 
2001	 0.294495377081842 
2002	 0.294818749323115 
2003	 0.295170073925185 
2004	 0.295517248163454 
2005	 0.295856398827673 
2006	 0.296190713480133 
2007	 0.29652051165544 
2008	 0.296834454317249 
2009	 0.297164892954788 
2010	 0.297503193621983 
2011	 0.297833192954333 
2012	 0.298173718825651 
2013	 0.298506677652825 
2014	 0.298840282866367 
2015	 0.299146340399546 
2016	 0.29944644865631 
2017	 0.299759204455927 
2018	 0.300080880243415 
2019	 0.300405956687224 
2020	 0.300724431228087 
2021	 0.301056240339711 
2022	 0.301380428367414 
2023	 0.301698083454525 
2024	 0.30201054961837 
2025	 0.302331179649413 
2026	 0.302633883018827 
2027	 0.30293342368119 
2028	 0.303194469938606 
2029	 0.3034662434762 
2030	 0.303725375711519 
2031	 0.304004049077033 
2032	 0.304273551436984 
2033	 0.304569086750651 
2034	 0.304885755055585 
2035	 0.305204257092762 
2036	 0.305550035000165 
2037	 0.305873507277038 
2038	 0.306215296387561 
2039	 0.306515486741689 
2040	 0.306799996411027 
2041	 0.307046479314472 
2042	 0.307261327515715 
2043	 0.307483068796387 
2044	 0.307713342104793 
2045	 0.307935270112368 
2046	 0.308171974181833 
2047	 0.308434784732472 
2048	 0.308670053944592 
2049	 0.308892286352422 
2050	 0.309121265710429 
2051	 0.309343276641221 
2052	 0.309562930286756 
2053	 0.309795104483541 
2054	 0.310014248492131 
2055	 0.310224779251187 
2056	 0.31041866606083 
2057	 0.310622531067138 
2058	 0.310821865251701 
2059	 0.311021128374127 
2060	 0.31122028894235 
2061	 0.311424725144203 
2062	 0.311622065976072 
2063	 0.311834252693557 
2064	 0.312063812308907 
2065	 0.312284314240024 
2066	 0.312516130521113 
2067	 0.312733997692172 
2068	 0.312953851028937 
2069	 0.31314124593207 
2070	 0.313349241309528 
2071	 0.313555335079203 
2072	 0.313761650247375 
2073	 0.313970229691522 
2074	 0.31418517280978 
2075	 0.314402445244518 
2076	 0.314613296817439 
2077	 0.314832613480978 
2078	 0.315041424363123 
2079	 0.315226668853077 
2080	 0.315434227852133 
2081	 0.315661633741835 
2082	 0.315872730803864 
2083	 0.316087880889421 
2084	 0.316302282640311 
2085	 0.316492632819101 
2086	 0.316656697428658 
2087	 0.316837817656242 
2088	 0.317000396345892 
2089	 0.31719423487496 
2090	 0.317419578943903 
2091	 0.31761593796937 
2092	 0.317812670572594 
2093	 0.31801078220284 
2094	 0.318191665245629 
2095	 0.318377775098395 
2096	 0.318575466913225 
2097	 0.3187678794055 
2098	 0.318952411146689 
2099	 0.319142221742116 
2100	 0.319319638222919 
2101	 0.319494576938927 
2102	 0.319668306162081 
2103	 0.319823544332528 
2104	 0.320002709450689 
2105	 0.320186143190377 
2106	 0.320388218765588 
2107	 0.320596139522965 
2108	 0.320828752808022 
2109	 0.321118254732917 
2110	 0.321356708723308 
2111	 0.321592040063739 
2112	 0.321814903301392 
2113	 0.322011658826389 
2114	 0.322187225247498 
2115	 0.322371846853091 
2116	 0.322553109003559 
2117	 0.322747047180236 
2118	 0.322934885966095 
2119	 0.323134095903594 
2120	 0.323353218001687 
2121	 0.323566160742 
2122	 0.32378543769562 
2123	 0.323987980173746 
2124	 0.324190880708331 
2125	 0.324383292358564 
2126	 0.324580094238079 
2127	 0.324738837927487 
2128	 0.324867940818272 
2129	 0.324997605378049 
2130	 0.325101157890916 
2131	 0.325189619342374 
2132	 0.325288274991831 
2133	 0.325410420680572 
2134	 0.325481621327949 
2135	 0.325528805245506 
2136	 0.325566143919083 
2137	 0.325559818204661 
2138	 0.325585791564784 
2139	 0.325641471947244 
2140	 0.325646995383756 
2141	 0.325639926901415 
2142	 0.325620120592058 
2143	 0.325542394660411 
2144	 0.32549508653772 
2145	 0.325472153192277 
2146	 0.325432241004187 
2147	 0.325399623159878 
2148	 0.325357300729245 
2149	 0.325271538731208 
2150	 0.325148581012776 
2151	 0.325039791433705 
2152	 0.324902502610128 
2153	 0.324776021800452 
2154	 0.324661733425988 
2155	 0.32453711833136 
2156	 0.324394646604789 
2157	 0.32426299078286 
2158	 0.324163075737793 
2159	 0.324013796879067 
2160	 0.323841207300081 
2161	 0.323662604654626 
2162	 0.323438225555072 
2163	 0.323231166665884 
2164	 0.323036160598916 
2165	 0.322833929807136 
2166	 0.322619685335325 
2167	 0.322391505185108 
2168	 0.322186497804457 
2169	 0.321973711366355 
2170	 0.321781735883275 
2171	 0.321637327574763 
2172	 0.321437160079181 
2173	 0.321219150825596 
2174	 0.320994247832518 
2175	 0.320715754101819 
2176	 0.320486003080694 
2177	 0.32027420470582 
2178	 0.320070076381299 
2179	 0.319894045547611 
2180	 0.319712613896705 
2181	 0.319543662946755 
2182	 0.319361357243796 
2183	 0.319171911370329 
2184	 0.318979950916546 
2185	 0.318798968267892 
2186	 0.318616619807005 
2187	 0.318429155510616 
2188	 0.318242545323154 
2189	 0.318072360180638 
2190	 0.317889002811161 
2191	 0.317735788399066 
2192	 0.317633711036371 
2193	 0.317486865845581 
2194	 0.317320871478456 
2195	 0.317172357585286 
2196	 0.317026733115308 
2197	 0.316861772012342 
2198	 0.316676003461475 
2199	 0.316528521947587 
2200	 0.316377999703493 
2201	 0.316239723395067 
2202	 0.316130993753405 
2203	 0.316045464769984 
2204	 0.315957704580221 
2205	 0.315865794727332 
2206	 0.315773382809269 
2207	 0.315702484058446 
2208	 0.315612738708603 
2209	 0.315492545716115 
2210	 0.315408392714879 
2211	 0.315333487076615 
2212	 0.315277803231049 
2213	 0.315257563768932 
2214	 0.315213345667854 
2215	 0.315163386860167 
2216	 0.315130403727481 
2217	 0.315085089805392 
2218	 0.315057784053525 
2219	 0.315079635137167 
2220	 0.315068208224288 
2221	 0.315031460974932 
2222	 0.315016051406874 
2223	 0.315007876611438 
2224	 0.314953365461175 
2225	 0.3148981463708 
2226	 0.314843002560156 
2227	 0.314762754509539 
2228	 0.31464309398207 
2229	 0.314561682313406 
2230	 0.314480210240704 
2231	 0.314413552875844 
2232	 0.31438568392223 
2233	 0.314301788945132 
2234	 0.314177925761837 
2235	 0.31409563168684 
2236	 0.313993669707748 
2237	 0.313925370072645 
2238	 0.313908281140886 
2239	 0.313879417700777 
2240	 0.313846540910869 
2241	 0.313823604311203 
2242	 0.313830764201478 
2243	 0.313812204594846 
2244	 0.313781929890106 
2245	 0.313754710000903 
2246	 0.31373498839265 
2247	 0.31365793449084 
2248	 0.313611014647479 
2249	 0.313567632704153 
2250	 0.313530999070481 
2251	 0.313488368786365 
2252	 0.313479067445724 
2253	 0.313510910641114 
2254	 0.313489707552364 
2255	 0.313450901916343 
2256	 0.313433814955186 
2257	 0.313388058049524 
2258	 0.313370785546284 
2259	 0.31339675327371 
2260	 0.313405517812949 
2261	 0.313405045834697 
2262	 0.313410984861525 
2263	 0.313418066468536 
2264	 0.313433504460629 
2265	 0.313465419184972 
2266	 0.313482556950833 
2267	 0.313520085857935 
2268	 0.313522591280914 
2269	 0.313512152984273 
2270	 0.313446021316322 
2271	 0.313384987641461 
2272	 0.313357100257654 
2273	 0.313327337510583 
2274	 0.31331941930926 
2275	 0.313297593859675 
2276	 0.313273958087194 
2277	 0.31325561816571 
2278	 0.313235560407185 
2279	 0.313217229176446 
2280	 0.313209061050806 
2281	 0.313187746353642 
2282	 0.313167791382613 
2283	 0.313130415321825 
2284	 0.313073248911337 
2285	 0.313032174576903 
2286	 0.312963186874212 
2287	 0.312942241840057 
2288	 0.312960697201001 
2289	 0.312961829215994 
2290	 0.312996862555548 
2291	 0.313007306051076 
2292	 0.312986725200442 
2293	 0.31298783893191 
2294	 0.312997590978072 
2295	 0.312999206335242 
2296	 0.3130035111925 
2297	 0.313017330398051 
2298	 0.313009589879698 
2299	 0.312960883958944 
2300	 0.312921601009158 
2301	 0.312873007011843 
2302	 0.312846328505907 
2303	 0.312808375622988 
2304	 0.312776933902006 
2305	 0.312771287367948 
2306	 0.312737803933547 
2307	 0.312698026924885 
2308	 0.312674926923551 
2309	 0.312652924086489 
2310	 0.31260600317783 
2311	 0.312570418287801 
2312	 0.312497561204174 
2313	 0.312382366973785 
2314	 0.312273756614872 
2315	 0.312151573810572 
2316	 0.312033833835626 
2317	 0.311888222864647 
2318	 0.311782566755445 
2319	 0.311699046052532 
2320	 0.31162182951721 
2321	 0.31156650480395 
2322	 0.311516662855315 
2323	 0.311484399454976 
2324	 0.311440400842313 
2325	 0.311399732947957 
2326	 0.311358175572358 
2327	 0.311306963067627 
2328	 0.311261086571663 
2329	 0.311224056349178 
2330	 0.311169943040914 
2331	 0.311128391922576 
2332	 0.311075150303861 
2333	 0.311028043416086 
2334	 0.311004747128925 
2335	 0.310914854506478 
2336	 0.310807599941736 
2337	 0.310685491305282 
2338	 0.310585956735629 
2339	 0.310536887480979 
2340	 0.310432629790505 
2341	 0.310363073031639 
2342	 0.31021351032991 
2343	 0.309953183585844 
2344	 0.309821565336287 
2345	 0.30965821885971 
2346	 0.309475800362313 
2347	 0.309281094420816 
2348	 0.309093833140686 
2349	 0.308900541176337 
2350	 0.308694923822965 
2351	 0.308479967608868 
2352	 0.308309279268525 
2353	 0.308045177783989 
2354	 0.30766205716052 
2355	 0.307379198379387 
2356	 0.307088981662517 
2357	 0.306850261727122 
2358	 0.306712638600549 
2359	 0.306500376993397 
2360	 0.306254241880769 
2361	 0.306044867383941 
2362	 0.305858939748831 
2363	 0.305616663217193 
2364	 0.305373301764969 
2365	 0.305106405271851 
2366	 0.304744449644771 
2367	 0.304453809382916 
2368	 0.304217214720629 
2369	 0.303963602988496 
2370	 0.303719429844312 
2371	 0.303481059161624 
2372	 0.303240782559319 
2373	 0.302951562445722 
2374	 0.302657931998991 
2375	 0.302381707780231 
2376	 0.302129582491718 
2377	 0.301844102040357 
2378	 0.301517189179297 
2379	 0.301203826602244 
2380	 0.30086864423137 
2381	 0.300512442408696 
2382	 0.300213761013557 
2383	 0.299930485006023 
2384	 0.299595398675717 
2385	 0.299354555513276 
2386	 0.299173551485164 
2387	 0.298924411834279 
2388	 0.298739394487793 
2389	 0.298509668172363 
2390	 0.298172497394423 
2391	 0.297884600325751 
2392	 0.29755032548842 
2393	 0.297175527475862 
2394	 0.296816380971164 
2395	 0.296440909571814 
2396	 0.296092624083159 
2397	 0.295821519427093 
2398	 0.295596045858195 
2399	 0.295364061111623 
2400	 0.295105161259128 
2401	 0.294766576765339 
2402	 0.29439429787876 
2403	 0.294073322483796 
2404	 0.29373742083073 
2405	 0.293406356748908 
2406	 0.293205586591318 
2407	 0.292977692394826 
2408	 0.292698494210845 
2409	 0.292456378447804 
2410	 0.292105505327803 
2411	 0.291714878200557 
2412	 0.291486474821346 
2413	 0.291261248727988 
2414	 0.290958902309057 
2415	 0.290654264779451 
2416	 0.290286238858011 
2417	 0.2897662977701 
2418	 0.289361212421844 
2419	 0.288993518724664 
2420	 0.288658049035901 
2421	 0.288342171372464 
2422	 0.288047949459372 
2423	 0.287780699018333 
2424	 0.287504173717632 
2425	 0.287249161692533 
2426	 0.287018622732472 
2427	 0.286831543739197 
2428	 0.286650459744852 
2429	 0.28652405098209 
2430	 0.28627356601031 
2431	 0.285947077746649 
2432	 0.285651519719578 
2433	 0.285286895118763 
2434	 0.284937691014049 
2435	 0.284634402253353 
2436	 0.284330414550058 
2437	 0.283974205897396 
2438	 0.283681760324584 
2439	 0.283437503119155 
2440	 0.283200968807054 
2441	 0.282994304023566 
2442	 0.282776332917633 
2443	 0.282630736518406 
2444	 0.282380574968852 
2445	 0.282015699218179 
2446	 0.281710420683362 
2447	 0.281408397215736 
2448	 0.281087463151174 
2449	 0.280793985636879 
2450	 0.280483284524112 
2451	 0.280114725391416 
2452	 0.279816159025155 
2453	 0.279599715832045 
2454	 0.279250068827642 
2455	 0.27879542445232 
2456	 0.278441202338389 
2457	 0.27806621741554 
2458	 0.277767978422913 
2459	 0.277658190952511 
2460	 0.277403729870039 
2461	 0.277033181279769 
2462	 0.276703278109416 
2463	 0.276312181414256 
2464	 0.276059719978092 
2465	 0.275941032762561 
2466	 0.275686157884669 
2467	 0.275438792957197 
2468	 0.275089699802341 
2469	 0.274612400135427 
2470	 0.274232482887722 
2471	 0.273890306953738 
2472	 0.273706749304484 
2473	 0.273501678056484 
2474	 0.273160257086757 
2475	 0.272844125807402 
2476	 0.272450476136539 
2477	 0.271988914153889 
2478	 0.271608474358989 
2479	 0.271111298985283 
2480	 0.270714862664618 
2481	 0.270373154511752 
2482	 0.270046855266646 
2483	 0.269934396116896 
2484	 0.269837792417493 
2485	 0.269648531747854 
2486	 0.26928171483209 
2487	 0.268946553570442 
2488	 0.26876305817774 
2489	 0.268540616146587 
2490	 0.268461897522635 
2491	 0.268466335732486 
2492	 0.268149452892394 
2493	 0.267721083086886 
2494	 0.267454375271981 
2495	 0.267114597174512 
2496	 0.266787805359518 
2497	 0.266535028448598 
2498	 0.266215134941968 
2499	 0.265948607640276 
2500	 0.265563449553348 
