Wavelength	LMW800011.asd
350	 4.96642246148791E-02 
351	 4.91951743757291E-02 
352	 4.52187433759821E-02 
353	 0.043682701320734 
354	 5.69398369254409E-02 
355	 5.47364591024736E-02 
356	 4.79631559578394E-02 
357	 5.14900649127748E-02 
358	 5.16837139205282E-02 
359	 5.07729093126855E-02 
360	 4.89709837391779E-02 
361	 4.56289992617756E-02 
362	 4.73274046324433E-02 
363	 5.02366410110282E-02 
364	 5.13853586278765E-02 
365	 5.09592578417754E-02 
366	 0.051497563556374 
367	 5.13153560806447E-02 
368	 4.92343038899237E-02 
369	 5.08047990541307E-02 
370	 5.24871515683291E-02 
371	 5.34024767175526E-02 
372	 5.42842522068331E-02 
373	 4.96098975852076E-02 
374	 0.047759364196414 
375	 5.20045394399702E-02 
376	 5.43334197769352E-02 
377	 5.20147438827626E-02 
378	 5.03571129422515E-02 
379	 5.40745862051528E-02 
380	 0.053725388610162 
381	 5.25863126605287E-02 
382	 5.29720630175721E-02 
383	 5.56651145096025E-02 
384	 5.60910267572673E-02 
385	 5.49750983487886E-02 
386	 5.36906836239574E-02 
387	 5.30587109308909E-02 
388	 5.43437806433015E-02 
389	 5.46533545992837E-02 
390	 5.18319780530606E-02 
391	 5.36497573213666E-02 
392	 5.55341182119931E-02 
393	 5.59141362782458E-02 
394	 5.62788727659686E-02 
395	 5.66929799292705E-02 
396	 5.68689336151523E-02 
397	 5.70077773073441E-02 
398	 5.88424737408209E-02 
399	 5.86292431738571E-02 
400	 0.057493431479868 
401	 5.78174871165868E-02 
402	 5.79836303688296E-02 
403	 5.76242645231268E-02 
404	 5.70908368628151E-02 
405	 5.73253467481815E-02 
406	 5.80373975889421E-02 
407	 5.90849852308063E-02 
408	 5.98954967726809E-02 
409	 5.85287110779461E-02 
410	 5.80661228824174E-02 
411	 5.88024783377649E-02 
412	 5.96184994137857E-02 
413	 5.99692725532177E-02 
414	 5.95770657754077E-02 
415	 5.89402463735852E-02 
416	 0.059451299093872 
417	 5.97102186368714E-02 
418	 5.96084148311346E-02 
419	 5.94301475307372E-02 
420	 5.96951135725406E-02 
421	 5.93474510536012E-02 
422	 5.88471047902483E-02 
423	 5.94142913053095E-02 
424	 5.90804655448122E-02 
425	 5.87707020075034E-02 
426	 5.90148742386859E-02 
427	 5.89680306728203E-02 
428	 5.89442965834132E-02 
429	 5.88054761167312E-02 
430	 0.058441581844439 
431	 5.85701459011556E-02 
432	 5.83545069075627E-02 
433	 5.79294667575411E-02 
434	 5.83578854116037E-02 
435	 0.058607165462114 
436	 5.86829926375543E-02 
437	 5.87371041314493E-02 
438	 5.87257550908379E-02 
439	 5.87819143736392E-02 
440	 5.88526478007022E-02 
441	 5.88157134705793E-02 
442	 5.87852328010568E-02 
443	 5.90021122754083E-02 
444	 5.93295362819219E-02 
445	 5.90412317449917E-02 
446	 5.90529224785005E-02 
447	 5.93009329175698E-02 
448	 5.94439191126646E-02 
449	 5.92293723616741E-02 
450	 5.93019508728383E-02 
451	 5.97066580151874E-02 
452	 5.99633383388969E-02 
453	 6.00445758002917E-02 
454	 6.01443326459696E-02 
455	 6.03355822105435E-02 
456	 6.02738521697673E-02 
457	 6.02088244222301E-02 
458	 6.01833905805526E-02 
459	 6.01722890145532E-02 
460	 6.03728777828201E-02 
461	 6.05562523533466E-02 
462	 6.05814728149734E-02 
463	 6.04745075908649E-02 
464	 6.05857840091375E-02 
465	 6.07584813860374E-02 
466	 6.07968272033409E-02 
467	 0.060997536894321 
468	 6.11136376573578E-02 
469	 6.11454861845248E-02 
470	 6.12772767344911E-02 
471	 6.11016846401505E-02 
472	 6.10330739716436E-02 
473	 6.12810948076669E-02 
474	 6.12420719495706E-02 
475	 6.13684826247062E-02 
476	 6.14961490627617E-02 
477	 6.12877608143175E-02 
478	 0.061166495239602 
479	 6.13098876441326E-02 
480	 6.16149929149417E-02 
481	 6.16377414852044E-02 
482	 6.16224100818208E-02 
483	 6.16102611055496E-02 
484	 6.15937263733748E-02 
485	 6.15613343076785E-02 
486	 0.061657222084531 
487	 6.17766303820954E-02 
488	 6.16376052588338E-02 
489	 6.16048850935086E-02 
490	 0.061758104243313 
491	 0.061997140001262 
492	 6.19175350636004E-02 
493	 6.18204772866314E-02 
494	 6.17214578864878E-02 
495	 6.15539441107359E-02 
496	 0.061682657476823 
497	 6.17911728840392E-02 
498	 6.17415373086409E-02 
499	 6.17565768311596E-02 
500	 0.061687856672152 
501	 6.16375235006113E-02 
502	 6.17112084100262E-02 
503	 6.17049158126747E-02 
504	 6.17554884821631E-02 
505	 6.18305217391217E-02 
506	 6.17478738920196E-02 
507	 6.17132372917919E-02 
508	 6.17113657888007E-02 
509	 6.17108570438254E-02 
510	 6.17823648486302E-02 
511	 6.16748750278984E-02 
512	 6.15143716769535E-02 
513	 6.15817554076955E-02 
514	 6.15534119316548E-02 
515	 6.15485834655273E-02 
516	 6.16173174628141E-02 
517	 6.16035262982323E-02 
518	 6.16606799794389E-02 
519	 6.16954897721221E-02 
520	 6.15993207365029E-02 
521	 6.16130813898395E-02 
522	 6.16425526287304E-02 
523	 6.16433255660747E-02 
524	 6.16431804912227E-02 
525	 6.16661211721567E-02 
526	 6.16824198786018E-02 
527	 6.16764469909069E-02 
528	 6.17205896685358E-02 
529	 6.17517731893635E-02 
530	 6.17643684475634E-02 
531	 6.17877340298724E-02 
532	 6.17728241566596E-02 
533	 6.17981894183907E-02 
534	 6.18812218918488E-02 
535	 6.18703179041017E-02 
536	 6.19010543839833E-02 
537	 6.19683579485892E-02 
538	 6.20123110166756E-02 
539	 6.20057384425066E-02 
540	 6.19801533603749E-02 
541	 0.061968897081781 
542	 6.19998549942314E-02 
543	 6.20658039090994E-02 
544	 6.21470433371936E-02 
545	 6.22196143800417E-02 
546	 6.22637698890307E-02 
547	 6.22811318223616E-02 
548	 6.23011026295714E-02 
549	 6.23700224871834E-02 
550	 0.062399802322241 
551	 6.24495762508089E-02 
552	 6.25567167752387E-02 
553	 6.26369144374258E-02 
554	 6.26838407172526E-02 
555	 6.27198634507647E-02 
556	 6.27838305244388E-02 
557	 0.062886143243392 
558	 6.30030212408147E-02 
559	 6.31214827005877E-02 
560	 6.32599344070755E-02 
561	 6.33362467264474E-02 
562	 6.34033132242773E-02 
563	 0.063542395634139 
564	 6.37026118580429E-02 
565	 6.38717255585214E-02 
566	 6.40332990506361E-02 
567	 6.41660912669346E-02 
568	 6.43644069028806E-02 
569	 6.46195555975323E-02 
570	 6.48916678781002E-02 
571	 6.51314848304286E-02 
572	 6.53956505389062E-02 
573	 6.56864307076992E-02 
574	 6.59666175010568E-02 
575	 6.62356466514821E-02 
576	 6.65254566082276E-02 
577	 6.68514659635058E-02 
578	 6.71824475032174E-02 
579	 6.75254951849674E-02 
580	 6.78969459167188E-02 
581	 6.83137025716981E-02 
582	 6.87602013783097E-02 
583	 6.92093234805674E-02 
584	 6.96513224436546E-02 
585	 7.01020704139731E-02 
586	 7.06072933401939E-02 
587	 7.11331627091974E-02 
588	 7.16384510927442E-02 
589	 7.21650028230989E-02 
590	 0.072736396845099 
591	 7.33218022708823E-02 
592	 7.38471207497589E-02 
593	 7.43448052834189E-02 
594	 7.48884447684725E-02 
595	 7.55074248421141E-02 
596	 7.60973649050646E-02 
597	 7.67235129198342E-02 
598	 0.077359137278724 
599	 7.79368240238907E-02 
600	 7.84712001806018E-02 
601	 7.90327461794953E-02 
602	 7.96185489632836E-02 
603	 8.00787029295193E-02 
604	 8.05856065818869E-02 
605	 8.11427184998749E-02 
606	 8.16887425455891E-02 
607	 8.21679022170283E-02 
608	 8.26183718503424E-02 
609	 8.30774275787556E-02 
610	 8.35729339180424E-02 
611	 8.40135393737051E-02 
612	 8.44439725484454E-02 
613	 8.48981184580327E-02 
614	 8.52613239387385E-02 
615	 0.085594397042782 
616	 8.59201887228168E-02 
617	 8.62326039872957E-02 
618	 8.65384949922755E-02 
619	 0.086813903822001 
620	 8.70576134614948E-02 
621	 8.73277719888857E-02 
622	 8.75676242671795E-02 
623	 8.77920294151203E-02 
624	 8.80379155624779E-02 
625	 8.82860406887133E-02 
626	 8.84998915248347E-02 
627	 8.86785163914818E-02 
628	 8.88683361181141E-02 
629	 0.089080038537753 
630	 8.92978644443988E-02 
631	 8.94949122256165E-02 
632	 0.089636658342659 
633	 0.089772634971262 
634	 0.089936356714519 
635	 9.01413224482762E-02 
636	 9.03323169256155E-02 
637	 9.04968170019213E-02 
638	 9.06444075441025E-02 
639	 9.08116677088479E-02 
640	 9.10195236195854E-02 
641	 9.12303702550538E-02 
642	 9.13908231776961E-02 
643	 9.15748703609116E-02 
644	 9.17465014820212E-02 
645	 0.091901694113347 
646	 9.20974123443417E-02 
647	 0.092290221047282 
648	 9.24823501210307E-02 
649	 9.26848296256013E-02 
650	 9.28862553264436E-02 
651	 9.31087235581307E-02 
652	 9.33371764738913E-02 
653	 9.35294335567903E-02 
654	 0.093769626696942 
655	 9.39894768756088E-02 
656	 9.41573067509426E-02 
657	 0.094397863533356 
658	 9.46858034257088E-02 
659	 9.49780206303649E-02 
660	 9.52259597285847E-02 
661	 9.54419224375491E-02 
662	 9.57042332064471E-02 
663	 9.60259938806915E-02 
664	 0.096318912645349 
665	 9.65965615705829E-02 
666	 9.68864146557965E-02 
667	 9.72099393354783E-02 
668	 0.09753375096995 
669	 9.78748182574514E-02 
670	 9.82242747167893E-02 
671	 9.85520992609816E-02 
672	 9.88853691340277E-02 
673	 9.92443599593817E-02 
674	 9.96342202817298E-02 
675	 0.100034086470401 
676	 0.100413313693662 
677	 0.10076652383751 
678	 0.101113044649464 
679	 0.101535600643085 
680	 0.10196726192077 
681	 0.102392393054759 
682	 0.102880963999074 
683	 0.103322307219746 
684	 0.103756831216117 
685	 0.104236098724523 
686	 0.104696135081069 
687	 0.105187713089871 
688	 0.105708016230913 
689	 0.106213612478382 
690	 0.106669697491159 
691	 0.107130919207002 
692	 0.107645896154897 
693	 0.108236972503616 
694	 0.108748032376848 
695	 0.109252484634595 
696	 0.109865303712799 
697	 0.110406244380416 
698	 0.110978676522233 
699	 0.111599743499223 
700	 0.112180845010008 
701	 0.112754774289326 
702	 0.113336277089912 
703	 0.11393229833456 
704	 0.114539863374836 
705	 0.115127242557263 
706	 0.115710432116837 
707	 0.116323766428148 
708	 0.116926621851784 
709	 0.117527769854387 
710	 0.118132011540478 
711	 0.118730786703929 
712	 0.119364892211218 
713	 0.119984417946226 
714	 0.120552963707346 
715	 0.121185532272921 
716	 0.121802981853454 
717	 0.122372107396827 
718	 0.122902391998989 
719	 0.123456837320162 
720	 0.12401088767524 
721	 0.124547243384036 
722	 0.125090397141975 
723	 0.125627448163131 
724	 0.126130697794524 
725	 0.126588129411676 
726	 0.12708516470505 
727	 0.127576760631814 
728	 0.128030969364526 
729	 0.12843640675314 
730	 0.128835209750415 
731	 0.129206830863162 
732	 0.129544736976988 
733	 0.129910937844983 
734	 0.130222303643554 
735	 0.130487835863292 
736	 0.1307482109012 
737	 0.130978262736856 
738	 0.131190375846416 
739	 0.131375904661206 
740	 0.13150299540724 
741	 0.131625029023086 
742	 0.131736838133331 
743	 0.131824441782399 
744	 0.131893219235871 
745	 0.131887039858933 
746	 0.131835170903189 
747	 0.131800478070653 
748	 0.131754311891219 
749	 0.131691795266799 
750	 0.131602358152626 
751	 0.13146809783983 
752	 0.131337469675148 
753	 0.131187590152927 
754	 0.13099539415487 
755	 0.130789234350555 
756	 0.130553824341901 
757	 0.130295619024695 
758	 0.130031311687209 
759	 0.129763788030508 
760	 0.129462983528199 
761	 0.129134054805192 
762	 0.128827826604405 
763	 0.128505558471411 
764	 0.128156459495267 
765	 0.127784814059758 
766	 0.127413792674869 
767	 0.127060895649427 
768	 0.126684756982446 
769	 0.126237557419763 
770	 0.125857299895112 
771	 0.125474701624229 
772	 0.125056859197393 
773	 0.124637007158468 
774	 0.124205904043497 
775	 0.12377093931709 
776	 0.123342027078551 
777	 0.122930509352302 
778	 0.12249775369747 
779	 0.122067864467477 
780	 0.12167707856302 
781	 0.121244133552681 
782	 0.120790556433603 
783	 0.120337490431559 
784	 0.119898379713858 
785	 0.119502451353637 
786	 0.119100546143071 
787	 0.118658242192452 
788	 0.118205153543257 
789	 0.117795100739082 
790	 0.117402462955886 
791	 0.116984378318667 
792	 0.116596371108779 
793	 0.116207105637018 
794	 0.115801867366306 
795	 0.115389675058586 
796	 0.115028915100603 
797	 0.114681856352767 
798	 0.114307472475218 
799	 0.113885535815489 
800	 0.11350865504013 
801	 0.113167294360141 
802	 0.112822033519493 
803	 0.112455811500867 
804	 0.112121849781231 
805	 0.111807677915535 
806	 0.111468230070353 
807	 0.111165388612685 
808	 0.110843904734361 
809	 0.110498576978107 
810	 0.110201300058805 
811	 0.109925117766184 
812	 0.109637255920748 
813	 0.109329001087515 
814	 0.109062815383288 
815	 0.108788041708324 
816	 0.108512329923616 
817	 0.108260117760034 
818	 0.108004516129196 
819	 0.107777392294996 
820	 0.107562976791577 
821	 0.107309209972518 
822	 0.10706360688535 
823	 0.10685607897546 
824	 0.106678176666963 
825	 0.10646584021439 
826	 0.106257890696502 
827	 0.10606895795534 
828	 0.105896883565806 
829	 0.105709573775292 
830	 0.105494638731386 
831	 0.105302609915908 
832	 0.105187481455997 
833	 0.105026523970492 
834	 0.10487471613273 
835	 0.104749545139022 
836	 0.104620951730462 
837	 0.104471911490592 
838	 0.104359356366555 
839	 0.104282839557488 
840	 0.104125032314876 
841	 0.10401070365739 
842	 0.103904577377008 
843	 0.103770488594969 
844	 0.103714011531865 
845	 0.103670516482901 
846	 0.103596545203267 
847	 0.103481577939701 
848	 0.10342475796007 
849	 0.103396326921579 
850	 0.103351533296776 
851	 0.103254155071123 
852	 0.103215035035654 
853	 0.103181969312519 
854	 0.103128883597857 
855	 0.10310171355945 
856	 0.103126178265691 
857	 0.103148989184439 
858	 0.103131608995916 
859	 0.10312361669365 
860	 0.10311067899724 
861	 0.103113401124252 
862	 0.103149914339844 
863	 0.103182101555671 
864	 0.103194734245026 
865	 0.103216033368818 
866	 0.10328561514644 
867	 0.103323478782514 
868	 0.103368080865205 
869	 0.103436081349117 
870	 0.103510013817385 
871	 0.103576278947724 
872	 0.103660372059594 
873	 0.103762883264993 
874	 0.103835081793752 
875	 0.103940690114654 
876	 0.104036587034926 
877	 0.104099245692878 
878	 0.104226258521096 
879	 0.104363551599959 
880	 0.10448176195437 
881	 0.104581712307338 
882	 0.104750897822833 
883	 0.104906465197003 
884	 0.105032741348432 
885	 0.105160611450668 
886	 0.105325090308454 
887	 0.105548614981401 
888	 0.105755945367781 
889	 0.105828241230314 
890	 0.10602415318464 
891	 0.106237119489781 
892	 0.106421818021653 
893	 0.106661709762811 
894	 0.10680616773049 
895	 0.10695546073297 
896	 0.107190775965719 
897	 0.107467623315507 
898	 0.107754800590174 
899	 0.108012058194928 
900	 0.108235077019512 
901	 0.108509060756442 
902	 0.108782321528743 
903	 0.109056881968772 
904	 0.109345719953818 
905	 0.109632194160639 
906	 0.109946766448513 
907	 0.110272522843243 
908	 0.110579641540739 
909	 0.110900113946914 
910	 0.111222107968904 
911	 0.111544749330997 
912	 0.111876705908773 
913	 0.112236444529207 
914	 0.112577699983665 
915	 0.112913287511549 
916	 0.11329868663289 
917	 0.113605734944842 
918	 0.114010501190712 
919	 0.114514763955379 
920	 0.114892793057819 
921	 0.11525353258255 
922	 0.115660532070541 
923	 0.116135000804349 
924	 0.116642735822717 
925	 0.117084436636146 
926	 0.117549254540291 
927	 0.118066197898447 
928	 0.118478798367939 
929	 0.11895520722568 
930	 0.119459270174101 
931	 0.119960871138408 
932	 0.12057563490522 
933	 0.121109822507865 
934	 0.121586361828494 
935	 0.12208701488161 
936	 0.122653934978717 
937	 0.123219488613482 
938	 0.123787876147273 
939	 0.124383581009011 
940	 0.125007327827759 
941	 0.125685025704655 
942	 0.126346128851802 
943	 0.126939040645663 
944	 0.127635436715424 
945	 0.128286537635035 
946	 0.128946912369184 
947	 0.129704208779707 
948	 0.130352256774691 
949	 0.131048363173887 
950	 0.13177701892346 
951	 0.132456713514544 
952	 0.133173248776748 
953	 0.133955397494582 
954	 0.134714044910502 
955	 0.135374147334944 
956	 0.13629804062632 
957	 0.137142922970319 
958	 0.137827002819593 
959	 0.138500386642374 
960	 0.139429734944404 
961	 0.140339439307269 
962	 0.141153224542148 
963	 0.141954939475729 
964	 0.142761506258413 
965	 0.143644946203491 
966	 0.144615214690471 
967	 0.145615378307114 
968	 0.146481174732393 
969	 0.147392454114578 
970	 0.148325087298547 
971	 0.14915429425022 
972	 0.150156088634842 
973	 0.151170856856419 
974	 0.152184859021282 
975	 0.153265822189151 
976	 0.154218025668075 
977	 0.155160371707069 
978	 0.156185815767621 
979	 0.157296702667178 
980	 0.158227886933166 
981	 0.159140340193789 
982	 0.160100136099323 
983	 0.161117440793758 
984	 0.162358131581773 
985	 0.16352033060962 
986	 0.164540506128121 
987	 0.16553328992431 
988	 0.166622171342318 
989	 0.167754735419824 
990	 0.168790777400227 
991	 0.169686678041475 
992	 0.170984209168297 
993	 0.172094061793093 
994	 0.173197402629669 
995	 0.174590926509333 
996	 0.175450253921049 
997	 0.176530252712626 
998	 0.177791202100639 
999	 0.178942641365616 
1000	 0.180109254985944 
1001	 0.182724943127852 
1002	 0.183845773461829 
1003	 0.184894726745463 
1004	 0.185964851517417 
1005	 0.186993793796741 
1006	 0.18806896458411 
1007	 0.189143049317212 
1008	 0.190294570302455 
1009	 0.191454475957004 
1010	 0.192520313420254 
1011	 0.193497649088418 
1012	 0.194482761195527 
1013	 0.195496482296056 
1014	 0.196484297377709 
1015	 0.197525468370153 
1016	 0.198641251032879 
1017	 0.199672263925555 
1018	 0.200632233861427 
1019	 0.201620171335427 
1020	 0.202670245012959 
1021	 0.20361407699071 
1022	 0.204585986442864 
1023	 0.205609208443406 
1024	 0.206561889569853 
1025	 0.207498494441255 
1026	 0.208394842706113 
1027	 0.209307559027541 
1028	 0.210283682760633 
1029	 0.211237794053162 
1030	 0.212215137526197 
1031	 0.213148930365156 
1032	 0.214065365717369 
1033	 0.214929453356594 
1034	 0.215825342222473 
1035	 0.216674819269971 
1036	 0.217570537892996 
1037	 0.218539772175051 
1038	 0.219449559622964 
1039	 0.220360524471272 
1040	 0.221266906972053 
1041	 0.22210393362431 
1042	 0.222979734389214 
1043	 0.223911008142038 
1044	 0.22481004422309 
1045	 0.225722211310463 
1046	 0.226623096702859 
1047	 0.227510440583331 
1048	 0.228377613239539 
1049	 0.229247012018959 
1050	 0.230164305363042 
1051	 0.23109621784096 
1052	 0.23198320548362 
1053	 0.232888623109583 
1054	 0.233754057556702 
1055	 0.234541830118836 
1056	 0.235372345711239 
1057	 0.236193849338981 
1058	 0.236989800154673 
1059	 0.237824219166666 
1060	 0.238706210521147 
1061	 0.239499276679399 
1062	 0.240318523146722 
1063	 0.241203131877612 
1064	 0.242002013688824 
1065	 0.242817594481522 
1066	 0.243626378618434 
1067	 0.2443646384458 
1068	 0.245137433254461 
1069	 0.245887783400822 
1070	 0.246645600920032 
1071	 0.247408182251464 
1072	 0.24817363697782 
1073	 0.248930186562555 
1074	 0.249706341085032 
1075	 0.250507712478007 
1076	 0.251251927596648 
1077	 0.252022985092266 
1078	 0.252779245371349 
1079	 0.253506632116275 
1080	 0.254255470427228 
1081	 0.254981114307009 
1082	 0.255699701772404 
1083	 0.25642002706392 
1084	 0.257133849692605 
1085	 0.257852497562278 
1086	 0.258549963579557 
1087	 0.25928263303235 
1088	 0.260045591914181 
1089	 0.260773485565362 
1090	 0.261484237168637 
1091	 0.262248743476563 
1092	 0.26302054588432 
1093	 0.263819495128116 
1094	 0.264609559702307 
1095	 0.265361722239343 
1096	 0.26612413439512 
1097	 0.266878535542663 
1098	 0.267688153067391 
1099	 0.26858921415879 
1100	 0.269439651189464 
1101	 0.270278397469224 
1102	 0.271133807894109 
1103	 0.272006220336903 
1104	 0.272836357292176 
1105	 0.273685805035953 
1106	 0.274573787329587 
1107	 0.275429022031727 
1108	 0.276329972224649 
1109	 0.277250089167882 
1110	 0.278137142914851 
1111	 0.279047262997893 
1112	 0.279950820970681 
1113	 0.280884045539631 
1114	 0.281845439476996 
1115	 0.282807618165819 
1116	 0.283807079164529 
1117	 0.284781535790052 
1118	 0.285748657786655 
1119	 0.286689093111262 
1120	 0.287679147707326 
1121	 0.288643930886133 
1122	 0.289656816907871 
1123	 0.290685543046166 
1124	 0.291706120199443 
1125	 0.292748770105832 
1126	 0.29375877792522 
1127	 0.294745773988331 
1128	 0.295750147843489 
1129	 0.29673009467875 
1130	 0.297736720776087 
1131	 0.298781451273251 
1132	 0.299801520611063 
1133	 0.300822493912202 
1134	 0.301832804681487 
1135	 0.302829318295337 
1136	 0.303815817265143 
1137	 0.304812390651754 
1138	 0.305796349016353 
1139	 0.306787145076256 
1140	 0.307782538547111 
1141	 0.30876498252593 
1142	 0.309749870986949 
1143	 0.310723005508708 
1144	 0.311684391710773 
1145	 0.312641386335792 
1146	 0.313597852146412 
1147	 0.314535164763688 
1148	 0.315451133422992 
1149	 0.316376606333464 
1150	 0.317303080391187 
1151	 0.318214002987676 
1152	 0.319125233636542 
1153	 0.320044352720317 
1154	 0.320936301027686 
1155	 0.321810199321268 
1156	 0.32267883638261 
1157	 0.323527731163956 
1158	 0.324385704121234 
1159	 0.325268117922569 
1160	 0.326099811574394 
1161	 0.326891715569206 
1162	 0.327709036973298 
1163	 0.328512653096604 
1164	 0.329307897307267 
1165	 0.330093585525185 
1166	 0.330933310614937 
1167	 0.331740729205267 
1168	 0.332513451750492 
1169	 0.333286035286247 
1170	 0.334071785860786 
1171	 0.334816647246827 
1172	 0.335531502811857 
1173	 0.336238696060446 
1174	 0.336922349153364 
1175	 0.337614653086751 
1176	 0.338298814454833 
1177	 0.338978805976157 
1178	 0.339662964507331 
1179	 0.340336801333612 
1180	 0.3410086428111 
1181	 0.341663178122015 
1182	 0.342312188204874 
1183	 0.342943561605814 
1184	 0.34357219636828 
1185	 0.344190257266787 
1186	 0.344793069361831 
1187	 0.345388841646435 
1188	 0.345976137243563 
1189	 0.346542922700774 
1190	 0.347112988691788 
1191	 0.347682320823841 
1192	 0.348247580534019 
1193	 0.34881568022163 
1194	 0.349363978824435 
1195	 0.349903309478288 
1196	 0.350435080364905 
1197	 0.350950738368825 
1198	 0.351460888530222 
1199	 0.351965069546285 
1200	 0.352468050314183 
1201	 0.352958736070593 
1202	 0.353436292498406 
1203	 0.353914948325149 
1204	 0.354395958978953 
1205	 0.354857324498506 
1206	 0.355310562916294 
1207	 0.355753351901544 
1208	 0.356180361470821 
1209	 0.356602778547825 
1210	 0.357013772257003 
1211	 0.357427013079371 
1212	 0.357841970079794 
1213	 0.358241716509879 
1214	 0.358635657043771 
1215	 0.359024446527587 
1216	 0.3594048044654 
1217	 0.359770585367406 
1218	 0.360135422405017 
1219	 0.360503903162112 
1220	 0.360851661985007 
1221	 0.361179624933498 
1222	 0.361516221417205 
1223	 0.361850468163496 
1224	 0.362174887814677 
1225	 0.362507186018999 
1226	 0.362816159412033 
1227	 0.363098660186575 
1228	 0.363389123593841 
1229	 0.363667712782105 
1230	 0.363952246059878 
1231	 0.364257046782324 
1232	 0.364536223744673 
1233	 0.364803924658625 
1234	 0.365058810856638 
1235	 0.365323192042821 
1236	 0.36557452562818 
1237	 0.365831542048807 
1238	 0.366103103200043 
1239	 0.366359110558409 
1240	 0.366609750322181 
1241	 0.366847510502898 
1242	 0.367083643148483 
1243	 0.367302677714298 
1244	 0.367490518472923 
1245	 0.367695950167931 
1246	 0.367901434495898 
1247	 0.368106346355518 
1248	 0.368323403433779 
1249	 0.368530086534984 
1250	 0.368719717666443 
1251	 0.368913070114547 
1252	 0.369102668065888 
1253	 0.3692816883327 
1254	 0.369473331980392 
1255	 0.369677841196245 
1256	 0.369861141693471 
1257	 0.370048472350971 
1258	 0.370214040801738 
1259	 0.370354637712276 
1260	 0.370501993125311 
1261	 0.37064857075385 
1262	 0.370780688284287 
1263	 0.370896121507907 
1264	 0.371019692538575 
1265	 0.371135706290439 
1266	 0.371252463712635 
1267	 0.371356217146386 
1268	 0.371489708160208 
1269	 0.371640496671489 
1270	 0.371796392640326 
1271	 0.371966486490728 
1272	 0.372178213605144 
1273	 0.372359827875107 
1274	 0.372526570974734 
1275	 0.372712553749593 
1276	 0.372901392144309 
1277	 0.373093933704961 
1278	 0.373305111877307 
1279	 0.373498513928045 
1280	 0.373687965432377 
1281	 0.373873394771651 
1282	 0.374062130821011 
1283	 0.37422594324396 
1284	 0.374375923803368 
1285	 0.374519928756586 
1286	 0.374627460114645 
1287	 0.374740241659516 
1288	 0.374841506671305 
1289	 0.374938804131533 
1290	 0.375012446192525 
1291	 0.375075081425904 
1292	 0.375115710699323 
1293	 0.375145600916211 
1294	 0.375136597412333 
1295	 0.375096736599335 
1296	 0.375046667160321 
1297	 0.374960317982995 
1298	 0.374873634249976 
1299	 0.374775237239625 
1300	 0.374673414118443 
1301	 0.37455466545976 
1302	 0.374437703275631 
1303	 0.37432445250851 
1304	 0.3742063175169 
1305	 0.374061287061937 
1306	 0.373916298050255 
1307	 0.373740449160344 
1308	 0.373550457800634 
1309	 0.37339232017086 
1310	 0.373237636862027 
1311	 0.37309906592662 
1312	 0.372988002319852 
1313	 0.372866842428126 
1314	 0.37273904822938 
1315	 0.372631777799892 
1316	 0.372524989660076 
1317	 0.372447565147476 
1318	 0.372393749178114 
1319	 0.372348820224548 
1320	 0.372324785175686 
1321	 0.372307098882914 
1322	 0.372297511966509 
1323	 0.372299180904499 
1324	 0.372319641020727 
1325	 0.372341818378769 
1326	 0.372380138177876 
1327	 0.372437260379071 
1328	 0.372485790708421 
1329	 0.372557022828969 
1330	 0.372643667999838 
1331	 0.372732359136548 
1332	 0.372857534337978 
1333	 0.37302464907752 
1334	 0.373169777131866 
1335	 0.373315970791365 
1336	 0.373486154958957 
1337	 0.373659121586571 
1338	 0.373842509825288 
1339	 0.374061186760849 
1340	 0.374265625898011 
1341	 0.374463232715986 
1342	 0.374661475902824 
1343	 0.374871792326303 
1344	 0.375058020807238 
1345	 0.375252186869141 
1346	 0.375452826690459 
1347	 0.375636769810311 
1348	 0.37584023327478 
1349	 0.376035083135903 
1350	 0.376212050669072 
1351	 0.376405563487204 
1352	 0.376607893542279 
1353	 0.376809842585789 
1354	 0.377021071324892 
1355	 0.377215218555448 
1356	 0.377403372284114 
1357	 0.377589640336891 
1358	 0.377765901969381 
1359	 0.377951480117329 
1360	 0.378133126997373 
1361	 0.378328833685068 
1362	 0.378538379578351 
1363	 0.378733882544474 
1364	 0.378937529004222 
1365	 0.379134673032292 
1366	 0.379324018641834 
1367	 0.379498684760003 
1368	 0.379689034087515 
1369	 0.379869886136013 
1370	 0.380038028255529 
1371	 0.380199661299763 
1372	 0.380345966404915 
1373	 0.38047712607333 
1374	 0.380573778764055 
1375	 0.380646796500122 
1376	 0.38069430554084 
1377	 0.380715055856817 
1378	 0.380709055473558 
1379	 0.380661098315653 
1380	 0.380633767451049 
1381	 0.380579840381984 
1382	 0.380546885797848 
1383	 0.380556755988792 
1384	 0.380511661882419 
1385	 0.380466408419728 
1386	 0.380370354089378 
1387	 0.380235984273531 
1388	 0.380070572922857 
1389	 0.379874992081354 
1390	 0.379637374965137 
1391	 0.379380804044552 
1392	 0.379078776451035 
1393	 0.37872743848193 
1394	 0.378372031666741 
1395	 0.377976203247907 
1396	 0.37755058558607 
1397	 0.377104408517379 
1398	 0.37662976020566 
1399	 0.37614604236902 
1400	 0.375640212531771 
1401	 0.375121344196524 
1402	 0.374600975233098 
1403	 0.37404743804275 
1404	 0.373448146561172 
1405	 0.37287377877952 
1406	 0.372291402840381 
1407	 0.371708151225449 
1408	 0.371126358547346 
1409	 0.37055161024967 
1410	 0.369959896031845 
1411	 0.369395195033378 
1412	 0.368843479659167 
1413	 0.368311362023618 
1414	 0.367810922248824 
1415	 0.367331157299554 
1416	 0.366863405242425 
1417	 0.366439206621595 
1418	 0.366021644277824 
1419	 0.365604913189245 
1420	 0.365236314558515 
1421	 0.364892194756908 
1422	 0.364573076397964 
1423	 0.364271842982108 
1424	 0.363973414590551 
1425	 0.363683591705057 
1426	 0.36341276181258 
1427	 0.363145953504914 
1428	 0.362911050599266 
1429	 0.362702805829689 
1430	 0.362502194517542 
1431	 0.36232523589057 
1432	 0.362148075034267 
1433	 0.361971928931707 
1434	 0.36182263515863 
1435	 0.3616820973852 
1436	 0.361567199953385 
1437	 0.361494823410882 
1438	 0.361403511619228 
1439	 0.361325026572622 
1440	 0.361235937796327 
1441	 0.361123967890282 
1442	 0.361027403152829 
1443	 0.360928953235765 
1444	 0.360841803725022 
1445	 0.360783050031924 
1446	 0.36073732126293 
1447	 0.360706236161448 
1448	 0.360686254369501 
1449	 0.360664294192677 
1450	 0.360647348427511 
1451	 0.360654555965975 
1452	 0.360670770804475 
1453	 0.360714088546683 
1454	 0.360782368939974 
1455	 0.360862187087144 
1456	 0.360973816392092 
1457	 0.361069710759346 
1458	 0.361171288601841 
1459	 0.36127558430111 
1460	 0.361381475935677 
1461	 0.361479038308227 
1462	 0.361582205984452 
1463	 0.361678209250542 
1464	 0.361759435613934 
1465	 0.361845651197475 
1466	 0.361944793822951 
1467	 0.362029394185043 
1468	 0.362090749809118 
1469	 0.362169460338105 
1470	 0.362258694127305 
1471	 0.362324725854183 
1472	 0.362406681157356 
1473	 0.362531470193722 
1474	 0.362627153488004 
1475	 0.362733600477279 
1476	 0.362859482333726 
1477	 0.362964023478927 
1478	 0.363097371372579 
1479	 0.363240839195506 
1480	 0.363370751637365 
1481	 0.363520640970076 
1482	 0.363653122346288 
1483	 0.363776255793692 
1484	 0.363901119117534 
1485	 0.364017227233589 
1486	 0.364143174744932 
1487	 0.364271414728926 
1488	 0.364405799340251 
1489	 0.364552508946878 
1490	 0.364687161054353 
1491	 0.364821299190054 
1492	 0.364953383339916 
1493	 0.365068143384467 
1494	 0.365204738686782 
1495	 0.365363702196374 
1496	 0.365503059498948 
1497	 0.365650837004353 
1498	 0.365780484413547 
1499	 0.365875534185897 
1500	 0.365994134937715 
1501	 0.366121196236935 
1502	 0.366243126292956 
1503	 0.366378038373035 
1504	 0.366504289187678 
1505	 0.36659873661348 
1506	 0.366699574005953 
1507	 0.366795935576231 
1508	 0.366891874112286 
1509	 0.366995669515874 
1510	 0.367100715786211 
1511	 0.36719804057074 
1512	 0.367282301830603 
1513	 0.367393815810623 
1514	 0.36749856129038 
1515	 0.367602630635632 
1516	 0.367734174775817 
1517	 0.367828675614595 
1518	 0.367900578158699 
1519	 0.36797944407722 
1520	 0.368041517737403 
1521	 0.368115522733701 
1522	 0.368193974805153 
1523	 0.368274750569008 
1524	 0.36835564691084 
1525	 0.368444357962878 
1526	 0.368536765559175 
1527	 0.368636661420319 
1528	 0.368755831074648 
1529	 0.368849359409658 
1530	 0.368934779686671 
1531	 0.369022604591648 
1532	 0.369094343285344 
1533	 0.369176271003158 
1534	 0.369277292334207 
1535	 0.369353973776787 
1536	 0.36941146432271 
1537	 0.369480384444214 
1538	 0.369545177875668 
1539	 0.369608382457253 
1540	 0.369674714779977 
1541	 0.369742870090375 
1542	 0.36981306177224 
1543	 0.369872994355416 
1544	 0.369931115858116 
1545	 0.369987940180267 
1546	 0.370028469935515 
1547	 0.370075648400125 
1548	 0.370147584503336 
1549	 0.370234965310634 
1550	 0.370311395253941 
1551	 0.37038792277759 
1552	 0.370452523907909 
1553	 0.370490761537934 
1554	 0.370557508807003 
1555	 0.370634738753744 
1556	 0.370716744720029 
1557	 0.37081140833253 
1558	 0.370884980413295 
1559	 0.370944171414821 
1560	 0.371005842566885 
1561	 0.371055529746258 
1562	 0.371111482736866 
1563	 0.371168432968396 
1564	 0.37123074904021 
1565	 0.371289509991651 
1566	 0.371360893566611 
1567	 0.371450943649804 
1568	 0.371518921251812 
1569	 0.371584633056186 
1570	 0.371640234517613 
1571	 0.371684167300014 
1572	 0.37172453559788 
1573	 0.371759635631889 
1574	 0.37179155636516 
1575	 0.371807328332974 
1576	 0.371839918418267 
1577	 0.371884086486024 
1578	 0.371914398800205 
1579	 0.371944867244342 
1580	 0.371975723525849 
1581	 0.371994280467013 
1582	 0.372023840673934 
1583	 0.372057913416652 
1584	 0.372098409866552 
1585	 0.37214595319844 
1586	 0.372191653908319 
1587	 0.372243180937124 
1588	 0.372295839791608 
1589	 0.37235279103508 
1590	 0.372398841792193 
1591	 0.372446858814384 
1592	 0.372487434646066 
1593	 0.372513823567751 
1594	 0.37254292794013 
1595	 0.372563098990995 
1596	 0.372597097664493 
1597	 0.372640780577252 
1598	 0.372677492529805 
1599	 0.372725219919528 
1600	 0.372763084718612 
1601	 0.372790485783133 
1602	 0.372814659646016 
1603	 0.372831220531142 
1604	 0.372852253762696 
1605	 0.372867056090909 
1606	 0.372888568521264 
1607	 0.372919369074435 
1608	 0.372949042090333 
1609	 0.37297167995192 
1610	 0.372984598670752 
1611	 0.372996187342109 
1612	 0.373000354548989 
1613	 0.372992655031879 
1614	 0.372997535471922 
1615	 0.372998090519494 
1616	 0.37299369025584 
1617	 0.373002548208681 
1618	 0.373013098543415 
1619	 0.373032616443163 
1620	 0.373058571527008 
1621	 0.373069028900299 
1622	 0.37308036129162 
1623	 0.373084135220797 
1624	 0.373066504617217 
1625	 0.373077397943149 
1626	 0.37309936811587 
1627	 0.373122415293871 
1628	 0.37316232000643 
1629	 0.37318298889132 
1630	 0.373202206196823 
1631	 0.373206494285412 
1632	 0.373200738409885 
1633	 0.373183380224763 
1634	 0.373141683757153 
1635	 0.373132314735604 
1636	 0.373129094604757 
1637	 0.373120198785058 
1638	 0.373134744645824 
1639	 0.373119214936567 
1640	 0.373075059129662 
1641	 0.373053290687979 
1642	 0.37302915813704 
1643	 0.373016038071313 
1644	 0.373006724667184 
1645	 0.373017140143304 
1646	 0.373050768983436 
1647	 0.373060861276244 
1648	 0.373078046650764 
1649	 0.373087668373832 
1650	 0.373071826131558 
1651	 0.373081513834217 
1652	 0.373120420354818 
1653	 0.373120723657126 
1654	 0.373113784058069 
1655	 0.373093328178949 
1656	 0.373028754524574 
1657	 0.373012644479201 
1658	 0.373023814092352 
1659	 0.373007939928559 
1660	 0.373004913330635 
1661	 0.372985524913343 
1662	 0.372933966354124 
1663	 0.372903211622988 
1664	 0.372883798981769 
1665	 0.372859887609848 
1666	 0.372829553391576 
1667	 0.372812177876558 
1668	 0.372806343962041 
1669	 0.372792550026955 
1670	 0.372786964387607 
1671	 0.372768230671131 
1672	 0.372730417320492 
1673	 0.372713513500481 
1674	 0.372702880864354 
1675	 0.372690578891227 
1676	 0.372681282169644 
1677	 0.372685709632793 
1678	 0.372704322090635 
1679	 0.37270233287686 
1680	 0.37271960738918 
1681	 0.372697084757232 
1682	 0.372624469789194 
1683	 0.372584277807509 
1684	 0.372539778437471 
1685	 0.372506511672052 
1686	 0.372486559372186 
1687	 0.372469174277473 
1688	 0.372456999289241 
1689	 0.372442950498084 
1690	 0.372435075104465 
1691	 0.372429344823531 
1692	 0.372425443245685 
1693	 0.372415689074393 
1694	 0.37241174600328 
1695	 0.372398497348265 
1696	 0.372367776193262 
1697	 0.372352900210921 
1698	 0.372349639417972 
1699	 0.372332418005948 
1700	 0.372308025814257 
1701	 0.372297345602715 
1702	 0.372294579603996 
1703	 0.372269570397438 
1704	 0.372254224697538 
1705	 0.372215373924217 
1706	 0.372137314679393 
1707	 0.372082998739711 
1708	 0.37202912592466 
1709	 0.371979901358746 
1710	 0.371916142874686 
1711	 0.3718994892293 
1712	 0.371918092753022 
1713	 0.37192556230491 
1714	 0.371974297842973 
1715	 0.371979214135194 
1716	 0.371949828593291 
1717	 0.371935617045297 
1718	 0.371924396898623 
1719	 0.371891491023431 
1720	 0.3718495443435 
1721	 0.371807962834641 
1722	 0.371743941682052 
1723	 0.371695777549651 
1724	 0.371658627525055 
1725	 0.371617022333177 
1726	 0.37157567123881 
1727	 0.371532694572955 
1728	 0.371496422648612 
1729	 0.371442987743596 
1730	 0.371387516986283 
1731	 0.37130741718484 
1732	 0.371207563610323 
1733	 0.371109506714475 
1734	 0.370991682564679 
1735	 0.370886513348103 
1736	 0.370783133810652 
1737	 0.37068068910038 
1738	 0.370565629420357 
1739	 0.370490188196066 
1740	 0.370436922160581 
1741	 0.370380712316171 
1742	 0.370355295280433 
1743	 0.370302142589519 
1744	 0.370226849930035 
1745	 0.370175299578111 
1746	 0.370125058682898 
1747	 0.370096464535241 
1748	 0.370080995327833 
1749	 0.370068686244853 
1750	 0.370048451172483 
1751	 0.369985652204298 
1752	 0.369923799802248 
1753	 0.369854505986571 
1754	 0.369758558503144 
1755	 0.369717365819281 
1756	 0.369662679870377 
1757	 0.369592658579288 
1758	 0.369556075158242 
1759	 0.369476265927151 
1760	 0.369387685378567 
1761	 0.369318569033011 
1762	 0.369227000576451 
1763	 0.369134918950532 
1764	 0.369069596198265 
1765	 0.368994336971042 
1766	 0.368939096811606 
1767	 0.368938397090313 
1768	 0.36891217764098 
1769	 0.36886438591895 
1770	 0.368835904543357 
1771	 0.368792980880819 
1772	 0.3687361613047 
1773	 0.368680587363952 
1774	 0.368619232991861 
1775	 0.368543931241064 
1776	 0.368474070972861 
1777	 0.368446928133707 
1778	 0.36842801858022 
1779	 0.368415741095462 
1780	 0.368439063867539 
1781	 0.3684490041004 
1782	 0.36843127285955 
1783	 0.368384437491453 
1784	 0.368338268427161 
1785	 0.368268400026428 
1786	 0.368234866791701 
1787	 0.368219821998738 
1788	 0.368194697598202 
1789	 0.368182804195148 
1790	 0.368177306834956 
1791	 0.368168586104574 
1792	 0.368164925121733 
1793	 0.368172957361802 
1794	 0.368171031701373 
1795	 0.368179392748443 
1796	 0.368156552356368 
1797	 0.368097427393124 
1798	 0.368099859124658 
1799	 0.368100436440701 
1800	 0.368120542607568 
1801	 0.361173807363897 
1802	 0.361310787256155 
1803	 0.36148560677855 
1804	 0.361667703852684 
1805	 0.361845167538561 
1806	 0.362033307988725 
1807	 0.36221047293407 
1808	 0.362346177333393 
1809	 0.362450225949577 
1810	 0.362535994673375 
1811	 0.362595189269837 
1812	 0.362639011152535 
1813	 0.362677075057498 
1814	 0.362672141421632 
1815	 0.362679785507315 
1816	 0.362698906005748 
1817	 0.362710115549166 
1818	 0.362706643196655 
1819	 0.36272732262226 
1820	 0.362761690781676 
1821	 0.36278204843912 
1822	 0.362826351147153 
1823	 0.362858493193773 
1824	 0.362897556622913 
1825	 0.362951028993118 
1826	 0.362974278264375 
1827	 0.363001838334476 
1828	 0.363008284961941 
1829	 0.362990236726786 
1830	 0.362965810506485 
1831	 0.362926982919058 
1832	 0.362890997241829 
1833	 0.362839241355099 
1834	 0.362789997984304 
1835	 0.362761439088075 
1836	 0.362740140583384 
1837	 0.362728961024022 
1838	 0.362718302494842 
1839	 0.362729756423621 
1840	 0.362764284341487 
1841	 0.362778225898556 
1842	 0.362789383750772 
1843	 0.362833223661976 
1844	 0.362832515176408 
1845	 0.362813207814548 
1846	 0.362792102759261 
1847	 0.362748603204595 
1848	 0.36269047180654 
1849	 0.362652067694309 
1850	 0.362628457653914 
1851	 0.362631413147555 
1852	 0.362612977296353 
1853	 0.36258041213151 
1854	 0.362540038338651 
1855	 0.362472091254509 
1856	 0.362409761969096 
1857	 0.362361799970454 
1858	 0.362276318704165 
1859	 0.362152835078471 
1860	 0.361996726947126 
1861	 0.361807125029859 
1862	 0.361562725647185 
1863	 0.361301622792737 
1864	 0.361035993601518 
1865	 0.36075297088877 
1866	 0.360448024063463 
1867	 0.360146773502495 
1868	 0.359856355971745 
1869	 0.359542890086843 
1870	 0.359223041571308 
1871	 0.358887636474642 
1872	 0.358551520433595 
1873	 0.358177309439606 
1874	 0.357765035469937 
1875	 0.357357495366495 
1876	 0.356901575305947 
1877	 0.356365208446563 
1878	 0.355817146118324 
1879	 0.355206948601373 
1880	 0.354527993314996 
1881	 0.353792807354618 
1882	 0.353009575445998 
1883	 0.352162248659814 
1884	 0.351244341390649 
1885	 0.350317811312166 
1886	 0.349342219350483 
1887	 0.348273566248468 
1888	 0.347138371492197 
1889	 0.345896240555999 
1890	 0.344570116498822 
1891	 0.343208452657969 
1892	 0.341757552401443 
1893	 0.340301592597402 
1894	 0.338819022042041 
1895	 0.337288393961658 
1896	 0.335702843781668 
1897	 0.334102794884835 
1898	 0.332436243574238 
1899	 0.330762806561538 
1900	 0.329104005135871 
1901	 0.327425492451497 
1902	 0.325794147376888 
1903	 0.324179976491073 
1904	 0.322609008302706 
1905	 0.321059383005997 
1906	 0.319581561106038 
1907	 0.318122410032526 
1908	 0.316720655319174 
1909	 0.315399103468846 
1910	 0.314103039788076 
1911	 0.31288532399828 
1912	 0.311732445548939 
1913	 0.310633010813351 
1914	 0.309583591239475 
1915	 0.308601401707309 
1916	 0.307682353069688 
1917	 0.306816228684422 
1918	 0.30601885156256 
1919	 0.305263983303061 
1920	 0.304572784025328 
1921	 0.303956136592855 
1922	 0.303385231695056 
1923	 0.302877560914378 
1924	 0.302435498006271 
1925	 0.302073558857166 
1926	 0.301740749779824 
1927	 0.301457714653551 
1928	 0.301231473014866 
1929	 0.301052571282015 
1930	 0.300905608086277 
1931	 0.300812004401326 
1932	 0.300738104185043 
1933	 0.300647105915246 
1934	 0.30059083470662 
1935	 0.300568440899095 
1936	 0.300555032015133 
1937	 0.300593130756889 
1938	 0.300696887295153 
1939	 0.300794093341747 
1940	 0.300911008649186 
1941	 0.30104796332468 
1942	 0.301202125334081 
1943	 0.301384199269251 
1944	 0.301579504881487 
1945	 0.301810288526828 
1946	 0.302051548724022 
1947	 0.302303645147244 
1948	 0.302570692728454 
1949	 0.302874431675903 
1950	 0.303166921192566 
1951	 0.30345228258157 
1952	 0.303767909515794 
1953	 0.304092678519563 
1954	 0.304426621420499 
1955	 0.304765684305629 
1956	 0.305104098252808 
1957	 0.30545230035238 
1958	 0.305800492932767 
1959	 0.306144938256077 
1960	 0.306500591719748 
1961	 0.306860102179762 
1962	 0.307209021276396 
1963	 0.307579273356042 
1964	 0.307966830947809 
1965	 0.308353222213139 
1966	 0.308761972901533 
1967	 0.309142206836604 
1968	 0.309530417315382 
1969	 0.309916102756811 
1970	 0.31030367588441 
1971	 0.310703557291449 
1972	 0.311089156484731 
1973	 0.311449825466041 
1974	 0.311839518199715 
1975	 0.312244892565707 
1976	 0.312625377457583 
1977	 0.313029015012385 
1978	 0.313466668163074 
1979	 0.313874064008344 
1980	 0.314267251700002 
1981	 0.314679245390451 
1982	 0.315092025954959 
1983	 0.315518486800998 
1984	 0.315964989379258 
1985	 0.316400027851962 
1986	 0.31684137278588 
1987	 0.317274262848374 
1988	 0.317685576849343 
1989	 0.318129009725599 
1990	 0.318581437144119 
1991	 0.31901152977676 
1992	 0.319434930867864 
1993	 0.319860547227364 
1994	 0.320270767553048 
1995	 0.320657468953875 
1996	 0.321053156851746 
1997	 0.321445252222656 
1998	 0.321842120630429 
1999	 0.322227358142843 
2000	 0.322630713653624 
2001	 0.323057526701685 
2002	 0.323461659902383 
2003	 0.323890953166755 
2004	 0.324333490010526 
2005	 0.324749222436651 
2006	 0.325164917364758 
2007	 0.325567840763503 
2008	 0.325931235026744 
2009	 0.326331556861003 
2010	 0.326751464275548 
2011	 0.327154088694275 
2012	 0.327574533968726 
2013	 0.327976265454115 
2014	 0.328349553393296 
2015	 0.328737294767635 
2016	 0.329111599199996 
2017	 0.329479185238341 
2018	 0.329877054987293 
2019	 0.330296239321133 
2020	 0.330691689987457 
2021	 0.331106780585271 
2022	 0.331500675319167 
2023	 0.331870285750705 
2024	 0.332240870873307 
2025	 0.332616851385356 
2026	 0.33297345938756 
2027	 0.333315420836988 
2028	 0.33363546961267 
2029	 0.333980360004043 
2030	 0.334319754576547 
2031	 0.334683755480775 
2032	 0.335071950242724 
2033	 0.335449662674504 
2034	 0.33583853823617 
2035	 0.336215395132597 
2036	 0.336594782179897 
2037	 0.336959495066611 
2038	 0.3373332354104 
2039	 0.337670757059654 
2040	 0.337989259373592 
2041	 0.338278005343624 
2042	 0.338561413184912 
2043	 0.338830820272472 
2044	 0.339104355999935 
2045	 0.339381005966528 
2046	 0.33964960713419 
2047	 0.33989236126495 
2048	 0.340169469566668 
2049	 0.340468685539206 
2050	 0.340751692661878 
2051	 0.341051234699935 
2052	 0.341337470255202 
2053	 0.34160469315949 
2054	 0.341873641369231 
2055	 0.342138654398062 
2056	 0.342413794415493 
2057	 0.342674218385703 
2058	 0.342930751582407 
2059	 0.343173287244409 
2060	 0.34340086884265 
2061	 0.34363377585312 
2062	 0.343853404493909 
2063	 0.344083961650684 
2064	 0.344322119812492 
2065	 0.344558992804044 
2066	 0.344793951327066 
2067	 0.345033809262129 
2068	 0.345267643201425 
2069	 0.345521715343368 
2070	 0.345774299086985 
2071	 0.346035404755244 
2072	 0.346286938270448 
2073	 0.346551913042949 
2074	 0.346784950377223 
2075	 0.346995769282501 
2076	 0.347216212495178 
2077	 0.34741628616087 
2078	 0.347631683977885 
2079	 0.347856551708828 
2080	 0.348082862630982 
2081	 0.348317047790759 
2082	 0.348544131937358 
2083	 0.34877382747735 
2084	 0.348998503388266 
2085	 0.349223968972221 
2086	 0.349437240741651 
2087	 0.349672103389073 
2088	 0.34991152295768 
2089	 0.350165622547873 
2090	 0.350453457751194 
2091	 0.350703017896335 
2092	 0.350951129749784 
2093	 0.351186813137814 
2094	 0.351390538624437 
2095	 0.351604709809541 
2096	 0.351820218615932 
2097	 0.352033531679965 
2098	 0.352240673573578 
2099	 0.352456265720183 
2100	 0.352657100147015 
2101	 0.352852183394906 
2102	 0.353051583797951 
2103	 0.353227008654386 
2104	 0.353448205589311 
2105	 0.353688754488099 
2106	 0.353940173141193 
2107	 0.354224890977711 
2108	 0.354499962218361 
2109	 0.354791415509429 
2110	 0.355066376339399 
2111	 0.355349642555727 
2112	 0.355607803890135 
2113	 0.355834322922302 
2114	 0.356075864345768 
2115	 0.356299169628358 
2116	 0.35649636992954 
2117	 0.356724960865541 
2118	 0.356960346862521 
2119	 0.357193980260829 
2120	 0.357446198312608 
2121	 0.357683191448701 
2122	 0.357900949890669 
2123	 0.358139511659137 
2124	 0.35840844975662 
2125	 0.358633952134437 
2126	 0.358850413330099 
2127	 0.359057736103572 
2128	 0.359229272664476 
2129	 0.359402731304134 
2130	 0.359564421526273 
2131	 0.35975384519515 
2132	 0.359907340222293 
2133	 0.360052604434529 
2134	 0.360164957422721 
2135	 0.360256717052755 
2136	 0.3603298813432 
2137	 0.360369856418482 
2138	 0.360408165628155 
2139	 0.360437505455977 
2140	 0.3604492322275 
2141	 0.360446490494468 
2142	 0.360428868999035 
2143	 0.360384945854855 
2144	 0.36034567946316 
2145	 0.360293160470365 
2146	 0.360239137027722 
2147	 0.360177038262781 
2148	 0.360130084579089 
2149	 0.360066683785964 
2150	 0.360006670537271 
2151	 0.359916043155728 
2152	 0.359813376283293 
2153	 0.359691456331799 
2154	 0.359529387434913 
2155	 0.359391832322597 
2156	 0.359265336906719 
2157	 0.359114245239314 
2158	 0.358960825337541 
2159	 0.35879292716632 
2160	 0.358589951596486 
2161	 0.358402193971113 
2162	 0.358227518483062 
2163	 0.358037038557979 
2164	 0.357846282029535 
2165	 0.357643600142165 
2166	 0.357422974279408 
2167	 0.357175665799987 
2168	 0.356947518296424 
2169	 0.356703587280159 
2170	 0.356485481475803 
2171	 0.356289452950379 
2172	 0.356082233133324 
2173	 0.355890419363827 
2174	 0.355675695462972 
2175	 0.355433971726734 
2176	 0.355217833188045 
2177	 0.354997786619759 
2178	 0.354792552822537 
2179	 0.354602973989651 
2180	 0.354421798339691 
2181	 0.354249059168785 
2182	 0.354082717763586 
2183	 0.353922370419152 
2184	 0.353790674145176 
2185	 0.353637571379833 
2186	 0.353484867529075 
2187	 0.353319305974398 
2188	 0.353145408477914 
2189	 0.352971536037731 
2190	 0.35278519536882 
2191	 0.352611905073415 
2192	 0.352437932342405 
2193	 0.352271735242006 
2194	 0.35211365105969 
2195	 0.351956894646642 
2196	 0.351801702855736 
2197	 0.351655223880031 
2198	 0.351502684730636 
2199	 0.351376388664953 
2200	 0.351261115876467 
2201	 0.351166493573934 
2202	 0.35110702367274 
2203	 0.351048138212046 
2204	 0.35098264053429 
2205	 0.350944909055739 
2206	 0.350847153948258 
2207	 0.350690327865577 
2208	 0.350611152496458 
2209	 0.350515616595408 
2210	 0.350475907113606 
2211	 0.350550511379744 
2212	 0.350520362611896 
2213	 0.350448573477586 
2214	 0.350399119486084 
2215	 0.350307749037675 
2216	 0.350247454301702 
2217	 0.350215236094033 
2218	 0.350187349311664 
2219	 0.350160442313635 
2220	 0.350140623127592 
2221	 0.350116720912142 
2222	 0.350140821318619 
2223	 0.350169538333859 
2224	 0.350177734412311 
2225	 0.350170139784972 
2226	 0.35017224445913 
2227	 0.350129956535532 
2228	 0.350047508997772 
2229	 0.349969058938186 
2230	 0.349854573841864 
2231	 0.349787547731696 
2232	 0.349726817737865 
2233	 0.349679610495122 
2234	 0.349679118799492 
2235	 0.349638706518402 
2236	 0.349572967102327 
2237	 0.349524253173958 
2238	 0.349447791376302 
2239	 0.349423580361412 
2240	 0.349460689485709 
2241	 0.349455211509495 
2242	 0.349477519894607 
2243	 0.349462504351075 
2244	 0.349381999317202 
2245	 0.349321314537498 
2246	 0.349323159684855 
2247	 0.349294840257809 
2248	 0.349279748197704 
2249	 0.349300673365559 
2250	 0.34928664805555 
2251	 0.349241987180972 
2252	 0.349226334383196 
2253	 0.34923084245811 
2254	 0.349205359914841 
2255	 0.349159754226027 
2256	 0.349142173774024 
2257	 0.349110567758284 
2258	 0.349111186198375 
2259	 0.349152924970934 
2260	 0.349175314604487 
2261	 0.349209839799432 
2262	 0.349228321203566 
2263	 0.349227052345065 
2264	 0.349248436859273 
2265	 0.349271354182147 
2266	 0.349297216925464 
2267	 0.349349485464052 
2268	 0.349385043853158 
2269	 0.349411311648619 
2270	 0.349437683648943 
2271	 0.349442066086253 
2272	 0.349436505563017 
2273	 0.349409068764846 
2274	 0.349351735002212 
2275	 0.349323220240274 
2276	 0.349301283861958 
2277	 0.349263737676348 
2278	 0.349227350339873 
2279	 0.349191736996427 
2280	 0.349120055693596 
2281	 0.349110086609934 
2282	 0.34916389568586 
2283	 0.349162074811727 
2284	 0.349175710354902 
2285	 0.349155571639741 
2286	 0.34905994935915 
2287	 0.349028707553562 
2288	 0.349028788939148 
2289	 0.349008001173503 
2290	 0.349018985308356 
2291	 0.348994968240077 
2292	 0.348924740344257 
2293	 0.348879301984419 
2294	 0.348848431796822 
2295	 0.348796821004511 
2296	 0.348704669651336 
2297	 0.348683512086134 
2298	 0.348677112782212 
2299	 0.348644902364549 
2300	 0.348668772886316 
2301	 0.348654658774656 
2302	 0.348579966419845 
2303	 0.34850158168815 
2304	 0.348414859611238 
2305	 0.348360920117095 
2306	 0.348321886930821 
2307	 0.348311402330976 
2308	 0.348294523858359 
2309	 0.348313553503148 
2310	 0.348268411173793 
2311	 0.34820684410768 
2312	 0.348122840935156 
2313	 0.347964727798147 
2314	 0.347870949081817 
2315	 0.3477965472951 
2316	 0.347715581515246 
2317	 0.347671964587133 
2318	 0.347596200714029 
2319	 0.347493507729552 
2320	 0.347402971002819 
2321	 0.347278934979284 
2322	 0.347209806647851 
2323	 0.347191048011728 
2324	 0.347154217952117 
2325	 0.347185844187013 
2326	 0.347130288088423 
2327	 0.347017108223829 
2328	 0.346875145175632 
2329	 0.346745277198226 
2330	 0.346598843781847 
2331	 0.346535354098309 
2332	 0.346468961477057 
2333	 0.34640184817242 
2334	 0.346381347254625 
2335	 0.346293020112227 
2336	 0.346230902773395 
2337	 0.346150606386147 
2338	 0.346006673114456 
2339	 0.345914678778958 
2340	 0.345783159381987 
2341	 0.345649521662979 
2342	 0.3455402712358 
2343	 0.345347572410018 
2344	 0.345159010748219 
2345	 0.344986772081052 
2346	 0.344781213889965 
2347	 0.344604994498684 
2348	 0.344485413215702 
2349	 0.344316836821895 
2350	 0.344136226407286 
2351	 0.343930678224802 
2352	 0.343704513553759 
2353	 0.343464232079594 
2354	 0.343176055238849 
2355	 0.34291348803114 
2356	 0.342661968498988 
2357	 0.34240048503942 
2358	 0.342132132766985 
2359	 0.341891837518767 
2360	 0.341660762501913 
2361	 0.341420203424899 
2362	 0.341226206144355 
2363	 0.340950693841563 
2364	 0.340588000028567 
2365	 0.340295311660299 
2366	 0.340006193126295 
2367	 0.339711496243332 
2368	 0.339461667265635 
2369	 0.33918608952368 
2370	 0.338850490694019 
2371	 0.338578926255538 
2372	 0.338349151563677 
2373	 0.338076245018611 
2374	 0.337844468744899 
2375	 0.337533185259279 
2376	 0.337173407037686 
2377	 0.336848089716666 
2378	 0.336485176170705 
2379	 0.33614218445841 
2380	 0.335795822094196 
2381	 0.335479963109523 
2382	 0.335160865683451 
2383	 0.334809398140145 
2384	 0.334466095812932 
2385	 0.334103313236559 
2386	 0.333841438144586 
2387	 0.333551957311153 
2388	 0.333269767530085 
2389	 0.33309819871391 
2390	 0.332838927395212 
2391	 0.332546391671442 
2392	 0.332190033493078 
2393	 0.331786804748744 
2394	 0.331438170727154 
2395	 0.331133985065635 
2396	 0.330892773740977 
2397	 0.330646367117802 
2398	 0.330331681640237 
2399	 0.32997989590658 
2400	 0.329636786745916 
2401	 0.329271508998719 
2402	 0.328902927418846 
2403	 0.328509811181497 
2404	 0.328111126822249 
2405	 0.327780482952972 
2406	 0.32749282709745 
2407	 0.327296238754708 
2408	 0.327131933650364 
2409	 0.326841343728456 
2410	 0.326457248119739 
2411	 0.326072851922575 
2412	 0.325683427322472 
2413	 0.325326975985935 
2414	 0.325091883575733 
2415	 0.324817872406356 
2416	 0.324476888636767 
2417	 0.324080101408402 
2418	 0.323730070047571 
2419	 0.323326075326978 
2420	 0.32296646125337 
2421	 0.322701734619456 
2422	 0.322343750607236 
2423	 0.321900856005698 
2424	 0.321529885146564 
2425	 0.321131357613933 
2426	 0.320757293554819 
2427	 0.320447211106213 
2428	 0.320146409453964 
2429	 0.319865196149259 
2430	 0.319624459660616 
2431	 0.319441774051765 
2432	 0.319176795853071 
2433	 0.31892986359147 
2434	 0.318601036402353 
2435	 0.318147252336714 
2436	 0.31772973811555 
2437	 0.317289404911397 
2438	 0.316883262977282 
2439	 0.316541002040771 
2440	 0.316119367125713 
2441	 0.315566452173356 
2442	 0.315163735602286 
2443	 0.314851958360204 
2444	 0.314497147795013 
2445	 0.314256668972477 
2446	 0.314002800262363 
2447	 0.313607524433157 
2448	 0.313222613976498 
2449	 0.312961951738369 
2450	 0.312592816649426 
2451	 0.312132701014788 
2452	 0.311687693720477 
2453	 0.311206084926602 
2454	 0.310830342785598 
2455	 0.310464922889099 
2456	 0.310058873830055 
2457	 0.309688527653294 
2458	 0.309315571263501 
2459	 0.308915818788544 
2460	 0.308568651547633 
2461	 0.308300510194641 
2462	 0.308017692469564 
2463	 0.307702669941781 
2464	 0.307366891958095 
2465	 0.307099929135088 
2466	 0.306670470203038 
2467	 0.305961365941189 
2468	 0.305677124122042 
2469	 0.305647136291199 
2470	 0.305675021106932 
2471	 0.305606906369263 
2472	 0.305268020461543 
2473	 0.304891834365389 
2474	 0.304689977872794 
2475	 0.304524682633699 
2476	 0.304250138364576 
2477	 0.303772411951955 
2478	 0.303260629756883 
2479	 0.302877489317785 
2480	 0.302691651969531 
2481	 0.302454529011938 
2482	 0.302144368439515 
2483	 0.30184220421367 
2484	 0.301397551772848 
2485	 0.301032754488158 
2486	 0.300656156800435 
2487	 0.300335975268065 
2488	 0.300169892414524 
2489	 0.299929634116982 
2490	 0.299652799048086 
2491	 0.299369538642019 
2492	 0.299055884655096 
2493	 0.298812083885417 
2494	 0.298671076623803 
2495	 0.298375654957559 
2496	 0.298084152722796 
2497	 0.297714706296109 
2498	 0.297304092708875 
2499	 0.29712567691318 
2500	 0.29681348372723 
