Wavelength	LMW800005.asd
350	 0.064391928503096 
351	 0.067762100903409 
352	 6.56098252275598E-02 
353	 5.68733832891545E-02 
354	 6.05653110765993E-02 
355	 6.55422241246753E-02 
356	 6.57697258541731E-02 
357	 6.02243006548842E-02 
358	 6.20647209709585E-02 
359	 5.65175155066729E-02 
360	 4.99840997033342E-02 
361	 5.98027853179176E-02 
362	 6.09874920702139E-02 
363	 6.05168249246555E-02 
364	 0.0619596017259 
365	 5.67526295413101E-02 
366	 0.056364365473766 
367	 5.80661070842945E-02 
368	 5.76974666626803E-02 
369	 6.24615422110185E-02 
370	 6.33348956924824E-02 
371	 6.06617666320916E-02 
372	 6.10047058253645E-02 
373	 6.07036087613816E-02 
374	 6.10730840978623E-02 
375	 6.23143751797497E-02 
376	 0.061728289052208 
377	 6.06229212181822E-02 
378	 0.060249749692243 
379	 6.13967350633449E-02 
380	 6.33535399011893E-02 
381	 6.25406782866578E-02 
382	 6.00462452445879E-02 
383	 6.03099033328902E-02 
384	 6.30085617979307E-02 
385	 6.21704152187733E-02 
386	 5.73934014407335E-02 
387	 6.02818238915352E-02 
388	 6.28922378965069E-02 
389	 6.34068270460476E-02 
390	 6.25102688222343E-02 
391	 6.27548916753085E-02 
392	 6.33278577654826E-02 
393	 6.40775914819232E-02 
394	 6.54096482686566E-02 
395	 6.49007998004482E-02 
396	 6.42972505795882E-02 
397	 6.50311844036133E-02 
398	 6.66283342073483E-02 
399	 6.66681629618856E-02 
400	 6.63555331452559E-02 
401	 6.74847120075271E-02 
402	 6.67385681998578E-02 
403	 6.60901228885443E-02 
404	 6.60672526519414E-02 
405	 6.54865791964688E-02 
406	 6.67666030589326E-02 
407	 6.81128445956323E-02 
408	 6.79657932939913E-02 
409	 6.73720475924749E-02 
410	 6.69640094867668E-02 
411	 6.69341653526009E-02 
412	 6.72164014325703E-02 
413	 6.79610623558524E-02 
414	 6.81066625200078E-02 
415	 0.067684231634782 
416	 6.82185663673112E-02 
417	 6.77117283932726E-02 
418	 0.067400546594213 
419	 6.83421590977156E-02 
420	 6.83518891157949E-02 
421	 6.81256256215325E-02 
422	 6.79336231988555E-02 
423	 6.77558667775349E-02 
424	 6.79010669569261E-02 
425	 6.79078839694161E-02 
426	 6.76670903214436E-02 
427	 6.79368673618712E-02 
428	 6.75056620652705E-02 
429	 6.70684166349366E-02 
430	 0.067487121886721 
431	 6.71915155420289E-02 
432	 6.71072970806519E-02 
433	 6.73334150998884E-02 
434	 6.71083741445536E-02 
435	 6.72865789533582E-02 
436	 6.74596187867851E-02 
437	 6.72104367071936E-02 
438	 6.66409033968045E-02 
439	 6.66273577008819E-02 
440	 6.69289968406011E-02 
441	 0.066826034445899 
442	 6.67854905967303E-02 
443	 0.066938874235991 
444	 6.72930520450388E-02 
445	 6.77569934108061E-02 
446	 6.76804491601558E-02 
447	 6.73996644045107E-02 
448	 0.067422483555403 
449	 6.75969104593482E-02 
450	 6.78622716725385E-02 
451	 6.81305375058587E-02 
452	 6.82875705141736E-02 
453	 6.81109178572163E-02 
454	 6.79954431857781E-02 
455	 6.81854934578004E-02 
456	 6.83049810991764E-02 
457	 6.84564915481325E-02 
458	 6.85674701812891E-02 
459	 6.85440613754674E-02 
460	 6.87118405508226E-02 
461	 6.87441628771427E-02 
462	 6.85707991700875E-02 
463	 6.85461465968154E-02 
464	 6.88753260537895E-02 
465	 6.90605770911823E-02 
466	 0.06873853410131 
467	 6.89265220672906E-02 
468	 6.90234136273457E-02 
469	 6.89113492532331E-02 
470	 6.88896494874379E-02 
471	 6.89397757065333E-02 
472	 6.89795732437798E-02 
473	 6.89574333636209E-02 
474	 6.89033711143195E-02 
475	 6.90517609672546E-02 
476	 6.91766063028571E-02 
477	 6.89642389898281E-02 
478	 0.069090051156569 
479	 6.92408542427254E-02 
480	 6.92401766063947E-02 
481	 6.92171254715976E-02 
482	 6.93092890689981E-02 
483	 6.93249301042256E-02 
484	 6.91234642140099E-02 
485	 6.91594395228206E-02 
486	 6.92292244762024E-02 
487	 6.92337115081687E-02 
488	 6.91885858711576E-02 
489	 6.93251275029552E-02 
490	 6.94145134635803E-02 
491	 6.93069932327427E-02 
492	 6.92296776575301E-02 
493	 6.92141762290929E-02 
494	 0.069272821334498 
495	 6.93765850132997E-02 
496	 6.93457477622969E-02 
497	 6.92733477241642E-02 
498	 6.92531253253422E-02 
499	 6.93431747141918E-02 
500	 6.93478036240783E-02 
501	 6.93487111483666E-02 
502	 6.94323996709729E-02 
503	 6.93105562730002E-02 
504	 6.92208216821198E-02 
505	 6.92248880753166E-02 
506	 6.92105439732415E-02 
507	 6.92246894122995E-02 
508	 0.069246572744759 
509	 6.92444570811088E-02 
510	 6.91824909264758E-02 
511	 0.069127412711737 
512	 6.91120586704058E-02 
513	 6.91411876945415E-02 
514	 6.91519347094562E-02 
515	 6.92010511729366E-02 
516	 6.92906052372843E-02 
517	 6.93123244512494E-02 
518	 6.92477126100406E-02 
519	 0.069184727865158 
520	 6.92088876229228E-02 
521	 0.069172208652182 
522	 6.91991442315697E-02 
523	 6.92746061024027E-02 
524	 6.92286609702071E-02 
525	 6.92754561753184E-02 
526	 6.92695641276126E-02 
527	 6.91307502251824E-02 
528	 6.92494876618401E-02 
529	 6.93076893587786E-02 
530	 6.92848055219815E-02 
531	 6.93446285233283E-02 
532	 6.93217216459757E-02 
533	 6.93501764348581E-02 
534	 6.94702653224649E-02 
535	 6.94389196473335E-02 
536	 6.94032655784829E-02 
537	 6.94058949428477E-02 
538	 6.94462625985651E-02 
539	 6.95099476959061E-02 
540	 6.95297711592446E-02 
541	 6.95148557378304E-02 
542	 6.95779958435365E-02 
543	 6.96440578782616E-02 
544	 6.96946066849301E-02 
545	 6.97295757367615E-02 
546	 6.97586599670519E-02 
547	 6.97902514807933E-02 
548	 6.98340515119161E-02 
549	 6.98980861897291E-02 
550	 0.069938635131715 
551	 6.99508807530754E-02 
552	 6.99488762979474E-02 
553	 6.99654202838283E-02 
554	 7.00415568521661E-02 
555	 7.01552973144999E-02 
556	 7.02477451006005E-02 
557	 0.070271406642374 
558	 7.03449214481363E-02 
559	 7.05082205039111E-02 
560	 7.06365250093744E-02 
561	 7.07268143107524E-02 
562	 7.08238038476581E-02 
563	 7.09704727759477E-02 
564	 7.10770659163851E-02 
565	 7.11892291024051E-02 
566	 7.13190830960161E-02 
567	 7.14340366644445E-02 
568	 7.16382357893866E-02 
569	 0.071881812475699 
570	 7.20955992198578E-02 
571	 7.22817511561169E-02 
572	 7.24574057933632E-02 
573	 7.26511781683361E-02 
574	 7.28935978503674E-02 
575	 0.073141324971859 
576	 7.34020859209549E-02 
577	 7.36713858756139E-02 
578	 7.38853303601847E-02 
579	 7.42046369834212E-02 
580	 7.45813726900195E-02 
581	 7.49024094313149E-02 
582	 7.53051363072557E-02 
583	 7.57189809470896E-02 
584	 7.61062358309626E-02 
585	 7.65038088463201E-02 
586	 7.68612425658989E-02 
587	 7.72494840984473E-02 
588	 7.77349524282323E-02 
589	 7.82123124496184E-02 
590	 7.86842545113223E-02 
591	 7.91456710130366E-02 
592	 7.95852670658206E-02 
593	 8.00456414653357E-02 
594	 8.05280797942262E-02 
595	 8.10346484186045E-02 
596	 8.16050205324184E-02 
597	 8.21637188372918E-02 
598	 0.082697497641753 
599	 8.32282020058148E-02 
600	 8.37329843700426E-02 
601	 8.42435046503321E-02 
602	 8.47565088523011E-02 
603	 8.51926560045014E-02 
604	 8.56563013226956E-02 
605	 8.61597961849946E-02 
606	 8.66788499978439E-02 
607	 8.71928099918992E-02 
608	 8.76691757752071E-02 
609	 8.81136731936067E-02 
610	 0.088575361603841 
611	 8.90215871539104E-02 
612	 8.94763810447188E-02 
613	 8.99385921418997E-02 
614	 9.02812211064825E-02 
615	 0.090627584084661 
616	 9.09999606530232E-02 
617	 9.13483424262456E-02 
618	 9.16980785884813E-02 
619	 9.20240457626636E-02 
620	 9.23106208659676E-02 
621	 9.25697361617024E-02 
622	 9.28407865565253E-02 
623	 9.31175032069444E-02 
624	 9.33751245541988E-02 
625	 9.36113519123786E-02 
626	 9.38604148604278E-02 
627	 9.41113536104452E-02 
628	 9.42898593965648E-02 
629	 9.45199522766228E-02 
630	 9.47780587481274E-02 
631	 9.50009788743866E-02 
632	 9.51337159742134E-02 
633	 9.53224186740901E-02 
634	 9.55790328159273E-02 
635	 9.58019816863897E-02 
636	 9.59739953164681E-02 
637	 9.61555282591176E-02 
638	 9.63755426642744E-02 
639	 9.65474135282052E-02 
640	 9.67184608990233E-02 
641	 9.69133710373866E-02 
642	 9.71352285615662E-02 
643	 0.097303555007261 
644	 9.74681095991952E-02 
645	 9.76657695818188E-02 
646	 9.78978722678108E-02 
647	 9.80765300137039E-02 
648	 9.82484059153715E-02 
649	 9.84751948549062E-02 
650	 9.86972462277152E-02 
651	 9.89209935808217E-02 
652	 9.91343963949097E-02 
653	 9.93137744691543E-02 
654	 9.95388094363776E-02 
655	 0.099767107856903 
656	 9.99707140049899E-02 
657	 0.100213618455867 
658	 0.100486754710374 
659	 0.100747909551838 
660	 0.100954946850687 
661	 0.101211847244045 
662	 0.101492404722182 
663	 0.101764749872783 
664	 0.102006239142312 
665	 0.102296713342205 
666	 0.102609418482926 
667	 0.102895778557487 
668	 0.103146495796334 
669	 0.103467437900868 
670	 0.103838307580657 
671	 0.104136608624525 
672	 0.104427865322001 
673	 0.104739594784314 
674	 0.10508369010409 
675	 0.105453277931493 
676	 0.105829419141487 
677	 0.106187349882802 
678	 0.106512579289126 
679	 0.106863216890175 
680	 0.107249558671969 
681	 0.107668109697025 
682	 0.108105949994227 
683	 0.108498481613421 
684	 0.10885758681309 
685	 0.109231157536094 
686	 0.109715583250506 
687	 0.11015704643427 
688	 0.11057564707316 
689	 0.111099107527066 
690	 0.111529929033802 
691	 0.111939759225644 
692	 0.112398649574586 
693	 0.112899936833292 
694	 0.113370870857082 
695	 0.113824262463122 
696	 0.114306149979445 
697	 0.114841344370343 
698	 0.115362149714212 
699	 0.115861807228791 
700	 0.116400061911315 
701	 0.116916204816627 
702	 0.117427184131285 
703	 0.117952006572081 
704	 0.118466733724807 
705	 0.118995559247373 
706	 0.119533523736573 
707	 0.120061008318336 
708	 0.120576610019075 
709	 0.12111081326452 
710	 0.121667968229761 
711	 0.122211413869401 
712	 0.122754162493527 
713	 0.123273198423564 
714	 0.123755485374096 
715	 0.124252598832043 
716	 0.124767322766598 
717	 0.125300903083334 
718	 0.125845791590119 
719	 0.126314273925774 
720	 0.126760898655845 
721	 0.127224152614204 
722	 0.127667457271538 
723	 0.128127689917725 
724	 0.128586273283303 
725	 0.129012116572422 
726	 0.129410995678871 
727	 0.129809152505758 
728	 0.130203487276334 
729	 0.130563268080642 
730	 0.130902397920096 
731	 0.131232501930262 
732	 0.131552652293577 
733	 0.131833958351369 
734	 0.132092914488943 
735	 0.132333077173103 
736	 0.132555869592432 
737	 0.132781547639447 
738	 0.132981166371221 
739	 0.133140628559493 
740	 0.133266968701468 
741	 0.133388866728437 
742	 0.133493963224707 
743	 0.133563254399866 
744	 0.133585678158825 
745	 0.133574293290402 
746	 0.133566828901713 
747	 0.133593935665986 
748	 0.133555630642993 
749	 0.133504596214575 
750	 0.13345038906901 
751	 0.13333568817926 
752	 0.133223208434745 
753	 0.133108956773544 
754	 0.132970226227873 
755	 0.132771544240986 
756	 0.132601255795081 
757	 0.132433047393122 
758	 0.132195702240917 
759	 0.131967520478458 
760	 0.131724173805369 
761	 0.131462690249148 
762	 0.131217027250969 
763	 0.130952288164878 
764	 0.130659800784037 
765	 0.130344838420064 
766	 0.130028076574755 
767	 0.12972808538164 
768	 0.129423417483169 
769	 0.129082158050318 
770	 0.128765642652802 
771	 0.128429255246292 
772	 0.128056822853901 
773	 0.127677899509608 
774	 0.127350549964091 
775	 0.127014961999822 
776	 0.126627003282169 
777	 0.126260714264719 
778	 0.125912013316859 
779	 0.125549949833798 
780	 0.125146277724245 
781	 0.124780722694426 
782	 0.124435752311211 
783	 0.124079098822973 
784	 0.12367834709527 
785	 0.123344625821779 
786	 0.123026899055824 
787	 0.122669630519968 
788	 0.122278186221062 
789	 0.121926895851502 
790	 0.121593633905244 
791	 0.121231123680479 
792	 0.120882341616467 
793	 0.120540799382105 
794	 0.12020116879315 
795	 0.119862386841309 
796	 0.119529211785809 
797	 0.119205215555117 
798	 0.11887895744503 
799	 0.118508598582251 
800	 0.118208152492203 
801	 0.117928650183478 
802	 0.11759947832417 
803	 0.117272796363451 
804	 0.116996897339903 
805	 0.116746361050995 
806	 0.116456019466939 
807	 0.116154978420005 
808	 0.115845362377559 
809	 0.115556873233962 
810	 0.11535131993673 
811	 0.115088395134581 
812	 0.114812485040733 
813	 0.114575985566378 
814	 0.114333091212276 
815	 0.114089690780932 
816	 0.113834848614411 
817	 0.113571630777077 
818	 0.113406138396626 
819	 0.11322639172407 
820	 0.113003583286067 
821	 0.112791165594068 
822	 0.11259239699579 
823	 0.112395697796627 
824	 0.112197957633959 
825	 0.112015599809402 
826	 0.111824729032 
827	 0.111658072172249 
828	 0.111536294699239 
829	 0.111400096017749 
830	 0.111203065377031 
831	 0.111000191928757 
832	 0.110876075886782 
833	 0.110756407153605 
834	 0.110627740644557 
835	 0.11050063782972 
836	 0.110398945959671 
837	 0.110251964637785 
838	 0.110115107881075 
839	 0.110024002952992 
840	 0.109945493228052 
841	 0.109874510041947 
842	 0.109757910207827 
843	 0.109592193842568 
844	 0.109560727136315 
845	 0.109549982196364 
846	 0.109489724559576 
847	 0.109363313712003 
848	 0.109315099296052 
849	 0.109269818867842 
850	 0.109207811417266 
851	 0.109167277100389 
852	 0.109144212246082 
853	 0.109128148758852 
854	 0.10910252858236 
855	 0.109046112244729 
856	 0.109022963275012 
857	 0.109012006923559 
858	 0.1089932890904 
859	 0.109008132581283 
860	 0.109000330752764 
861	 0.108990633203779 
862	 0.109013625133987 
863	 0.109037644805154 
864	 0.109030057332264 
865	 0.109028432382288 
866	 0.109093699996371 
867	 0.109119326707336 
868	 0.109187445311327 
869	 0.109284688254252 
870	 0.109296478637907 
871	 0.109315509563369 
872	 0.109378110668848 
873	 0.109478018823077 
874	 0.109558358373057 
875	 0.109613386153506 
876	 0.109678598196581 
877	 0.1097836724251 
878	 0.109913019833773 
879	 0.110062307004502 
880	 0.110173647751933 
881	 0.110221389256373 
882	 0.110380606149025 
883	 0.110510304756811 
884	 0.110600040631216 
885	 0.110711415784909 
886	 0.110823596499351 
887	 0.110979229429025 
888	 0.111159950916625 
889	 0.111297355495351 
890	 0.111393890108661 
891	 0.111503641634655 
892	 0.111686537404322 
893	 0.1119830184191 
894	 0.112130067572478 
895	 0.112256300802687 
896	 0.11246531622619 
897	 0.112669103810072 
898	 0.112852592491396 
899	 0.113044221646768 
900	 0.113267079440839 
901	 0.113493732497847 
902	 0.113714169319992 
903	 0.113948789618218 
904	 0.114210397794656 
905	 0.114436917922508 
906	 0.114713728251496 
907	 0.114995434492496 
908	 0.11520915764039 
909	 0.115489885857009 
910	 0.115750312264762 
911	 0.116010244425025 
912	 0.116344039407999 
913	 0.116646953712126 
914	 0.116936634644411 
915	 0.117239488723929 
916	 0.11757094271255 
917	 0.117846493903877 
918	 0.118173316579466 
919	 0.118574510048699 
920	 0.118948214155826 
921	 0.119265979699743 
922	 0.119607334790549 
923	 0.119985542258958 
924	 0.120296011485832 
925	 0.120671033605929 
926	 0.121105578185553 
927	 0.121552997067169 
928	 0.121951488076113 
929	 0.122349305541368 
930	 0.122769113441659 
931	 0.123204460791275 
932	 0.123600613431655 
933	 0.124059676500107 
934	 0.124529510799898 
935	 0.124954903989391 
936	 0.125409903460508 
937	 0.12583885296138 
938	 0.126292306673815 
939	 0.126819181104635 
940	 0.127350326555026 
941	 0.127813809624637 
942	 0.128329993262956 
943	 0.12899162017402 
944	 0.129467736386073 
945	 0.12998083977009 
946	 0.130554883356761 
947	 0.131123350481742 
948	 0.131697909754054 
949	 0.132218344503071 
950	 0.132743487743459 
951	 0.133372085757883 
952	 0.134077277408201 
953	 0.134716031663573 
954	 0.135296521538126 
955	 0.135901046282523 
956	 0.13646669889874 
957	 0.137075249945356 
958	 0.13775147828363 
959	 0.138469778245197 
960	 0.139187993374874 
961	 0.139829245597386 
962	 0.140463305917579 
963	 0.141202309900679 
964	 0.141817680751211 
965	 0.142484431803023 
966	 0.143245298362351 
967	 0.144030047496467 
968	 0.14480017282403 
969	 0.145534442320407 
970	 0.146229076209364 
971	 0.146910206089674 
972	 0.147701682831188 
973	 0.148585684489966 
974	 0.149458759149492 
975	 0.150210807484649 
976	 0.150972529219399 
977	 0.151742434502753 
978	 0.152539792670454 
979	 0.153376471307853 
980	 0.15413849353273 
981	 0.154888933619591 
982	 0.155666099820947 
983	 0.156483117126168 
984	 0.157355643429487 
985	 0.158229031652769 
986	 0.159089042982695 
987	 0.159950514680268 
988	 0.160826707962872 
989	 0.161773145332323 
990	 0.162634211603994 
991	 0.163286662290566 
992	 0.164226333756138 
993	 0.165169440114647 
994	 0.166115522917527 
995	 0.16713494663246 
996	 0.167981814900364 
997	 0.168924035841949 
998	 0.169783532214085 
999	 0.17041760563586 
1000	 0.171438326176724 
1001	 0.173608588706553 
1002	 0.174468722635903 
1003	 0.175301449767841 
1004	 0.176149725658708 
1005	 0.176986392301245 
1006	 0.177868743603735 
1007	 0.178779121272758 
1008	 0.179677658441943 
1009	 0.18057129041549 
1010	 0.181473506723529 
1011	 0.182307845686605 
1012	 0.183156579741408 
1013	 0.184053043218855 
1014	 0.184848239200293 
1015	 0.185603327380007 
1016	 0.186368679197956 
1017	 0.187157252873273 
1018	 0.187911102449868 
1019	 0.188782384536326 
1020	 0.189642101688736 
1021	 0.190456318957075 
1022	 0.191299525862592 
1023	 0.192055621464052 
1024	 0.192846637457411 
1025	 0.193665755848864 
1026	 0.194428587741154 
1027	 0.195185277700921 
1028	 0.195926837360985 
1029	 0.196667954770353 
1030	 0.197388716686773 
1031	 0.19811215119596 
1032	 0.198824058390898 
1033	 0.199569503998194 
1034	 0.200344717358905 
1035	 0.201102963159913 
1036	 0.201866608769644 
1037	 0.202591952989309 
1038	 0.203256023193835 
1039	 0.203947272387266 
1040	 0.204659551759881 
1041	 0.205381925255034 
1042	 0.206096353571939 
1043	 0.206835591675735 
1044	 0.207564679719095 
1045	 0.208307570696068 
1046	 0.208995943327005 
1047	 0.209695704328776 
1048	 0.210407742807697 
1049	 0.211079040027976 
1050	 0.211788767807509 
1051	 0.212553848287071 
1052	 0.21325398354528 
1053	 0.21396931846991 
1054	 0.214713161368238 
1055	 0.21537048890485 
1056	 0.216048711574944 
1057	 0.216756429416725 
1058	 0.217467144983271 
1059	 0.218190950782191 
1060	 0.218957008245468 
1061	 0.219694551887494 
1062	 0.220419709580041 
1063	 0.221150016958056 
1064	 0.2218861047078 
1065	 0.222631154737805 
1066	 0.223330795731437 
1067	 0.224015787881584 
1068	 0.224737213878911 
1069	 0.225445940024619 
1070	 0.226160241862702 
1071	 0.226919127736636 
1072	 0.227645484461414 
1073	 0.228318033991749 
1074	 0.229029059556391 
1075	 0.229754617840955 
1076	 0.230478361181503 
1077	 0.23120244706937 
1078	 0.231932185209232 
1079	 0.23264103360722 
1080	 0.233310064568939 
1081	 0.234001987619445 
1082	 0.234705610185588 
1083	 0.235404140321982 
1084	 0.236118229770864 
1085	 0.236831556873844 
1086	 0.237518265505451 
1087	 0.238232810104925 
1088	 0.238973530871966 
1089	 0.239695162724164 
1090	 0.24040827957985 
1091	 0.241108283814782 
1092	 0.241787101288178 
1093	 0.242484524096784 
1094	 0.243166795310243 
1095	 0.243854428439507 
1096	 0.244588349333311 
1097	 0.245288192282358 
1098	 0.245987998156732 
1099	 0.246695017762458 
1100	 0.247409628400011 
1101	 0.248115024370426 
1102	 0.248824358388891 
1103	 0.249555264441771 
1104	 0.250267769742703 
1105	 0.250959490073472 
1106	 0.251654366116247 
1107	 0.252379283587619 
1108	 0.253111726482744 
1109	 0.253837626771926 
1110	 0.254600221347469 
1111	 0.255348281799916 
1112	 0.25609322723615 
1113	 0.256828227894857 
1114	 0.25756344185916 
1115	 0.258299498473271 
1116	 0.259020798316724 
1117	 0.25976392933412 
1118	 0.26053817945456 
1119	 0.261269771716998 
1120	 0.262021224720397 
1121	 0.262780043322671 
1122	 0.263509105011129 
1123	 0.264268798793365 
1124	 0.265039725496335 
1125	 0.265825571498659 
1126	 0.266593816490674 
1127	 0.267371748423979 
1128	 0.268145154399961 
1129	 0.26890663896172 
1130	 0.26965923332655 
1131	 0.270410342567692 
1132	 0.271169631321155 
1133	 0.271933129430988 
1134	 0.272677932076696 
1135	 0.273427079425072 
1136	 0.274147015088194 
1137	 0.274889076349339 
1138	 0.275638265839755 
1139	 0.276387104432157 
1140	 0.277169466336537 
1141	 0.277928122362474 
1142	 0.27865966983026 
1143	 0.27940449842027 
1144	 0.280163636075144 
1145	 0.280905375572471 
1146	 0.281638232510762 
1147	 0.282370550078161 
1148	 0.283104385873066 
1149	 0.283824247299412 
1150	 0.28452146155328 
1151	 0.285248267237294 
1152	 0.285948823794763 
1153	 0.286635681002526 
1154	 0.287337355291199 
1155	 0.28804524831398 
1156	 0.288737497612766 
1157	 0.289439793602162 
1158	 0.29011450597698 
1159	 0.29076349556156 
1160	 0.291429602426392 
1161	 0.292081016456536 
1162	 0.292751910686664 
1163	 0.2934500350524 
1164	 0.294123350034028 
1165	 0.29479178198677 
1166	 0.29545971127 
1167	 0.296129290586412 
1168	 0.296792107458056 
1169	 0.297423470604803 
1170	 0.298049292932799 
1171	 0.298656094955359 
1172	 0.299219220528708 
1173	 0.299807681955387 
1174	 0.300402988687256 
1175	 0.300993801914377 
1176	 0.301580995364661 
1177	 0.302172232915986 
1178	 0.302772228322506 
1179	 0.303361027559741 
1180	 0.303954173500302 
1181	 0.304531849457687 
1182	 0.305097572756131 
1183	 0.305660928440739 
1184	 0.306208131460039 
1185	 0.306738530210807 
1186	 0.307279612897987 
1187	 0.307815143512945 
1188	 0.308349318128525 
1189	 0.308879877291215 
1190	 0.309421600433733 
1191	 0.309984621668818 
1192	 0.310507321999498 
1193	 0.311035265810744 
1194	 0.311532908419479 
1195	 0.311977389199757 
1196	 0.312437002553476 
1197	 0.312891076297174 
1198	 0.313343894126978 
1199	 0.313794795231737 
1200	 0.314242617280184 
1201	 0.314693972343945 
1202	 0.315157972678951 
1203	 0.315587059479603 
1204	 0.315994948911429 
1205	 0.316420323306019 
1206	 0.316836713180802 
1207	 0.317247545062651 
1208	 0.317683974255928 
1209	 0.318084991100526 
1210	 0.318454955231781 
1211	 0.318823660479453 
1212	 0.319180601551637 
1213	 0.319533011828982 
1214	 0.319876475537017 
1215	 0.320214096612184 
1216	 0.320545891279451 
1217	 0.320873091308765 
1218	 0.321193535128209 
1219	 0.321501184680609 
1220	 0.321820485988527 
1221	 0.32214621169435 
1222	 0.322457848662732 
1223	 0.322776113751189 
1224	 0.323074048980503 
1225	 0.323347374485288 
1226	 0.323630460825873 
1227	 0.323920522034411 
1228	 0.324189941937223 
1229	 0.324446735011541 
1230	 0.324706012088757 
1231	 0.324954850222031 
1232	 0.32519748030789 
1233	 0.32543720917793 
1234	 0.325677587683159 
1235	 0.325920878827551 
1236	 0.326157340025525 
1237	 0.3263945575907 
1238	 0.3266474113392 
1239	 0.326879089809889 
1240	 0.327102363635863 
1241	 0.327311533578418 
1242	 0.327500520802099 
1243	 0.327699148779883 
1244	 0.327883427936788 
1245	 0.328079575785672 
1246	 0.328298720159921 
1247	 0.328498728556821 
1248	 0.328691086763568 
1249	 0.328876417022141 
1250	 0.329072518123205 
1251	 0.329267625950004 
1252	 0.32944815550129 
1253	 0.329632345311365 
1254	 0.329804106798166 
1255	 0.329955239040095 
1256	 0.330109840177844 
1257	 0.330270201516285 
1258	 0.330415669579639 
1259	 0.330542007700634 
1260	 0.330679444850722 
1261	 0.330823665707525 
1262	 0.33095322656882 
1263	 0.331068570596142 
1264	 0.331195679739464 
1265	 0.331337202100443 
1266	 0.331450326243839 
1267	 0.331553858343933 
1268	 0.331660913366214 
1269	 0.331753192432961 
1270	 0.331805254114217 
1271	 0.331899467588414 
1272	 0.332008405816644 
1273	 0.332123663248223 
1274	 0.332249468071903 
1275	 0.332379484649998 
1276	 0.332517582657412 
1277	 0.332664213766552 
1278	 0.332828603818656 
1279	 0.332978612062935 
1280	 0.333120348054734 
1281	 0.333279734082614 
1282	 0.333436938037644 
1283	 0.333601725611299 
1284	 0.333796829227957 
1285	 0.33397687622043 
1286	 0.334122301393639 
1287	 0.334274617677453 
1288	 0.334426610260378 
1289	 0.334567252930008 
1290	 0.334712520281841 
1291	 0.33486878111837 
1292	 0.335009905375366 
1293	 0.33513971252795 
1294	 0.335267582917662 
1295	 0.335384888614712 
1296	 0.335512532451233 
1297	 0.335645251908249 
1298	 0.335769282837509 
1299	 0.335908349479993 
1300	 0.336022942558556 
1301	 0.336113904238245 
1302	 0.336203081027845 
1303	 0.336282242390719 
1304	 0.336355356387995 
1305	 0.336422996462878 
1306	 0.336475691805999 
1307	 0.336508155261953 
1308	 0.336530735403046 
1309	 0.33655719585414 
1310	 0.336569680041897 
1311	 0.336600904101066 
1312	 0.336643534463798 
1313	 0.336675262831628 
1314	 0.336712523820625 
1315	 0.336741244247887 
1316	 0.336762410866467 
1317	 0.336785659241219 
1318	 0.336800485029663 
1319	 0.33682404629555 
1320	 0.336861612224254 
1321	 0.336877695664329 
1322	 0.336883522897678 
1323	 0.336894703910613 
1324	 0.336906129890153 
1325	 0.336908637421634 
1326	 0.336924955595072 
1327	 0.33694381157818 
1328	 0.33691927330063 
1329	 0.336888314854014 
1330	 0.336872919689677 
1331	 0.336843098511352 
1332	 0.336842774617223 
1333	 0.336877007214854 
1334	 0.336882682315493 
1335	 0.33687472315379 
1336	 0.336890670461914 
1337	 0.336908333488382 
1338	 0.336929931421022 
1339	 0.336985165351322 
1340	 0.337008195109258 
1341	 0.33700625719887 
1342	 0.337014793209796 
1343	 0.337017953852048 
1344	 0.33702203817621 
1345	 0.337030353568403 
1346	 0.337035456439183 
1347	 0.337044477077368 
1348	 0.337049617409692 
1349	 0.337028286418079 
1350	 0.336987637697815 
1351	 0.336958295572117 
1352	 0.336902389258609 
1353	 0.33688315922968 
1354	 0.33689870138289 
1355	 0.336883666118592 
1356	 0.336859769368805 
1357	 0.336842736031624 
1358	 0.336812392240297 
1359	 0.336804671609025 
1360	 0.336809943263298 
1361	 0.336820631041801 
1362	 0.33683350814503 
1363	 0.336857027460269 
1364	 0.336906670682481 
1365	 0.336942925726254 
1366	 0.336973886864891 
1367	 0.33701810936901 
1368	 0.337070257335194 
1369	 0.337085571016552 
1370	 0.337097555107969 
1371	 0.33711051327321 
1372	 0.337082666362692 
1373	 0.337056474959153 
1374	 0.337024894339301 
1375	 0.336995563050884 
1376	 0.33692934055972 
1377	 0.336856642548002 
1378	 0.336755707050997 
1379	 0.336602818731527 
1380	 0.336482247942807 
1381	 0.336348213392761 
1382	 0.336232668611385 
1383	 0.336143213477187 
1384	 0.33603848994242 
1385	 0.335954104537715 
1386	 0.335838091140071 
1387	 0.335707901139148 
1388	 0.335555792843798 
1389	 0.335398470397115 
1390	 0.33518882811931 
1391	 0.334958196126824 
1392	 0.334736531162899 
1393	 0.334457174127438 
1394	 0.334147439612744 
1395	 0.333830266149124 
1396	 0.333495623067668 
1397	 0.333172816227287 
1398	 0.332860770501412 
1399	 0.332532214681715 
1400	 0.332196571521355 
1401	 0.331856405171158 
1402	 0.331518246274222 
1403	 0.33115452972526 
1404	 0.330762407066071 
1405	 0.330393533859951 
1406	 0.330009791088384 
1407	 0.329645977557588 
1408	 0.329307078261036 
1409	 0.328962855610013 
1410	 0.328611916481186 
1411	 0.328281183608406 
1412	 0.327954354578654 
1413	 0.327644575656269 
1414	 0.32739461542353 
1415	 0.327121999237597 
1416	 0.326832754588639 
1417	 0.326585104901595 
1418	 0.326320125887481 
1419	 0.326066868975602 
1420	 0.325863630643233 
1421	 0.325672639659955 
1422	 0.325476043590467 
1423	 0.325285498043478 
1424	 0.3251200632895 
1425	 0.324964175687623 
1426	 0.324826485899738 
1427	 0.324730225444153 
1428	 0.324612527049424 
1429	 0.324489836120614 
1430	 0.32438005706526 
1431	 0.324262382334493 
1432	 0.324161402383024 
1433	 0.324080013927467 
1434	 0.324000867506847 
1435	 0.323920261316019 
1436	 0.323862303592882 
1437	 0.323824104575725 
1438	 0.323782710425999 
1439	 0.323759110797096 
1440	 0.323734992022328 
1441	 0.323676111097566 
1442	 0.323633302555232 
1443	 0.323587531646539 
1444	 0.323520470694118 
1445	 0.323481292128862 
1446	 0.323461121792933 
1447	 0.323465508105144 
1448	 0.323496428881916 
1449	 0.323523782226313 
1450	 0.323534421006411 
1451	 0.32354834004681 
1452	 0.323534990717184 
1453	 0.323567793241833 
1454	 0.323628143683829 
1455	 0.323685508934558 
1456	 0.323769765213065 
1457	 0.323833012619681 
1458	 0.323887639267082 
1459	 0.323940861520828 
1460	 0.323978404192917 
1461	 0.324040836088022 
1462	 0.324114525752811 
1463	 0.324184255907237 
1464	 0.324273127301448 
1465	 0.324345573895874 
1466	 0.324404723243897 
1467	 0.32447382173337 
1468	 0.324537198313968 
1469	 0.324611902663997 
1470	 0.324702912544537 
1471	 0.324776970726062 
1472	 0.32484322910927 
1473	 0.324935127709669 
1474	 0.32503617283122 
1475	 0.325138580464631 
1476	 0.325270162268087 
1477	 0.325391055995337 
1478	 0.325505217975395 
1479	 0.32562003215159 
1480	 0.325716972542414 
1481	 0.325834554880389 
1482	 0.325937318340192 
1483	 0.326019019759023 
1484	 0.326135480212398 
1485	 0.326263344704937 
1486	 0.326389818684781 
1487	 0.326538953123013 
1488	 0.326672967220916 
1489	 0.326798250459856 
1490	 0.32692989727252 
1491	 0.327071515771154 
1492	 0.327196552357704 
1493	 0.32731655787394 
1494	 0.327428007832032 
1495	 0.327520126023162 
1496	 0.327626015826572 
1497	 0.327732564339577 
1498	 0.327840276816072 
1499	 0.327957826607436 
1500	 0.328063324295378 
1501	 0.32816609595975 
1502	 0.328264117099361 
1503	 0.328353031060518 
1504	 0.328444036280428 
1505	 0.328527410596503 
1506	 0.328608569075564 
1507	 0.328703285697716 
1508	 0.328792100526643 
1509	 0.328886691071564 
1510	 0.32897520252657 
1511	 0.32904058152475 
1512	 0.32911797247904 
1513	 0.329204508864895 
1514	 0.32928491648126 
1515	 0.329385640549171 
1516	 0.329492952403636 
1517	 0.329568017372017 
1518	 0.329624371192976 
1519	 0.329690713597522 
1520	 0.329731611947074 
1521	 0.32979870947322 
1522	 0.329888930576837 
1523	 0.329964342253477 
1524	 0.330037265671266 
1525	 0.330116792415584 
1526	 0.330196832401349 
1527	 0.330273356410382 
1528	 0.330357614450638 
1529	 0.330433559053579 
1530	 0.330497130686685 
1531	 0.330570116735591 
1532	 0.330648143849929 
1533	 0.330721593090744 
1534	 0.330797845521676 
1535	 0.330867610375178 
1536	 0.330932220258663 
1537	 0.330996162185094 
1538	 0.331057119241349 
1539	 0.331115507388696 
1540	 0.331165043547854 
1541	 0.331223690460335 
1542	 0.331289257276164 
1543	 0.331347541795824 
1544	 0.331417074544413 
1545	 0.331473237677831 
1546	 0.33150620096268 
1547	 0.331551127628833 
1548	 0.331614269181436 
1549	 0.331664880301248 
1550	 0.331731535597141 
1551	 0.331796868120661 
1552	 0.331842512522839 
1553	 0.331882538454332 
1554	 0.331924502447775 
1555	 0.331970049041209 
1556	 0.332020620709906 
1557	 0.332069063217869 
1558	 0.332113278985428 
1559	 0.33215399256275 
1560	 0.332187614291519 
1561	 0.332208465894244 
1562	 0.332248851942932 
1563	 0.332289506201283 
1564	 0.332333807098132 
1565	 0.332389882483623 
1566	 0.332445801552395 
1567	 0.332503764589796 
1568	 0.332558922836136 
1569	 0.332623930300577 
1570	 0.33266997817837 
1571	 0.332707339249854 
1572	 0.332738962874507 
1573	 0.332760524769734 
1574	 0.332778427752636 
1575	 0.332780275225982 
1576	 0.332796845573527 
1577	 0.33282034966565 
1578	 0.332839598806126 
1579	 0.332864331235648 
1580	 0.33288309131367 
1581	 0.332889063436965 
1582	 0.332907685627309 
1583	 0.332928705400843 
1584	 0.332961759935509 
1585	 0.33300580520304 
1586	 0.333047277981105 
1587	 0.333101228940136 
1588	 0.333145793606616 
1589	 0.333193401518738 
1590	 0.333224291308783 
1591	 0.333244234369136 
1592	 0.333261319503159 
1593	 0.33326496243987 
1594	 0.333270413193675 
1595	 0.33327101331601 
1596	 0.333274851513445 
1597	 0.333273613300801 
1598	 0.333278092594897 
1599	 0.333288895205824 
1600	 0.333302138832041 
1601	 0.333309092685274 
1602	 0.333333560216298 
1603	 0.333383839120817 
1604	 0.333412813215417 
1605	 0.333433865390731 
1606	 0.333466401511345 
1607	 0.333499904750942 
1608	 0.333522053622573 
1609	 0.333546346129901 
1610	 0.333582017547596 
1611	 0.333579140853416 
1612	 0.33357299069416 
1613	 0.333581761843076 
1614	 0.333573874750928 
1615	 0.33356189454016 
1616	 0.333543182548655 
1617	 0.333540939405173 
1618	 0.333543132562395 
1619	 0.333543725142496 
1620	 0.333558212021347 
1621	 0.333556234015972 
1622	 0.33353769738762 
1623	 0.33353238539082 
1624	 0.333530731120828 
1625	 0.333530336961385 
1626	 0.333528065173273 
1627	 0.333537270004728 
1628	 0.333555215090746 
1629	 0.333568647853159 
1630	 0.333587074410587 
1631	 0.333603478515718 
1632	 0.333615547975938 
1633	 0.333634360929858 
1634	 0.333664176555954 
1635	 0.333676155068851 
1636	 0.333687284078623 
1637	 0.333682820824284 
1638	 0.333660220270345 
1639	 0.333643479606148 
1640	 0.333619411939172 
1641	 0.333598921349081 
1642	 0.333581981197857 
1643	 0.333557544055157 
1644	 0.333512527066087 
1645	 0.333512761980648 
1646	 0.333536190770672 
1647	 0.333542369433034 
1648	 0.333577501845094 
1649	 0.333584397940549 
1650	 0.333554689744235 
1651	 0.333554814595329 
1652	 0.333570659480648 
1653	 0.333575234485255 
1654	 0.333596283607679 
1655	 0.333577053996242 
1656	 0.333529826845271 
1657	 0.333494869811848 
1658	 0.333432024984222 
1659	 0.333397245981787 
1660	 0.333387642231876 
1661	 0.333361502954837 
1662	 0.333333704412416 
1663	 0.333306965539661 
1664	 0.333273362588965 
1665	 0.333249113319138 
1666	 0.333231398731338 
1667	 0.333212657677331 
1668	 0.333201711637929 
1669	 0.333179626492015 
1670	 0.333147086254497 
1671	 0.333128297233628 
1672	 0.333113385643531 
1673	 0.333093022570298 
1674	 0.333073671432075 
1675	 0.333064494150403 
1676	 0.333047290627665 
1677	 0.333049027388894 
1678	 0.333085595640275 
1679	 0.333087400299788 
1680	 0.333084593649943 
1681	 0.333067299627783 
1682	 0.33301540583525 
1683	 0.332995451524025 
1684	 0.332983490850609 
1685	 0.332970861244718 
1686	 0.332971974731446 
1687	 0.332968582653604 
1688	 0.33296609281976 
1689	 0.332953837647146 
1690	 0.332938196977464 
1691	 0.332925751832452 
1692	 0.332900243505903 
1693	 0.332888814579725 
1694	 0.332895124232872 
1695	 0.332886964362311 
1696	 0.332882016794857 
1697	 0.332861932298506 
1698	 0.332816421903332 
1699	 0.332800267269265 
1700	 0.33278588277744 
1701	 0.332780069087245 
1702	 0.332819872061167 
1703	 0.332800991323539 
1704	 0.332758105516694 
1705	 0.332703193500439 
1706	 0.332590206582192 
1707	 0.332537208173311 
1708	 0.332507681989335 
1709	 0.332473685253832 
1710	 0.332463431123587 
1711	 0.332446350999744 
1712	 0.332419757829914 
1713	 0.332401892540482 
1714	 0.332405137754592 
1715	 0.332385075501258 
1716	 0.332343399620683 
1717	 0.332328509004431 
1718	 0.332315933897697 
1719	 0.332307912366992 
1720	 0.332328708747003 
1721	 0.332315170327793 
1722	 0.332296624393323 
1723	 0.332255534001807 
1724	 0.332174329755965 
1725	 0.33212808218182 
1726	 0.332086550199898 
1727	 0.332031141619935 
1728	 0.331990403291429 
1729	 0.331934837781142 
1730	 0.331851112896164 
1731	 0.3317931469422 
1732	 0.331753681598511 
1733	 0.331697374119709 
1734	 0.331641898758194 
1735	 0.331568416248041 
1736	 0.331476810579314 
1737	 0.331394798266991 
1738	 0.331299808734043 
1739	 0.331239655576675 
1740	 0.331204981430417 
1741	 0.331145502972801 
1742	 0.331089490543844 
1743	 0.331037719638835 
1744	 0.330975040826873 
1745	 0.3309128761554 
1746	 0.330865030169328 
1747	 0.33080245452091 
1748	 0.330732154552493 
1749	 0.330671857230728 
1750	 0.330623458866526 
1751	 0.330548365801604 
1752	 0.330473563331039 
1753	 0.330412401451179 
1754	 0.330321621106827 
1755	 0.330238887601773 
1756	 0.330166039668388 
1757	 0.330070453109974 
1758	 0.330006816435487 
1759	 0.329976583355243 
1760	 0.329931318232091 
1761	 0.329891484848886 
1762	 0.329866510859152 
1763	 0.32980861439052 
1764	 0.329747027946889 
1765	 0.329730707414888 
1766	 0.329716160601159 
1767	 0.329707518749982 
1768	 0.329706272307473 
1769	 0.329668549766287 
1770	 0.329609303106735 
1771	 0.329540638901538 
1772	 0.329456901577416 
1773	 0.329350857675406 
1774	 0.329255443607825 
1775	 0.329190966160498 
1776	 0.32911864354435 
1777	 0.329054894412223 
1778	 0.329010523213082 
1779	 0.328950190606256 
1780	 0.328892957320999 
1781	 0.328881250519434 
1782	 0.328874738794448 
1783	 0.328868574446641 
1784	 0.328849603069279 
1785	 0.328826410217108 
1786	 0.328791785864494 
1787	 0.32871938179924 
1788	 0.328687777202368 
1789	 0.328677518506706 
1790	 0.328664487002109 
1791	 0.328676584680397 
1792	 0.328682979232451 
1793	 0.328690985133652 
1794	 0.328683550573394 
1795	 0.328682264310151 
1796	 0.328652081877389 
1797	 0.328573955938633 
1798	 0.328527162838868 
1799	 0.328486239245627 
1800	 0.328452407576967 
1801	 0.3262255911613 
1802	 0.326280806680141 
1803	 0.326363813029222 
1804	 0.326444601198868 
1805	 0.326555051610479 
1806	 0.326698539740301 
1807	 0.326821008694062 
1808	 0.326929880846584 
1809	 0.327053126731002 
1810	 0.327145230759441 
1811	 0.327218614727343 
1812	 0.327264915995682 
1813	 0.327311195737884 
1814	 0.327305157220965 
1815	 0.327279010167095 
1816	 0.327296400137309 
1817	 0.32730361069698 
1818	 0.32730855383294 
1819	 0.327317046998343 
1820	 0.327340283596864 
1821	 0.32733441317964 
1822	 0.327329380990001 
1823	 0.327346421613111 
1824	 0.32735777579981 
1825	 0.327350240374223 
1826	 0.327346509667497 
1827	 0.327339243269246 
1828	 0.327332534225599 
1829	 0.327343698394045 
1830	 0.327317848764432 
1831	 0.327267593043805 
1832	 0.327231972234594 
1833	 0.327175519663969 
1834	 0.32711746163835 
1835	 0.327108507419807 
1836	 0.327095108337079 
1837	 0.32707529162439 
1838	 0.32706764865839 
1839	 0.327069375453351 
1840	 0.327089062956397 
1841	 0.327081645746984 
1842	 0.327051520701828 
1843	 0.327043837061103 
1844	 0.32701447992107 
1845	 0.326976592171471 
1846	 0.32696229875748 
1847	 0.326928628583193 
1848	 0.326863184408728 
1849	 0.32680518611251 
1850	 0.326766744763596 
1851	 0.326730195266981 
1852	 0.326722006218714 
1853	 0.326748690387276 
1854	 0.326754476969115 
1855	 0.326779623395659 
1856	 0.326785887975783 
1857	 0.326730954275048 
1858	 0.326676586815754 
1859	 0.326589451646189 
1860	 0.326462153196202 
1861	 0.326292060439449 
1862	 0.326108438277678 
1863	 0.325899132342192 
1864	 0.325656704835078 
1865	 0.325412544693768 
1866	 0.325146703506751 
1867	 0.324856306497233 
1868	 0.32457973329583 
1869	 0.324290758943786 
1870	 0.323991439707368 
1871	 0.323677362097994 
1872	 0.323361912307565 
1873	 0.323017074838822 
1874	 0.322662880821496 
1875	 0.322303606442711 
1876	 0.321933217686174 
1877	 0.321517813774364 
1878	 0.321010340147889 
1879	 0.320470718736919 
1880	 0.319873654039212 
1881	 0.319205707405357 
1882	 0.31849330106008 
1883	 0.317759045008816 
1884	 0.316913431501949 
1885	 0.316000749714039 
1886	 0.315054479008085 
1887	 0.314040678799853 
1888	 0.313007401872388 
1889	 0.311915268742601 
1890	 0.310772661809944 
1891	 0.30961261925232 
1892	 0.30839202190244 
1893	 0.307167765437391 
1894	 0.305932341496618 
1895	 0.304680585110123 
1896	 0.30337432889128 
1897	 0.302045517745436 
1898	 0.300669965553047 
1899	 0.299282553361231 
1900	 0.297913274186195 
1901	 0.296568720140066 
1902	 0.295283569328531 
1903	 0.294064102241002 
1904	 0.292856733393813 
1905	 0.291682118466773 
1906	 0.290555962463737 
1907	 0.289432853293153 
1908	 0.288328164756631 
1909	 0.287282883598499 
1910	 0.286270199306392 
1911	 0.285327766431604 
1912	 0.284431896110824 
1913	 0.283559503802461 
1914	 0.282717685201079 
1915	 0.28191877349677 
1916	 0.281140701047361 
1917	 0.280422889737231 
1918	 0.279766642674915 
1919	 0.279153208331412 
1920	 0.278597985591993 
1921	 0.278084118113053 
1922	 0.277609377115975 
1923	 0.277224327832831 
1924	 0.276884313775406 
1925	 0.27662281232048 
1926	 0.276374572129344 
1927	 0.276170370796181 
1928	 0.275998136660525 
1929	 0.275863632601025 
1930	 0.275750475574181 
1931	 0.275687535839497 
1932	 0.275640082978996 
1933	 0.275622384807731 
1934	 0.275639733843033 
1935	 0.275672529097827 
1936	 0.275741926609563 
1937	 0.27582359100545 
1938	 0.275903237495858 
1939	 0.276024875440131 
1940	 0.276184423973169 
1941	 0.276353344451909 
1942	 0.276542911813859 
1943	 0.276773558563132 
1944	 0.276984215596918 
1945	 0.277198201714547 
1946	 0.277441859991809 
1947	 0.277701430596774 
1948	 0.277968980292965 
1949	 0.278277022871446 
1950	 0.278563105708856 
1951	 0.278841615842207 
1952	 0.27912157209844 
1953	 0.279416619031667 
1954	 0.279715839388677 
1955	 0.280011259343105 
1956	 0.280318031409899 
1957	 0.280629332387172 
1958	 0.28093493679524 
1959	 0.281254386962943 
1960	 0.281596479554101 
1961	 0.281926447238818 
1962	 0.282251356871846 
1963	 0.28258740338258 
1964	 0.282921435919731 
1965	 0.283268490888324 
1966	 0.283631417855047 
1967	 0.283984856214697 
1968	 0.284336857218405 
1969	 0.284684813289545 
1970	 0.285039720167034 
1971	 0.285395048465221 
1972	 0.285754895393034 
1973	 0.286119690908596 
1974	 0.286487609289881 
1975	 0.286858411696838 
1976	 0.287229409836168 
1977	 0.287608530133911 
1978	 0.287983558588097 
1979	 0.288345842622385 
1980	 0.288715387786023 
1981	 0.289091996061897 
1982	 0.289473514629018 
1983	 0.289853412791181 
1984	 0.290251820254603 
1985	 0.290622784834895 
1986	 0.290981464785374 
1987	 0.29133487715163 
1988	 0.291656864482172 
1989	 0.292008079098103 
1990	 0.292377935767152 
1991	 0.292721964545575 
1992	 0.293088348626736 
1993	 0.293480716209073 
1994	 0.2938466706983 
1995	 0.294203702228173 
1996	 0.294569455219142 
1997	 0.294927211611816 
1998	 0.295294026737227 
1999	 0.2956763493923 
2000	 0.296045631761978 
2001	 0.296417324577884 
2002	 0.29677334107361 
2003	 0.297138340387777 
2004	 0.297484446056354 
2005	 0.297829853392923 
2006	 0.298173910242029 
2007	 0.29851557549628 
2008	 0.298834443298679 
2009	 0.299180221205267 
2010	 0.299548103002354 
2011	 0.29989570468043 
2012	 0.300236030004211 
2013	 0.300591883993011 
2014	 0.300950136989188 
2015	 0.301304153942209 
2016	 0.301644760534576 
2017	 0.302013814625782 
2018	 0.302367604065257 
2019	 0.30270049863582 
2020	 0.303042108632718 
2021	 0.303405414505662 
2022	 0.303741890344205 
2023	 0.304061445666508 
2024	 0.304384394012874 
2025	 0.304708323400196 
2026	 0.305013334760729 
2027	 0.30530945726342 
2028	 0.30558579437072 
2029	 0.305879501862676 
2030	 0.306157368882544 
2031	 0.306457725800624 
2032	 0.306781216469127 
2033	 0.30709379578165 
2034	 0.30739791447087 
2035	 0.307724767109627 
2036	 0.308073392433143 
2037	 0.308402967929603 
2038	 0.308763946533631 
2039	 0.309074213138357 
2040	 0.309349150220978 
2041	 0.309617521411284 
2042	 0.309852213945702 
2043	 0.310067540701893 
2044	 0.310308837844397 
2045	 0.310551445022345 
2046	 0.310797302714746 
2047	 0.311062488713495 
2048	 0.31131042410184 
2049	 0.311540928630836 
2050	 0.311783649144871 
2051	 0.312034057346875 
2052	 0.312276845797678 
2053	 0.312530493333426 
2054	 0.312769562279697 
2055	 0.313001883820843 
2056	 0.313209296238549 
2057	 0.313432365336694 
2058	 0.31364780898565 
2059	 0.313872001735822 
2060	 0.314105481806567 
2061	 0.314331738394369 
2062	 0.314547300136592 
2063	 0.314785032210689 
2064	 0.315042356214846 
2065	 0.315282096088656 
2066	 0.315533903668152 
2067	 0.315770135149395 
2068	 0.315986747074658 
2069	 0.3161999704981 
2070	 0.316412473915287 
2071	 0.316619873057763 
2072	 0.316833358994946 
2073	 0.31704010618986 
2074	 0.317259727768129 
2075	 0.317496887222732 
2076	 0.317719432805908 
2077	 0.317940375528595 
2078	 0.318158297918073 
2079	 0.31836395242648 
2080	 0.31857772485452 
2081	 0.318800916344904 
2082	 0.319015955426989 
2083	 0.319227056704508 
2084	 0.319447852724036 
2085	 0.319643314942548 
2086	 0.319819243618359 
2087	 0.320010774930073 
2088	 0.320187004508801 
2089	 0.32038478042076 
2090	 0.320601335110682 
2091	 0.320812559475306 
2092	 0.321037075832776 
2093	 0.321247244700583 
2094	 0.321456630123564 
2095	 0.321655454303522 
2096	 0.321833242547642 
2097	 0.322023504304684 
2098	 0.322214966740817 
2099	 0.322413702373541 
2100	 0.322589323401123 
2101	 0.322754836077899 
2102	 0.322933368055296 
2103	 0.323092399405461 
2104	 0.323278525361414 
2105	 0.323481897376029 
2106	 0.323698539225108 
2107	 0.3239270305369 
2108	 0.324160875844432 
2109	 0.324422218409482 
2110	 0.324671935919314 
2111	 0.32492955231333 
2112	 0.325168036764306 
2113	 0.325393233082377 
2114	 0.325622072313837 
2115	 0.325843782128519 
2116	 0.32605079234884 
2117	 0.326264051991662 
2118	 0.326486866710047 
2119	 0.3266879304479 
2120	 0.326861130702238 
2121	 0.327068208666231 
2122	 0.327289052546331 
2123	 0.327494734299492 
2124	 0.327728593155522 
2125	 0.327926518462471 
2126	 0.328084323516727 
2127	 0.328254973958762 
2128	 0.328431795113614 
2129	 0.328584578309539 
2130	 0.328728137375074 
2131	 0.328874005415303 
2132	 0.328968251601246 
2133	 0.329027777175968 
2134	 0.329076476865355 
2135	 0.32908112036095 
2136	 0.329105098970245 
2137	 0.329115879884853 
2138	 0.329137348271978 
2139	 0.329180717146522 
2140	 0.329187288177011 
2141	 0.329186457913497 
2142	 0.329168174870719 
2143	 0.329106657646602 
2144	 0.329064803995059 
2145	 0.329030581738968 
2146	 0.328983291607813 
2147	 0.328940637171082 
2148	 0.328887420341138 
2149	 0.328810015012406 
2150	 0.328710757226054 
2151	 0.328609097332951 
2152	 0.328482367887016 
2153	 0.328371944244919 
2154	 0.328261595148283 
2155	 0.328152113560625 
2156	 0.328058038338144 
2157	 0.327938545577244 
2158	 0.32782282538715 
2159	 0.327672400031372 
2160	 0.327490320780518 
2161	 0.327304670547536 
2162	 0.327087116701233 
2163	 0.326877998253549 
2164	 0.326661664154699 
2165	 0.32644763251629 
2166	 0.326247495314327 
2167	 0.326038510117357 
2168	 0.325876015718479 
2169	 0.325761591752758 
2170	 0.325599711060229 
2171	 0.325466618779372 
2172	 0.325279014588713 
2173	 0.325034064862824 
2174	 0.324808294817738 
2175	 0.324566806387133 
2176	 0.324328107225078 
2177	 0.324070805935719 
2178	 0.323843096991538 
2179	 0.323631374986402 
2180	 0.323419186487188 
2181	 0.323223758646237 
2182	 0.323030727400352 
2183	 0.322837019969417 
2184	 0.322638199700243 
2185	 0.322461934452042 
2186	 0.32230552745452 
2187	 0.322142807812767 
2188	 0.321985308870408 
2189	 0.321834256594167 
2190	 0.321696179039728 
2191	 0.32154015935581 
2192	 0.321387931526812 
2193	 0.321223367109419 
2194	 0.321026686849781 
2195	 0.320857870036094 
2196	 0.320700647981286 
2197	 0.320543064511564 
2198	 0.320382923202816 
2199	 0.320246787833909 
2200	 0.320124206026485 
2201	 0.320004623020761 
2202	 0.319887799968749 
2203	 0.319814319548247 
2204	 0.319724632154645 
2205	 0.319636268577889 
2206	 0.319540710973087 
2207	 0.31944313150206 
2208	 0.319361702379974 
2209	 0.319280677515337 
2210	 0.319203765594642 
2211	 0.319141700435933 
2212	 0.3190812252961 
2213	 0.319005736135126 
2214	 0.31895868565204 
2215	 0.318942539646531 
2216	 0.318917640913933 
2217	 0.318920467861308 
2218	 0.318888649952942 
2219	 0.318840611138052 
2220	 0.318786000844761 
2221	 0.318700607568444 
2222	 0.318621901090539 
2223	 0.318569165480774 
2224	 0.318510626323105 
2225	 0.318467018312019 
2226	 0.318447240796337 
2227	 0.318402779852495 
2228	 0.318360013720847 
2229	 0.318303991017914 
2230	 0.318234159467085 
2231	 0.318159810638515 
2232	 0.318071226616163 
2233	 0.317992021129626 
2234	 0.317903885434363 
2235	 0.317829688659451 
2236	 0.317775623937958 
2237	 0.31770177687661 
2238	 0.317620533771396 
2239	 0.317547364104619 
2240	 0.317446989982576 
2241	 0.317387230834635 
2242	 0.317360529512487 
2243	 0.317326821873922 
2244	 0.31731764051928 
2245	 0.317306827339778 
2246	 0.317272161737252 
2247	 0.317208189251346 
2248	 0.317164096237014 
2249	 0.317114869478807 
2250	 0.317063995873869 
2251	 0.317016041882192 
2252	 0.31698205723002 
2253	 0.316930331643557 
2254	 0.316916274863417 
2255	 0.316939626281532 
2256	 0.316943695244953 
2257	 0.316958915477883 
2258	 0.316975608019523 
2259	 0.317003042310781 
2260	 0.317010719857207 
2261	 0.317002766285982 
2262	 0.317006391166987 
2263	 0.317000361311936 
2264	 0.316993198489416 
2265	 0.317004854951629 
2266	 0.317009184830765 
2267	 0.316997326923211 
2268	 0.316987539512316 
2269	 0.316998771473551 
2270	 0.316972468493293 
2271	 0.316921497891755 
2272	 0.316924889984235 
2273	 0.316881432332508 
2274	 0.316836062359562 
2275	 0.316827339068985 
2276	 0.316832197103298 
2277	 0.31683499781375 
2278	 0.316880621477501 
2279	 0.316877543560185 
2280	 0.316850681237878 
2281	 0.316821242868115 
2282	 0.316774142940224 
2283	 0.316725063317827 
2284	 0.316666742370637 
2285	 0.31660997230741 
2286	 0.316519504429192 
2287	 0.31648783100721 
2288	 0.31650254097672 
2289	 0.316485513880161 
2290	 0.316489713179041 
2291	 0.316487105444756 
2292	 0.31645870292403 
2293	 0.316433735615127 
2294	 0.316418327817887 
2295	 0.316403560784505 
2296	 0.316367184255455 
2297	 0.316362491921403 
2298	 0.316375328654081 
2299	 0.316362077731942 
2300	 0.316315833297032 
2301	 0.316263204113198 
2302	 0.316162563437386 
2303	 0.316100373221755 
2304	 0.316109374816576 
2305	 0.31610607762125 
2306	 0.316097789452919 
2307	 0.316125937362586 
2308	 0.316105189524494 
2309	 0.316047497262125 
2310	 0.316000177730056 
2311	 0.315963751930362 
2312	 0.315888555134 
2313	 0.31579794117921 
2314	 0.315667005512849 
2315	 0.3154431582019 
2316	 0.31532934767274 
2317	 0.315251293911561 
2318	 0.315155763185936 
2319	 0.315139837601522 
2320	 0.315061895289551 
2321	 0.314896637531556 
2322	 0.314802919597448 
2323	 0.314733435792133 
2324	 0.314674693407318 
2325	 0.314686942376137 
2326	 0.314631205201814 
2327	 0.314545042245966 
2328	 0.314436668614313 
2329	 0.314400561829356 
2330	 0.314322037339993 
2331	 0.314259952246221 
2332	 0.314243274755315 
2333	 0.314143587516533 
2334	 0.314022978376391 
2335	 0.313918125360903 
2336	 0.313829379330893 
2337	 0.313717056171527 
2338	 0.313579339812024 
2339	 0.313468435272548 
2340	 0.313338200444066 
2341	 0.313193017035204 
2342	 0.313053775582643 
2343	 0.312896658505377 
2344	 0.31275573972954 
2345	 0.312596737818975 
2346	 0.312444643255561 
2347	 0.312224598044502 
2348	 0.311965409171603 
2349	 0.311713149013188 
2350	 0.311410756868499 
2351	 0.311164629345373 
2352	 0.31095636639567 
2353	 0.310689095163798 
2354	 0.310384391851559 
2355	 0.310118211401612 
2356	 0.309851370612099 
2357	 0.309608755127135 
2358	 0.309413300614504 
2359	 0.3091918497792 
2360	 0.308972429845076 
2361	 0.308706165594382 
2362	 0.308404655042232 
2363	 0.308129662051325 
2364	 0.307829065854868 
2365	 0.307539160763097 
2366	 0.307289699464572 
2367	 0.307002923475515 
2368	 0.306658338522075 
2369	 0.306378289889548 
2370	 0.306128966076706 
2371	 0.30587212412425 
2372	 0.305629764458245 
2373	 0.305382677573908 
2374	 0.305058615706951 
2375	 0.304780590334947 
2376	 0.304550692713669 
2377	 0.304286818040762 
2378	 0.304062631643643 
2379	 0.303763940257346 
2380	 0.30342731647732 
2381	 0.303121696898123 
2382	 0.302825341546887 
2383	 0.30256105263327 
2384	 0.302275077015536 
2385	 0.302027053846598 
2386	 0.301777726380176 
2387	 0.3014429631283 
2388	 0.301124392222481 
2389	 0.300760207497901 
2390	 0.300406391616954 
2391	 0.300171882970201 
2392	 0.299902983903625 
2393	 0.299620810016972 
2394	 0.299298428952681 
2395	 0.298945343817247 
2396	 0.298608860339144 
2397	 0.298215154427573 
2398	 0.297814401206931 
2399	 0.297413207162423 
2400	 0.297107863516387 
2401	 0.296849408766534 
2402	 0.296560878948387 
2403	 0.296403194369387 
2404	 0.296229676249106 
2405	 0.295953310828548 
2406	 0.29563895871664 
2407	 0.29524715916562 
2408	 0.294920749543406 
2409	 0.294646330917062 
2410	 0.294420681219891 
2411	 0.294262788335657 
2412	 0.29397350788365 
2413	 0.29365239092989 
2414	 0.293411332480812 
2415	 0.293115898654215 
2416	 0.292802989725182 
2417	 0.292499104946598 
2418	 0.292137775090871 
2419	 0.291696421743294 
2420	 0.291288555877986 
2421	 0.290802616146481 
2422	 0.290492179176448 
2423	 0.290293507583416 
2424	 0.290064623760596 
2425	 0.289960363701581 
2426	 0.289715828986983 
2427	 0.289376225663751 
2428	 0.289088408661246 
2429	 0.288746855704704 
2430	 0.288495386818904 
2431	 0.288360999359814 
2432	 0.28809097361211 
2433	 0.287819838865185 
2434	 0.28748787447732 
2435	 0.286961217780604 
2436	 0.286593114471798 
2437	 0.286324576057287 
2438	 0.286022028183193 
2439	 0.285783944390469 
2440	 0.28549940319818 
2441	 0.285140290966019 
2442	 0.28483705995075 
2443	 0.284602534480165 
2444	 0.284283734424632 
2445	 0.28388638446931 
2446	 0.283576286086696 
2447	 0.283281017519882 
2448	 0.282956323487845 
2449	 0.282737105537487 
2450	 0.282399042649758 
2451	 0.281906088309002 
2452	 0.281507248811893 
2453	 0.281085610780436 
2454	 0.280769406414748 
2455	 0.280552660326438 
2456	 0.280270071795372 
2457	 0.280022698734793 
2458	 0.279780145145468 
2459	 0.279530825474846 
2460	 0.279271885330335 
2461	 0.279028791482813 
2462	 0.278761073303894 
2463	 0.278416131336783 
2464	 0.278153997985078 
2465	 0.27803143127186 
2466	 0.27764123909724 
2467	 0.277123137077525 
2468	 0.276704275196938 
2469	 0.276104291874837 
2470	 0.275925952045361 
2471	 0.275670929113133 
2472	 0.275517064834708 
2473	 0.2753482027627 
2474	 0.275211762578199 
2475	 0.275089729377074 
2476	 0.274758791075991 
2477	 0.274462208108019 
2478	 0.273927363282175 
2479	 0.273538119404698 
2480	 0.273444439691997 
2481	 0.272978675510718 
2482	 0.272630966730263 
2483	 0.272372304906739 
2484	 0.271913676224271 
2485	 0.27160823005845 
2486	 0.271244002301147 
2487	 0.270783576644322 
2488	 0.270320687728506 
2489	 0.270064370776831 
2490	 0.269990799087308 
2491	 0.269638801645544 
2492	 0.269389241887192 
2493	 0.269192130899706 
2494	 0.268768796946198 
2495	 0.268449314015776 
2496	 0.268119161726012 
2497	 0.267666437696797 
2498	 0.267310068153267 
2499	 0.267214055771611 
2500	 0.267020652897416 
