Wavelength	LMW800016.asd
350	 4.40802900390468E-02 
351	 0.052999047673638 
352	 5.61419859478938E-02 
353	 4.77079020154788E-02 
354	 4.67834825905964E-02 
355	 0.053739638555741 
356	 5.62531324951107E-02 
357	 4.75195704179798E-02 
358	 5.60488195051039E-02 
359	 5.62672534001829E-02 
360	 4.94455077269298E-02 
361	 5.29393734945489E-02 
362	 0.050398061707508 
363	 4.87589692991018E-02 
364	 5.10888970431991E-02 
365	 5.01761175499087E-02 
366	 4.93953536020631E-02 
367	 4.95159561629609E-02 
368	 5.03225803189752E-02 
369	 5.03019946849374E-02 
370	 5.17233658075366E-02 
371	 5.33441198725251E-02 
372	 5.18935676217536E-02 
373	 5.02393304580534E-02 
374	 5.01511383655736E-02 
375	 5.15447618517999E-02 
376	 5.15415419276302E-02 
377	 5.17769181047285E-02 
378	 5.22033208682968E-02 
379	 0.052708778426179 
380	 5.53726521037656E-02 
381	 5.51734439757563E-02 
382	 5.39322839996858E-02 
383	 5.77724310406174E-02 
384	 5.64488617481005E-02 
385	 5.44574942855486E-02 
386	 5.50487670378235E-02 
387	 0.054976604958267 
388	 5.60129494416357E-02 
389	 5.67685783388099E-02 
390	 5.58672071987478E-02 
391	 5.68116580813915E-02 
392	 5.61095973962838E-02 
393	 5.45666272557237E-02 
394	 5.64483473795778E-02 
395	 5.75575570040124E-02 
396	 5.70998130006452E-02 
397	 5.60512326752535E-02 
398	 5.80527229570472E-02 
399	 0.059061793615199 
400	 5.92792626399191E-02 
401	 6.00695025235952E-02 
402	 5.98274278811276E-02 
403	 5.97401228903045E-02 
404	 6.00593075296319E-02 
405	 5.99708095005316E-02 
406	 6.05332619283774E-02 
407	 6.12770493018233E-02 
408	 6.14203083027203E-02 
409	 5.99129394965118E-02 
410	 5.95911828498335E-02 
411	 6.04045211537355E-02 
412	 6.09470674311417E-02 
413	 6.11163231720737E-02 
414	 6.11268764183139E-02 
415	 6.10415762700089E-02 
416	 6.06599367495922E-02 
417	 6.05266938508747E-02 
418	 6.08201286643106E-02 
419	 6.13104106433342E-02 
420	 6.07848019509853E-02 
421	 6.02324236491801E-02 
422	 6.02408983895026E-02 
423	 0.060949674829384 
424	 6.10540527439883E-02 
425	 0.06070572832389 
426	 6.03153105278751E-02 
427	 6.03818999021446E-02 
428	 6.03928640003746E-02 
429	 6.01805284115669E-02 
430	 5.98736825611602E-02 
431	 6.05449760392347E-02 
432	 0.060557556197348 
433	 5.99231736944069E-02 
434	 6.02625595745654E-02 
435	 6.05233347365355E-02 
436	 6.04704832355964E-02 
437	 6.01782479714481E-02 
438	 6.00491750463566E-02 
439	 6.02389434042148E-02 
440	 6.05097349223762E-02 
441	 6.04919569806851E-02 
442	 0.060571841455059 
443	 6.06846284821873E-02 
444	 0.060741883551506 
445	 6.06817920276203E-02 
446	 0.060669720449032 
447	 6.08808133828398E-02 
448	 6.13046772955767E-02 
449	 6.11464698651705E-02 
450	 6.13462005201606E-02 
451	 6.18772243926135E-02 
452	 6.18986087125613E-02 
453	 6.19412218970239E-02 
454	 6.21322621816438E-02 
455	 6.23682933189181E-02 
456	 0.062126324359586 
457	 6.19823068250775E-02 
458	 0.062020581653591 
459	 6.21106281832316E-02 
460	 6.23652218610488E-02 
461	 6.25009661876617E-02 
462	 6.24400064613314E-02 
463	 6.24239355643097E-02 
464	 6.26159845603387E-02 
465	 6.28826689441016E-02 
466	 0.063017792102861 
467	 6.28996637913488E-02 
468	 6.29653379430705E-02 
469	 6.31369289424183E-02 
470	 6.29549687901244E-02 
471	 6.29786068338809E-02 
472	 0.063105495198077 
473	 6.31885809806223E-02 
474	 6.32568260413602E-02 
475	 6.32310339171798E-02 
476	 6.32395166994694E-02 
477	 6.34199782389049E-02 
478	 6.32490071958547E-02 
479	 6.32017088967291E-02 
480	 6.33972432280672E-02 
481	 6.33440621564808E-02 
482	 6.35624709189194E-02 
483	 0.063805056825309 
484	 6.37435141397616E-02 
485	 6.35980232496692E-02 
486	 6.34981999000866E-02 
487	 6.34803350850858E-02 
488	 6.35024410599661E-02 
489	 0.063586299310604 
490	 6.37266796542886E-02 
491	 0.063850683357654 
492	 6.37087259929656E-02 
493	 6.36193711555904E-02 
494	 6.36708413231095E-02 
495	 6.38080632163629E-02 
496	 6.38169802832636E-02 
497	 6.37603520099169E-02 
498	 6.37342365253901E-02 
499	 6.38466498663278E-02 
500	 6.38226485749039E-02 
501	 6.36921115857069E-02 
502	 6.35862007123246E-02 
503	 6.36327237676054E-02 
504	 6.36500379528753E-02 
505	 6.36106986479688E-02 
506	 0.063632429272468 
507	 6.36210637090136E-02 
508	 6.36541129239893E-02 
509	 6.37548037399243E-02 
510	 6.37284909631725E-02 
511	 6.35842957211191E-02 
512	 6.34408218887893E-02 
513	 6.34564654683576E-02 
514	 6.35552013334052E-02 
515	 6.35904568915229E-02 
516	 6.35279244596322E-02 
517	 6.35298308187462E-02 
518	 6.35324093995585E-02 
519	 0.063508714565569 
520	 6.34741927103704E-02 
521	 6.36153771731575E-02 
522	 6.37377417006757E-02 
523	 0.063748270931932 
524	 6.36840739903948E-02 
525	 6.35696339585614E-02 
526	 6.35447747838419E-02 
527	 6.36714559876333E-02 
528	 6.37120425222944E-02 
529	 6.37322480726318E-02 
530	 6.37454491709685E-02 
531	 6.37312761539632E-02 
532	 6.36746923262665E-02 
533	 0.063690084080988 
534	 6.38113649249577E-02 
535	 6.38773048444187E-02 
536	 0.063931478833803 
537	 6.39732755376757E-02 
538	 6.39883019459901E-02 
539	 6.39553743248981E-02 
540	 6.39260523878624E-02 
541	 0.063953189944361 
542	 6.40882319286727E-02 
543	 6.41178561204781E-02 
544	 6.41343434566548E-02 
545	 6.42528199427771E-02 
546	 6.43158852069394E-02 
547	 6.43606151879745E-02 
548	 6.43990588902474E-02 
549	 6.44189886001427E-02 
550	 6.44259648446238E-02 
551	 6.44954008201433E-02 
552	 6.46372078359166E-02 
553	 0.064657472615301 
554	 6.47146789900155E-02 
555	 6.48232926834887E-02 
556	 6.49223921235711E-02 
557	 6.50014663780772E-02 
558	 6.50772594346055E-02 
559	 6.51756066712151E-02 
560	 6.53389473497375E-02 
561	 6.54433264113762E-02 
562	 6.55101641874204E-02 
563	 6.56128506183813E-02 
564	 0.065795067129489 
565	 6.59561791897115E-02 
566	 6.61003188418611E-02 
567	 6.63550881405624E-02 
568	 0.066583099681587 
569	 6.68051524787124E-02 
570	 6.70587457125889E-02 
571	 6.73049643760349E-02 
572	 6.75592866105862E-02 
573	 6.78354271414629E-02 
574	 6.81405896752562E-02 
575	 0.06842490000451 
576	 6.87215561806211E-02 
577	 6.90542410047223E-02 
578	 6.93990700788781E-02 
579	 6.97401574100044E-02 
580	 7.01084790705561E-02 
581	 0.070544994627404 
582	 7.09973169268676E-02 
583	 7.14513336403089E-02 
584	 7.19176716611708E-02 
585	 0.07243894995299 
586	 7.29721193812429E-02 
587	 0.073510908842083 
588	 7.40534141129422E-02 
589	 0.074568803067576 
590	 0.075097272820969 
591	 7.56687857857463E-02 
592	 7.62960394805451E-02 
593	 7.68462446341696E-02 
594	 7.73882744546491E-02 
595	 7.79866095146636E-02 
596	 7.85832671876095E-02 
597	 7.92062103130487E-02 
598	 7.98437626868432E-02 
599	 0.080468054611797 
600	 8.10933628605715E-02 
601	 8.16896975800119E-02 
602	 8.22351778140503E-02 
603	 8.27265190661792E-02 
604	 8.32407318161361E-02 
605	 8.37668195144372E-02 
606	 8.42720857123985E-02 
607	 8.48059489610436E-02 
608	 8.53118239395498E-02 
609	 8.57911451877767E-02 
610	 8.63167588355675E-02 
611	 8.67851670855986E-02 
612	 8.72044454965874E-02 
613	 8.76099094676534E-02 
614	 8.80402739128209E-02 
615	 8.84099286960971E-02 
616	 8.87423225070794E-02 
617	 8.91240963590118E-02 
618	 8.94261912184309E-02 
619	 8.96817352738198E-02 
620	 8.99422814784742E-02 
621	 9.02513251276313E-02 
622	 9.05165442121914E-02 
623	 9.07405433852425E-02 
624	 9.09664802713333E-02 
625	 9.12206628262824E-02 
626	 9.14355228470338E-02 
627	 9.16025301468581E-02 
628	 9.17995170706313E-02 
629	 9.20332716603585E-02 
630	 9.22561359945902E-02 
631	 9.24239060902549E-02 
632	 9.25684317204687E-02 
633	 9.27391130757779E-02 
634	 9.29398887638696E-02 
635	 9.31353738074761E-02 
636	 9.32957487645244E-02 
637	 9.34542497360357E-02 
638	 9.36352058324039E-02 
639	 9.38117863395613E-02 
640	 9.39897656773553E-02 
641	 9.41728416831447E-02 
642	 9.43633294290116E-02 
643	 9.45559088190458E-02 
644	 9.47600114272963E-02 
645	 9.49721481596887E-02 
646	 9.51677233487647E-02 
647	 9.53770331102584E-02 
648	 9.55807243207613E-02 
649	 9.57609857829159E-02 
650	 9.59634981191258E-02 
651	 0.096204757921988 
652	 9.64630991829979E-02 
653	 9.66864612698025E-02 
654	 9.68712407973749E-02 
655	 9.70744559047492E-02 
656	 9.73282431345059E-02 
657	 9.75743134809193E-02 
658	 9.78325860169978E-02 
659	 9.80987926667407E-02 
660	 9.83594841952234E-02 
661	 9.86157507579504E-02 
662	 9.89128319750112E-02 
663	 9.92521872114681E-02 
664	 9.95689235973288E-02 
665	 9.98226050107238E-02 
666	 0.100080395869099 
667	 0.100412175061823 
668	 0.100748561321586 
669	 0.101111801255713 
670	 0.101482970161329 
671	 0.101811740110604 
672	 0.10215978190984 
673	 0.102555817951089 
674	 0.102982403973948 
675	 0.10332354024157 
676	 0.103706682492688 
677	 0.104105815556375 
678	 0.104453913046281 
679	 0.104894087307656 
680	 0.105360168045795 
681	 0.105821514703149 
682	 0.106319368991827 
683	 0.106780099170415 
684	 0.107218051548428 
685	 0.107668381027137 
686	 0.108143660118296 
687	 0.108658068188625 
688	 0.109194781600728 
689	 0.109715655705296 
690	 0.110206783918002 
691	 0.110712356969666 
692	 0.111265410580569 
693	 0.111870696578124 
694	 0.112402884639596 
695	 0.112930216034802 
696	 0.113550107809413 
697	 0.11407160514304 
698	 0.114653056743486 
699	 0.115309286612246 
700	 0.115888250553945 
701	 0.116480635460422 
702	 0.117089706518107 
703	 0.117707947533156 
704	 0.118354075561409 
705	 0.118963887038383 
706	 0.119567224934664 
707	 0.120226974106627 
708	 0.120832614021339 
709	 0.121454464070597 
710	 0.122113600589791 
711	 0.122733628766516 
712	 0.123379738859031 
713	 0.12402541374981 
714	 0.124631644153408 
715	 0.125201391117775 
716	 0.125815005832488 
717	 0.126454125986243 
718	 0.127032620750275 
719	 0.127601537286919 
720	 0.128156168244919 
721	 0.128695972094367 
722	 0.129241550129519 
723	 0.129799864263229 
724	 0.130357164000113 
725	 0.13089145183167 
726	 0.131386365457644 
727	 0.13183761063486 
728	 0.132269358217957 
729	 0.132724469244583 
730	 0.133129020545861 
731	 0.133497974390107 
732	 0.133856480428113 
733	 0.134216811159334 
734	 0.134544316201426 
735	 0.134832169644578 
736	 0.135089023686434 
737	 0.135336560793105 
738	 0.135542477539439 
739	 0.135712206371095 
740	 0.135893980573094 
741	 0.136031152797624 
742	 0.136136856602692 
743	 0.136223249080979 
744	 0.136258437187817 
745	 0.136248150801484 
746	 0.136231196057533 
747	 0.136242507921923 
748	 0.136169928678705 
749	 0.136095556167562 
750	 0.136021423307887 
751	 0.135836159668182 
752	 0.135691796714988 
753	 0.135547961521177 
754	 0.135349946500014 
755	 0.135141021161047 
756	 0.134892100955672 
757	 0.134615757054488 
758	 0.134344709227112 
759	 0.134087926322652 
760	 0.133794034058224 
761	 0.133455226609351 
762	 0.133123754942667 
763	 0.132783189040887 
764	 0.132424726716539 
765	 0.132047826063345 
766	 0.131670780484477 
767	 0.131289285532056 
768	 0.130885600997427 
769	 0.130448039980423 
770	 0.130059774050402 
771	 0.129668405893619 
772	 0.12924156530888 
773	 0.128787397646181 
774	 0.128352224092816 
775	 0.127921809716154 
776	 0.127479428730863 
777	 0.127046117394059 
778	 0.126589567416415 
779	 0.126133233671819 
780	 0.125713706746755 
781	 0.125282497847567 
782	 0.124806449207586 
783	 0.124313744041826 
784	 0.123891947817202 
785	 0.123493769798795 
786	 0.123073268662348 
787	 0.122611102231667 
788	 0.122140000010132 
789	 0.121722513146423 
790	 0.121326847898911 
791	 0.12089614399904 
792	 0.120461982859105 
793	 0.120071696080846 
794	 0.119691665615866 
795	 0.119233332305221 
796	 0.118840934525496 
797	 0.118488091227921 
798	 0.118122498572585 
799	 0.117694101354916 
800	 0.11731302128897 
801	 0.116963127080169 
802	 0.116597546349623 
803	 0.116213616162331 
804	 0.115875381077181 
805	 0.115554193021934 
806	 0.115178764180316 
807	 0.114850431617834 
808	 0.114526264739187 
809	 0.114189713112936 
810	 0.113876414101231 
811	 0.113558823381003 
812	 0.113248413892109 
813	 0.112957648511265 
814	 0.112682530537669 
815	 0.112385629652226 
816	 0.112089060519729 
817	 0.111832911290267 
818	 0.111601409581648 
819	 0.111377902079468 
820	 0.111148021285393 
821	 0.110900716813901 
822	 0.110621453739957 
823	 0.110378602305062 
824	 0.11018619561149 
825	 0.109950878671823 
826	 0.109758680411035 
827	 0.10959751941997 
828	 0.109430697922678 
829	 0.109239295052482 
830	 0.108978760000861 
831	 0.108750070006961 
832	 0.108670729562785 
833	 0.108498385056686 
834	 0.108342931487585 
835	 0.108228963591074 
836	 0.108082569240824 
837	 0.107945574471667 
838	 0.107828526233663 
839	 0.107720742145737 
840	 0.107584561904849 
841	 0.107456739700835 
842	 0.107327859265978 
843	 0.107198259189025 
844	 0.107141690196264 
845	 0.107082748723922 
846	 0.106996379834862 
847	 0.10689468573523 
848	 0.106836098166004 
849	 0.10680684321242 
850	 0.106774328691911 
851	 0.106703735487801 
852	 0.106666214394535 
853	 0.106615511796153 
854	 0.106551982829182 
855	 0.106563831765649 
856	 0.106577969713315 
857	 0.106575840972717 
858	 0.106554678754656 
859	 0.106510034288275 
860	 0.106523458654427 
861	 0.106554630284386 
862	 0.106549550156133 
863	 0.106612304660079 
864	 0.106646123343126 
865	 0.106652792414817 
866	 0.10669240551025 
867	 0.10674089604921 
868	 0.106789182012844 
869	 0.106839849431369 
870	 0.106904381461395 
871	 0.10695634782207 
872	 0.107041731542171 
873	 0.107158602869443 
874	 0.107212657787162 
875	 0.107332846950774 
876	 0.107464022911742 
877	 0.107549502002922 
878	 0.107646913818635 
879	 0.10780962917475 
880	 0.107947261341213 
881	 0.107987275982968 
882	 0.108152133888302 
883	 0.108337601936086 
884	 0.10849537299257 
885	 0.108626715827781 
886	 0.108795427198806 
887	 0.108988381202269 
888	 0.109171653153629 
889	 0.109313562248563 
890	 0.109523019176025 
891	 0.109735721892022 
892	 0.109934752040665 
893	 0.110183659540919 
894	 0.110354605732114 
895	 0.110549637001178 
896	 0.110828300427573 
897	 0.111093653537053 
898	 0.111343451061842 
899	 0.111578458891307 
900	 0.111813833355117 
901	 0.112091851782787 
902	 0.112358621835187 
903	 0.112634944549985 
904	 0.112938249608144 
905	 0.1131678529163 
906	 0.113457988490925 
907	 0.113821793502642 
908	 0.114204271490571 
909	 0.114563779019605 
910	 0.11489829571545 
911	 0.115221957187068 
912	 0.115560208957062 
913	 0.115946999755677 
914	 0.116346577361262 
915	 0.116730997210426 
916	 0.117090971647345 
917	 0.117431470904016 
918	 0.117832497095475 
919	 0.118291131788414 
920	 0.118702623696359 
921	 0.119077615073003 
922	 0.119487547921259 
923	 0.119957045019435 
924	 0.120427084759165 
925	 0.120893554738277 
926	 0.121395114324991 
927	 0.121934050003196 
928	 0.122429461281136 
929	 0.122944650994099 
930	 0.123466274703479 
931	 0.123992776285188 
932	 0.124602160092971 
933	 0.125120418434931 
934	 0.125618570996222 
935	 0.1261881685086 
936	 0.126753459041411 
937	 0.127318322668658 
938	 0.127926207442293 
939	 0.128597319744154 
940	 0.129229611114292 
941	 0.129874245144188 
942	 0.130527340699037 
943	 0.13117461074768 
944	 0.131846087975589 
945	 0.132505229504706 
946	 0.133201873173103 
947	 0.133972544855856 
948	 0.134626377529655 
949	 0.135317068960117 
950	 0.136064181255432 
951	 0.136821794745689 
952	 0.137633926123271 
953	 0.138390421291471 
954	 0.139131664174424 
955	 0.13996072643464 
956	 0.140808787274814 
957	 0.141656256337058 
958	 0.142486775279991 
959	 0.143302808654091 
960	 0.144183706291032 
961	 0.145032406290841 
962	 0.145854644362567 
963	 0.14671903750768 
964	 0.147595936323178 
965	 0.148523262332819 
966	 0.149471009295124 
967	 0.15037962547644 
968	 0.151287197062521 
969	 0.152292893566334 
970	 0.153309468422599 
971	 0.154193124938479 
972	 0.155292222355874 
973	 0.156340646204176 
974	 0.157304797565089 
975	 0.158331854075805 
976	 0.159432383608585 
977	 0.160565438039539 
978	 0.161627842138737 
979	 0.162539326170247 
980	 0.163515455646861 
981	 0.164572227869694 
982	 0.165627721218943 
983	 0.166610246012694 
984	 0.167783981608978 
985	 0.168969905959667 
986	 0.170061951572878 
987	 0.171074899891864 
988	 0.172281361979366 
989	 0.173456666807666 
990	 0.17451925322372 
991	 0.175536188997683 
992	 0.176787600376221 
993	 0.177890808365755 
994	 0.178977029417036 
995	 0.180271904118265 
996	 0.181315495987792 
997	 0.182535550176691 
998	 0.183816678676223 
999	 0.184922841257373 
1000	 0.186019472614344 
1001	 0.189135184945456 
1002	 0.190257602497564 
1003	 0.191379525426835 
1004	 0.192501711416652 
1005	 0.193673958091875 
1006	 0.194830054345859 
1007	 0.195991497821714 
1008	 0.197055151601727 
1009	 0.198181897568434 
1010	 0.199305887024861 
1011	 0.200382656175358 
1012	 0.201503715785095 
1013	 0.202620032251301 
1014	 0.20365128249538 
1015	 0.204624506918948 
1016	 0.20568420577884 
1017	 0.206731704947459 
1018	 0.207748054991098 
1019	 0.208781392639806 
1020	 0.209934609648114 
1021	 0.211016495399517 
1022	 0.212064249185116 
1023	 0.21307701460598 
1024	 0.214025555669338 
1025	 0.214995422898109 
1026	 0.215965085854381 
1027	 0.216933810025538 
1028	 0.21792152385762 
1029	 0.218868501918904 
1030	 0.219756055511078 
1031	 0.220695171787207 
1032	 0.221665584074082 
1033	 0.222666378549343 
1034	 0.223611057252111 
1035	 0.22455933825704 
1036	 0.225483613778183 
1037	 0.22635865362532 
1038	 0.227288496748749 
1039	 0.228254825983474 
1040	 0.229191101784594 
1041	 0.230121759787651 
1042	 0.231072009617803 
1043	 0.23200237711445 
1044	 0.232916002368083 
1045	 0.233836858688837 
1046	 0.234757870792779 
1047	 0.2356349371159 
1048	 0.236534437986255 
1049	 0.237445709382573 
1050	 0.23835709808709 
1051	 0.239289083340895 
1052	 0.240176056672107 
1053	 0.241068712435557 
1054	 0.24196117890103 
1055	 0.242849699382065 
1056	 0.243755520442695 
1057	 0.244621303314712 
1058	 0.245458751714409 
1059	 0.246319947051664 
1060	 0.247175066867513 
1061	 0.248003470416435 
1062	 0.248818169787969 
1063	 0.249655508997074 
1064	 0.250468892907904 
1065	 0.251265274727688 
1066	 0.252124270092641 
1067	 0.252967186848743 
1068	 0.253793778650546 
1069	 0.254649500612473 
1070	 0.255454144302946 
1071	 0.256193820638225 
1072	 0.256996482015786 
1073	 0.257799759807179 
1074	 0.25858801316193 
1075	 0.259378319023344 
1076	 0.260236451220531 
1077	 0.261020940853135 
1078	 0.261760487475475 
1079	 0.262519191459906 
1080	 0.263235948176732 
1081	 0.263951036032126 
1082	 0.264702910699213 
1083	 0.265473549891175 
1084	 0.266293009955202 
1085	 0.267059830835701 
1086	 0.267802630359383 
1087	 0.268573450712631 
1088	 0.269340002873303 
1089	 0.270075562467512 
1090	 0.270855997534139 
1091	 0.271663693955332 
1092	 0.272428042048327 
1093	 0.273232717249371 
1094	 0.27409055175896 
1095	 0.274892567786336 
1096	 0.275703659252602 
1097	 0.276532207112531 
1098	 0.277352025208024 
1099	 0.2781535075023 
1100	 0.278979195178837 
1101	 0.279822100840233 
1102	 0.280665378166059 
1103	 0.281496913463837 
1104	 0.282360721828543 
1105	 0.283285771795414 
1106	 0.284182108278306 
1107	 0.285096658078485 
1108	 0.286055504036203 
1109	 0.286988888357292 
1110	 0.287942364809448 
1111	 0.288916724329772 
1112	 0.289941813666747 
1113	 0.290912447292652 
1114	 0.291859647703792 
1115	 0.29283243965887 
1116	 0.293795746206306 
1117	 0.294773723487385 
1118	 0.295772022966966 
1119	 0.296771931645197 
1120	 0.297788927224025 
1121	 0.298780668400932 
1122	 0.299790241389446 
1123	 0.30080822579475 
1124	 0.301840050199259 
1125	 0.302877263860747 
1126	 0.303926600982965 
1127	 0.3050035392705 
1128	 0.30606067932295 
1129	 0.307106708585169 
1130	 0.308155944929343 
1131	 0.309204185671494 
1132	 0.310252702481762 
1133	 0.311312870302874 
1134	 0.312357704104734 
1135	 0.313400170050755 
1136	 0.314416349883841 
1137	 0.315450329948443 
1138	 0.316464432264105 
1139	 0.317474298464633 
1140	 0.318479024347295 
1141	 0.319493213345678 
1142	 0.320501525138137 
1143	 0.321505673612005 
1144	 0.322525240380127 
1145	 0.323516480033949 
1146	 0.324498613323906 
1147	 0.325459366477731 
1148	 0.32637907737271 
1149	 0.327328153465594 
1150	 0.328283882488845 
1151	 0.32923198172152 
1152	 0.330160077998706 
1153	 0.331095377000846 
1154	 0.332024507816489 
1155	 0.332929627869717 
1156	 0.333834990717458 
1157	 0.334774979369086 
1158	 0.335652408802089 
1159	 0.336472805850578 
1160	 0.337324819082994 
1161	 0.338168143309907 
1162	 0.339007829298513 
1163	 0.339873484101646 
1164	 0.340704421250774 
1165	 0.341499421643889 
1166	 0.342304602666911 
1167	 0.343125737546628 
1168	 0.343938921081595 
1169	 0.344743777013306 
1170	 0.345579942262347 
1171	 0.346344838503526 
1172	 0.347054744262531 
1173	 0.347794511607437 
1174	 0.348521310635429 
1175	 0.34924015543623 
1176	 0.349973088041636 
1177	 0.350685219498276 
1178	 0.351358330712535 
1179	 0.352053052988712 
1180	 0.352766941875346 
1181	 0.353460982054677 
1182	 0.354155298033318 
1183	 0.354847693060785 
1184	 0.355503032961622 
1185	 0.356131793183255 
1186	 0.356762436888592 
1187	 0.357370565206509 
1188	 0.357983407392407 
1189	 0.358600956971508 
1190	 0.359201055214907 
1191	 0.359794707165543 
1192	 0.360373321983482 
1193	 0.360935967022672 
1194	 0.361496252119046 
1195	 0.362047924050553 
1196	 0.362590280036788 
1197	 0.363129512573665 
1198	 0.363657507293698 
1199	 0.364175460121161 
1200	 0.3646824025851 
1201	 0.365180276502592 
1202	 0.365670899557923 
1203	 0.366149821361072 
1204	 0.366605816639394 
1205	 0.367081612674879 
1206	 0.367567045363517 
1207	 0.368032343490801 
1208	 0.368507682606214 
1209	 0.368957690500664 
1210	 0.369381735656175 
1211	 0.369802566631374 
1212	 0.370213635448342 
1213	 0.370618107534569 
1214	 0.371011075073033 
1215	 0.371399951362403 
1216	 0.371783314896465 
1217	 0.372156451929627 
1218	 0.372540269554662 
1219	 0.37292826370648 
1220	 0.373303686505403 
1221	 0.373692447194808 
1222	 0.374047802467231 
1223	 0.37438247834931 
1224	 0.374708297541756 
1225	 0.375011333281422 
1226	 0.375317190481499 
1227	 0.375611380685164 
1228	 0.375909051314407 
1229	 0.376203169102896 
1230	 0.376500486416143 
1231	 0.376812959014029 
1232	 0.377104145711024 
1233	 0.377386009438853 
1234	 0.377662004847043 
1235	 0.377932194162897 
1236	 0.378185052360577 
1237	 0.378443019601949 
1238	 0.378709228365752 
1239	 0.378957725191998 
1240	 0.379185162800266 
1241	 0.379429725948052 
1242	 0.379682844860729 
1243	 0.379919057256398 
1244	 0.38015701334045 
1245	 0.380388510644807 
1246	 0.380606871839782 
1247	 0.380818825736826 
1248	 0.381018283082759 
1249	 0.381234873924058 
1250	 0.38143873188524 
1251	 0.381633565343162 
1252	 0.38182528535875 
1253	 0.382023299167723 
1254	 0.382200077739933 
1255	 0.382355684509748 
1256	 0.382522257823027 
1257	 0.382687004856549 
1258	 0.382846945109204 
1259	 0.382994017779857 
1260	 0.38316174819123 
1261	 0.383352013982156 
1262	 0.383513399132014 
1263	 0.383682629703131 
1264	 0.383834301778448 
1265	 0.383933828929805 
1266	 0.384063793350097 
1267	 0.384203476280839 
1268	 0.38435526702539 
1269	 0.384500521125515 
1270	 0.38465565219124 
1271	 0.3848087640433 
1272	 0.384947215140984 
1273	 0.385115181202756 
1274	 0.385302554832391 
1275	 0.385487695004086 
1276	 0.38568613772147 
1277	 0.385884465634626 
1278	 0.386088504379205 
1279	 0.386288155815449 
1280	 0.386484699157969 
1281	 0.386689832866149 
1282	 0.386922886212513 
1283	 0.3871101047326 
1284	 0.387283957722314 
1285	 0.38745515672598 
1286	 0.387561892649813 
1287	 0.38764917815272 
1288	 0.387731647845604 
1289	 0.387790174698291 
1290	 0.387861289304856 
1291	 0.387935805487242 
1292	 0.387981345904202 
1293	 0.388035662562565 
1294	 0.388039003209399 
1295	 0.387998181152639 
1296	 0.38795474219433 
1297	 0.387882581687273 
1298	 0.387806194710318 
1299	 0.387718633516393 
1300	 0.38761915130451 
1301	 0.387495377556778 
1302	 0.387380355930907 
1303	 0.387264038185651 
1304	 0.387143550179045 
1305	 0.387015033073493 
1306	 0.386886853233046 
1307	 0.386736776439612 
1308	 0.386564981630305 
1309	 0.386406782255043 
1310	 0.386239095086589 
1311	 0.386090059661891 
1312	 0.38594131239863 
1313	 0.38581950184999 
1314	 0.385720647194349 
1315	 0.385618262660406 
1316	 0.385506176521217 
1317	 0.38544776642362 
1318	 0.385431267904537 
1319	 0.38539412541813 
1320	 0.385384946890967 
1321	 0.385375181489998 
1322	 0.38535604030732 
1323	 0.385316547928934 
1324	 0.385332268935828 
1325	 0.385378897500282 
1326	 0.385413664063368 
1327	 0.385470513377908 
1328	 0.385539671781418 
1329	 0.385606905611655 
1330	 0.385704550530227 
1331	 0.385824411082303 
1332	 0.385955649385602 
1333	 0.386104924699892 
1334	 0.386263569958436 
1335	 0.386432926151207 
1336	 0.386614709730168 
1337	 0.386819249657624 
1338	 0.387014990450949 
1339	 0.387221513990057 
1340	 0.387418296464161 
1341	 0.387614303404582 
1342	 0.387803431356843 
1343	 0.387987407750754 
1344	 0.388160736912125 
1345	 0.388356206892738 
1346	 0.388551513965931 
1347	 0.388751506838894 
1348	 0.388971381569003 
1349	 0.389170519289862 
1350	 0.389344342605044 
1351	 0.389528529229179 
1352	 0.389703373537787 
1353	 0.389895125179012 
1354	 0.390095540388641 
1355	 0.390292611828398 
1356	 0.390509684009172 
1357	 0.390696534454745 
1358	 0.390863256107375 
1359	 0.391041860022721 
1360	 0.391195479813096 
1361	 0.391379417920167 
1362	 0.391589840987281 
1363	 0.391788749900894 
1364	 0.392000773992388 
1365	 0.392204096594088 
1366	 0.392402349887832 
1367	 0.392590534844044 
1368	 0.392790581835444 
1369	 0.39298589674329 
1370	 0.393162988775091 
1371	 0.393322383539691 
1372	 0.393447781711914 
1373	 0.393569393472536 
1374	 0.393668133482792 
1375	 0.393750532820818 
1376	 0.393807951466743 
1377	 0.393843532850881 
1378	 0.393862811096154 
1379	 0.393857567988107 
1380	 0.393852158311544 
1381	 0.393826825414146 
1382	 0.393805423931437 
1383	 0.393793105453635 
1384	 0.393747750996094 
1385	 0.393720067655095 
1386	 0.393627308298045 
1387	 0.393490314967413 
1388	 0.393320512984561 
1389	 0.393108289138906 
1390	 0.392859182644435 
1391	 0.392595483560409 
1392	 0.392303223126894 
1393	 0.391973062608306 
1394	 0.391618238249659 
1395	 0.391203131198249 
1396	 0.390765954243835 
1397	 0.390323856190702 
1398	 0.389854700645104 
1399	 0.38937794326445 
1400	 0.388902962345566 
1401	 0.388391990362709 
1402	 0.387856458225103 
1403	 0.387305195681901 
1404	 0.386710491008929 
1405	 0.386146643871137 
1406	 0.385583762935045 
1407	 0.385013728794665 
1408	 0.384452384286465 
1409	 0.383889378210633 
1410	 0.383309358308745 
1411	 0.382745034706085 
1412	 0.382177734430918 
1413	 0.381637144010652 
1414	 0.381143846609421 
1415	 0.380637258694378 
1416	 0.380144267997296 
1417	 0.379709917505677 
1418	 0.379281779135964 
1419	 0.378876175748471 
1420	 0.378524000094875 
1421	 0.378182965811178 
1422	 0.377857181936565 
1423	 0.377550922107095 
1424	 0.377258012379746 
1425	 0.376990114897495 
1426	 0.376728329458096 
1427	 0.376463834712459 
1428	 0.376242111110084 
1429	 0.376052508712927 
1430	 0.375865343290256 
1431	 0.375713923209073 
1432	 0.375545159116622 
1433	 0.37536296404535 
1434	 0.375207558624149 
1435	 0.375049067526542 
1436	 0.374924017897017 
1437	 0.374834847827625 
1438	 0.374743339258554 
1439	 0.37466937567514 
1440	 0.374606856458874 
1441	 0.37452369273528 
1442	 0.374437259602165 
1443	 0.374344282097715 
1444	 0.374241241103837 
1445	 0.374156521703882 
1446	 0.374104296740654 
1447	 0.37407576285294 
1448	 0.374054653814319 
1449	 0.374034069261607 
1450	 0.374008647296402 
1451	 0.374012248095093 
1452	 0.374013958970122 
1453	 0.374065734821751 
1454	 0.374169010830887 
1455	 0.374250157910546 
1456	 0.374359806625397 
1457	 0.374441619608358 
1458	 0.374495196990086 
1459	 0.374578220882411 
1460	 0.374666382626529 
1461	 0.374762235400156 
1462	 0.374886397960432 
1463	 0.374988287681431 
1464	 0.375081575970022 
1465	 0.375171300746118 
1466	 0.375253543244009 
1467	 0.375336363163579 
1468	 0.375409229502123 
1469	 0.375492972579988 
1470	 0.375586829323488 
1471	 0.375665236971698 
1472	 0.375743038538318 
1473	 0.37584806778346 
1474	 0.375946889616127 
1475	 0.376064290325279 
1476	 0.376197461408112 
1477	 0.376331895768575 
1478	 0.376489350836458 
1479	 0.376624947476476 
1480	 0.376766327543674 
1481	 0.376930511704808 
1482	 0.37706628465161 
1483	 0.377182279522811 
1484	 0.377318785819831 
1485	 0.377451847293844 
1486	 0.37758644958919 
1487	 0.37772623986171 
1488	 0.377876538919228 
1489	 0.378036539785239 
1490	 0.378178533407313 
1491	 0.378334027455409 
1492	 0.378468388934563 
1493	 0.378558821996361 
1494	 0.378686090348493 
1495	 0.378838991106845 
1496	 0.378969958861704 
1497	 0.379106685260353 
1498	 0.379237431844022 
1499	 0.379343476888629 
1500	 0.379460668714734 
1501	 0.379589737995127 
1502	 0.379712247776444 
1503	 0.379830214752036 
1504	 0.379951762046047 
1505	 0.380077710145496 
1506	 0.380190407817745 
1507	 0.380293075954291 
1508	 0.380398955596768 
1509	 0.380488225666921 
1510	 0.380578581008053 
1511	 0.380681086372561 
1512	 0.380771656134663 
1513	 0.380890618437641 
1514	 0.381013054551598 
1515	 0.381112501994182 
1516	 0.3812341086132 
1517	 0.381338279573057 
1518	 0.381423720440918 
1519	 0.381513156866636 
1520	 0.381605824677273 
1521	 0.381691786834482 
1522	 0.381764554967549 
1523	 0.381854807423153 
1524	 0.38195423279991 
1525	 0.382046839163284 
1526	 0.382145768442006 
1527	 0.382234390854156 
1528	 0.382314451163464 
1529	 0.38239412722196 
1530	 0.382468123009588 
1531	 0.382549944547959 
1532	 0.382637351288784 
1533	 0.382716351175942 
1534	 0.382795565172855 
1535	 0.382868824900599 
1536	 0.382927352615504 
1537	 0.382999133218932 
1538	 0.383071725774481 
1539	 0.383153781516264 
1540	 0.38325876756338 
1541	 0.383341092738983 
1542	 0.38342436775444 
1543	 0.383493878593408 
1544	 0.383532178107192 
1545	 0.383585044000681 
1546	 0.383635633392311 
1547	 0.383692761063274 
1548	 0.383762766183101 
1549	 0.383832542767396 
1550	 0.38390819711531 
1551	 0.383973881828988 
1552	 0.384016900849398 
1553	 0.384067750974251 
1554	 0.384124647157591 
1555	 0.38418891731131 
1556	 0.384274353837727 
1557	 0.384354616928223 
1558	 0.384402280200566 
1559	 0.384456402350199 
1560	 0.384518158087708 
1561	 0.384574748061028 
1562	 0.38463083954725 
1563	 0.384700868462676 
1564	 0.384754870813493 
1565	 0.384783217968346 
1566	 0.384857027834839 
1567	 0.384955248949014 
1568	 0.385032845238643 
1569	 0.385138311350399 
1570	 0.385193761317542 
1571	 0.38521067778952 
1572	 0.385245836424994 
1573	 0.385263841814343 
1574	 0.38529529302472 
1575	 0.385334158211669 
1576	 0.385372675118783 
1577	 0.385418782638148 
1578	 0.385450472981832 
1579	 0.38548352470814 
1580	 0.385503436618218 
1581	 0.385496725850192 
1582	 0.385516602362941 
1583	 0.385530171118115 
1584	 0.385571327699679 
1585	 0.385634489796386 
1586	 0.385704867949811 
1587	 0.385812821112663 
1588	 0.385890099692149 
1589	 0.385975628678758 
1590	 0.386029996942318 
1591	 0.386046821002792 
1592	 0.386073439489353 
1593	 0.386073358798185 
1594	 0.386098734658287 
1595	 0.386145399223525 
1596	 0.386179524704218 
1597	 0.386222852994694 
1598	 0.3862626120514 
1599	 0.386286914675977 
1600	 0.386318781023629 
1601	 0.386365501768163 
1602	 0.386394088473933 
1603	 0.386411535384185 
1604	 0.386435598597556 
1605	 0.386448753556214 
1606	 0.38646791295505 
1607	 0.38649113086408 
1608	 0.386522558123324 
1609	 0.386558636879611 
1610	 0.386593306659196 
1611	 0.386596483751852 
1612	 0.386588217996529 
1613	 0.386568125548927 
1614	 0.386532397459516 
1615	 0.386531832307606 
1616	 0.38654190228612 
1617	 0.386567746976761 
1618	 0.38661568796797 
1619	 0.386641826368782 
1620	 0.386658586704309 
1621	 0.386664117264568 
1622	 0.386640380614892 
1623	 0.386638405898494 
1624	 0.386637515271245 
1625	 0.386654777108443 
1626	 0.386683695744783 
1627	 0.386703734309929 
1628	 0.386738134470365 
1629	 0.386756379612179 
1630	 0.386763764772644 
1631	 0.386763582649905 
1632	 0.386755775683274 
1633	 0.38675255713977 
1634	 0.386741083558257 
1635	 0.386733722630167 
1636	 0.386735661610831 
1637	 0.386726069666877 
1638	 0.386700477402241 
1639	 0.386695262872916 
1640	 0.386703243421773 
1641	 0.386694153329686 
1642	 0.386678882013262 
1643	 0.386682041654343 
1644	 0.386681971534117 
1645	 0.38668829256234 
1646	 0.38672072857862 
1647	 0.386729925242171 
1648	 0.386721596358839 
1649	 0.386724505724422 
1650	 0.386730973618667 
1651	 0.386732312409825 
1652	 0.386733303520027 
1653	 0.386731596602868 
1654	 0.386723575081861 
1655	 0.386722034634686 
1656	 0.386727612670375 
1657	 0.386719935415294 
1658	 0.386709271723921 
1659	 0.386695005552995 
1660	 0.386678798190521 
1661	 0.386643628252508 
1662	 0.386596732652909 
1663	 0.386551977989529 
1664	 0.386481621366215 
1665	 0.386437977896818 
1666	 0.386408687097095 
1667	 0.386382129395156 
1668	 0.386360759530442 
1669	 0.386350446598829 
1670	 0.386355132300284 
1671	 0.386352350166149 
1672	 0.386362867317955 
1673	 0.386354528937703 
1674	 0.386327802203161 
1675	 0.386315341099471 
1676	 0.386295767184701 
1677	 0.386291699133854 
1678	 0.386318153885064 
1679	 0.386306381324494 
1680	 0.386278101996279 
1681	 0.386258034816599 
1682	 0.38621221046912 
1683	 0.386191417257738 
1684	 0.38619092533282 
1685	 0.386187001864605 
1686	 0.386189385641356 
1687	 0.386186998215057 
1688	 0.386190770000566 
1689	 0.386186055347928 
1690	 0.386170972304634 
1691	 0.386162371443315 
1692	 0.386173755554435 
1693	 0.386139701766713 
1694	 0.386068966225049 
1695	 0.386032113559698 
1696	 0.385963383265838 
1697	 0.385945906935053 
1698	 0.385993210602285 
1699	 0.385999933077327 
1700	 0.386007938032644 
1701	 0.386006439643264 
1702	 0.385988262871052 
1703	 0.385973769852707 
1704	 0.385975016019555 
1705	 0.385935586448329 
1706	 0.385857411628576 
1707	 0.385818095557259 
1708	 0.385779277267733 
1709	 0.385728243012279 
1710	 0.385691762247344 
1711	 0.385650269428881 
1712	 0.385560123559368 
1713	 0.385546130212829 
1714	 0.38559884451546 
1715	 0.385608598112813 
1716	 0.385642566731403 
1717	 0.385640589877567 
1718	 0.385603633276076 
1719	 0.385570463656407 
1720	 0.385533002679118 
1721	 0.385485536609037 
1722	 0.38541969064043 
1723	 0.385364004349398 
1724	 0.385297123272391 
1725	 0.385257480773037 
1726	 0.385232245058734 
1727	 0.385209234707693 
1728	 0.38521775470755 
1729	 0.385181359695714 
1730	 0.385135379221195 
1731	 0.385064370262537 
1732	 0.384960767437315 
1733	 0.384864616339523 
1734	 0.38475993919216 
1735	 0.384632959357545 
1736	 0.384473557309627 
1737	 0.384367443400386 
1738	 0.384259776439688 
1739	 0.38418062964429 
1740	 0.384155440746013 
1741	 0.384099870512953 
1742	 0.384039731472671 
1743	 0.383976721550541 
1744	 0.383914575190028 
1745	 0.383839038637631 
1746	 0.383736767824976 
1747	 0.383697644948727 
1748	 0.383681872322318 
1749	 0.383697292874355 
1750	 0.383672384703372 
1751	 0.383580733512295 
1752	 0.383510055783543 
1753	 0.383451517922457 
1754	 0.383380152447427 
1755	 0.383331427945749 
1756	 0.383268702745073 
1757	 0.383196663761215 
1758	 0.38312523368672 
1759	 0.383054118822057 
1760	 0.38298343470335 
1761	 0.38287995786872 
1762	 0.382788114827953 
1763	 0.38272975933151 
1764	 0.382688138834847 
1765	 0.382674564623375 
1766	 0.382686508690077 
1767	 0.382683499095427 
1768	 0.382642238202926 
1769	 0.38260522096443 
1770	 0.382553694689961 
1771	 0.382482825180884 
1772	 0.382430373465128 
1773	 0.382357269700145 
1774	 0.382290206344493 
1775	 0.382236359809165 
1776	 0.382191797790969 
1777	 0.382172421823606 
1778	 0.382141667495779 
1779	 0.382140669251519 
1780	 0.382144718105836 
1781	 0.382141191251466 
1782	 0.382146629554508 
1783	 0.382098346548682 
1784	 0.382042067907182 
1785	 0.381937063778244 
1786	 0.381873545463974 
1787	 0.38182025184042 
1788	 0.381784137312722 
1789	 0.381785918362289 
1790	 0.3817781517207 
1791	 0.381761826543344 
1792	 0.381764361094561 
1793	 0.381795252369734 
1794	 0.381792734096615 
1795	 0.381787432327729 
1796	 0.381784678866701 
1797	 0.381743402023743 
1798	 0.381745937754954 
1799	 0.381793473690152 
1800	 0.381798128023411 
1801	 0.374676051854092 
1802	 0.374816974333441 
1803	 0.37496951435936 
1804	 0.375144505651785 
1805	 0.37532233632601 
1806	 0.375446938779564 
1807	 0.375570657144281 
1808	 0.37569373200218 
1809	 0.375828691802709 
1810	 0.375922303571067 
1811	 0.37601451991304 
1812	 0.376063720745098 
1813	 0.376078192296319 
1814	 0.376080229097261 
1815	 0.376067898236932 
1816	 0.376073478808873 
1817	 0.376080444286108 
1818	 0.376072737296385 
1819	 0.376090132194811 
1820	 0.376128790747188 
1821	 0.376159106881537 
1822	 0.376190923108206 
1823	 0.376231352809272 
1824	 0.37625859650783 
1825	 0.376274952659656 
1826	 0.376301508799212 
1827	 0.376336645665174 
1828	 0.376359992727932 
1829	 0.376386181353909 
1830	 0.376399267607066 
1831	 0.376416121377145 
1832	 0.37639514500304 
1833	 0.376340453641546 
1834	 0.37630574033871 
1835	 0.376259389019912 
1836	 0.376239700466862 
1837	 0.376223151753828 
1838	 0.376180509854493 
1839	 0.376181363136038 
1840	 0.376205728670228 
1841	 0.376205894742584 
1842	 0.37623349112599 
1843	 0.37629911539537 
1844	 0.376300512292289 
1845	 0.376284485228788 
1846	 0.376282440346051 
1847	 0.376265590557291 
1848	 0.376231173888813 
1849	 0.376220479153608 
1850	 0.37620614881388 
1851	 0.376186108726679 
1852	 0.376157390229312 
1853	 0.376181802313552 
1854	 0.376165474752563 
1855	 0.376114324735383 
1856	 0.376095849471773 
1857	 0.376019490432783 
1858	 0.375901993576082 
1859	 0.375791781463786 
1860	 0.375639771758617 
1861	 0.375447473166729 
1862	 0.375208248721013 
1863	 0.374966351726713 
1864	 0.374698394627178 
1865	 0.374399283437547 
1866	 0.374081745622128 
1867	 0.37375742081466 
1868	 0.373458841157671 
1869	 0.373156514493256 
1870	 0.372857161827635 
1871	 0.372530036850936 
1872	 0.372202291914683 
1873	 0.371832099896246 
1874	 0.371437758610689 
1875	 0.371016760248974 
1876	 0.370564492936717 
1877	 0.370048416714816 
1878	 0.369475337162111 
1879	 0.368844062055997 
1880	 0.368154231365121 
1881	 0.367404859992742 
1882	 0.366610388323853 
1883	 0.36577370523998 
1884	 0.364846562605958 
1885	 0.363856127303034 
1886	 0.362823914592652 
1887	 0.361693189898614 
1888	 0.360510376023866 
1889	 0.359267516409612 
1890	 0.357936655639906 
1891	 0.356570581923181 
1892	 0.355126828468755 
1893	 0.353657680172914 
1894	 0.352158702660821 
1895	 0.350610052923263 
1896	 0.348968652349619 
1897	 0.347293438737971 
1898	 0.345568465185232 
1899	 0.343840459190856 
1900	 0.342147626103948 
1901	 0.340465254934351 
1902	 0.338810288434017 
1903	 0.337173392441545 
1904	 0.335569113298206 
1905	 0.333979144917175 
1906	 0.332450125618175 
1907	 0.33094229576788 
1908	 0.329498906294475 
1909	 0.328131300516683 
1910	 0.326782671701991 
1911	 0.325516417545506 
1912	 0.324315627968529 
1913	 0.323167248505027 
1914	 0.322066740324488 
1915	 0.321045835769036 
1916	 0.320089693105779 
1917	 0.319180409988584 
1918	 0.318382996013505 
1919	 0.317637274809987 
1920	 0.316959117542209 
1921	 0.316384745115613 
1922	 0.31582568944767 
1923	 0.315304613088008 
1924	 0.314841322058566 
1925	 0.314418951488192 
1926	 0.314059181088476 
1927	 0.313755460136365 
1928	 0.313510006833578 
1929	 0.313320076836543 
1930	 0.313164385214026 
1931	 0.313042948894538 
1932	 0.312943210936242 
1933	 0.312861217960916 
1934	 0.312808059494071 
1935	 0.312781854174327 
1936	 0.312771447582536 
1937	 0.312804757716306 
1938	 0.312883032794304 
1939	 0.312973550793093 
1940	 0.313088454376374 
1941	 0.313233011820187 
1942	 0.313406406795428 
1943	 0.313604369409974 
1944	 0.313810405076046 
1945	 0.314061518998691 
1946	 0.314321049216611 
1947	 0.314585577298798 
1948	 0.314875147368335 
1949	 0.315219039339903 
1950	 0.315528399466507 
1951	 0.315822402379439 
1952	 0.316152247663084 
1953	 0.316479721721789 
1954	 0.316793139713397 
1955	 0.317113244932693 
1956	 0.317447548041928 
1957	 0.317792561905717 
1958	 0.31812973273945 
1959	 0.318486203251548 
1960	 0.318868924722499 
1961	 0.319256302276419 
1962	 0.319654237756869 
1963	 0.320058643289756 
1964	 0.320491291968636 
1965	 0.320898227541301 
1966	 0.321320325566451 
1967	 0.321698037645481 
1968	 0.322080945242754 
1969	 0.322445371413647 
1970	 0.322828637523216 
1971	 0.323208344078364 
1972	 0.323603575404786 
1973	 0.324026972251698 
1974	 0.324428016238396 
1975	 0.324826578951799 
1976	 0.325207428958739 
1977	 0.325608858957641 
1978	 0.326003700320584 
1979	 0.326400874095782 
1980	 0.326834928336732 
1981	 0.327262894108175 
1982	 0.327684413271719 
1983	 0.328122507494028 
1984	 0.328583796133496 
1985	 0.32903583531058 
1986	 0.329495906791076 
1987	 0.329950958444075 
1988	 0.330405924442376 
1989	 0.330861080446024 
1990	 0.331301795778011 
1991	 0.331736186740069 
1992	 0.332181502664981 
1993	 0.332630142634749 
1994	 0.33306745843384 
1995	 0.333513165960384 
1996	 0.333942925411897 
1997	 0.334346798839772 
1998	 0.334773679797326 
1999	 0.335208056969624 
2000	 0.335638683792295 
2001	 0.336080809396129 
2002	 0.336507166478494 
2003	 0.336952704683385 
2004	 0.337393628984927 
2005	 0.337825330772751 
2006	 0.338271907623742 
2007	 0.338691952239235 
2008	 0.33907791130234 
2009	 0.339483233524029 
2010	 0.339881669297574 
2011	 0.340290323230753 
2012	 0.340721465973317 
2013	 0.341131185149007 
2014	 0.341530522947164 
2015	 0.341933123906371 
2016	 0.342321771558924 
2017	 0.342725753044053 
2018	 0.343137069659163 
2019	 0.34357054148039 
2020	 0.343984620334611 
2021	 0.344409731630679 
2022	 0.344802991498921 
2023	 0.345179551712112 
2024	 0.345550762973787 
2025	 0.345888688415344 
2026	 0.34624215719837 
2027	 0.346612282620596 
2028	 0.346948749855451 
2029	 0.347304109220545 
2030	 0.347668631641799 
2031	 0.34802794608306 
2032	 0.348384207490783 
2033	 0.34874693478491 
2034	 0.349096276257413 
2035	 0.349477967744619 
2036	 0.349899055555869 
2037	 0.350283387257452 
2038	 0.350694802685187 
2039	 0.351056919456332 
2040	 0.351370462033421 
2041	 0.351678601314506 
2042	 0.351966173006669 
2043	 0.352271790168213 
2044	 0.352577766574321 
2045	 0.352903016618365 
2046	 0.353188765166676 
2047	 0.353460123682778 
2048	 0.353728126643183 
2049	 0.353957875532093 
2050	 0.35421903255325 
2051	 0.354490849531558 
2052	 0.35476881140868 
2053	 0.355068949484012 
2054	 0.355354297115849 
2055	 0.355635757533055 
2056	 0.355926826405709 
2057	 0.356196117697058 
2058	 0.35644317745014 
2059	 0.356706855513215 
2060	 0.356976999982771 
2061	 0.357228526943647 
2062	 0.357472517840374 
2063	 0.357723682140663 
2064	 0.35794784877526 
2065	 0.358203237872336 
2066	 0.358500654552042 
2067	 0.358768976133084 
2068	 0.359040718018568 
2069	 0.359299479697148 
2070	 0.35954684949498 
2071	 0.359769879355596 
2072	 0.360007592875594 
2073	 0.360249049828317 
2074	 0.360476866213562 
2075	 0.360690717199643 
2076	 0.360920842193318 
2077	 0.361149307617181 
2078	 0.361381566267051 
2079	 0.361628348194892 
2080	 0.361870104763042 
2081	 0.362115190749175 
2082	 0.36234582739304 
2083	 0.362569911180076 
2084	 0.362795512926271 
2085	 0.363013397640883 
2086	 0.363201427456884 
2087	 0.363439093673613 
2088	 0.363706756720338 
2089	 0.363949551446162 
2090	 0.364212040918497 
2091	 0.36445449273638 
2092	 0.364666029333958 
2093	 0.364896996067191 
2094	 0.365143685427221 
2095	 0.365374324377498 
2096	 0.365607791936493 
2097	 0.365825168756307 
2098	 0.366012251505548 
2099	 0.366221981869137 
2100	 0.366423799015516 
2101	 0.36661221307426 
2102	 0.366823773340636 
2103	 0.367040139001036 
2104	 0.367275610566492 
2105	 0.367518227473351 
2106	 0.367785687524202 
2107	 0.36809049030263 
2108	 0.36837572482575 
2109	 0.368687952139927 
2110	 0.368969384157178 
2111	 0.369219203602159 
2112	 0.369481319349307 
2113	 0.369733650991798 
2114	 0.369998389161914 
2115	 0.370239897981358 
2116	 0.370484711916032 
2117	 0.370706890234311 
2118	 0.370882927163273 
2119	 0.371115422596424 
2120	 0.37135789033488 
2121	 0.371617318115247 
2122	 0.371934441301898 
2123	 0.372198444275955 
2124	 0.372453032758501 
2125	 0.372691855622218 
2126	 0.3729153889981 
2127	 0.373112884708107 
2128	 0.373280386296177 
2129	 0.373450595081104 
2130	 0.373583437961068 
2131	 0.373741973809721 
2132	 0.373889264753038 
2133	 0.374058993963473 
2134	 0.37417576797588 
2135	 0.374271684796488 
2136	 0.374347302785066 
2137	 0.374392869296113 
2138	 0.374425031794084 
2139	 0.374437341449129 
2140	 0.3744390689571 
2141	 0.374410432829464 
2142	 0.374387330607879 
2143	 0.374349037582105 
2144	 0.374324571885368 
2145	 0.374337403067858 
2146	 0.374295172262656 
2147	 0.374230035628262 
2148	 0.374154087606151 
2149	 0.374060868783683 
2150	 0.373923665273783 
2151	 0.373792038149849 
2152	 0.373659822003924 
2153	 0.373518728788307 
2154	 0.373347174423946 
2155	 0.373195410981754 
2156	 0.373062871531402 
2157	 0.372909095570722 
2158	 0.372751953343383 
2159	 0.372580198746488 
2160	 0.372389194748969 
2161	 0.372201963329123 
2162	 0.37200636142997 
2163	 0.371810595520094 
2164	 0.371621831527712 
2165	 0.371420671242543 
2166	 0.371208259172661 
2167	 0.370981168197752 
2168	 0.370764605454246 
2169	 0.370543336189797 
2170	 0.370319719226512 
2171	 0.370103904775839 
2172	 0.369874204053056 
2173	 0.369616916960931 
2174	 0.36939058041077 
2175	 0.369184751470686 
2176	 0.368962793222505 
2177	 0.368743193085734 
2178	 0.368528115123613 
2179	 0.368274951035172 
2180	 0.368073100184716 
2181	 0.367921104202763 
2182	 0.367755116139943 
2183	 0.367620919167692 
2184	 0.367479997284501 
2185	 0.367298134864043 
2186	 0.367079089722598 
2187	 0.366883183803953 
2188	 0.366659822737155 
2189	 0.366472279255507 
2190	 0.366313549045146 
2191	 0.366147412615122 
2192	 0.365987940578044 
2193	 0.365826102359029 
2194	 0.36565655262938 
2195	 0.365502742900354 
2196	 0.365351452782719 
2197	 0.365218028764842 
2198	 0.365101034160834 
2199	 0.364996107971905 
2200	 0.364913736837199 
2201	 0.364824533407115 
2202	 0.364750553902328 
2203	 0.364661593108435 
2204	 0.364581057861463 
2205	 0.364494646297969 
2206	 0.364422978391137 
2207	 0.364359521250607 
2208	 0.364302005647055 
2209	 0.364255835155604 
2210	 0.364202829521521 
2211	 0.364163037650331 
2212	 0.364099013611158 
2213	 0.364014578094021 
2214	 0.363946811674463 
2215	 0.363860663892792 
2216	 0.363802762797713 
2217	 0.36376396173944 
2218	 0.363730514696288 
2219	 0.36372672168407 
2220	 0.363704137624121 
2221	 0.363651662633002 
2222	 0.36364943212258 
2223	 0.363656891365181 
2224	 0.363660814233161 
2225	 0.363674035588883 
2226	 0.363744351845983 
2227	 0.363713661041839 
2228	 0.363625836626333 
2229	 0.363564590083051 
2230	 0.363452350463085 
2231	 0.363388061718968 
2232	 0.363362036914872 
2233	 0.36332029430046 
2234	 0.363268097933271 
2235	 0.363244460365187 
2236	 0.363241027198128 
2237	 0.363229362033285 
2238	 0.363245036647756 
2239	 0.363232595152445 
2240	 0.363188472258072 
2241	 0.363165150879359 
2242	 0.36314843250953 
2243	 0.363124548015157 
2244	 0.363109737408907 
2245	 0.363090276953823 
2246	 0.363058660350554 
2247	 0.363012901978598 
2248	 0.362971020352088 
2249	 0.362928475998343 
2250	 0.362882373604218 
2251	 0.36281969806709 
2252	 0.362794506614602 
2253	 0.362790968766227 
2254	 0.362769160584245 
2255	 0.362750592122065 
2256	 0.362745924682455 
2257	 0.362720917777178 
2258	 0.362738119141751 
2259	 0.362820851640171 
2260	 0.362853955314914 
2261	 0.362881473163792 
2262	 0.362897754559795 
2263	 0.36286465143049 
2264	 0.362879385720488 
2265	 0.362924692117399 
2266	 0.362955753693606 
2267	 0.363014981302413 
2268	 0.363051001396186 
2269	 0.363065144878525 
2270	 0.363084684341961 
2271	 0.363085010336376 
2272	 0.363047573786753 
2273	 0.363005141159837 
2274	 0.362985198443813 
2275	 0.362947965274079 
2276	 0.362913901981966 
2277	 0.362872390199988 
2278	 0.362810007099336 
2279	 0.36276094831434 
2280	 0.362719466939108 
2281	 0.362689526356755 
2282	 0.362644150702043 
2283	 0.362647562433733 
2284	 0.362714507179683 
2285	 0.362715402234782 
2286	 0.362735240218377 
2287	 0.362703922637039 
2288	 0.362571398004058 
2289	 0.362511798707634 
2290	 0.362481154545971 
2291	 0.362436588706413 
2292	 0.362404529214059 
2293	 0.362383971197575 
2294	 0.362350289848809 
2295	 0.362330607459598 
2296	 0.362323614626074 
2297	 0.362349031038036 
2298	 0.362379647382482 
2299	 0.362416939710345 
2300	 0.362462297440648 
2301	 0.362448714391154 
2302	 0.362403317666913 
2303	 0.362362663489795 
2304	 0.362338177820231 
2305	 0.362347592177359 
2306	 0.362301982295991 
2307	 0.36223523574775 
2308	 0.362183003798585 
2309	 0.362107772812443 
2310	 0.362036564516903 
2311	 0.362010498031715 
2312	 0.361911893641015 
2313	 0.361752967884479 
2314	 0.361597012844047 
2315	 0.361382271596851 
2316	 0.361246177390498 
2317	 0.361125236645726 
2318	 0.361041917311526 
2319	 0.361045242116694 
2320	 0.360995386905143 
2321	 0.360934420693524 
2322	 0.360866163852125 
2323	 0.360773921351929 
2324	 0.360700143230076 
2325	 0.36065051212608 
2326	 0.36056916514234 
2327	 0.360473398274322 
2328	 0.360376314106842 
2329	 0.360258690421077 
2330	 0.36018475650067 
2331	 0.360147381197564 
2332	 0.360092630535824 
2333	 0.360029528052621 
2334	 0.360015380649742 
2335	 0.360006739784147 
2336	 0.359996255660245 
2337	 0.359968714320877 
2338	 0.359883976923388 
2339	 0.359761405989155 
2340	 0.35959381170176 
2341	 0.359433056853611 
2342	 0.359205678363052 
2343	 0.358945432454104 
2344	 0.358697691785231 
2345	 0.358488941730798 
2346	 0.358300171256218 
2347	 0.358124776929338 
2348	 0.358005961903331 
2349	 0.357848357867738 
2350	 0.357688817319835 
2351	 0.35750337428769 
2352	 0.357294189631588 
2353	 0.357060428644776 
2354	 0.356786707275925 
2355	 0.356519761996823 
2356	 0.356238435570301 
2357	 0.35598747028181 
2358	 0.355740059417296 
2359	 0.355510960789749 
2360	 0.355318928989696 
2361	 0.355094336669139 
2362	 0.354879706809614 
2363	 0.354625824186182 
2364	 0.354312452385329 
2365	 0.354037936414371 
2366	 0.353785935623258 
2367	 0.353499803596192 
2368	 0.353200114485951 
2369	 0.352931150227693 
2370	 0.35266825007201 
2371	 0.352355694910903 
2372	 0.35209629880266 
2373	 0.351792016591215 
2374	 0.351440770955539 
2375	 0.351103403485662 
2376	 0.35075617832602 
2377	 0.350426586581964 
2378	 0.350081204315499 
2379	 0.349702566145637 
2380	 0.349288977511549 
2381	 0.34894156221957 
2382	 0.348645754821252 
2383	 0.34836596027006 
2384	 0.348240655974001 
2385	 0.348026912885567 
2386	 0.347725350222952 
2387	 0.347459491204736 
2388	 0.347079878143774 
2389	 0.346724125943214 
2390	 0.346361403109217 
2391	 0.345989567358195 
2392	 0.345652937876494 
2393	 0.345287181943989 
2394	 0.344993764917365 
2395	 0.344733159027321 
2396	 0.344427169030587 
2397	 0.344147027063991 
2398	 0.343798789189492 
2399	 0.34332916003376 
2400	 0.342999065096965 
2401	 0.342617464460581 
2402	 0.342165239576623 
2403	 0.341941028884592 
2404	 0.341666320846708 
2405	 0.341375606308723 
2406	 0.34117248073623 
2407	 0.340851120998451 
2408	 0.340522326825599 
2409	 0.340183160646394 
2410	 0.339802194688004 
2411	 0.33949237633575 
2412	 0.339158954681964 
2413	 0.338785485923335 
2414	 0.338474026742441 
2415	 0.338182156158347 
2416	 0.337873403567112 
2417	 0.337593491873295 
2418	 0.337248915243342 
2419	 0.336829039768612 
2420	 0.336466677531326 
2421	 0.336074402091032 
2422	 0.335736106113574 
2423	 0.335513554968569 
2424	 0.335196340447997 
2425	 0.334870364678721 
2426	 0.33444154846061 
2427	 0.333866659861497 
2428	 0.333414852004458 
2429	 0.332935146430898 
2430	 0.332514961479232 
2431	 0.332223165524813 
2432	 0.331954601028807 
2433	 0.331699384673002 
2434	 0.331424687590479 
2435	 0.331155816904212 
2436	 0.330882876579707 
2437	 0.330650693776492 
2438	 0.330317380154859 
2439	 0.329985640211707 
2440	 0.329611453383639 
2441	 0.329049551370386 
2442	 0.32863197370211 
2443	 0.328356351399876 
2444	 0.32800813834495 
2445	 0.327661113178508 
2446	 0.327341911984323 
2447	 0.326983906527731 
2448	 0.32653028261876 
2449	 0.326037565563252 
2450	 0.325569778113131 
2451	 0.32504134511918 
2452	 0.324661048643263 
2453	 0.324426439469782 
2454	 0.324089347319584 
2455	 0.32375375304072 
2456	 0.323320392293243 
2457	 0.322733883918291 
2458	 0.322366588698132 
2459	 0.322093104242881 
2460	 0.321802828487791 
2461	 0.321690466235699 
2462	 0.321389624700629 
2463	 0.320876825899146 
2464	 0.320550763690427 
2465	 0.320274960322641 
2466	 0.319962106690405 
2467	 0.319756983314209 
2468	 0.319401198238936 
2469	 0.318844265678822 
2470	 0.318461465750549 
2471	 0.31827762211902 
2472	 0.318161758496738 
2473	 0.318142607968909 
2474	 0.318088515827981 
2475	 0.317767022433871 
2476	 0.317418874721991 
2477	 0.317160708789781 
2478	 0.316685511385787 
2479	 0.316271368077354 
2480	 0.315879196083541 
2481	 0.315353829505271 
2482	 0.315175366436866 
2483	 0.315022675546287 
2484	 0.314784017585383 
2485	 0.314501940622558 
2486	 0.313935283473449 
2487	 0.313572766590376 
2488	 0.313409864703898 
2489	 0.313163669976675 
2490	 0.312883896130573 
2491	 0.312564342826852 
2492	 0.312215067940445 
2493	 0.311893349807252 
2494	 0.311705976651768 
2495	 0.311513676515858 
2496	 0.311200857488193 
2497	 0.310937180004659 
2498	 0.310847725901297 
2499	 0.310777854045646 
2500	 0.310769421837424 
