Wavelength	LMW800018.asd
350	 4.68938976798225E-02 
351	 5.32896659022662E-02 
352	 0.054545146311367 
353	 4.92530967279984E-02 
354	 5.20702643085565E-02 
355	 5.27951776943483E-02 
356	 5.16811556244704E-02 
357	 5.16156037504898E-02 
358	 5.53078013116182E-02 
359	 5.60890876306072E-02 
360	 5.29063591264524E-02 
361	 4.88915826383071E-02 
362	 4.83756875259183E-02 
363	 4.98064484773608E-02 
364	 5.09816914897865E-02 
365	 4.98738442250172E-02 
366	 4.89179409379479E-02 
367	 5.08454228575997E-02 
368	 5.60256614147698E-02 
369	 5.64282846555707E-02 
370	 5.40177543343814E-02 
371	 5.19483092726072E-02 
372	 5.33290426503769E-02 
373	 5.35048686360567E-02 
374	 5.29478966189705E-02 
375	 5.27744311920274E-02 
376	 5.40621991369352E-02 
377	 5.41563472704353E-02 
378	 5.41932524240153E-02 
379	 5.56263649098158E-02 
380	 5.64282906359155E-02 
381	 5.46002821086779E-02 
382	 5.28600824082336E-02 
383	 5.65181271749206E-02 
384	 0.057023081031477 
385	 5.60024762553566E-02 
386	 5.58841342187564E-02 
387	 0.057897230339614 
388	 0.058038124918156 
389	 5.69086982060389E-02 
390	 5.64290645979053E-02 
391	 5.66862390898048E-02 
392	 5.71908719054205E-02 
393	 5.81447642790351E-02 
394	 6.01530649071957E-02 
395	 6.00365392385203E-02 
396	 5.86461697791781E-02 
397	 5.79519001886801E-02 
398	 6.13154915369472E-02 
399	 6.12925228412975E-02 
400	 6.03544304010471E-02 
401	 0.062864544823738 
402	 6.14527705571009E-02 
403	 5.99397846188549E-02 
404	 6.00623421323436E-02 
405	 6.07259870783548E-02 
406	 6.12874734183467E-02 
407	 6.14295583011616E-02 
408	 6.12335321967604E-02 
409	 6.15261331650788E-02 
410	 6.13136819491984E-02 
411	 6.10147091312893E-02 
412	 6.14516437027883E-02 
413	 6.12248697361374E-02 
414	 6.10401938965022E-02 
415	 6.14483971333343E-02 
416	 6.26042631585647E-02 
417	 6.24025960874088E-02 
418	 6.19873001076242E-02 
419	 0.062492928784644 
420	 6.21436284408676E-02 
421	 6.16533152252798E-02 
422	 6.13941431574839E-02 
423	 6.14411810031595E-02 
424	 6.15313058070218E-02 
425	 6.13444112621187E-02 
426	 6.08485723738011E-02 
427	 0.060458441371091 
428	 6.04578520131707E-02 
429	 6.06304543649328E-02 
430	 6.06723455793195E-02 
431	 6.08692552934658E-02 
432	 6.08145265921497E-02 
433	 6.05287159005183E-02 
434	 6.04595729262731E-02 
435	 0.061015482213261 
436	 6.12991436383487E-02 
437	 6.08280896773524E-02 
438	 6.08334605454109E-02 
439	 6.09525520690204E-02 
440	 6.11275930944292E-02 
441	 6.13930484679655E-02 
442	 6.13431914069413E-02 
443	 6.14251211534851E-02 
444	 0.061631671262876 
445	 6.11165789467605E-02 
446	 6.12684781215537E-02 
447	 6.18470385689558E-02 
448	 6.22205736185214E-02 
449	 6.23297866736184E-02 
450	 6.22756578751817E-02 
451	 6.22519183478333E-02 
452	 6.24868774153236E-02 
453	 6.25599157440434E-02 
454	 0.062443818599135 
455	 6.23473637290335E-02 
456	 6.29622427580896E-02 
457	 6.29746763048859E-02 
458	 6.27320438284409E-02 
459	 6.31472442079638E-02 
460	 6.31210495917688E-02 
461	 6.29706623732551E-02 
462	 6.29843907351692E-02 
463	 6.32336579941299E-02 
464	 6.33717307750536E-02 
465	 6.34536842669193E-02 
466	 6.36037182897354E-02 
467	 6.37288095706319E-02 
468	 6.37967769287575E-02 
469	 6.37343596028721E-02 
470	 6.34773347633898E-02 
471	 0.063641389145424 
472	 0.063893802499083 
473	 6.39078037526914E-02 
474	 6.37245235956777E-02 
475	 6.37553300258197E-02 
476	 6.39305120656573E-02 
477	 0.063978619406147 
478	 6.39421789812419E-02 
479	 6.39925552931429E-02 
480	 6.41477851714111E-02 
481	 6.42031188905459E-02 
482	 6.41906840665148E-02 
483	 6.42506979701969E-02 
484	 6.44538577548631E-02 
485	 6.44744177756203E-02 
486	 6.43882582136159E-02 
487	 6.43278314396896E-02 
488	 6.44386016624669E-02 
489	 6.43937871778519E-02 
490	 6.43853117553119E-02 
491	 6.45211446422419E-02 
492	 6.44895484478103E-02 
493	 6.43088051231758E-02 
494	 6.42224700289622E-02 
495	 6.44835564020102E-02 
496	 0.064497064544033 
497	 6.44238569673812E-02 
498	 0.06440837550481 
499	 6.44566600608195E-02 
500	 6.45387061135501E-02 
501	 6.45242750346758E-02 
502	 6.43470466370356E-02 
503	 6.43265770640663E-02 
504	 6.43300222335866E-02 
505	 6.42999072905989E-02 
506	 0.06426864323372 
507	 6.44255404848802E-02 
508	 6.45101830007345E-02 
509	 0.064360455179254 
510	 6.43004232590881E-02 
511	 6.42463837445568E-02 
512	 6.42028586696258E-02 
513	 6.42029306412729E-02 
514	 6.41298031460235E-02 
515	 6.41066541088215E-02 
516	 6.41988406031613E-02 
517	 6.43424862635023E-02 
518	 6.44182573645409E-02 
519	 6.43960946572285E-02 
520	 6.43035892604373E-02 
521	 6.42394923194434E-02 
522	 6.42389014713305E-02 
523	 6.42648898451621E-02 
524	 6.42149070649952E-02 
525	 0.064253805563247 
526	 6.43025140065056E-02 
527	 6.42898346193995E-02 
528	 6.43510217387171E-02 
529	 6.44008702534622E-02 
530	 0.064417574813625 
531	 6.44244641998383E-02 
532	 0.064439826243147 
533	 6.44817440561682E-02 
534	 6.45496107667108E-02 
535	 0.064615306112069 
536	 6.46186451070354E-02 
537	 6.46020365977326E-02 
538	 6.46353833200415E-02 
539	 0.064656099975322 
540	 6.46490625893506E-02 
541	 6.46573631872498E-02 
542	 6.47982511014401E-02 
543	 6.48500236507487E-02 
544	 6.48621736832063E-02 
545	 6.49278396107539E-02 
546	 6.49904420725273E-02 
547	 6.50424560250896E-02 
548	 6.50885226218116E-02 
549	 6.51420449604355E-02 
550	 0.065192314484236 
551	 6.52361806526701E-02 
552	 6.52865604030355E-02 
553	 6.54070908153562E-02 
554	 6.54476292143103E-02 
555	 6.54527747580406E-02 
556	 6.55566698784984E-02 
557	 6.56777289417342E-02 
558	 6.57966356274328E-02 
559	 6.59112850923871E-02 
560	 6.60403390931474E-02 
561	 6.61290153366808E-02 
562	 6.62085654291737E-02 
563	 6.63335308614471E-02 
564	 6.65018599023789E-02 
565	 0.06667960456363 
566	 6.68595260964847E-02 
567	 6.70666725971045E-02 
568	 6.72890109890264E-02 
569	 6.75310794627896E-02 
570	 6.77918052321498E-02 
571	 6.80404087730862E-02 
572	 6.82926978621662E-02 
573	 0.068573949439679 
574	 6.89050197218472E-02 
575	 6.91673092667072E-02 
576	 6.94430153296406E-02 
577	 6.97858485915944E-02 
578	 7.01145147286974E-02 
579	 7.04826557220994E-02 
580	 7.08939862853527E-02 
581	 7.13307697513802E-02 
582	 7.17794607539997E-02 
583	 7.22464186020633E-02 
584	 7.27311971409849E-02 
585	 7.32217312654166E-02 
586	 7.37527946764292E-02 
587	 7.42976740521153E-02 
588	 7.48268761696445E-02 
589	 7.53850892228339E-02 
590	 7.59724326714661E-02 
591	 7.65591389747876E-02 
592	 7.70958962746332E-02 
593	 0.077646899540294 
594	 7.82232535800057E-02 
595	 7.88303734341414E-02 
596	 7.95021089491334E-02 
597	 8.01544775622778E-02 
598	 8.07584274688904E-02 
599	 8.13282619291048E-02 
600	 8.19363330116015E-02 
601	 8.25641967084132E-02 
602	 8.31582070425991E-02 
603	 8.36170001027591E-02 
604	 0.084095210697218 
605	 0.084636140502247 
606	 8.52200320888138E-02 
607	 8.57311822949871E-02 
608	 8.62211730633756E-02 
609	 8.67279401902876E-02 
610	 8.72610555266982E-02 
611	 0.087724129161446 
612	 8.81647473525492E-02 
613	 8.86256576521539E-02 
614	 8.90110615741962E-02 
615	 8.93698964163365E-02 
616	 8.97169197389402E-02 
617	 9.00435081916261E-02 
618	 9.03925255203471E-02 
619	 9.06829010089957E-02 
620	 9.08984347859726E-02 
621	 9.12043910868646E-02 
622	 9.14775792707675E-02 
623	 9.17008554246245E-02 
624	 9.19041008349031E-02 
625	 9.21352471342855E-02 
626	 9.23512765597553E-02 
627	 9.25473531847174E-02 
628	 9.27788713972264E-02 
629	 9.30125705971352E-02 
630	 9.32326733688316E-02 
631	 9.34310327348943E-02 
632	 9.36102102893912E-02 
633	 9.37768871849864E-02 
634	 9.39389852057635E-02 
635	 0.094107241716134 
636	 0.094321345510784 
637	 0.094526570801781 
638	 9.46906396319668E-02 
639	 9.48777651458121E-02 
640	 0.095044862160792 
641	 9.52157285628891E-02 
642	 9.54316912124212E-02 
643	 9.56251297054878E-02 
644	 9.58015732481154E-02 
645	 9.59785113110816E-02 
646	 9.61797996087488E-02 
647	 9.63779783357597E-02 
648	 0.096582856156256 
649	 9.68056232243294E-02 
650	 9.70122074750891E-02 
651	 9.72531364948679E-02 
652	 9.75104573846004E-02 
653	 9.77116764298526E-02 
654	 0.097941165255168 
655	 9.81692668154115E-02 
656	 9.83768776549625E-02 
657	 9.86227795488107E-02 
658	 9.88747517031293E-02 
659	 9.91478613812918E-02 
660	 9.94624667792857E-02 
661	 9.97094960201514E-02 
662	 9.99890556430021E-02 
663	 0.100328447011954 
664	 0.100621259209074 
665	 0.100902525804884 
666	 0.101204411732196 
667	 0.101547398820368 
668	 0.101899425620482 
669	 0.102253072126646 
670	 0.102598715139762 
671	 0.102925460482225 
672	 0.10325536239161 
673	 0.103624984657212 
674	 0.104040609026854 
675	 0.104438305467891 
676	 0.104819197238085 
677	 0.105197559736669 
678	 0.105598854454652 
679	 0.106059555073754 
680	 0.106525743393859 
681	 0.106982750672136 
682	 0.10747900029808 
683	 0.107932449394801 
684	 0.108366176932618 
685	 0.108826270140255 
686	 0.109330448851758 
687	 0.1098673707079 
688	 0.110408869794962 
689	 0.110919832530358 
690	 0.111424298229462 
691	 0.111929827838123 
692	 0.112451208862075 
693	 0.113031194521703 
694	 0.113550221442745 
695	 0.114086328810433 
696	 0.114741773528276 
697	 0.115314413785953 
698	 0.115908810703001 
699	 0.116558432916989 
700	 0.117201699114891 
701	 0.117779228686191 
702	 0.118359084304349 
703	 0.118999459462697 
704	 0.11965487498646 
705	 0.120271253395346 
706	 0.120877236991902 
707	 0.121533616540643 
708	 0.122163585994939 
709	 0.12278573025812 
710	 0.123424697326581 
711	 0.124101091715598 
712	 0.124749921454345 
713	 0.125365646030378 
714	 0.125965558425163 
715	 0.126573895156266 
716	 0.127184692404064 
717	 0.127795175219964 
718	 0.128404025382653 
719	 0.129010449743374 
720	 0.129571894628275 
721	 0.130090434976274 
722	 0.130662275025816 
723	 0.131254626835011 
724	 0.131813176941049 
725	 0.13229995055835 
726	 0.132804207201958 
727	 0.133278290049156 
728	 0.133716220360558 
729	 0.134154604566528 
730	 0.134600048010235 
731	 0.134994156503367 
732	 0.135314384825195 
733	 0.135647691639621 
734	 0.135993514389875 
735	 0.136308895863484 
736	 0.136552201754549 
737	 0.136828482038466 
738	 0.137041740411239 
739	 0.137183847374118 
740	 0.137355116044126 
741	 0.137521345134878 
742	 0.137647312093669 
743	 0.137713212891344 
744	 0.137740808634384 
745	 0.137748099413189 
746	 0.137743668477328 
747	 0.137725362290627 
748	 0.137662093989915 
749	 0.137581950330468 
750	 0.137484312850071 
751	 0.137329189801834 
752	 0.137186475350508 
753	 0.137040674372759 
754	 0.136862801191412 
755	 0.136649064911172 
756	 0.13639312611254 
757	 0.136114864203747 
758	 0.135844755498775 
759	 0.135581682726481 
760	 0.135276182110784 
761	 0.134916832802167 
762	 0.134544558119423 
763	 0.134204509594223 
764	 0.13385493182092 
765	 0.133461121483804 
766	 0.13307339371106 
767	 0.132689725792562 
768	 0.13228564894434 
769	 0.131842512880671 
770	 0.131478825908928 
771	 0.131086468047561 
772	 0.130628113891602 
773	 0.130175190889622 
774	 0.129736684800022 
775	 0.129302894013003 
776	 0.12886542258314 
777	 0.128442065339596 
778	 0.127979525514668 
779	 0.127510196480958 
780	 0.127087947423133 
781	 0.126629620951467 
782	 0.126167299753427 
783	 0.125710534642918 
784	 0.125239150033461 
785	 0.124793522478687 
786	 0.124367078522634 
787	 0.123936006363235 
788	 0.123449342706757 
789	 0.123021494288233 
790	 0.12261374412166 
791	 0.122157556634267 
792	 0.121764264782544 
793	 0.121385357862649 
794	 0.120973248343517 
795	 0.120502828900197 
796	 0.120117142506044 
797	 0.119741726878002 
798	 0.119327377164013 
799	 0.118935488688373 
800	 0.118572686996272 
801	 0.118205742018827 
802	 0.117811077816319 
803	 0.117455939312781 
804	 0.117110908320626 
805	 0.116773961846443 
806	 0.116454746919423 
807	 0.116090179011036 
808	 0.115721452797627 
809	 0.115375025841039 
810	 0.115040843230648 
811	 0.114792654005401 
812	 0.114515490106135 
813	 0.114146672773476 
814	 0.1138828063863 
815	 0.113601973989719 
816	 0.113302908545148 
817	 0.113030275854756 
818	 0.112793826437366 
819	 0.112560887354996 
820	 0.112320726326862 
821	 0.11208231482928 
822	 0.11181851259128 
823	 0.11156748422766 
824	 0.111348852339011 
825	 0.111136554367956 
826	 0.11093015918466 
827	 0.110748378707877 
828	 0.1105952831863 
829	 0.110414856011336 
830	 0.110199491818438 
831	 0.109985299590119 
832	 0.109817219406055 
833	 0.109647584617693 
834	 0.109481010303952 
835	 0.109329771531074 
836	 0.109206096359268 
837	 0.109062753163941 
838	 0.108957750143686 
839	 0.108888712453887 
840	 0.108723253100936 
841	 0.108600121285461 
842	 0.108492755638608 
843	 0.108364581252067 
844	 0.10830213134919 
845	 0.10820685294372 
846	 0.108110879832397 
847	 0.108083001519094 
848	 0.108020786795154 
849	 0.107967762341106 
850	 0.107924360969272 
851	 0.10785312163551 
852	 0.107800956370513 
853	 0.10774211087748 
854	 0.107682673051756 
855	 0.107686654670085 
856	 0.107732081294287 
857	 0.107738346553922 
858	 0.107676914838021 
859	 0.107685554541181 
860	 0.107676185101702 
861	 0.107676156835133 
862	 0.107730885021357 
863	 0.10779094678885 
864	 0.107801244874512 
865	 0.107808072230819 
866	 0.107894311422978 
867	 0.107922346872738 
868	 0.10794624358741 
869	 0.107991575457599 
870	 0.108039276969962 
871	 0.10812847329439 
872	 0.108200249276263 
873	 0.10824338973971 
874	 0.108345560034974 
875	 0.108477212674624 
876	 0.108627495121802 
877	 0.10876891116561 
878	 0.108810279865801 
879	 0.108959245371146 
880	 0.109144754456973 
881	 0.109245238816384 
882	 0.109378482034168 
883	 0.109552350274554 
884	 0.109709136620245 
885	 0.10979384655673 
886	 0.109995081661776 
887	 0.110222872837133 
888	 0.110388047033155 
889	 0.110453186426137 
890	 0.110656046959571 
891	 0.110908987044636 
892	 0.111143972876721 
893	 0.111375859981985 
894	 0.111607423046529 
895	 0.111811339142352 
896	 0.112009128948668 
897	 0.112315463725652 
898	 0.112581568459266 
899	 0.112805679029926 
900	 0.113026914318995 
901	 0.113275775439561 
902	 0.113553942718967 
903	 0.113856490884775 
904	 0.114172881095926 
905	 0.114493395288391 
906	 0.114786348736039 
907	 0.115079276483929 
908	 0.115412133504555 
909	 0.115724648721351 
910	 0.11607546827104 
911	 0.116463477634468 
912	 0.11684411084488 
913	 0.117205274701642 
914	 0.117554966793942 
915	 0.117937551635815 
916	 0.118400236476408 
917	 0.118724203924304 
918	 0.119111447273492 
919	 0.119610797422078 
920	 0.120037671559146 
921	 0.120412744616155 
922	 0.120787530101761 
923	 0.121220312883608 
924	 0.121756971336281 
925	 0.12225482931232 
926	 0.122746577731823 
927	 0.123264141181288 
928	 0.123762659050989 
929	 0.12432863407136 
930	 0.124880690119715 
931	 0.125370470557399 
932	 0.125928411215335 
933	 0.12648971805283 
934	 0.127013553959837 
935	 0.127515486212022 
936	 0.128149184499857 
937	 0.128755649207368 
938	 0.129331594550045 
939	 0.129928018300818 
940	 0.130580119072149 
941	 0.131275443223082 
942	 0.131973970987966 
943	 0.132643233410302 
944	 0.133318933485266 
945	 0.1339953061376 
946	 0.134683085507528 
947	 0.135393077038997 
948	 0.13611312484641 
949	 0.136831295561234 
950	 0.137551473742964 
951	 0.138298149859972 
952	 0.139143579000832 
953	 0.139978418356491 
954	 0.140778529982765 
955	 0.141580523043112 
956	 0.142425930019129 
957	 0.143270632814653 
958	 0.144076472206237 
959	 0.144849014588831 
960	 0.145763819999868 
961	 0.146687418664081 
962	 0.147557039924681 
963	 0.148391619635816 
964	 0.149297251226044 
965	 0.150202364860696 
966	 0.151142204598593 
967	 0.152186897276826 
968	 0.153113868876243 
969	 0.154033818076899 
970	 0.154944118390384 
971	 0.155805815644545 
972	 0.156960665228723 
973	 0.158054180150662 
974	 0.159085229328566 
975	 0.160255307702263 
976	 0.161226649928612 
977	 0.16229108168787 
978	 0.163458504977527 
979	 0.16453250887938 
980	 0.165460931002863 
981	 0.166395184795357 
982	 0.167430096696112 
983	 0.168575792016219 
984	 0.169695901311379 
985	 0.170891616238344 
986	 0.172018791202331 
987	 0.172928329670694 
988	 0.17416401220522 
989	 0.175444126136661 
990	 0.176591854821253 
991	 0.17759637072247 
992	 0.17877754892105 
993	 0.179925359190947 
994	 0.181120298639385 
995	 0.182463331804084 
996	 0.183564999473834 
997	 0.184722165940123 
998	 0.185934918530953 
999	 0.18712528591718 
1000	 0.18843000351031 
1001	 0.191051128204919 
1002	 0.192199239261999 
1003	 0.193371067333789 
1004	 0.194540767617696 
1005	 0.195757968187597 
1006	 0.196888590071083 
1007	 0.197955785454888 
1008	 0.199083241795375 
1009	 0.200204169225065 
1010	 0.201322155142202 
1011	 0.202491458526258 
1012	 0.203619483112342 
1013	 0.204694634324516 
1014	 0.205758337747643 
1015	 0.206774096218355 
1016	 0.20782503167339 
1017	 0.208899281580358 
1018	 0.209999176369766 
1019	 0.211054677742982 
1020	 0.212122451724714 
1021	 0.213183883875506 
1022	 0.214196089358916 
1023	 0.215204318976686 
1024	 0.216224396431828 
1025	 0.217217387580651 
1026	 0.218191045079962 
1027	 0.219171004012525 
1028	 0.220170090293513 
1029	 0.221146959171692 
1030	 0.222092538543856 
1031	 0.22304116370855 
1032	 0.223983208551648 
1033	 0.224896958529718 
1034	 0.225828722367076 
1035	 0.22678406217655 
1036	 0.227735378129647 
1037	 0.22867874183969 
1038	 0.229617553582599 
1039	 0.230567309007039 
1040	 0.231525239202687 
1041	 0.232483247678673 
1042	 0.2334468037766 
1043	 0.234391629833154 
1044	 0.235330640139486 
1045	 0.236253533498671 
1046	 0.237206419277848 
1047	 0.238121223676053 
1048	 0.239048566696031 
1049	 0.239995617047086 
1050	 0.2409028666474 
1051	 0.241863651646382 
1052	 0.242813551050632 
1053	 0.243722583479179 
1054	 0.244617761597929 
1055	 0.245455508222925 
1056	 0.246298936666368 
1057	 0.247165729560492 
1058	 0.248042642793523 
1059	 0.248917751822518 
1060	 0.249831004282705 
1061	 0.250683271040898 
1062	 0.251471619572058 
1063	 0.252341951879692 
1064	 0.253189565757845 
1065	 0.254011215294624 
1066	 0.254887765256303 
1067	 0.255710589331387 
1068	 0.256485147036801 
1069	 0.257287860631374 
1070	 0.258090711117032 
1071	 0.258886787533355 
1072	 0.25968591206144 
1073	 0.260490063276622 
1074	 0.26129131231844 
1075	 0.262086482605746 
1076	 0.262887110165461 
1077	 0.263676117461642 
1078	 0.264422032021788 
1079	 0.265171242883937 
1080	 0.26591613819372 
1081	 0.266663154849144 
1082	 0.267447393181143 
1083	 0.268223614817113 
1084	 0.269018146790386 
1085	 0.269777774767989 
1086	 0.270499085138456 
1087	 0.271259387642753 
1088	 0.27201467649382 
1089	 0.272787460997018 
1090	 0.273585665904663 
1091	 0.274383795786477 
1092	 0.275138746375916 
1093	 0.275892555618735 
1094	 0.276684642898703 
1095	 0.277509475151657 
1096	 0.278377451455497 
1097	 0.27925399853856 
1098	 0.280110978783776 
1099	 0.280952231811408 
1100	 0.281811706533059 
1101	 0.282665130849467 
1102	 0.283536430079938 
1103	 0.284432182209872 
1104	 0.285318481241214 
1105	 0.286181569926736 
1106	 0.287106707547018 
1107	 0.288036924140116 
1108	 0.28897558435795 
1109	 0.289961088390801 
1110	 0.290895982643579 
1111	 0.291856925554732 
1112	 0.292818879091095 
1113	 0.293800517842409 
1114	 0.294815221400268 
1115	 0.295800037272295 
1116	 0.296762467350176 
1117	 0.297754314538541 
1118	 0.298739529055606 
1119	 0.299733977197683 
1120	 0.30079645494109 
1121	 0.301850617410104 
1122	 0.302870942136136 
1123	 0.303929793552466 
1124	 0.304994272830126 
1125	 0.306074517233226 
1126	 0.307115016137719 
1127	 0.308143464593962 
1128	 0.309197155543365 
1129	 0.310218644274085 
1130	 0.31127503083796 
1131	 0.312403088474709 
1132	 0.313475710248363 
1133	 0.314516070035897 
1134	 0.315564886261536 
1135	 0.316606714902355 
1136	 0.317632075158362 
1137	 0.318689054923204 
1138	 0.319716783446172 
1139	 0.320750271809278 
1140	 0.321794777735493 
1141	 0.32282039626468 
1142	 0.323831738841257 
1143	 0.324842887197697 
1144	 0.325843952866262 
1145	 0.326836325037257 
1146	 0.327833321703614 
1147	 0.3288080722223 
1148	 0.329760068138241 
1149	 0.330721533287664 
1150	 0.331670123242432 
1151	 0.332627404591253 
1152	 0.333587254563654 
1153	 0.334521631345454 
1154	 0.335460262067703 
1155	 0.336394523912598 
1156	 0.337312233539317 
1157	 0.338231391064675 
1158	 0.339128341196828 
1159	 0.340001137854856 
1160	 0.340872878936745 
1161	 0.341740285184081 
1162	 0.342594587309213 
1163	 0.343438101475567 
1164	 0.34427448549409 
1165	 0.345089744848763 
1166	 0.345922577080265 
1167	 0.346744021556877 
1168	 0.347578042757729 
1169	 0.348391061513467 
1170	 0.349209988425317 
1171	 0.349994045782981 
1172	 0.350759415297848 
1173	 0.351507585252454 
1174	 0.352221455508704 
1175	 0.352954973313914 
1176	 0.353691822917568 
1177	 0.354413865277058 
1178	 0.35513932191571 
1179	 0.355852444936709 
1180	 0.356544781768059 
1181	 0.357236970470246 
1182	 0.357927310528232 
1183	 0.358626149020896 
1184	 0.359287999537117 
1185	 0.359937490569347 
1186	 0.360568522660341 
1187	 0.361158956977883 
1188	 0.361781829631458 
1189	 0.362417912783339 
1190	 0.363027514545195 
1191	 0.36364929809553 
1192	 0.364240520906148 
1193	 0.364803516663775 
1194	 0.365357116318971 
1195	 0.365888377155813 
1196	 0.366423536920859 
1197	 0.366944241697853 
1198	 0.367465722640646 
1199	 0.36798691849655 
1200	 0.368521853949017 
1201	 0.369022104915671 
1202	 0.369507169787715 
1203	 0.369987639676627 
1204	 0.370439563210937 
1205	 0.370916069436035 
1206	 0.371398835926584 
1207	 0.371880842100778 
1208	 0.372395923104244 
1209	 0.372859345510552 
1210	 0.373298019281081 
1211	 0.373732083143999 
1212	 0.374130979237039 
1213	 0.374535511831783 
1214	 0.374952894140493 
1215	 0.375348496940866 
1216	 0.375730966027392 
1217	 0.376095815454457 
1218	 0.376465275804707 
1219	 0.376817877352169 
1220	 0.377186908450801 
1221	 0.377573200175568 
1222	 0.377933223183394 
1223	 0.378293756743311 
1224	 0.378636061737976 
1225	 0.378947494972527 
1226	 0.379274990029074 
1227	 0.379614269603791 
1228	 0.379929865871026 
1229	 0.380238500730716 
1230	 0.380541505996945 
1231	 0.38081898498033 
1232	 0.381104433297578 
1233	 0.381391257704242 
1234	 0.381685668227669 
1235	 0.38196579050387 
1236	 0.3822461979163 
1237	 0.382509486340082 
1238	 0.382759466205576 
1239	 0.383009335490218 
1240	 0.38325506124874 
1241	 0.383487257786691 
1242	 0.38371359026932 
1243	 0.383931361082644 
1244	 0.384116228553746 
1245	 0.384329205554183 
1246	 0.384565769509724 
1247	 0.384780837333674 
1248	 0.384978055228662 
1249	 0.38521274930014 
1250	 0.385433536488431 
1251	 0.385625208623089 
1252	 0.385817870966616 
1253	 0.386016076380741 
1254	 0.386199052445925 
1255	 0.386345530458364 
1256	 0.386531703963718 
1257	 0.386748660765597 
1258	 0.386932999927598 
1259	 0.387122699816984 
1260	 0.387297270360146 
1261	 0.387450681311855 
1262	 0.387596357308329 
1263	 0.387731107607 
1264	 0.387867848703755 
1265	 0.387976147262603 
1266	 0.388110001519572 
1267	 0.38825993447138 
1268	 0.388413875538333 
1269	 0.388575921022784 
1270	 0.38875588906232 
1271	 0.388918243458932 
1272	 0.389070324008067 
1273	 0.389247819031069 
1274	 0.389430580517368 
1275	 0.389620324919785 
1276	 0.389828417811613 
1277	 0.390034493264994 
1278	 0.390245095018849 
1279	 0.390447742856705 
1280	 0.390662177282499 
1281	 0.390864245422922 
1282	 0.391054631433899 
1283	 0.391236995911079 
1284	 0.391423949841164 
1285	 0.39159374706643 
1286	 0.391708087319263 
1287	 0.39183358022145 
1288	 0.391931142195613 
1289	 0.391993604795885 
1290	 0.392054667809777 
1291	 0.39211541927191 
1292	 0.392143514870121 
1293	 0.392145275518218 
1294	 0.392138180914178 
1295	 0.392119352976938 
1296	 0.39207310108635 
1297	 0.392002422109468 
1298	 0.391922472165657 
1299	 0.391821371196912 
1300	 0.391706872704207 
1301	 0.391568367841577 
1302	 0.391439018668043 
1303	 0.391302790748778 
1304	 0.391158877518053 
1305	 0.391019736187779 
1306	 0.390865144057769 
1307	 0.390685931861149 
1308	 0.390490154930768 
1309	 0.390319636090938 
1310	 0.390148731620367 
1311	 0.389997608112471 
1312	 0.389859392081989 
1313	 0.389735917310276 
1314	 0.389628583599364 
1315	 0.389519809767621 
1316	 0.389402773771142 
1317	 0.389336455823557 
1318	 0.389293733398484 
1319	 0.389260928171462 
1320	 0.389285099611469 
1321	 0.389283182553001 
1322	 0.389262632963171 
1323	 0.389251802481343 
1324	 0.389274654873158 
1325	 0.389314936292464 
1326	 0.389383200275738 
1327	 0.389469503386936 
1328	 0.389532913201121 
1329	 0.38960002894372 
1330	 0.389698009019523 
1331	 0.38979801478742 
1332	 0.389933649492398 
1333	 0.390115590619407 
1334	 0.390277716489747 
1335	 0.3904529439329 
1336	 0.390625275809325 
1337	 0.390773384998336 
1338	 0.390963934073633 
1339	 0.391184967424013 
1340	 0.391395835482075 
1341	 0.391637685639963 
1342	 0.391860255557064 
1343	 0.392071837376329 
1344	 0.392273504094486 
1345	 0.3924768799925 
1346	 0.392690901176638 
1347	 0.392901341810181 
1348	 0.393112168538832 
1349	 0.393315283878945 
1350	 0.393502700957879 
1351	 0.393703424042114 
1352	 0.39389375298646 
1353	 0.394107867217647 
1354	 0.394353642781179 
1355	 0.394566297586066 
1356	 0.394783177557516 
1357	 0.394980291181659 
1358	 0.395144006411999 
1359	 0.395326142230961 
1360	 0.395497758598475 
1361	 0.395691725387634 
1362	 0.395898415929454 
1363	 0.396105193010543 
1364	 0.3963389030213 
1365	 0.396555470819422 
1366	 0.39675984273614 
1367	 0.39696832987068 
1368	 0.397193803982073 
1369	 0.397375744083586 
1370	 0.397560320342241 
1371	 0.397754923986077 
1372	 0.397902490693435 
1373	 0.398037150580907 
1374	 0.398151015958228 
1375	 0.398250173930499 
1376	 0.398306779302078 
1377	 0.398342643764749 
1378	 0.398347283785652 
1379	 0.398292213762194 
1380	 0.39826521687235 
1381	 0.39821925231413 
1382	 0.398188490805544 
1383	 0.398186596803315 
1384	 0.398145905935032 
1385	 0.398123574807998 
1386	 0.398037890221775 
1387	 0.397912661062356 
1388	 0.39775957718797 
1389	 0.39756876366212 
1390	 0.39733699850509 
1391	 0.397100488127596 
1392	 0.39681117854049 
1393	 0.396496780726626 
1394	 0.396150989630495 
1395	 0.395752095770081 
1396	 0.395336596270653 
1397	 0.39489200692405 
1398	 0.394403686880843 
1399	 0.393920403656362 
1400	 0.393424130947168 
1401	 0.392909819688841 
1402	 0.392395808403751 
1403	 0.391841093923706 
1404	 0.391235036289036 
1405	 0.390658579367444 
1406	 0.390066312535285 
1407	 0.389480910735916 
1408	 0.388912433699304 
1409	 0.388337544903585 
1410	 0.387741456030551 
1411	 0.387171581690835 
1412	 0.38659843698993 
1413	 0.386065606920642 
1414	 0.385580935358351 
1415	 0.385096571421971 
1416	 0.384626106679224 
1417	 0.384183635159775 
1418	 0.383728189579074 
1419	 0.383284148815194 
1420	 0.382895959015677 
1421	 0.382534548746862 
1422	 0.382215433456512 
1423	 0.38193434660652 
1424	 0.381648000670407 
1425	 0.381393355547106 
1426	 0.381116581058122 
1427	 0.380811643018274 
1428	 0.380567273436524 
1429	 0.380339694193636 
1430	 0.380141238365297 
1431	 0.379994554020756 
1432	 0.379833904546561 
1433	 0.379684481865683 
1434	 0.379536216058879 
1435	 0.379383993414637 
1436	 0.379258499889889 
1437	 0.379142132217918 
1438	 0.379039465762678 
1439	 0.378965828973216 
1440	 0.378890352138515 
1441	 0.378805363979696 
1442	 0.378720610371411 
1443	 0.378627855299564 
1444	 0.378534106912951 
1445	 0.37845864033383 
1446	 0.378422876493873 
1447	 0.378407928299095 
1448	 0.378404152338216 
1449	 0.378398913638033 
1450	 0.378382871281926 
1451	 0.378380503117378 
1452	 0.378361886252306 
1453	 0.378402329625691 
1454	 0.378474175071662 
1455	 0.378549893173822 
1456	 0.378671845369868 
1457	 0.378767387517473 
1458	 0.378855253791977 
1459	 0.378947766879929 
1460	 0.379038971991258 
1461	 0.379134898940811 
1462	 0.379233019368944 
1463	 0.379337355160606 
1464	 0.379458009648617 
1465	 0.37955549415889 
1466	 0.379648062939444 
1467	 0.379734032652685 
1468	 0.379794259394596 
1469	 0.379872244779833 
1470	 0.379957377036537 
1471	 0.380037025422696 
1472	 0.380123768927089 
1473	 0.380231111941201 
1474	 0.380344520862345 
1475	 0.380469380800893 
1476	 0.380592068326593 
1477	 0.380700055498596 
1478	 0.38085643843138 
1479	 0.381008006008658 
1480	 0.381154758466978 
1481	 0.381331040447279 
1482	 0.381456083110889 
1483	 0.381524002034497 
1484	 0.381642756031326 
1485	 0.381760504674064 
1486	 0.381897206657895 
1487	 0.382058304767887 
1488	 0.382217253232007 
1489	 0.382387245523757 
1490	 0.382541820201523 
1491	 0.382710866378323 
1492	 0.382860828393743 
1493	 0.382977878466479 
1494	 0.383122042465551 
1495	 0.383280000405066 
1496	 0.383417369816614 
1497	 0.383560820279445 
1498	 0.38369570536331 
1499	 0.383816181269092 
1500	 0.383929952783874 
1501	 0.384033783184852 
1502	 0.384140553717232 
1503	 0.384237223763812 
1504	 0.384336804778647 
1505	 0.384439001763057 
1506	 0.384559066053332 
1507	 0.384679238619032 
1508	 0.384780155507711 
1509	 0.384889365942534 
1510	 0.384999172899747 
1511	 0.385078749562059 
1512	 0.385175781895164 
1513	 0.385307267900388 
1514	 0.385424400645252 
1515	 0.385567372203416 
1516	 0.38572548958828 
1517	 0.385835991212177 
1518	 0.385916837951252 
1519	 0.385995762991684 
1520	 0.386045386918281 
1521	 0.386108280107049 
1522	 0.386158122351774 
1523	 0.386239314330302 
1524	 0.386335958343205 
1525	 0.386431235213561 
1526	 0.386543404988225 
1527	 0.386653215726045 
1528	 0.386770251821769 
1529	 0.386866209127263 
1530	 0.386956939218713 
1531	 0.387048684638393 
1532	 0.387114231824294 
1533	 0.387205598494548 
1534	 0.38733292148803 
1535	 0.387423721917143 
1536	 0.387500923513499 
1537	 0.387582481229644 
1538	 0.387644165356516 
1539	 0.387709990491664 
1540	 0.387782192487086 
1541	 0.387853216440454 
1542	 0.3879258811083 
1543	 0.387988987554595 
1544	 0.38805741866602 
1545	 0.388110384280603 
1546	 0.388130075860226 
1547	 0.388172036026459 
1548	 0.388232314100142 
1549	 0.388295401272874 
1550	 0.388390756219129 
1551	 0.388476228452557 
1552	 0.388543995266209 
1553	 0.388606019753412 
1554	 0.388646763390334 
1555	 0.388690126951103 
1556	 0.388756994224862 
1557	 0.388817180373214 
1558	 0.388881512692492 
1559	 0.388958870346969 
1560	 0.389009205380346 
1561	 0.389036337536473 
1562	 0.389077999559611 
1563	 0.389106817104048 
1564	 0.389156041828207 
1565	 0.389217093886025 
1566	 0.389284736389366 
1567	 0.389363358757027 
1568	 0.389446167006609 
1569	 0.389545687930113 
1570	 0.389614491918127 
1571	 0.389683523583954 
1572	 0.389738128440181 
1573	 0.389761489530138 
1574	 0.38980417619731 
1575	 0.3898528969485 
1576	 0.389887345703448 
1577	 0.389919339262598 
1578	 0.389948630112914 
1579	 0.389971411908645 
1580	 0.389994046143401 
1581	 0.39001642902142 
1582	 0.39003331040514 
1583	 0.390026034803465 
1584	 0.390051164287985 
1585	 0.390091490232601 
1586	 0.39013349404249 
1587	 0.390197442008257 
1588	 0.390257534536229 
1589	 0.390321259511383 
1590	 0.390374604004579 
1591	 0.390442876082496 
1592	 0.390484797440888 
1593	 0.390489758019511 
1594	 0.390516181571226 
1595	 0.39053360404567 
1596	 0.390561949062715 
1597	 0.390602063867994 
1598	 0.390651394359133 
1599	 0.39071683076411 
1600	 0.390770520911058 
1601	 0.390845519881493 
1602	 0.390891457367089 
1603	 0.390899308119372 
1604	 0.390923832041826 
1605	 0.390933771259844 
1606	 0.390958351360398 
1607	 0.390999094462323 
1608	 0.391053664079513 
1609	 0.391073691038005 
1610	 0.391079316645873 
1611	 0.3910678145033 
1612	 0.391052250028567 
1613	 0.391057733108328 
1614	 0.391075909022419 
1615	 0.391118354460922 
1616	 0.39116055515155 
1617	 0.391210457056316 
1618	 0.391258193915018 
1619	 0.391271484662743 
1620	 0.391293737509398 
1621	 0.39130539481046 
1622	 0.391304434454982 
1623	 0.391309878158648 
1624	 0.391315378678029 
1625	 0.391315245495631 
1626	 0.391306135255495 
1627	 0.391316814985584 
1628	 0.391334890562876 
1629	 0.391349350243748 
1630	 0.391381072578088 
1631	 0.391387885894597 
1632	 0.391374046048951 
1633	 0.391376892037466 
1634	 0.391381605898266 
1635	 0.391379620414823 
1636	 0.391383115785421 
1637	 0.391376496873129 
1638	 0.391357304336272 
1639	 0.391342775776616 
1640	 0.391327793896709 
1641	 0.391314525887222 
1642	 0.391300658302499 
1643	 0.391285456570119 
1644	 0.391264197231169 
1645	 0.391261983443486 
1646	 0.39127057084187 
1647	 0.391267454824502 
1648	 0.391275031634725 
1649	 0.391273599801955 
1650	 0.391250628204704 
1651	 0.391251749361663 
1652	 0.391271881463774 
1653	 0.391276839517827 
1654	 0.391281094806122 
1655	 0.391287039767852 
1656	 0.391295326924584 
1657	 0.391285679330648 
1658	 0.391274562598852 
1659	 0.391252048869684 
1660	 0.391203072641332 
1661	 0.391171306508701 
1662	 0.39114290229881 
1663	 0.391116386906727 
1664	 0.391092234120323 
1665	 0.391070118876852 
1666	 0.391053074042076 
1667	 0.39103202444417 
1668	 0.391000737172537 
1669	 0.390993823162334 
1670	 0.391006115180355 
1671	 0.39099901108539 
1672	 0.39101159660569 
1673	 0.390989721338413 
1674	 0.390926046532627 
1675	 0.390890311449796 
1676	 0.390835923499988 
1677	 0.390828140523623 
1678	 0.390861521192544 
1679	 0.390873344184352 
1680	 0.39092026434108 
1681	 0.390917689566068 
1682	 0.390874272099817 
1683	 0.390847916297139 
1684	 0.390810283183482 
1685	 0.390774216261353 
1686	 0.390735896007727 
1687	 0.390708776873573 
1688	 0.390672748308671 
1689	 0.390656906591913 
1690	 0.390667914525209 
1691	 0.390667790149603 
1692	 0.390678648401069 
1693	 0.390671640460185 
1694	 0.390649805402331 
1695	 0.390637495821646 
1696	 0.390617334569478 
1697	 0.390604760548028 
1698	 0.390600968018905 
1699	 0.390597477965806 
1700	 0.39058394278207 
1701	 0.39059970119397 
1702	 0.390669634109188 
1703	 0.390653537154889 
1704	 0.390614435734129 
1705	 0.390564263288177 
1706	 0.390422255613852 
1707	 0.390370102771569 
1708	 0.390382742138122 
1709	 0.390344347280003 
1710	 0.390303649435588 
1711	 0.390274823976761 
1712	 0.390210275065551 
1713	 0.390201283510772 
1714	 0.390255701934441 
1715	 0.390261830096548 
1716	 0.390273169782766 
1717	 0.390262143779138 
1718	 0.390215320305109 
1719	 0.390187101957516 
1720	 0.390167327918738 
1721	 0.390128915454733 
1722	 0.390078696790147 
1723	 0.39004270553879 
1724	 0.389999345744363 
1725	 0.389957658289014 
1726	 0.389931205202094 
1727	 0.389894963182948 
1728	 0.38985972216329 
1729	 0.389795894958399 
1730	 0.389716115134947 
1731	 0.389644125566394 
1732	 0.389551557492589 
1733	 0.389462351251112 
1734	 0.389391762148048 
1735	 0.389293523835987 
1736	 0.389163759539396 
1737	 0.389063016469497 
1738	 0.388957500252562 
1739	 0.388878191015845 
1740	 0.388813981229155 
1741	 0.388760045477493 
1742	 0.388746591257667 
1743	 0.388692132508447 
1744	 0.388622607863754 
1745	 0.388558249163311 
1746	 0.388455575729503 
1747	 0.388410421978398 
1748	 0.388433208738045 
1749	 0.388435283741279 
1750	 0.38841271883589 
1751	 0.388355992630264 
1752	 0.388241725657598 
1753	 0.388125780462306 
1754	 0.388006052867578 
1755	 0.38791248588935 
1756	 0.387850570104585 
1757	 0.387773099603628 
1758	 0.387733488941853 
1759	 0.387698263863059 
1760	 0.387635233390168 
1761	 0.387593470725922 
1762	 0.387548523264024 
1763	 0.387469692015159 
1764	 0.387387724097772 
1765	 0.387331438426623 
1766	 0.387301001981781 
1767	 0.387297628993808 
1768	 0.387294236788042 
1769	 0.387266633028443 
1770	 0.387204963191811 
1771	 0.387102438436835 
1772	 0.387006082855291 
1773	 0.386918303771667 
1774	 0.386821680605038 
1775	 0.386763906204304 
1776	 0.386746247396715 
1777	 0.386753927570553 
1778	 0.386787272898484 
1779	 0.386818290082005 
1780	 0.386804841502807 
1781	 0.386798945039032 
1782	 0.386802141997149 
1783	 0.386764743479872 
1784	 0.386729490735146 
1785	 0.386638444865593 
1786	 0.386573693155927 
1787	 0.386530270810301 
1788	 0.386489865447084 
1789	 0.386446560942832 
1790	 0.386432573433631 
1791	 0.386449403851107 
1792	 0.386450910081438 
1793	 0.38646963409533 
1794	 0.386471049920948 
1795	 0.386468142219609 
1796	 0.386434925225306 
1797	 0.386349217374973 
1798	 0.386333444143888 
1799	 0.3863245473295 
1800	 0.386343482705422 
1801	 0.379044194643472 
1802	 0.379150060165952 
1803	 0.379298409021985 
1804	 0.379441607250659 
1805	 0.379569737036165 
1806	 0.379738631830037 
1807	 0.379912140922582 
1808	 0.380044114279548 
1809	 0.380178520957572 
1810	 0.380278287868043 
1811	 0.380349813673181 
1812	 0.380376731533164 
1813	 0.38042137011813 
1814	 0.380439371758542 
1815	 0.380435072280836 
1816	 0.380473727486526 
1817	 0.380497284356127 
1818	 0.38049911226317 
1819	 0.380525191554285 
1820	 0.380578038005036 
1821	 0.38060393344957 
1822	 0.380609597017291 
1823	 0.380641623982439 
1824	 0.380651010088249 
1825	 0.380640163514935 
1826	 0.380677080579527 
1827	 0.380710200269799 
1828	 0.380730900475704 
1829	 0.380772346718897 
1830	 0.380778521429976 
1831	 0.380755149561801 
1832	 0.380742099691372 
1833	 0.38069465686597 
1834	 0.38062633849619 
1835	 0.380582081723023 
1836	 0.380532719270104 
1837	 0.380500445495315 
1838	 0.380506884445555 
1839	 0.380524051079297 
1840	 0.380569894010521 
1841	 0.380582247441775 
1842	 0.380606297474008 
1843	 0.380652834786239 
1844	 0.380644764586806 
1845	 0.380630478570348 
1846	 0.380613492048654 
1847	 0.380562490570196 
1848	 0.38048543137428 
1849	 0.380425865611968 
1850	 0.380399182316524 
1851	 0.380398179504935 
1852	 0.380390860627756 
1853	 0.380407464094351 
1854	 0.380415219132632 
1855	 0.380380291566574 
1856	 0.380320947379906 
1857	 0.380240772715587 
1858	 0.380128360664048 
1859	 0.379977638649016 
1860	 0.379818401147384 
1861	 0.379641847319555 
1862	 0.379436021379686 
1863	 0.37920622642018 
1864	 0.378966047122709 
1865	 0.378713482312865 
1866	 0.378425807426905 
1867	 0.3781092955294 
1868	 0.377790197098821 
1869	 0.377443426286518 
1870	 0.37709886703683 
1871	 0.376754726689394 
1872	 0.37643147861096 
1873	 0.376087140200996 
1874	 0.375705338414374 
1875	 0.375284045617103 
1876	 0.374789187142645 
1877	 0.374236753385212 
1878	 0.373659000481338 
1879	 0.373034936760372 
1880	 0.372351974975239 
1881	 0.371628922203758 
1882	 0.370856328864338 
1883	 0.370042039084978 
1884	 0.369120517823904 
1885	 0.36816785989661 
1886	 0.367170834472472 
1887	 0.366055717613073 
1888	 0.364909077107293 
1889	 0.363686362986415 
1890	 0.362368023158972 
1891	 0.361007238192321 
1892	 0.359559040301373 
1893	 0.358081076274687 
1894	 0.356559200014895 
1895	 0.355002657153712 
1896	 0.353346588363461 
1897	 0.351664331787043 
1898	 0.349948779372486 
1899	 0.348191022121902 
1900	 0.346461329247525 
1901	 0.344760774813934 
1902	 0.343087544471167 
1903	 0.341430753569818 
1904	 0.339815934923588 
1905	 0.338230356038857 
1906	 0.336688642044371 
1907	 0.335188115817045 
1908	 0.333719178463477 
1909	 0.332328142384957 
1910	 0.330986811148364 
1911	 0.329702741804724 
1912	 0.328509580651924 
1913	 0.327366644360601 
1914	 0.326276088800035 
1915	 0.325261582280932 
1916	 0.324320910842898 
1917	 0.323421553710835 
1918	 0.32259941719983 
1919	 0.321835996054202 
1920	 0.321144825356711 
1921	 0.320526000348655 
1922	 0.319942215402294 
1923	 0.319425249805984 
1924	 0.318960032845153 
1925	 0.318536669172065 
1926	 0.318173622438191 
1927	 0.317872379649187 
1928	 0.317629563733796 
1929	 0.317435654423124 
1930	 0.317283207814189 
1931	 0.31717049450849 
1932	 0.317081513055293 
1933	 0.316999607469512 
1934	 0.316948430943114 
1935	 0.316928825693576 
1936	 0.316932202305182 
1937	 0.316970639197615 
1938	 0.317057614588671 
1939	 0.317146682589148 
1940	 0.317252372576461 
1941	 0.317389896374742 
1942	 0.317534219674915 
1943	 0.317700824020738 
1944	 0.317896058551268 
1945	 0.318124012533431 
1946	 0.318370677450857 
1947	 0.318641411532593 
1948	 0.318929229817297 
1949	 0.319251129913942 
1950	 0.319569989197031 
1951	 0.319901273799115 
1952	 0.320248311468507 
1953	 0.320598026579728 
1954	 0.320937045746014 
1955	 0.321247924245589 
1956	 0.321575373480028 
1957	 0.321911991419704 
1958	 0.322228565738277 
1959	 0.322585140026249 
1960	 0.32298799754942 
1961	 0.323367015478424 
1962	 0.323750011969883 
1963	 0.324145531365097 
1964	 0.324541984901702 
1965	 0.324936413611082 
1966	 0.325363636773515 
1967	 0.325766458925742 
1968	 0.32617167404177 
1969	 0.326561084290561 
1970	 0.326985117251228 
1971	 0.327438879854969 
1972	 0.327862394762246 
1973	 0.32829224250706 
1974	 0.328712800146916 
1975	 0.329116819040561 
1976	 0.329499801565295 
1977	 0.329910229454885 
1978	 0.330329347065436 
1979	 0.330720711966442 
1980	 0.331164788186022 
1981	 0.331604852690838 
1982	 0.332065269158352 
1983	 0.332512346000471 
1984	 0.332961394313872 
1985	 0.333410978886311 
1986	 0.333863002778531 
1987	 0.334311131763266 
1988	 0.334765593900607 
1989	 0.335207363750204 
1990	 0.335667171238122 
1991	 0.33612735689022 
1992	 0.336573464038957 
1993	 0.33703165052009 
1994	 0.337474850402953 
1995	 0.337886665891561 
1996	 0.3383148634176 
1997	 0.338748312124996 
1998	 0.339185084556318 
1999	 0.339633913734542 
2000	 0.340067330826749 
2001	 0.340513988942329 
2002	 0.340922811567536 
2003	 0.341329428294317 
2004	 0.341737535421043 
2005	 0.342135927548921 
2006	 0.342522961661153 
2007	 0.342935257665148 
2008	 0.343345419167577 
2009	 0.343759144009686 
2010	 0.34419810219585 
2011	 0.344618725292023 
2012	 0.345035218207711 
2013	 0.34544346397937 
2014	 0.345851216932335 
2015	 0.346242047661885 
2016	 0.346618825555021 
2017	 0.347012876299961 
2018	 0.347426050111311 
2019	 0.347878361391592 
2020	 0.348278401415179 
2021	 0.348673461826143 
2022	 0.349061855834921 
2023	 0.349413091305225 
2024	 0.349777374711339 
2025	 0.350160951123222 
2026	 0.35052482520873 
2027	 0.350875915316334 
2028	 0.351210172641533 
2029	 0.351555206901153 
2030	 0.351891855544708 
2031	 0.352248006399685 
2032	 0.352600478840955 
2033	 0.352981209799296 
2034	 0.353393713355849 
2035	 0.353791902451822 
2036	 0.354220642006442 
2037	 0.354612287058507 
2038	 0.355003385266897 
2039	 0.355353499975952 
2040	 0.355666202882436 
2041	 0.355959900440059 
2042	 0.356268355274032 
2043	 0.356564128203241 
2044	 0.356856732789004 
2045	 0.357158752247804 
2046	 0.357456587121815 
2047	 0.357741332047158 
2048	 0.358019590516145 
2049	 0.358294784194525 
2050	 0.358582042903373 
2051	 0.358854075998392 
2052	 0.359139198162793 
2053	 0.359445225894329 
2054	 0.359751242508592 
2055	 0.360060731250232 
2056	 0.36037078690909 
2057	 0.360668429459706 
2058	 0.360985617637191 
2059	 0.361253781079072 
2060	 0.361479720467553 
2061	 0.361725940618753 
2062	 0.361946379366105 
2063	 0.362191212837606 
2064	 0.362444560495603 
2065	 0.362710461821806 
2066	 0.3630048392178 
2067	 0.363275801812504 
2068	 0.363553414065465 
2069	 0.363812300460431 
2070	 0.364077612719209 
2071	 0.364334245358695 
2072	 0.36457915526557 
2073	 0.3648346590641 
2074	 0.365060367861996 
2075	 0.36524187225837 
2076	 0.365454568998975 
2077	 0.36565760422865 
2078	 0.365884195138435 
2079	 0.36613593414563 
2080	 0.366380674118754 
2081	 0.3666425286369 
2082	 0.366891972509674 
2083	 0.367135777579408 
2084	 0.367378259176432 
2085	 0.367610460746478 
2086	 0.367833394508999 
2087	 0.368054625918054 
2088	 0.368257502959615 
2089	 0.368486509720469 
2090	 0.368722625312873 
2091	 0.368963753028971 
2092	 0.36923282327289 
2093	 0.369477655530983 
2094	 0.369717433033765 
2095	 0.369948191858038 
2096	 0.370160399183945 
2097	 0.370377875258375 
2098	 0.370592863221026 
2099	 0.370806909147615 
2100	 0.371015489866386 
2101	 0.37122235253786 
2102	 0.371430294841879 
2103	 0.371615494701562 
2104	 0.37184583840104 
2105	 0.372098980250276 
2106	 0.372351576645451 
2107	 0.372635340627693 
2108	 0.372905918625933 
2109	 0.373163264214463 
2110	 0.373439020588603 
2111	 0.373748710320305 
2112	 0.374020705368921 
2113	 0.374289223045715 
2114	 0.374544845612203 
2115	 0.374772173291924 
2116	 0.374950330337874 
2117	 0.375174694979071 
2118	 0.375388803461961 
2119	 0.375636811243278 
2120	 0.37592830113501 
2121	 0.376187713608183 
2122	 0.376449571558641 
2123	 0.376707487034705 
2124	 0.376957559550789 
2125	 0.377199634460087 
2126	 0.377455230194428 
2127	 0.377683282397686 
2128	 0.377884070543963 
2129	 0.378082075563493 
2130	 0.378272672486258 
2131	 0.378450660052401 
2132	 0.378600847284749 
2133	 0.378746764726549 
2134	 0.378843411955703 
2135	 0.378892389170332 
2136	 0.378945476541067 
2137	 0.378958685404267 
2138	 0.378995620336302 
2139	 0.379055503857509 
2140	 0.379068839181947 
2141	 0.379059096707103 
2142	 0.379051843562681 
2143	 0.379014580720748 
2144	 0.378979361577726 
2145	 0.378947085220596 
2146	 0.378913211979047 
2147	 0.378879164529424 
2148	 0.378832692602754 
2149	 0.37875855896063 
2150	 0.378685301409959 
2151	 0.378577609848026 
2152	 0.378421233488985 
2153	 0.378280972118141 
2154	 0.378119463157722 
2155	 0.377984276556964 
2156	 0.377869083580549 
2157	 0.377726057632721 
2158	 0.377605194570064 
2159	 0.377439872870982 
2160	 0.377228398662367 
2161	 0.377019762528951 
2162	 0.376788195124507 
2163	 0.376559400648208 
2164	 0.37633430730634 
2165	 0.376082995794076 
2166	 0.375848786962486 
2167	 0.375611529128793 
2168	 0.375386955640682 
2169	 0.375165250557258 
2170	 0.374959544706098 
2171	 0.374775245852999 
2172	 0.374570621378408 
2173	 0.374367759749529 
2174	 0.374163012932329 
2175	 0.373956662114001 
2176	 0.373735506533843 
2177	 0.373510794948484 
2178	 0.373282933508457 
2179	 0.373017938872014 
2180	 0.372784237154838 
2181	 0.372566111200872 
2182	 0.372356992530822 
2183	 0.372162169766805 
2184	 0.371986540134164 
2185	 0.371790422030981 
2186	 0.371590196748215 
2187	 0.371396195132791 
2188	 0.371194411653589 
2189	 0.371003082771798 
2190	 0.37081144391328 
2191	 0.37064688917977 
2192	 0.370495566715239 
2193	 0.37034662064692 
2194	 0.370220175347174 
2195	 0.370095322183252 
2196	 0.369970084353625 
2197	 0.369850618726217 
2198	 0.369741979375783 
2199	 0.369640260435533 
2200	 0.369557880746 
2201	 0.369453426672891 
2202	 0.369338498907043 
2203	 0.369233123206248 
2204	 0.369128323988792 
2205	 0.369002415416657 
2206	 0.368901626868269 
2207	 0.368812101908353 
2208	 0.368747339341796 
2209	 0.368699324139815 
2210	 0.368649338793263 
2211	 0.368637190066905 
2212	 0.368594211896961 
2213	 0.368531867201308 
2214	 0.368473723674964 
2215	 0.368400485945037 
2216	 0.368347429471102 
2217	 0.368294681917363 
2218	 0.368254572226876 
2219	 0.368256859242589 
2220	 0.368221876089222 
2221	 0.368139052210601 
2222	 0.368110089995459 
2223	 0.368104003901616 
2224	 0.368091800423928 
2225	 0.368086118700025 
2226	 0.368143071356239 
2227	 0.3681045912681 
2228	 0.368002736741401 
2229	 0.367935204701968 
2230	 0.367827755356958 
2231	 0.367777651145418 
2232	 0.367760953819764 
2233	 0.367747880669834 
2234	 0.367783909042388 
2235	 0.367771720015125 
2236	 0.367732965094291 
2237	 0.367707104049099 
2238	 0.367665859056324 
2239	 0.367627572349811 
2240	 0.367598976574663 
2241	 0.367577397135507 
2242	 0.367554095893026 
2243	 0.367526387018504 
2244	 0.367503852617768 
2245	 0.367488917767899 
2246	 0.367464718326717 
2247	 0.367427614288437 
2248	 0.367405114418685 
2249	 0.367393581079231 
2250	 0.367376404415381 
2251	 0.367358479242981 
2252	 0.36734602667945 
2253	 0.367338807187127 
2254	 0.367322647663129 
2255	 0.367291522386469 
2256	 0.367295660550352 
2257	 0.367321959882269 
2258	 0.367333213162812 
2259	 0.367371313811042 
2260	 0.367374316687151 
2261	 0.367341647758456 
2262	 0.367323157831609 
2263	 0.367279201574716 
2264	 0.367279207877757 
2265	 0.367311240463864 
2266	 0.367328229991941 
2267	 0.367380713019068 
2268	 0.367410748002116 
2269	 0.367419079406902 
2270	 0.367415953973103 
2271	 0.367451188818651 
2272	 0.36744872819299 
2273	 0.367451143680813 
2274	 0.367458281279488 
2275	 0.367438499328157 
2276	 0.367392446157052 
2277	 0.367357934715007 
2278	 0.367304227947049 
2279	 0.36727211387486 
2280	 0.367248023115873 
2281	 0.367232189891996 
2282	 0.367235603453126 
2283	 0.367227808721179 
2284	 0.36722332566505 
2285	 0.367208723444121 
2286	 0.367187238865141 
2287	 0.367167504194582 
2288	 0.367137178539968 
2289	 0.367109706386909 
2290	 0.367094502034077 
2291	 0.367064024446732 
2292	 0.367002790833861 
2293	 0.366987486539318 
2294	 0.366991726534293 
2295	 0.366981778402008 
2296	 0.366974068638399 
2297	 0.367022959122025 
2298	 0.36700386619798 
2299	 0.366986010707457 
2300	 0.366994705818135 
2301	 0.366940284948934 
2302	 0.366919358680905 
2303	 0.366886454555808 
2304	 0.366804720312722 
2305	 0.366786614863456 
2306	 0.366746414943352 
2307	 0.366697120808751 
2308	 0.366649248460016 
2309	 0.366632090465779 
2310	 0.366550703983189 
2311	 0.36643057678861 
2312	 0.366312359782892 
2313	 0.366143413307715 
2314	 0.366001531912643 
2315	 0.365863384304726 
2316	 0.36575564659492 
2317	 0.365675150338082 
2318	 0.365590083937239 
2319	 0.365509870365822 
2320	 0.365443940766053 
2321	 0.365373585791033 
2322	 0.365319958116028 
2323	 0.365315861832588 
2324	 0.365281581872116 
2325	 0.365236318927243 
2326	 0.365189858936572 
2327	 0.365164850053173 
2328	 0.365070803297866 
2329	 0.364932975122971 
2330	 0.364831556096043 
2331	 0.364717935553451 
2332	 0.36459410257482 
2333	 0.364536403616047 
2334	 0.364507744154888 
2335	 0.364434392412366 
2336	 0.364408879619178 
2337	 0.364399628605854 
2338	 0.364336978555914 
2339	 0.364227312426896 
2340	 0.364070487636742 
2341	 0.36394943270367 
2342	 0.363781377144477 
2343	 0.363581871342984 
2344	 0.363416373748096 
2345	 0.363197501188165 
2346	 0.36287534695542 
2347	 0.362653356670596 
2348	 0.362464584539845 
2349	 0.362288907497228 
2350	 0.362190287252855 
2351	 0.362007071916487 
2352	 0.36179906569479 
2353	 0.361553593063393 
2354	 0.361234548381235 
2355	 0.360941573059454 
2356	 0.360647892601202 
2357	 0.360354781431147 
2358	 0.360025583996314 
2359	 0.359773311978165 
2360	 0.359567466566508 
2361	 0.359341591737245 
2362	 0.359193605424984 
2363	 0.358965225076921 
2364	 0.358653003885926 
2365	 0.3583900990535 
2366	 0.358119011799923 
2367	 0.357858283577289 
2368	 0.35761736059408 
2369	 0.357377151532144 
2370	 0.357153586123484 
2371	 0.356912764661597 
2372	 0.356617578222929 
2373	 0.356315173294111 
2374	 0.356013169617165 
2375	 0.355666002851842 
2376	 0.355299323298498 
2377	 0.35492345579051 
2378	 0.354513871291371 
2379	 0.3541546248729 
2380	 0.353797015326201 
2381	 0.353471616048849 
2382	 0.353171688518545 
2383	 0.352755404735828 
2384	 0.352422360061377 
2385	 0.352177057993661 
2386	 0.351884466480646 
2387	 0.351599731782703 
2388	 0.351269587796226 
2389	 0.350895849196552 
2390	 0.350515707637346 
2391	 0.35018243169316 
2392	 0.349880961775292 
2393	 0.349510767969654 
2394	 0.349168182158094 
2395	 0.348860327128354 
2396	 0.348492013461814 
2397	 0.348139806293671 
2398	 0.347794885425199 
2399	 0.347377905616339 
2400	 0.347019981884753 
2401	 0.346721132251916 
2402	 0.346381222877007 
2403	 0.346042139279298 
2404	 0.345669096792034 
2405	 0.345385704943492 
2406	 0.345120376887107 
2407	 0.344775880534852 
2408	 0.344475919111697 
2409	 0.344127728634197 
2410	 0.343780433088677 
2411	 0.343422584242736 
2412	 0.343079450806467 
2413	 0.342760329306595 
2414	 0.34240023877714 
2415	 0.34216157209464 
2416	 0.341900627902989 
2417	 0.341672937189643 
2418	 0.341392674053588 
2419	 0.341096831460078 
2420	 0.340759580979794 
2421	 0.340382443200743 
2422	 0.339970835439527 
2423	 0.339497893505977 
2424	 0.339165221247136 
2425	 0.338871127246877 
2426	 0.338547541926449 
2427	 0.338309990552838 
2428	 0.338006371719447 
2429	 0.337621801556337 
2430	 0.337319751584502 
2431	 0.337086628585284 
2432	 0.336684597231796 
2433	 0.336199552589051 
2434	 0.335810996975657 
2435	 0.335403024769562 
2436	 0.335018469442168 
2437	 0.334684763257859 
2438	 0.334314638472639 
2439	 0.333904416840426 
2440	 0.333533659061102 
2441	 0.333196168602195 
2442	 0.332845106142669 
2443	 0.332472487640761 
2444	 0.332099551880311 
2445	 0.331757212340385 
2446	 0.33148730842407 
2447	 0.331277167687001 
2448	 0.33090605530388 
2449	 0.330497996702798 
2450	 0.330094617594629 
2451	 0.329534369805247 
2452	 0.329130566399733 
2453	 0.328891281994745 
2454	 0.328500154784728 
2455	 0.32804975816134 
2456	 0.327627939900353 
2457	 0.327111003272787 
2458	 0.326764599112967 
2459	 0.326581549550236 
2460	 0.32630919543756 
2461	 0.326080305319833 
2462	 0.325837170270731 
2463	 0.325540734460624 
2464	 0.325178982308857 
2465	 0.324838665747732 
2466	 0.32438831503833 
2467	 0.323717912291759 
2468	 0.323296081300723 
2469	 0.323006526837577 
2470	 0.32279746698401 
2471	 0.322558616317021 
2472	 0.32232383347834 
2473	 0.321894732039374 
2474	 0.321446270153708 
2475	 0.321211460692297 
2476	 0.321006929379675 
2477	 0.320821184470889 
2478	 0.320658149316204 
2479	 0.320427577945672 
2480	 0.320092745873567 
2481	 0.319675436572167 
2482	 0.319260752793684 
2483	 0.318856720262508 
2484	 0.318572272430435 
2485	 0.318333007974098 
2486	 0.317917947785472 
2487	 0.317720304560919 
2488	 0.317544509224167 
2489	 0.317111547762782 
2490	 0.317016828737983 
2491	 0.316878392850133 
2492	 0.31645463457883 
2493	 0.316276813019188 
2494	 0.316017712501998 
2495	 0.315559561670566 
2496	 0.315426268128491 
2497	 0.315329043775351 
2498	 0.315121003112058 
2499	 0.315118455954305 
2500	 0.314883418878764 
