Wavelength	LMW800007.asd
350	 5.14410030254856E-02 
351	 0.062219144483226 
352	 6.67353352823547E-02 
353	 5.84967345223086E-02 
354	 6.10629004339945E-02 
355	 6.32281712365883E-02 
356	 6.27629042014947E-02 
357	 6.03220431643904E-02 
358	 5.85112844286592E-02 
359	 5.85807904238755E-02 
360	 5.97515728524594E-02 
361	 6.00473708231707E-02 
362	 5.93459316687566E-02 
363	 5.83277856099707E-02 
364	 5.74111211465354E-02 
365	 5.63576049500321E-02 
366	 5.70032243099548E-02 
367	 5.84385018372495E-02 
368	 5.95580001119233E-02 
369	 6.22550320049038E-02 
370	 6.22126205265931E-02 
371	 0.05944533497194 
372	 5.71827057523785E-02 
373	 5.75314415005297E-02 
374	 5.96885471352625E-02 
375	 6.17397862209221E-02 
376	 0.0607257322193 
377	 5.84062234248154E-02 
378	 5.89007986233876E-02 
379	 0.064075807813399 
380	 6.42159263965206E-02 
381	 6.17247348235328E-02 
382	 6.03092770415462E-02 
383	 6.33873641555534E-02 
384	 6.17695032716457E-02 
385	 5.98107603867037E-02 
386	 6.11364825578919E-02 
387	 6.46935110002878E-02 
388	 6.44033140587792E-02 
389	 6.17915134792395E-02 
390	 0.060601792908617 
391	 6.13719511905159E-02 
392	 6.21737061870503E-02 
393	 6.25349822873931E-02 
394	 6.33481689993124E-02 
395	 6.51577017677211E-02 
396	 6.61540105142168E-02 
397	 6.57106306531389E-02 
398	 6.66487981019685E-02 
399	 6.65357061640222E-02 
400	 6.60910379749095E-02 
401	 6.67109108454741E-02 
402	 6.67932382721883E-02 
403	 6.67188903053049E-02 
404	 0.066859735362006 
405	 6.74141434273149E-02 
406	 6.74281517566383E-02 
407	 6.75128664127158E-02 
408	 6.79357705609907E-02 
409	 6.71919802542547E-02 
410	 6.68044924417358E-02 
411	 6.69164997239338E-02 
412	 6.71004494933798E-02 
413	 6.81794273137605E-02 
414	 6.81585940236601E-02 
415	 6.71493616009531E-02 
416	 0.068191696908143 
417	 6.81826544099626E-02 
418	 6.77045595537112E-02 
419	 6.78435453254734E-02 
420	 6.83070679916158E-02 
421	 6.81253636534578E-02 
422	 6.76297974784734E-02 
423	 6.78733627062297E-02 
424	 6.80151221894527E-02 
425	 6.78287832599497E-02 
426	 6.74847670499565E-02 
427	 6.77180433408392E-02 
428	 6.79559077679003E-02 
429	 6.78006624123366E-02 
430	 0.067182866276395 
431	 6.73010513158647E-02 
432	 6.73609930169262E-02 
433	 6.72167355685342E-02 
434	 6.74091672208518E-02 
435	 6.73918008015657E-02 
436	 6.73443793168166E-02 
437	 6.73671642625077E-02 
438	 6.68994520823155E-02 
439	 6.68679586410459E-02 
440	 6.72047172845221E-02 
441	 0.067362850289567 
442	 6.73817542306423E-02 
443	 6.75065712351664E-02 
444	 6.77278024808515E-02 
445	 6.76110300433464E-02 
446	 6.77202598079995E-02 
447	 0.067979327345073 
448	 6.81395433661296E-02 
449	 6.80487101634151E-02 
450	 6.81509790397503E-02 
451	 6.84178710264419E-02 
452	 6.84309351819501E-02 
453	 6.84950696965512E-02 
454	 6.86160550268847E-02 
455	 6.87284056794908E-02 
456	 6.87082226397229E-02 
457	 6.87507410222987E-02 
458	 6.88435286929899E-02 
459	 6.89026159711772E-02 
460	 6.91256226552998E-02 
461	 6.91034421068423E-02 
462	 6.88564754163959E-02 
463	 6.90670702100591E-02 
464	 6.92932962799278E-02 
465	 6.93251887559962E-02 
466	 6.91397978749216E-02 
467	 0.069169675675646 
468	 6.92950750752525E-02 
469	 6.93528178270856E-02 
470	 6.91900072543845E-02 
471	 6.92165228427031E-02 
472	 6.92883504945743E-02 
473	 6.92579055347741E-02 
474	 6.91761083157813E-02 
475	 6.92639486368658E-02 
476	 6.94434330480309E-02 
477	 6.95173185308256E-02 
478	 6.95451158839739E-02 
479	 6.95226336895329E-02 
480	 6.94923836185728E-02 
481	 6.95632326581941E-02 
482	 6.97128406048579E-02 
483	 6.98898734087999E-02 
484	 7.00067147189799E-02 
485	 6.98791736776889E-02 
486	 6.96863100821463E-02 
487	 6.96075127956645E-02 
488	 6.97784145840535E-02 
489	 6.97672624820355E-02 
490	 6.96967686916424E-02 
491	 6.97126189826458E-02 
492	 0.069779221693331 
493	 6.97241115394354E-02 
494	 6.95978522572571E-02 
495	 6.95634265228831E-02 
496	 6.97289727673213E-02 
497	 6.97944968793695E-02 
498	 6.97031744833287E-02 
499	 6.98165435251483E-02 
500	 6.98055487389152E-02 
501	 6.97076674782573E-02 
502	 6.96610697011762E-02 
503	 6.97621210091795E-02 
504	 6.97349144508839E-02 
505	 6.95817191641242E-02 
506	 6.95588537888868E-02 
507	 6.95514926348286E-02 
508	 6.96075194805268E-02 
509	 6.97253766672263E-02 
510	 6.97014512074689E-02 
511	 6.96356823932253E-02 
512	 6.95977927394522E-02 
513	 6.96329669802885E-02 
514	 6.97267515552141E-02 
515	 6.96705631993951E-02 
516	 0.069480455178903 
517	 6.95886601802142E-02 
518	 0.069669838561817 
519	 6.96545347248728E-02 
520	 6.95812200052704E-02 
521	 6.95821236282439E-02 
522	 6.96563395354209E-02 
523	 6.97212084363763E-02 
524	 6.96254778383203E-02 
525	 6.96285003047178E-02 
526	 6.97210388836946E-02 
527	 0.069814929251581 
528	 6.97881895867207E-02 
529	 6.97038427541791E-02 
530	 6.96759241372302E-02 
531	 0.069820185993519 
532	 6.98669217010099E-02 
533	 6.98981782302033E-02 
534	 6.99499161552202E-02 
535	 6.98278311670988E-02 
536	 6.98254159461877E-02 
537	 6.99090893888355E-02 
538	 6.99357143634447E-02 
539	 6.99965697283791E-02 
540	 7.00262248063801E-02 
541	 7.00177726689551E-02 
542	 7.00553947670964E-02 
543	 7.00866009047363E-02 
544	 7.01140770022342E-02 
545	 7.01462699853014E-02 
546	 0.070151860266432 
547	 7.01778824711989E-02 
548	 7.02466178467972E-02 
549	 7.03489470179564E-02 
550	 7.03056692318907E-02 
551	 7.02416366038508E-02 
552	 0.070289974337573 
553	 7.04734788130249E-02 
554	 7.05794024382724E-02 
555	 7.06015232974303E-02 
556	 7.06480793930928E-02 
557	 7.07509753106919E-02 
558	 7.08182731683815E-02 
559	 7.08600674496137E-02 
560	 7.11055437472032E-02 
561	 7.12373969287851E-02 
562	 7.12711406617944E-02 
563	 7.13350634139318E-02 
564	 7.14711226524082E-02 
565	 7.16156041411666E-02 
566	 7.17418426033937E-02 
567	 7.18737598167032E-02 
568	 7.21072153069956E-02 
569	 7.23447268077195E-02 
570	 7.24966316759533E-02 
571	 7.26552434387994E-02 
572	 7.28902630597524E-02 
573	 7.31732424031099E-02 
574	 7.34067880102188E-02 
575	 7.35912889296089E-02 
576	 7.38024336134025E-02 
577	 0.074081617380567 
578	 7.43726279476268E-02 
579	 7.46639257484386E-02 
580	 7.49746977488535E-02 
581	 0.075336501494749 
582	 7.57542804398508E-02 
583	 7.61345691985481E-02 
584	 7.64648849180309E-02 
585	 7.68595769968312E-02 
586	 7.72694201107734E-02 
587	 7.76848463395354E-02 
588	 7.81128796298395E-02 
589	 7.85936481775695E-02 
590	 7.90801140420339E-02 
591	 7.95445159855094E-02 
592	 7.99852412694708E-02 
593	 8.04928841805646E-02 
594	 8.10024389536837E-02 
595	 8.14761485508358E-02 
596	 8.20432615375258E-02 
597	 8.25987624417938E-02 
598	 8.31185500556965E-02 
599	 8.36262624350999E-02 
600	 8.41324981013796E-02 
601	 8.46341656441137E-02 
602	 8.51256262806323E-02 
603	 8.55989480649351E-02 
604	 8.61097640532676E-02 
605	 8.66244603548024E-02 
606	 8.70925845449057E-02 
607	 8.75604747821552E-02 
608	 8.80580058005861E-02 
609	 0.088571039697455 
610	 8.90388873484574E-02 
611	 8.94889757853354E-02 
612	 8.99352488120427E-02 
613	 9.03705922044855E-02 
614	 9.07289782394586E-02 
615	 9.10832344350043E-02 
616	 9.14495909392353E-02 
617	 9.18023723217498E-02 
618	 9.21553527705296E-02 
619	 9.24625377104829E-02 
620	 9.27123999455856E-02 
621	 9.29758993946668E-02 
622	 9.32807585626122E-02 
623	 9.35843553432216E-02 
624	 0.093827500009371 
625	 9.40759706716627E-02 
626	 9.43263999197217E-02 
627	 9.45673602141682E-02 
628	 0.094783798612195 
629	 9.50429240924096E-02 
630	 9.53030064179185E-02 
631	 0.095508295556741 
632	 9.56688019740963E-02 
633	 9.58489638911462E-02 
634	 9.60625253121687E-02 
635	 9.62787534650447E-02 
636	 9.64770395665125E-02 
637	 9.66500636377291E-02 
638	 9.68087086442411E-02 
639	 9.70007091823551E-02 
640	 9.71708949504665E-02 
641	 9.73482930336703E-02 
642	 9.75860686916699E-02 
643	 9.78084374175325E-02 
644	 9.80031908079172E-02 
645	 9.81852668567055E-02 
646	 9.84000797886525E-02 
647	 9.85607253791164E-02 
648	 9.87300397292267E-02 
649	 9.89754226054822E-02 
650	 9.91888059932892E-02 
651	 9.94113281230815E-02 
652	 9.96364494430896E-02 
653	 9.98188024117849E-02 
654	 0.100033847990631 
655	 0.100263881502524 
656	 0.100483648802941 
657	 0.100684284190048 
658	 0.100957097613982 
659	 0.101260188998733 
660	 0.101498928741924 
661	 0.101728240705898 
662	 0.101993490506618 
663	 0.102296765928075 
664	 0.102579805185345 
665	 0.102854037669752 
666	 0.103147553038092 
667	 0.10346654391584 
668	 0.10369040683159 
669	 0.103988584186161 
670	 0.10435355261749 
671	 0.104633377246516 
672	 0.104957084534858 
673	 0.105282989568695 
674	 0.105593161889331 
675	 0.106005314435714 
676	 0.106367640196983 
677	 0.106683754413667 
678	 0.107026915324961 
679	 0.107428317720164 
680	 0.107823082132549 
681	 0.108197963433492 
682	 0.108619563585861 
683	 0.108991305930229 
684	 0.109362220089102 
685	 0.109798532274503 
686	 0.110292755575307 
687	 0.11074293582716 
688	 0.111161620899802 
689	 0.111636360870947 
690	 0.112082730462192 
691	 0.112526770297314 
692	 0.112987915400826 
693	 0.113439793247403 
694	 0.11390932818618 
695	 0.114404117558168 
696	 0.11492083465376 
697	 0.11544039766253 
698	 0.115947502285784 
699	 0.116450794574052 
700	 0.116980307174102 
701	 0.117469533032538 
702	 0.117971320582428 
703	 0.118522818599932 
704	 0.119046881051061 
705	 0.119560583141731 
706	 0.120083637468266 
707	 0.120628537164927 
708	 0.121129859432391 
709	 0.12163512373189 
710	 0.122173860149597 
711	 0.122733439041865 
712	 0.123294606266448 
713	 0.123826067110207 
714	 0.124318474972994 
715	 0.12484698774289 
716	 0.125372770985054 
717	 0.125891257114079 
718	 0.126418759943185 
719	 0.126897071291605 
720	 0.127361648299719 
721	 0.127825434543529 
722	 0.128223144809892 
723	 0.128689890725662 
724	 0.129178975380924 
725	 0.129601443046265 
726	 0.130004772525818 
727	 0.130392507981576 
728	 0.130764868527379 
729	 0.131119966186599 
730	 0.131470959823005 
731	 0.131802471686487 
732	 0.132107793825866 
733	 0.132418277403974 
734	 0.13268395025079 
735	 0.132903931799988 
736	 0.133104766421338 
737	 0.133336942615916 
738	 0.133543472317362 
739	 0.13369876652079 
740	 0.133821928197973 
741	 0.13395881011403 
742	 0.134077257449499 
743	 0.134141501513083 
744	 0.134150937735368 
745	 0.13415262440568 
746	 0.134173387084703 
747	 0.134211623744499 
748	 0.134159746020861 
749	 0.134112461294407 
750	 0.134077652941956 
751	 0.133939775579701 
752	 0.133805440638373 
753	 0.133673359475082 
754	 0.133524531483654 
755	 0.133364247519988 
756	 0.133198958465369 
757	 0.133012929685781 
758	 0.132786278812843 
759	 0.132555542604358 
760	 0.132313493718103 
761	 0.132055861808572 
762	 0.131787103266176 
763	 0.131542668333542 
764	 0.131277524464283 
765	 0.130957623301276 
766	 0.130632485365635 
767	 0.130332473206855 
768	 0.130029368386898 
769	 0.129679650686647 
770	 0.129379374583904 
771	 0.12904883660121 
772	 0.128659640750709 
773	 0.128264195427153 
774	 0.127947112520629 
775	 0.127632426806814 
776	 0.127254487530792 
777	 0.126881750301391 
778	 0.126514708724658 
779	 0.126148188064423 
780	 0.125774353655187 
781	 0.125397869701125 
782	 0.125046104522572 
783	 0.124698942688423 
784	 0.1242916236093 
785	 0.123913452358541 
786	 0.123584860593777 
787	 0.123278277370249 
788	 0.122882829101837 
789	 0.122506421029853 
790	 0.122167952511577 
791	 0.121842809738058 
792	 0.121472765662021 
793	 0.121116182016704 
794	 0.120783870260301 
795	 0.120443684668494 
796	 0.120132504284882 
797	 0.119816947939121 
798	 0.119470774866218 
799	 0.119095927631826 
800	 0.11879445274997 
801	 0.118518483235586 
802	 0.118199783978855 
803	 0.117888886343562 
804	 0.117613254907193 
805	 0.117349831260392 
806	 0.117052394109283 
807	 0.116767286899167 
808	 0.116472239677468 
809	 0.116180264732943 
810	 0.115954222910505 
811	 0.115701671240045 
812	 0.115427373580273 
813	 0.115160363662893 
814	 0.114933040496727 
815	 0.114692825803128 
816	 0.114439965815429 
817	 0.114199656369937 
818	 0.113996433591422 
819	 0.113791445468306 
820	 0.113579402707553 
821	 0.113383099054111 
822	 0.113153849482061 
823	 0.112959001091235 
824	 0.112810264710407 
825	 0.112602476124335 
826	 0.112397934104209 
827	 0.112236609127328 
828	 0.112122724975965 
829	 0.111973604166606 
830	 0.111781730891525 
831	 0.111589088977354 
832	 0.111451994762951 
833	 0.111344229378527 
834	 0.11123598160096 
835	 0.111121938018629 
836	 0.111017678298579 
837	 0.11087656903361 
838	 0.110747767005242 
839	 0.110652459901682 
840	 0.110537937721795 
841	 0.110447513270518 
842	 0.110333677880059 
843	 0.110180374083166 
844	 0.11014588346824 
845	 0.11012937976814 
846	 0.11008455208972 
847	 0.110001063781415 
848	 0.109903575980275 
849	 0.10983939747142 
850	 0.109801285595509 
851	 0.109740336529078 
852	 0.109701730399605 
853	 0.109685439068325 
854	 0.109676418762224 
855	 0.109648969181644 
856	 0.109651570264437 
857	 0.109641416404993 
858	 0.109595104433535 
859	 0.109591205377739 
860	 0.109617987557485 
861	 0.109628542192313 
862	 0.109593818501509 
863	 0.109623588604891 
864	 0.109645154148559 
865	 0.109664525699359 
866	 0.109724335590387 
867	 0.109732741712412 
868	 0.10978058174575 
869	 0.109868553121296 
870	 0.109896785252812 
871	 0.109911714512766 
872	 0.109941648049005 
873	 0.110014331126489 
874	 0.110158256188969 
875	 0.110222040379578 
876	 0.11026438165962 
877	 0.110357907997781 
878	 0.110459373721375 
879	 0.110599819533025 
880	 0.110729810252548 
881	 0.110806636436617 
882	 0.11093215327394 
883	 0.111058335762368 
884	 0.111173044555639 
885	 0.11128850215606 
886	 0.111417096650793 
887	 0.111588671641825 
888	 0.111756123612448 
889	 0.111829001387656 
890	 0.111945066531075 
891	 0.112113399603732 
892	 0.112325445308626 
893	 0.112566728495787 
894	 0.11268755785926 
895	 0.112829563934994 
896	 0.113069232985853 
897	 0.113260627978011 
898	 0.113475754744455 
899	 0.113698500220395 
900	 0.113900590725348 
901	 0.114073853267182 
902	 0.114290563747896 
903	 0.114540738904807 
904	 0.11478513502572 
905	 0.11499477029776 
906	 0.115279351962187 
907	 0.11559366160046 
908	 0.115840505246441 
909	 0.116079073980194 
910	 0.116354275367421 
911	 0.116667736616415 
912	 0.116982255354453 
913	 0.117227863771321 
914	 0.117477592100475 
915	 0.117780806473049 
916	 0.118140472262401 
917	 0.118463426115721 
918	 0.118794353202394 
919	 0.119161132804918 
920	 0.119544035375279 
921	 0.119882208121432 
922	 0.120207262555115 
923	 0.120547461113521 
924	 0.12090001978297 
925	 0.12127105653938 
926	 0.121704646474745 
927	 0.122179586204458 
928	 0.122549114544979 
929	 0.122947443840898 
930	 0.123368156383297 
931	 0.123788657942463 
932	 0.124237472281112 
933	 0.124702985589918 
934	 0.125128617462247 
935	 0.125500908398873 
936	 0.125955088098287 
937	 0.126455091552369 
938	 0.126955310645378 
939	 0.127422699777203 
940	 0.127882201321327 
941	 0.12840166847255 
942	 0.128947365612152 
943	 0.129465084019502 
944	 0.129995019379369 
945	 0.130568264606641 
946	 0.131156215076114 
947	 0.131708559683628 
948	 0.13221663054422 
949	 0.132782093245372 
950	 0.133362379207312 
951	 0.133896148960361 
952	 0.134638435876709 
953	 0.135262544377079 
954	 0.135785823688869 
955	 0.13640271877107 
956	 0.137018049664673 
957	 0.137641517337791 
958	 0.138325563625592 
959	 0.13910704588902 
960	 0.139818286424768 
961	 0.140487628314858 
962	 0.141121184083877 
963	 0.141715112949128 
964	 0.142325188331955 
965	 0.143021315066952 
966	 0.143807258256171 
967	 0.144621297360899 
968	 0.145314513375884 
969	 0.146057549721426 
970	 0.146802092497398 
971	 0.147412285459168 
972	 0.14826723147039 
973	 0.149175782575405 
974	 0.149988710826592 
975	 0.150668637359048 
976	 0.151408717495692 
977	 0.152274926900378 
978	 0.153130883062441 
979	 0.153799204278159 
980	 0.1546010067561 
981	 0.155434205606285 
982	 0.156252263886253 
983	 0.157072970845295 
984	 0.157959871519435 
985	 0.158865945946353 
986	 0.159696872675567 
987	 0.160419762721779 
988	 0.161382411352922 
989	 0.162351814773162 
990	 0.163214103255528 
991	 0.16399344611946 
992	 0.164939585560901 
993	 0.16564711254559 
994	 0.16640677739377 
995	 0.167564456733538 
996	 0.168320688062877 
997	 0.169173232352381 
998	 0.170105039028652 
999	 0.170972169482564 
1000	 0.172001864200917 
1001	 0.173988415178125 
1002	 0.174805929976673 
1003	 0.175685824707782 
1004	 0.176556100892377 
1005	 0.177397996513352 
1006	 0.178287789957474 
1007	 0.179216348200826 
1008	 0.180143954356447 
1009	 0.181042625390071 
1010	 0.181944600604118 
1011	 0.182802166380853 
1012	 0.183561907520219 
1013	 0.184381728414002 
1014	 0.185236830531303 
1015	 0.186066353932037 
1016	 0.186957316810244 
1017	 0.187798688709342 
1018	 0.188625559163251 
1019	 0.189392691991849 
1020	 0.190173777038684 
1021	 0.190954050066967 
1022	 0.191739964258166 
1023	 0.192550671653508 
1024	 0.193354756409559 
1025	 0.194115196471104 
1026	 0.194874074831876 
1027	 0.195619214677944 
1028	 0.196359447319567 
1029	 0.197148557431124 
1030	 0.197941322562814 
1031	 0.198714460692676 
1032	 0.199496879094991 
1033	 0.200265309776989 
1034	 0.20096141186806 
1035	 0.20163687766213 
1036	 0.202330812584255 
1037	 0.203023177189262 
1038	 0.203749892775813 
1039	 0.204513046018963 
1040	 0.205232402263073 
1041	 0.205927739066853 
1042	 0.206651196457942 
1043	 0.207338233074464 
1044	 0.208029148835436 
1045	 0.208711698489485 
1046	 0.209443459129423 
1047	 0.210178131584387 
1048	 0.210907559381135 
1049	 0.211659191137848 
1050	 0.212413975196189 
1051	 0.213116083738704 
1052	 0.21379268376075 
1053	 0.214543521666032 
1054	 0.215282861557994 
1055	 0.215976218787827 
1056	 0.216737479141354 
1057	 0.217453229626054 
1058	 0.218088388443928 
1059	 0.218790162975616 
1060	 0.219525940977695 
1061	 0.220234648127249 
1062	 0.220961451235275 
1063	 0.221730293767209 
1064	 0.222490982296516 
1065	 0.223204084098555 
1066	 0.223898073978362 
1067	 0.224606449397287 
1068	 0.225309128040033 
1069	 0.226022846881025 
1070	 0.226729586498346 
1071	 0.227453369549751 
1072	 0.2281689289124 
1073	 0.228844966714369 
1074	 0.229558409658199 
1075	 0.230315586765179 
1076	 0.231015702515821 
1077	 0.231706644453522 
1078	 0.232422538715413 
1079	 0.233139210324877 
1080	 0.233881213515218 
1081	 0.234624243533438 
1082	 0.235333474392706 
1083	 0.236020624147172 
1084	 0.236654262777082 
1085	 0.237330253143224 
1086	 0.237986434665035 
1087	 0.238684221970649 
1088	 0.239413732684205 
1089	 0.240132861265567 
1090	 0.240867962703266 
1091	 0.241620118716885 
1092	 0.242353094962193 
1093	 0.243071374611699 
1094	 0.243755439329164 
1095	 0.24441828533371 
1096	 0.245096584726741 
1097	 0.245799727381731 
1098	 0.246497635300432 
1099	 0.247212788664265 
1100	 0.247919401614716 
1101	 0.248618463565075 
1102	 0.24932305357883 
1103	 0.250025992701171 
1104	 0.250753506361067 
1105	 0.25148080207052 
1106	 0.252194158169959 
1107	 0.252915298155351 
1108	 0.253648984745769 
1109	 0.254372790203121 
1110	 0.255096601720398 
1111	 0.255829636186861 
1112	 0.256565515789743 
1113	 0.257304459708409 
1114	 0.25804445789309 
1115	 0.258800783892094 
1116	 0.259578719260944 
1117	 0.260339955275888 
1118	 0.261112778164881 
1119	 0.261869850215902 
1120	 0.262577929566177 
1121	 0.263307592193251 
1122	 0.264078728865914 
1123	 0.264844760067778 
1124	 0.265636232641693 
1125	 0.266486825938419 
1126	 0.26727203013133 
1127	 0.268032934667658 
1128	 0.268810046177323 
1129	 0.269577766793083 
1130	 0.270335486320024 
1131	 0.271083167563718 
1132	 0.271850186067833 
1133	 0.272622933134735 
1134	 0.273381966767416 
1135	 0.274154022782625 
1136	 0.274916915377083 
1137	 0.275642013873301 
1138	 0.276370680211671 
1139	 0.277127275200393 
1140	 0.27790191243095 
1141	 0.278665827689011 
1142	 0.27945458228911 
1143	 0.280213937037482 
1144	 0.280953837892341 
1145	 0.28169904779898 
1146	 0.282434534973566 
1147	 0.283170092045591 
1148	 0.28390812514041 
1149	 0.284641437246587 
1150	 0.285375502875252 
1151	 0.286098896439862 
1152	 0.286816962968902 
1153	 0.287528493838779 
1154	 0.288233709216415 
1155	 0.288927518959454 
1156	 0.289624317387687 
1157	 0.29032955603918 
1158	 0.291010947930698 
1159	 0.291675185454007 
1160	 0.292349109537555 
1161	 0.293007920432645 
1162	 0.293675473831006 
1163	 0.294362655390025 
1164	 0.29503402254229 
1165	 0.295701337821031 
1166	 0.296359604940356 
1167	 0.297016119004284 
1168	 0.297686994322533 
1169	 0.29834062502604 
1170	 0.2989988263448 
1171	 0.299637789174224 
1172	 0.300271831003395 
1173	 0.300875756499689 
1174	 0.301447843840481 
1175	 0.302039954556297 
1176	 0.302620062868207 
1177	 0.303204255424561 
1178	 0.303802984514969 
1179	 0.304393848354874 
1180	 0.304985093791586 
1181	 0.305558840622853 
1182	 0.306123236814499 
1183	 0.306691148489277 
1184	 0.307248277512896 
1185	 0.307786737543603 
1186	 0.308335016694114 
1187	 0.308880667188417 
1188	 0.309438210445875 
1189	 0.31002133545048 
1190	 0.310554015463693 
1191	 0.311081658744107 
1192	 0.311588916889998 
1193	 0.312035335630349 
1194	 0.312517535726508 
1195	 0.313030020516412 
1196	 0.31351055087201 
1197	 0.313977859363667 
1198	 0.314446762915827 
1199	 0.314907820565379 
1200	 0.315348772818357 
1201	 0.31579656543594 
1202	 0.316257670999305 
1203	 0.316693073008548 
1204	 0.317104054236568 
1205	 0.317531053081119 
1206	 0.3179672727029 
1207	 0.31837837325776 
1208	 0.318787901653314 
1209	 0.319183688180909 
1210	 0.31955200982786 
1211	 0.319925134190828 
1212	 0.320307858728871 
1213	 0.32066839144626 
1214	 0.32100841183806 
1215	 0.321350800079723 
1216	 0.321686999863314 
1217	 0.322006474324664 
1218	 0.322340165865209 
1219	 0.322686908168677 
1220	 0.323010928408762 
1221	 0.323328360842008 
1222	 0.323642717008934 
1223	 0.323942738843794 
1224	 0.324246961515648 
1225	 0.324564658667432 
1226	 0.324857126044222 
1227	 0.325140926672478 
1228	 0.325410342024879 
1229	 0.325643424751814 
1230	 0.325899186960604 
1231	 0.32616941496586 
1232	 0.326422011193479 
1233	 0.326670577390249 
1234	 0.326923762672108 
1235	 0.327171035071903 
1236	 0.327399835259414 
1237	 0.327640476930155 
1238	 0.327899641027768 
1239	 0.32813584188056 
1240	 0.328364874050991 
1241	 0.328581391030904 
1242	 0.32878114676896 
1243	 0.32898530384689 
1244	 0.329171471166008 
1245	 0.329374690377982 
1246	 0.329605932897747 
1247	 0.329806436883691 
1248	 0.32999616008032 
1249	 0.330185475060804 
1250	 0.330353739557307 
1251	 0.330516369176213 
1252	 0.330687509134034 
1253	 0.33086788313223 
1254	 0.331036739169265 
1255	 0.331208148389076 
1256	 0.331361086322328 
1257	 0.331501490508219 
1258	 0.331643566517436 
1259	 0.331767061285835 
1260	 0.331903712591193 
1261	 0.332055201037009 
1262	 0.332190562100284 
1263	 0.332319643124326 
1264	 0.332450118968624 
1265	 0.332576902335249 
1266	 0.332696135584928 
1267	 0.332817148516229 
1268	 0.332928884542295 
1269	 0.333035346953812 
1270	 0.333125404493829 
1271	 0.333228425570748 
1272	 0.333325051550974 
1273	 0.333445708400393 
1274	 0.333581320750356 
1275	 0.333714825966807 
1276	 0.333860579954131 
1277	 0.334006564443176 
1278	 0.334144251555079 
1279	 0.334298956140728 
1280	 0.334474655523243 
1281	 0.33464206807239 
1282	 0.334819524072058 
1283	 0.334986590760937 
1284	 0.335144060731227 
1285	 0.335302592308632 
1286	 0.335465506690356 
1287	 0.335633618600419 
1288	 0.335796528549473 
1289	 0.335965973183534 
1290	 0.336125972383267 
1291	 0.336283093113088 
1292	 0.336428313916066 
1293	 0.336567218713096 
1294	 0.336697771102158 
1295	 0.336816214453144 
1296	 0.336930062940361 
1297	 0.337031994529084 
1298	 0.337144061873912 
1299	 0.337277444170694 
1300	 0.337367005645994 
1301	 0.337430354376086 
1302	 0.337500784519494 
1303	 0.337551899145234 
1304	 0.337589072660899 
1305	 0.337636103452952 
1306	 0.337674209482192 
1307	 0.337706756223647 
1308	 0.337720057327553 
1309	 0.337743408191645 
1310	 0.337778097290792 
1311	 0.33780685804555 
1312	 0.337829108165557 
1313	 0.337847802902725 
1314	 0.337867888765059 
1315	 0.33788150018776 
1316	 0.337873664235849 
1317	 0.337894438660463 
1318	 0.337937942910839 
1319	 0.337958359719987 
1320	 0.337994366977499 
1321	 0.33800826782587 
1322	 0.337988114727355 
1323	 0.337979386804321 
1324	 0.337996568146257 
1325	 0.337985324833987 
1326	 0.337986983391497 
1327	 0.337996330595347 
1328	 0.33798871230337 
1329	 0.337993083170212 
1330	 0.337992606372596 
1331	 0.337989983645611 
1332	 0.337995062909433 
1333	 0.3380028749971 
1334	 0.338008449107615 
1335	 0.338013460548731 
1336	 0.338032842833456 
1337	 0.338062301430415 
1338	 0.338080410345206 
1339	 0.338104456833524 
1340	 0.338125337619073 
1341	 0.338132987403023 
1342	 0.33814694515018 
1343	 0.338167023735422 
1344	 0.338186664924311 
1345	 0.338216014927096 
1346	 0.338250316228963 
1347	 0.338264906128508 
1348	 0.338285417250482 
1349	 0.338297511618845 
1350	 0.338271490060293 
1351	 0.338251140664954 
1352	 0.338225956617559 
1353	 0.338207496020049 
1354	 0.338172584173382 
1355	 0.338158912149822 
1356	 0.338166789056031 
1357	 0.338159027792147 
1358	 0.338140325070117 
1359	 0.338143920870515 
1360	 0.338152076919917 
1361	 0.338163335634148 
1362	 0.338187524832832 
1363	 0.338219171860347 
1364	 0.338257394155868 
1365	 0.338294969222446 
1366	 0.338341854186637 
1367	 0.338388436880019 
1368	 0.338439230243228 
1369	 0.338475726939829 
1370	 0.338516733393851 
1371	 0.338540274835081 
1372	 0.338528625243693 
1373	 0.338512907884833 
1374	 0.338482460134645 
1375	 0.338436636562609 
1376	 0.338376248626661 
1377	 0.338309709428451 
1378	 0.33821392640587 
1379	 0.338081819756202 
1380	 0.337970271371461 
1381	 0.337836563304247 
1382	 0.337726740820061 
1383	 0.33764105206919 
1384	 0.33754024341532 
1385	 0.337470426054953 
1386	 0.337348404752064 
1387	 0.33720160630761 
1388	 0.337036609350936 
1389	 0.336847727788914 
1390	 0.336616982830572 
1391	 0.336390430049114 
1392	 0.336146753671609 
1393	 0.335860855308783 
1394	 0.335566476357951 
1395	 0.335239680307544 
1396	 0.334904482072884 
1397	 0.334572610645641 
1398	 0.334238364932982 
1399	 0.33388610081914 
1400	 0.333527293521709 
1401	 0.33316272144548 
1402	 0.332780140098925 
1403	 0.332401012118578 
1404	 0.332007859073539 
1405	 0.331639525015489 
1406	 0.331283970118272 
1407	 0.330921297145526 
1408	 0.330567604939135 
1409	 0.330222681351712 
1410	 0.329869800801619 
1411	 0.329526702695042 
1412	 0.329188920565009 
1413	 0.328872676296291 
1414	 0.328582248481231 
1415	 0.328291489982463 
1416	 0.328030946697954 
1417	 0.327795568706444 
1418	 0.327531202715356 
1419	 0.327266932907211 
1420	 0.327035510531794 
1421	 0.326825319744509 
1422	 0.326635321885593 
1423	 0.32646310771714 
1424	 0.326298241175558 
1425	 0.326141962678208 
1426	 0.325991729665242 
1427	 0.325857103410133 
1428	 0.325728615999994 
1429	 0.325602418331754 
1430	 0.325483828783655 
1431	 0.325373160938989 
1432	 0.32527097545189 
1433	 0.325173308131428 
1434	 0.325092903793331 
1435	 0.325026312312748 
1436	 0.324968220481216 
1437	 0.324921519476448 
1438	 0.324881505582403 
1439	 0.324861136074418 
1440	 0.324829928892106 
1441	 0.324785268675053 
1442	 0.324749682260594 
1443	 0.324688679135253 
1444	 0.324633477186415 
1445	 0.32461879474409 
1446	 0.324596792795169 
1447	 0.324583723070436 
1448	 0.324600827314514 
1449	 0.324606914820591 
1450	 0.32461541480119 
1451	 0.324631889422315 
1452	 0.324649739202498 
1453	 0.324688196025668 
1454	 0.324734246319494 
1455	 0.324798043537729 
1456	 0.324902578370277 
1457	 0.324972389014495 
1458	 0.325037318350622 
1459	 0.325096934726659 
1460	 0.325125635980016 
1461	 0.325188262200206 
1462	 0.325268362719287 
1463	 0.32534545937804 
1464	 0.325443428686095 
1465	 0.325524994699089 
1466	 0.325599511633703 
1467	 0.325674489029199 
1468	 0.325743190141702 
1469	 0.325812435458951 
1470	 0.325879104188247 
1471	 0.325944593015602 
1472	 0.326010156890141 
1473	 0.3260976453812 
1474	 0.326211080671564 
1475	 0.326327719649835 
1476	 0.326449372664561 
1477	 0.326590017095628 
1478	 0.326731661098913 
1479	 0.326857754212527 
1480	 0.326990425701665 
1481	 0.327114008267274 
1482	 0.327219065898023 
1483	 0.327294242436533 
1484	 0.327400413112415 
1485	 0.32750080793795 
1486	 0.327624556082116 
1487	 0.327776395798258 
1488	 0.327916556781995 
1489	 0.32806605001863 
1490	 0.328200143304772 
1491	 0.328335473227567 
1492	 0.328455720170593 
1493	 0.328555208936022 
1494	 0.328663369133435 
1495	 0.328756672857899 
1496	 0.328873123111453 
1497	 0.329015192933105 
1498	 0.329137883876207 
1499	 0.32926880800668 
1500	 0.329378863877917 
1501	 0.32946268638175 
1502	 0.32955622401917 
1503	 0.329647551297067 
1504	 0.329737675656454 
1505	 0.329821776503117 
1506	 0.329908974235914 
1507	 0.329999557542333 
1508	 0.330089974183828 
1509	 0.330194558173877 
1510	 0.330298195551393 
1511	 0.330390419897118 
1512	 0.330477946835253 
1513	 0.330569231680509 
1514	 0.330650369995889 
1515	 0.330739479150417 
1516	 0.330840395012319 
1517	 0.330922475293354 
1518	 0.330998096282707 
1519	 0.331075398864513 
1520	 0.331139605112372 
1521	 0.331214328667485 
1522	 0.331295505324291 
1523	 0.331375753673448 
1524	 0.331456374745552 
1525	 0.33153549769104 
1526	 0.331614589155182 
1527	 0.331698569647178 
1528	 0.331790891386328 
1529	 0.331867471524536 
1530	 0.331941454738185 
1531	 0.332013928266829 
1532	 0.332069415531568 
1533	 0.332131552730991 
1534	 0.332199568050655 
1535	 0.33226693151293 
1536	 0.332334008475987 
1537	 0.332402614434052 
1538	 0.332472654825545 
1539	 0.332541392499289 
1540	 0.332604362700519 
1541	 0.332674141557415 
1542	 0.332758865052251 
1543	 0.332829148059367 
1544	 0.332900099275492 
1545	 0.332958563949115 
1546	 0.332998078767924 
1547	 0.333036959970988 
1548	 0.333093029347008 
1549	 0.333150850454314 
1550	 0.333211900539316 
1551	 0.333270402986421 
1552	 0.333306770205739 
1553	 0.333333471265992 
1554	 0.333364855082306 
1555	 0.333421313793197 
1556	 0.333503210423592 
1557	 0.333574775607695 
1558	 0.333626554817903 
1559	 0.333667083161334 
1560	 0.333713170509955 
1561	 0.3337417428826 
1562	 0.333779237326469 
1563	 0.333825252035787 
1564	 0.333877016701881 
1565	 0.33392130654409 
1566	 0.333980297819182 
1567	 0.334063225508749 
1568	 0.334126070819273 
1569	 0.334190391562374 
1570	 0.334230253547581 
1571	 0.334252148803989 
1572	 0.334283741814494 
1573	 0.334305589164983 
1574	 0.334325232421589 
1575	 0.334346551410891 
1576	 0.334366504985643 
1577	 0.334376441058984 
1578	 0.334386869921352 
1579	 0.334401594522891 
1580	 0.334419737256949 
1581	 0.334430705344463 
1582	 0.33445124129428 
1583	 0.334478496352159 
1584	 0.334511148750444 
1585	 0.33454460882714 
1586	 0.334586890819665 
1587	 0.334648954670546 
1588	 0.334697055941051 
1589	 0.334757132085609 
1590	 0.334789611603567 
1591	 0.334792197434529 
1592	 0.334810825486487 
1593	 0.334819925614654 
1594	 0.334829960918366 
1595	 0.334855547906345 
1596	 0.334870168858372 
1597	 0.334865234433107 
1598	 0.334874288347187 
1599	 0.334887484726303 
1600	 0.334901330381118 
1601	 0.33491703977789 
1602	 0.334943289717414 
1603	 0.334984374010434 
1604	 0.33501327680295 
1605	 0.335045540004749 
1606	 0.335074565067321 
1607	 0.335098333396032 
1608	 0.33510475815565 
1609	 0.335146637681777 
1610	 0.335175202896089 
1611	 0.335180570165624 
1612	 0.335202159743684 
1613	 0.335191136058361 
1614	 0.335170758952504 
1615	 0.335161399487924 
1616	 0.335152016529914 
1617	 0.335144967529181 
1618	 0.335142766152931 
1619	 0.335158603961287 
1620	 0.335171586319453 
1621	 0.335182613256835 
1622	 0.335204779608225 
1623	 0.335205730230414 
1624	 0.335190704422017 
1625	 0.335185505518584 
1626	 0.335174879179162 
1627	 0.335170271647105 
1628	 0.335170315359833 
1629	 0.335172294114455 
1630	 0.335174611756834 
1631	 0.335177362903667 
1632	 0.335182186653613 
1633	 0.335193372597946 
1634	 0.335209767149484 
1635	 0.33521959083882 
1636	 0.335239249090202 
1637	 0.335235789439741 
1638	 0.335210492112875 
1639	 0.335202182683526 
1640	 0.335192280618479 
1641	 0.335182845156354 
1642	 0.335179459859718 
1643	 0.335176789509064 
1644	 0.335169464181796 
1645	 0.335166261573656 
1646	 0.335176452684506 
1647	 0.335168541156982 
1648	 0.335139876763481 
1649	 0.335140817213762 
1650	 0.335147569112212 
1651	 0.335158593222049 
1652	 0.335204387465844 
1653	 0.335206491069247 
1654	 0.335185129862122 
1655	 0.335168111923422 
1656	 0.3351281611727 
1657	 0.335108287354606 
1658	 0.335106372387666 
1659	 0.335081091357591 
1660	 0.335046799799998 
1661	 0.335018222876806 
1662	 0.334971798167873 
1663	 0.334947571478999 
1664	 0.334943881471744 
1665	 0.334928760192177 
1666	 0.334917600029721 
1667	 0.334900376307426 
1668	 0.334879848717829 
1669	 0.334855293831583 
1670	 0.334824477933022 
1671	 0.334798350477739 
1672	 0.334762481924326 
1673	 0.334746073485755 
1674	 0.33474638169913 
1675	 0.334736851041407 
1676	 0.334726577525193 
1677	 0.334729906793805 
1678	 0.334743997144066 
1679	 0.334739321809853 
1680	 0.334738961949884 
1681	 0.334734540470545 
1682	 0.334712822165719 
1683	 0.334693866335297 
1684	 0.334686847980508 
1685	 0.334664206020061 
1686	 0.334614685337779 
1687	 0.334590965298037 
1688	 0.334579750279869 
1689	 0.334559829837555 
1690	 0.334541151859848 
1691	 0.334531808841005 
1692	 0.334528982861574 
1693	 0.334515283031002 
1694	 0.334515523197265 
1695	 0.334490637754692 
1696	 0.334421726306929 
1697	 0.334400165420365 
1698	 0.334389627189468 
1699	 0.334391218446357 
1700	 0.3344386258335 
1701	 0.334442751678444 
1702	 0.334438958729479 
1703	 0.334414746806172 
1704	 0.334356251975772 
1705	 0.334317816465123 
1706	 0.334272047466626 
1707	 0.334236825417463 
1708	 0.334216692172285 
1709	 0.334183936967528 
1710	 0.334141251262227 
1711	 0.334111194698219 
1712	 0.334078601905498 
1713	 0.3340597410269 
1714	 0.33406308147094 
1715	 0.334049050535608 
1716	 0.334024094100859 
1717	 0.334022796901347 
1718	 0.334034129440327 
1719	 0.334023388867798 
1720	 0.334030006442539 
1721	 0.334006386771098 
1722	 0.333949786019675 
1723	 0.33389823443428 
1724	 0.333834698777647 
1725	 0.333781105693048 
1726	 0.333717805705173 
1727	 0.333674046204482 
1728	 0.333647871504038 
1729	 0.333614315114074 
1730	 0.333599097702287 
1731	 0.333542460307881 
1732	 0.333468319410857 
1733	 0.333391141389806 
1734	 0.333281792445922 
1735	 0.333193613191735 
1736	 0.33311114853323 
1737	 0.333033654742737 
1738	 0.332950517492708 
1739	 0.332895179384116 
1740	 0.332861684749693 
1741	 0.332822131258929 
1742	 0.332799279977891 
1743	 0.33275969821246 
1744	 0.332717351373584 
1745	 0.332661646336509 
1746	 0.332599481380934 
1747	 0.332532322493575 
1748	 0.332448302619792 
1749	 0.332384406859248 
1750	 0.332303143910686 
1751	 0.332204256326182 
1752	 0.332132361679274 
1753	 0.332041678579592 
1754	 0.331964905404508 
1755	 0.331940068462682 
1756	 0.331863561084362 
1757	 0.3317833354571 
1758	 0.331768370990505 
1759	 0.331719375936986 
1760	 0.331680903405516 
1761	 0.331675178754125 
1762	 0.331605397822004 
1763	 0.331533154019299 
1764	 0.33150439304995 
1765	 0.331466498676141 
1766	 0.331429781558694 
1767	 0.331408285165866 
1768	 0.331379714577028 
1769	 0.33136355103572 
1770	 0.33134398296508 
1771	 0.331301633050635 
1772	 0.331227167154468 
1773	 0.331118309233127 
1774	 0.331021371288959 
1775	 0.330921768951928 
1776	 0.330849224455603 
1777	 0.33082667234892 
1778	 0.330814622576993 
1779	 0.330805963697106 
1780	 0.330774749473267 
1781	 0.330727233030026 
1782	 0.330674899214483 
1783	 0.330663685547478 
1784	 0.330645282754185 
1785	 0.330628203592365 
1786	 0.330600569263377 
1787	 0.330560234870059 
1788	 0.330531173378671 
1789	 0.330503015645768 
1790	 0.330489881563234 
1791	 0.330478928898766 
1792	 0.330474375021491 
1793	 0.330495187895286 
1794	 0.330495939079486 
1795	 0.330507947180835 
1796	 0.330485331296775 
1797	 0.330422680016221 
1798	 0.330383482280458 
1799	 0.330329382290051 
1800	 0.330297116332598 
1801	 0.328291951324686 
1802	 0.328370929377383 
1803	 0.328437997770057 
1804	 0.328550365003437 
1805	 0.328649660569245 
1806	 0.328743424303202 
1807	 0.328866404578837 
1808	 0.32896599777262 
1809	 0.32908433772521 
1810	 0.329158951362814 
1811	 0.329215169585153 
1812	 0.329239767165073 
1813	 0.329254177324875 
1814	 0.329259873717221 
1815	 0.32927694893655 
1816	 0.329278808730878 
1817	 0.329273793762357 
1818	 0.329252735826544 
1819	 0.329245003320006 
1820	 0.329228445174628 
1821	 0.329228758314256 
1822	 0.329243550916162 
1823	 0.329260920618898 
1824	 0.32928956858986 
1825	 0.329308543549281 
1826	 0.32932652951244 
1827	 0.329340559351167 
1828	 0.329347091093501 
1829	 0.329357557304315 
1830	 0.329343671218595 
1831	 0.329314871029969 
1832	 0.329285344551306 
1833	 0.329219104448303 
1834	 0.329151488383375 
1835	 0.329116516759328 
1836	 0.329073885852904 
1837	 0.329038550918095 
1838	 0.329009089136857 
1839	 0.329003074102788 
1840	 0.329010507978645 
1841	 0.329014117254897 
1842	 0.329040333766204 
1843	 0.329092162898463 
1844	 0.329086093573867 
1845	 0.329059119725415 
1846	 0.329010180304801 
1847	 0.328929960083743 
1848	 0.328852819980922 
1849	 0.328794909172009 
1850	 0.328758187247913 
1851	 0.32874531343317 
1852	 0.328737122435204 
1853	 0.328739180875772 
1854	 0.328721022177691 
1855	 0.328681361335804 
1856	 0.328648261029043 
1857	 0.328606101539831 
1858	 0.328537222334457 
1859	 0.328437578004727 
1860	 0.328304358725242 
1861	 0.328140158045998 
1862	 0.327914470392835 
1863	 0.327669382532685 
1864	 0.327423111104116 
1865	 0.327151635262756 
1866	 0.326847213381712 
1867	 0.326542593756682 
1868	 0.326254580522949 
1869	 0.325944151677681 
1870	 0.325648593037229 
1871	 0.325342181726441 
1872	 0.325048365524261 
1873	 0.32471868601222 
1874	 0.324356626471823 
1875	 0.323980376830757 
1876	 0.323579695889228 
1877	 0.323114077119766 
1878	 0.322599169540149 
1879	 0.32203624445343 
1880	 0.321404629169249 
1881	 0.320690904173994 
1882	 0.319944359304023 
1883	 0.319157933960598 
1884	 0.318291549439153 
1885	 0.317371800795139 
1886	 0.31642793735357 
1887	 0.31540208664803 
1888	 0.314320554622073 
1889	 0.313190724605125 
1890	 0.31200845748267 
1891	 0.310808824726565 
1892	 0.309564325861553 
1893	 0.30829915807856 
1894	 0.307012446360862 
1895	 0.305701207022068 
1896	 0.304320127373776 
1897	 0.302948831758784 
1898	 0.301576921826768 
1899	 0.300174408495707 
1900	 0.298797809238151 
1901	 0.29744614654138 
1902	 0.296137275483609 
1903	 0.294855821975323 
1904	 0.293615734662523 
1905	 0.292417188369164 
1906	 0.291264833010619 
1907	 0.290125987372307 
1908	 0.289028632081908 
1909	 0.288010556820739 
1910	 0.287007725074201 
1911	 0.28604228145019 
1912	 0.285124118334769 
1913	 0.284244966209082 
1914	 0.283389731414355 
1915	 0.282591501528501 
1916	 0.281844013480173 
1917	 0.281138717882107 
1918	 0.280477970608425 
1919	 0.279847393319348 
1920	 0.279273958020344 
1921	 0.278766528001372 
1922	 0.278308048931652 
1923	 0.277906625947021 
1924	 0.277554666197094 
1925	 0.27726332972586 
1926	 0.277009213346689 
1927	 0.276802818046814 
1928	 0.276640027162595 
1929	 0.276521860346025 
1930	 0.276427749402531 
1931	 0.276335697036792 
1932	 0.276269393079192 
1933	 0.276232536552031 
1934	 0.276229172272745 
1935	 0.276262219604894 
1936	 0.276358733230888 
1937	 0.276446482150189 
1938	 0.276548222769496 
1939	 0.276666862992148 
1940	 0.27678736546099 
1941	 0.276946920143699 
1942	 0.277139861331801 
1943	 0.277378597381264 
1944	 0.277627823405344 
1945	 0.277875428725341 
1946	 0.278139421851733 
1947	 0.278411699619209 
1948	 0.278685246513707 
1949	 0.278983637509241 
1950	 0.279271082781193 
1951	 0.279549049490193 
1952	 0.279831327486222 
1953	 0.280130531221303 
1954	 0.280417483699752 
1955	 0.280715572233901 
1956	 0.281029118954148 
1957	 0.281336563805953 
1958	 0.281637979585032 
1959	 0.281958905297073 
1960	 0.282273895599942 
1961	 0.282622217047379 
1962	 0.2830175226473 
1963	 0.283386819492623 
1964	 0.283766425244919 
1965	 0.284141654381813 
1966	 0.284489684649678 
1967	 0.284838349383442 
1968	 0.285199489025368 
1969	 0.285565531145309 
1970	 0.285930006750297 
1971	 0.286309509509758 
1972	 0.286675069812387 
1973	 0.287020785645008 
1974	 0.287392114979132 
1975	 0.287768701201931 
1976	 0.288148134707623 
1977	 0.288556819157487 
1978	 0.288959401537407 
1979	 0.289352963799659 
1980	 0.289738754875927 
1981	 0.290116384743774 
1982	 0.290479158841812 
1983	 0.290852051538642 
1984	 0.291216508118794 
1985	 0.291589312577553 
1986	 0.291968919195776 
1987	 0.29234642962513 
1988	 0.292717788735577 
1989	 0.29311091133548 
1990	 0.293510405711758 
1991	 0.293886766848122 
1992	 0.294275664232661 
1993	 0.294684184480503 
1994	 0.29506383392388 
1995	 0.295426782945257 
1996	 0.295796962753287 
1997	 0.296147498035427 
1998	 0.29651327278245 
1999	 0.296896560266861 
2000	 0.297269861539506 
2001	 0.297651707584783 
2002	 0.298015632963819 
2003	 0.298371987588822 
2004	 0.298728960844283 
2005	 0.299078491399094 
2006	 0.299421058983655 
2007	 0.29976781958761 
2008	 0.30010148984293 
2009	 0.300449916374326 
2010	 0.300808164792995 
2011	 0.301162738676039 
2012	 0.301535573104937 
2013	 0.301888407292731 
2014	 0.302220578197938 
2015	 0.302563395665445 
2016	 0.30290364439244 
2017	 0.303255732970022 
2018	 0.303614252362551 
2019	 0.303999309275912 
2020	 0.304353721217081 
2021	 0.304699095300555 
2022	 0.305045863269448 
2023	 0.305392813708276 
2024	 0.305725852797329 
2025	 0.306054415335897 
2026	 0.306370782909154 
2027	 0.306676252657049 
2028	 0.306952954483764 
2029	 0.30725540909882 
2030	 0.307557031977246 
2031	 0.307868912234645 
2032	 0.308187979039024 
2033	 0.308516722946154 
2034	 0.308854470663954 
2035	 0.309198359472812 
2036	 0.309578129923709 
2037	 0.309913236557207 
2038	 0.3102392117334 
2039	 0.310544821169591 
2040	 0.310824452977416 
2041	 0.311076842738205 
2042	 0.31134553921197 
2043	 0.311616151791442 
2044	 0.311886868115275 
2045	 0.312161675146814 
2046	 0.312433313008568 
2047	 0.312715932080049 
2048	 0.312972660383978 
2049	 0.313208707647468 
2050	 0.313456283973438 
2051	 0.313692351560886 
2052	 0.313927391778045 
2053	 0.314167259585633 
2054	 0.314411486756577 
2055	 0.314648236530773 
2056	 0.314892876701987 
2057	 0.315131655762581 
2058	 0.315382260319742 
2059	 0.31561251505591 
2060	 0.315820384854079 
2061	 0.316046281162584 
2062	 0.316276810749109 
2063	 0.316503553017254 
2064	 0.316734882272223 
2065	 0.316965356621923 
2066	 0.317185940571798 
2067	 0.317415372654573 
2068	 0.31765324751425 
2069	 0.31789185462469 
2070	 0.318124510629222 
2071	 0.318362303602411 
2072	 0.318585602369663 
2073	 0.318792546278326 
2074	 0.319015236184376 
2075	 0.319240740345967 
2076	 0.319460776350291 
2077	 0.319694203775606 
2078	 0.31990859318988 
2079	 0.320094585029462 
2080	 0.32030274037687 
2081	 0.320517408972914 
2082	 0.320728337740716 
2083	 0.320944238748167 
2084	 0.32117293599035 
2085	 0.321380091752075 
2086	 0.321573886157597 
2087	 0.321771562729892 
2088	 0.321955603349709 
2089	 0.322158212209251 
2090	 0.322370673500615 
2091	 0.322578069302327 
2092	 0.322788418017801 
2093	 0.323005935951517 
2094	 0.323225518787288 
2095	 0.323442559703824 
2096	 0.323686006326303 
2097	 0.323898050478709 
2098	 0.32409706354298 
2099	 0.32427652676411 
2100	 0.324447801241523 
2101	 0.324585356293523 
2102	 0.32476088220666 
2103	 0.324930755689839 
2104	 0.325132447428788 
2105	 0.32536048287972 
2106	 0.325593554762788 
2107	 0.325850192132478 
2108	 0.326099562551137 
2109	 0.326362459675863 
2110	 0.326618904834813 
2111	 0.32688336521322 
2112	 0.327128352313046 
2113	 0.327383603145146 
2114	 0.327595826859088 
2115	 0.327803365627626 
2116	 0.32798367385456 
2117	 0.328180851111713 
2118	 0.328356798672149 
2119	 0.328570309972544 
2120	 0.328817488623183 
2121	 0.329033374270618 
2122	 0.329258413380991 
2123	 0.329467529453701 
2124	 0.329652912811404 
2125	 0.329839467449314 
2126	 0.330032323805267 
2127	 0.330208892651883 
2128	 0.330381382397652 
2129	 0.330529149407525 
2130	 0.33065749784276 
2131	 0.330776525122446 
2132	 0.33087946327116 
2133	 0.330955957328225 
2134	 0.331033863902881 
2135	 0.331112084125252 
2136	 0.331162759330866 
2137	 0.331192013772098 
2138	 0.331221361574013 
2139	 0.331232433609351 
2140	 0.331241090178991 
2141	 0.331253835403708 
2142	 0.331244793143486 
2143	 0.331219078985617 
2144	 0.331186431729112 
2145	 0.331142791734888 
2146	 0.331088080338512 
2147	 0.331033537957767 
2148	 0.330948293331195 
2149	 0.33085658631943 
2150	 0.330744654216435 
2151	 0.330636120375458 
2152	 0.33052165266916 
2153	 0.330392858994037 
2154	 0.330249156264728 
2155	 0.330115094362288 
2156	 0.329975076455805 
2157	 0.329830100898158 
2158	 0.329700985153712 
2159	 0.329546818169755 
2160	 0.329372660847812 
2161	 0.329191267311363 
2162	 0.32898837437007 
2163	 0.328793525777042 
2164	 0.328601731754386 
2165	 0.328398008704405 
2166	 0.32818449008181 
2167	 0.327959210788859 
2168	 0.327757662680077 
2169	 0.327542894616343 
2170	 0.327359072407217 
2171	 0.327226059072567 
2172	 0.327043006451085 
2173	 0.326852572984318 
2174	 0.326647987416806 
2175	 0.326404454978735 
2176	 0.326188774068161 
2177	 0.325986188103009 
2178	 0.325770211395284 
2179	 0.325538062484822 
2180	 0.325334062594576 
2181	 0.325142365732911 
2182	 0.324944946357269 
2183	 0.324757407757342 
2184	 0.324591033384867 
2185	 0.324409287251398 
2186	 0.324209086893813 
2187	 0.324024409392439 
2188	 0.323843184221551 
2189	 0.323680508178027 
2190	 0.323531061488301 
2191	 0.323374838030006 
2192	 0.323243834441796 
2193	 0.323084023637763 
2194	 0.322881236896108 
2195	 0.322723716584904 
2196	 0.322590432539681 
2197	 0.32244147450489 
2198	 0.322306424678188 
2199	 0.322171284931241 
2200	 0.322001485340267 
2201	 0.321869229469429 
2202	 0.321757348443157 
2203	 0.321673083050676 
2204	 0.321593763690596 
2205	 0.321550793247622 
2206	 0.321462748399456 
2207	 0.321355375139951 
2208	 0.321275284771651 
2209	 0.321174754477504 
2210	 0.321112332310973 
2211	 0.321104804650572 
2212	 0.321055687320913 
2213	 0.321006647707941 
2214	 0.320941463967005 
2215	 0.32083808410101 
2216	 0.320772797125118 
2217	 0.320710017283418 
2218	 0.320659869103182 
2219	 0.320648423973926 
2220	 0.320617533478697 
2221	 0.320565360482459 
2222	 0.320547813588422 
2223	 0.320536598349179 
2224	 0.320474833879542 
2225	 0.320444565869769 
2226	 0.320426735781166 
2227	 0.320392315750206 
2228	 0.32037321066847 
2229	 0.32030639175287 
2230	 0.320201762255668 
2231	 0.320118716977097 
2232	 0.320027307351019 
2233	 0.319914866440941 
2234	 0.319782921039228 
2235	 0.319686600559097 
2236	 0.319573706195836 
2237	 0.319481370991652 
2238	 0.3194280941803 
2239	 0.319378447865013 
2240	 0.319322080713548 
2241	 0.319282987183448 
2242	 0.319285623891352 
2243	 0.319269895203913 
2244	 0.319247387341951 
2245	 0.319234027179755 
2246	 0.319187475220456 
2247	 0.319148471267902 
2248	 0.319109639685018 
2249	 0.319054196915368 
2250	 0.319017036617099 
2251	 0.318993842607505 
2252	 0.318979555819384 
2253	 0.318984141745519 
2254	 0.318956033745758 
2255	 0.318910337639677 
2256	 0.318888538495541 
2257	 0.318839206401131 
2258	 0.318844536239829 
2259	 0.318926856034047 
2260	 0.318948936284161 
2261	 0.318949965010799 
2262	 0.318967232333379 
2263	 0.318970240258139 
2264	 0.318975539995155 
2265	 0.319023388213363 
2266	 0.319025717757412 
2267	 0.318958228307763 
2268	 0.318943458502371 
2269	 0.318957896333547 
2270	 0.318940587308493 
2271	 0.318938182491943 
2272	 0.318951489228843 
2273	 0.318884284784002 
2274	 0.318813519022818 
2275	 0.3187640174341 
2276	 0.318702282665445 
2277	 0.318694043237687 
2278	 0.318732525503199 
2279	 0.318729525409872 
2280	 0.31874939524326 
2281	 0.318729498394854 
2282	 0.31866377849049 
2283	 0.318623696936726 
2284	 0.318592981411727 
2285	 0.318550436710412 
2286	 0.318482060576872 
2287	 0.318453033050059 
2288	 0.318441737202132 
2289	 0.318422261421422 
2290	 0.318438409667182 
2291	 0.318428744273165 
2292	 0.318371277169369 
2293	 0.318356923034817 
2294	 0.318365465684535 
2295	 0.318365112297496 
2296	 0.318380146028275 
2297	 0.318416969845188 
2298	 0.318398944330338 
2299	 0.318366002806899 
2300	 0.318275114120215 
2301	 0.318159613970069 
2302	 0.318084124546519 
2303	 0.318022376218317 
2304	 0.317991471545 
2305	 0.318021537979913 
2306	 0.318026633923225 
2307	 0.318045931873061 
2308	 0.318022943831503 
2309	 0.318005091211765 
2310	 0.317939018227866 
2311	 0.31783356379925 
2312	 0.317695945722945 
2313	 0.317499942016546 
2314	 0.317345596103979 
2315	 0.317148568606524 
2316	 0.317025567386559 
2317	 0.316964521675139 
2318	 0.316885325669068 
2319	 0.31684291688765 
2320	 0.316766227449235 
2321	 0.316681974856229 
2322	 0.316589485796605 
2323	 0.316468122858713 
2324	 0.316376567675412 
2325	 0.316282442769385 
2326	 0.316200765602733 
2327	 0.316157534204208 
2328	 0.316078873399929 
2329	 0.315972269479583 
2330	 0.315902069746816 
2331	 0.315845987215619 
2332	 0.315751996469823 
2333	 0.315656739972055 
2334	 0.315575673818467 
2335	 0.315479221883139 
2336	 0.315398326489146 
2337	 0.315339634837189 
2338	 0.315281299121302 
2339	 0.315194199132777 
2340	 0.315108082486566 
2341	 0.314981954175124 
2342	 0.314823598929052 
2343	 0.314657057359153 
2344	 0.314428063355209 
2345	 0.314229400643038 
2346	 0.314031473087862 
2347	 0.313821806469019 
2348	 0.313630494120407 
2349	 0.313407600398928 
2350	 0.313166726116119 
2351	 0.312924905496252 
2352	 0.312658492916016 
2353	 0.31235842125566 
2354	 0.3120039475371 
2355	 0.311738830938141 
2356	 0.311491546446974 
2357	 0.311262464255897 
2358	 0.311117939553598 
2359	 0.310907396307087 
2360	 0.310679184918834 
2361	 0.31042582131735 
2362	 0.310168673133983 
2363	 0.30988236306219 
2364	 0.309506509018979 
2365	 0.309196801215747 
2366	 0.308902231620465 
2367	 0.308602061440612 
2368	 0.308321863605227 
2369	 0.308076281515138 
2370	 0.307859220611551 
2371	 0.307622650484713 
2372	 0.307370872993175 
2373	 0.307096947377712 
2374	 0.306782528379339 
2375	 0.306454052630746 
2376	 0.306147301153963 
2377	 0.305851141513349 
2378	 0.305559953362257 
2379	 0.30521794492698 
2380	 0.304795890733567 
2381	 0.304403638011064 
2382	 0.304018565027974 
2383	 0.303734508514891 
2384	 0.303573133587414 
2385	 0.30335397226855 
2386	 0.30310895734773 
2387	 0.302801174996774 
2388	 0.302496596045399 
2389	 0.302210140441036 
2390	 0.301835008804999 
2391	 0.301516028610049 
2392	 0.301208826565176 
2393	 0.300861655721767 
2394	 0.300553695573904 
2395	 0.300202877856572 
2396	 0.299841109230973 
2397	 0.299529187918563 
2398	 0.299217557515586 
2399	 0.298886606326168 
2400	 0.298582776981306 
2401	 0.298296610820904 
2402	 0.297994342703751 
2403	 0.29775544501062 
2404	 0.297518161281542 
2405	 0.297182863375099 
2406	 0.296876889725349 
2407	 0.296632119363945 
2408	 0.296318172703544 
2409	 0.295975953221604 
2410	 0.295626106021688 
2411	 0.295201126266676 
2412	 0.294806178683158 
2413	 0.294512841789769 
2414	 0.294253471631078 
2415	 0.294024554982018 
2416	 0.293780319928503 
2417	 0.293555141776215 
2418	 0.293250868269361 
2419	 0.292923095715616 
2420	 0.292543109588619 
2421	 0.292037227327813 
2422	 0.291683744565206 
2423	 0.291373091004819 
2424	 0.291077670469541 
2425	 0.290886443335798 
2426	 0.290607553814841 
2427	 0.290259661429063 
2428	 0.290023088853006 
2429	 0.289873644308063 
2430	 0.289626702720121 
2431	 0.289409164621267 
2432	 0.289075904047856 
2433	 0.28853769250494 
2434	 0.288171540601028 
2435	 0.287851204055404 
2436	 0.287557580295491 
2437	 0.287361918302736 
2438	 0.287137417727707 
2439	 0.286956942747252 
2440	 0.286706033858192 
2441	 0.28641555608845 
2442	 0.286133135269833 
2443	 0.285796548474253 
2444	 0.285473739543397 
2445	 0.28515439748449 
2446	 0.284878360076251 
2447	 0.284669226831817 
2448	 0.284337750544965 
2449	 0.283986076050949 
2450	 0.283610683037711 
2451	 0.283016770140578 
2452	 0.282602047064459 
2453	 0.282375371473376 
2454	 0.282056657654879 
2455	 0.281767469112916 
2456	 0.281468013955 
2457	 0.281048385348389 
2458	 0.280725669882929 
2459	 0.280511004354648 
2460	 0.280308021991931 
2461	 0.280196978321473 
2462	 0.279949208450538 
2463	 0.279649760103829 
2464	 0.279298033684074 
2465	 0.278780056802906 
2466	 0.27843846489282 
2467	 0.278170777208545 
2468	 0.277822531053808 
2469	 0.277533923435869 
2470	 0.277219934941264 
2471	 0.276941683104562 
2472	 0.276637852775913 
2473	 0.276230573339048 
2474	 0.275954763724037 
2475	 0.275665929206564 
2476	 0.275181020231414 
2477	 0.274818162783732 
2478	 0.274306492022469 
2479	 0.273715447645854 
2480	 0.273623232731383 
2481	 0.273392169364535 
2482	 0.273010128729836 
2483	 0.272956342923426 
2484	 0.272681937513721 
2485	 0.272306817179976 
2486	 0.272067978804617 
2487	 0.27172335210754 
2488	 0.271365835465001 
2489	 0.271134734412963 
2490	 0.271020989127813 
2491	 0.270910578282541 
2492	 0.270749073372328 
2493	 0.270354891594248 
2494	 0.269853683907514 
2495	 0.269365472583032 
2496	 0.268756838699327 
2497	 0.268372346729351 
2498	 0.268227288099769 
2499	 0.268063615817765 
2500	 0.268004678010839 
