Wavelength	LMW800004.asd
350	 6.44644394973828E-02 
351	 5.99073468529308E-02 
352	 5.53887195195063E-02 
353	 5.35777055301701E-02 
354	 5.85186519332773E-02 
355	 6.03600771946204E-02 
356	 5.94761115982363E-02 
357	 5.87842442335752E-02 
358	 5.99070850174289E-02 
359	 0.058303358555722 
360	 5.66027647392736E-02 
361	 6.07528628668066E-02 
362	 5.82984022804109E-02 
363	 5.80952029213832E-02 
364	 6.16684694530115E-02 
365	 5.46050642277062E-02 
366	 5.42311917103426E-02 
367	 5.71198915582067E-02 
368	 5.69008338534752E-02 
369	 6.00466486056255E-02 
370	 5.96863026601304E-02 
371	 5.64928224499071E-02 
372	 5.63458396300368E-02 
373	 0.05971388521074 
374	 6.20186553855189E-02 
375	 6.13275990949246E-02 
376	 6.13856116544409E-02 
377	 6.02388203158284E-02 
378	 5.93944916816991E-02 
379	 6.03960665959084E-02 
380	 6.09449011749161E-02 
381	 5.93635513196846E-02 
382	 5.85391014736083E-02 
383	 6.35611675271278E-02 
384	 6.23539076900534E-02 
385	 5.95689713516988E-02 
386	 5.97942701064805E-02 
387	 6.30877697877262E-02 
388	 6.43252838079809E-02 
389	 6.34803213864286E-02 
390	 6.23561406473948E-02 
391	 6.18895686146746E-02 
392	 6.17738552381307E-02 
393	 6.24662495004531E-02 
394	 6.48470073365584E-02 
395	 0.0651290115536 
396	 6.44639546283067E-02 
397	 6.43032985479777E-02 
398	 6.49002857006899E-02 
399	 6.54883296061541E-02 
400	 6.61368495002321E-02 
401	 6.69392791081848E-02 
402	 6.62410212660976E-02 
403	 6.57327718095419E-02 
404	 6.58430914995043E-02 
405	 6.55679817718448E-02 
406	 6.60561096079425E-02 
407	 6.69823226294544E-02 
408	 0.067687653812511 
409	 0.067403084352019 
410	 6.69818290138946E-02 
411	 6.66986419704379E-02 
412	 6.65743403246489E-02 
413	 6.70459638618492E-02 
414	 6.72877735236841E-02 
415	 6.71100711276072E-02 
416	 6.72446931283478E-02 
417	 6.75107909887213E-02 
418	 6.78711524323547E-02 
419	 6.81989323787632E-02 
420	 6.79955268090826E-02 
421	 6.75981726826485E-02 
422	 6.75417103549752E-02 
423	 6.82681672993978E-02 
424	 6.79080413953689E-02 
425	 6.74630759301191E-02 
426	 6.75346930692161E-02 
427	 6.73286086005297E-02 
428	 6.70943257576686E-02 
429	 6.68333010129591E-02 
430	 6.65905252260935E-02 
431	 6.70253850334315E-02 
432	 6.70167293088876E-02 
433	 6.65308648791085E-02 
434	 6.66020775948827E-02 
435	 6.67127424568205E-02 
436	 6.68572885237866E-02 
437	 6.69846169148285E-02 
438	 6.66348710750435E-02 
439	 6.64263038451581E-02 
440	 6.66162252938463E-02 
441	 6.71298863789568E-02 
442	 6.68525202749224E-02 
443	 6.68547523863697E-02 
444	 6.73904416872954E-02 
445	 6.71569952011024E-02 
446	 0.067376552079594 
447	 6.77134689420424E-02 
448	 6.76088197805688E-02 
449	 6.74991377870415E-02 
450	 6.76084520142208E-02 
451	 6.78585184179734E-02 
452	 6.79418943387501E-02 
453	 6.81744768328453E-02 
454	 6.81758703408557E-02 
455	 6.78626776290298E-02 
456	 6.81936586472545E-02 
457	 6.82857608022389E-02 
458	 6.81586436624736E-02 
459	 6.82209238431093E-02 
460	 0.068535998439709 
461	 6.83925113432203E-02 
462	 6.79003756283366E-02 
463	 6.83958827995407E-02 
464	 6.88171584016596E-02 
465	 6.88791567646435E-02 
466	 6.86527133816716E-02 
467	 6.86867628554135E-02 
468	 0.068760843442011 
469	 6.87672578534776E-02 
470	 6.87203085486875E-02 
471	 6.88610412183218E-02 
472	 6.88727331008426E-02 
473	 6.86321882403188E-02 
474	 0.068682469294109 
475	 6.88113255880574E-02 
476	 6.88963846559224E-02 
477	 6.88774040263577E-02 
478	 6.89202339037313E-02 
479	 0.069004046659613 
480	 6.90575884130519E-02 
481	 6.89599701192729E-02 
482	 6.90301621247931E-02 
483	 6.91643517849706E-02 
484	 6.92090477642324E-02 
485	 6.93553924732432E-02 
486	 6.93536231784939E-02 
487	 6.91791705072747E-02 
488	 0.069007970841187 
489	 0.068956783669808 
490	 6.90000690640769E-02 
491	 0.06907316051365 
492	 6.91007234428538E-02 
493	 6.91008581737562E-02 
494	 0.069134444336588 
495	 6.92532889373783E-02 
496	 6.92734591033451E-02 
497	 6.92135035015945E-02 
498	 6.91382267803477E-02 
499	 6.91466770747441E-02 
500	 6.91919138952182E-02 
501	 6.91806725558826E-02 
502	 6.90729938999115E-02 
503	 6.91132444371797E-02 
504	 6.92092709337036E-02 
505	 6.92611459175386E-02 
506	 6.91853287601294E-02 
507	 6.91546192369971E-02 
508	 6.91514756630206E-02 
509	 6.91222854351327E-02 
510	 6.90171463611089E-02 
511	 6.89257053073931E-02 
512	 6.89088147272776E-02 
513	 6.89934739217948E-02 
514	 6.90905702522155E-02 
515	 6.91036754494737E-02 
516	 6.90404144983959E-02 
517	 6.90832915806316E-02 
518	 6.90517303642954E-02 
519	 0.069009985188735 
520	 6.90632420771415E-02 
521	 6.90971831953058E-02 
522	 0.06911425033858 
523	 6.91181083035805E-02 
524	 6.91074018085001E-02 
525	 6.91297692663975E-02 
526	 6.91150115832273E-02 
527	 6.90318604429617E-02 
528	 0.069051820018757 
529	 6.90983349300878E-02 
530	 6.91550256593972E-02 
531	 6.92350607629036E-02 
532	 6.91889874811989E-02 
533	 6.92028779441652E-02 
534	 6.93427492923281E-02 
535	 6.93273613932672E-02 
536	 6.92909809550121E-02 
537	 6.92875742293508E-02 
538	 0.06932990422397 
539	 6.93399777190791E-02 
540	 6.93545580834782E-02 
541	 6.93954101590462E-02 
542	 6.94527130978452E-02 
543	 6.94985123394445E-02 
544	 0.069534938200208 
545	 6.95710969098447E-02 
546	 6.96053580760493E-02 
547	 6.96240893759894E-02 
548	 0.069636994762114 
549	 6.96724479394283E-02 
550	 6.97234116426015E-02 
551	 0.069767807595579 
552	 6.98042507394403E-02 
553	 6.98991539244435E-02 
554	 6.99545578760621E-02 
555	 6.99906155907046E-02 
556	 7.00776416090443E-02 
557	 7.01128893676194E-02 
558	 7.02210743618613E-02 
559	 7.04256678006369E-02 
560	 7.05348656736284E-02 
561	 7.05953713654789E-02 
562	 7.06450095645631E-02 
563	 7.07273213150798E-02 
564	 7.08944931369086E-02 
565	 7.10693628563114E-02 
566	 7.12037490447933E-02 
567	 0.071293306374791 
568	 7.14719244736902E-02 
569	 7.17061204905074E-02 
570	 7.19268662491522E-02 
571	 7.20939733973784E-02 
572	 7.23049702439276E-02 
573	 7.25738398897885E-02 
574	 7.28471109787432E-02 
575	 7.30417024486788E-02 
576	 7.32641488364113E-02 
577	 7.35731853309829E-02 
578	 7.38598569487904E-02 
579	 7.41349662396436E-02 
580	 0.074433677510299 
581	 7.47952024398255E-02 
582	 7.51789631043093E-02 
583	 7.55504739873392E-02 
584	 7.59203954565601E-02 
585	 7.63648323783803E-02 
586	 7.67896750093675E-02 
587	 0.077201187847784 
588	 7.76339819235957E-02 
589	 7.81090794541559E-02 
590	 0.078592103385745 
591	 7.90678088424874E-02 
592	 7.95429830962334E-02 
593	 8.00519302766844E-02 
594	 8.05384391255203E-02 
595	 8.09849456273917E-02 
596	 8.15303210805077E-02 
597	 8.20748357072544E-02 
598	 8.25901465321007E-02 
599	 8.30922870184169E-02 
600	 8.36119588532585E-02 
601	 8.41231700674995E-02 
602	 8.46083965520754E-02 
603	 8.50762157352872E-02 
604	 8.55661230000061E-02 
605	 8.60792475481287E-02 
606	 8.65969361020136E-02 
607	 8.70883487995937E-02 
608	 8.75578832940686E-02 
609	 0.088019570133149 
610	 8.84953428066419E-02 
611	 8.89309631693107E-02 
612	 0.089370869954454 
613	 8.98331755278757E-02 
614	 9.01645555000836E-02 
615	 0.090508702800643 
616	 9.08957166023804E-02 
617	 9.12691338760649E-02 
618	 9.15921904333366E-02 
619	 9.18816520136715E-02 
620	 9.21600363566227E-02 
621	 9.24380586065138E-02 
622	 9.27231468426321E-02 
623	 9.29954388934223E-02 
624	 9.32352912527604E-02 
625	 9.35085656340235E-02 
626	 9.37740993119899E-02 
627	 9.40030549312655E-02 
628	 9.41937459968014E-02 
629	 9.44168266728989E-02 
630	 9.46584851602101E-02 
631	 9.48810584897167E-02 
632	 9.50583483047194E-02 
633	 9.52188843364061E-02 
634	 9.54073057331214E-02 
635	 9.56680500095168E-02 
636	 9.58391333907008E-02 
637	 9.60025501569871E-02 
638	 0.096218916887119 
639	 9.63860481021462E-02 
640	 9.65564468130318E-02 
641	 9.67548914527265E-02 
642	 0.096982088065517 
643	 9.71558351157322E-02 
644	 9.73210944449469E-02 
645	 9.75054669158978E-02 
646	 9.76919397111559E-02 
647	 0.097908172927483 
648	 0.09811579573259 
649	 0.098285089181148 
650	 9.85034094087939E-02 
651	 9.87464400976037E-02 
652	 9.89746068069419E-02 
653	 9.91468996827191E-02 
654	 9.93897142657633E-02 
655	 9.96311790456634E-02 
656	 9.98232420439578E-02 
657	 0.100069677904466 
658	 0.100335428141257 
659	 0.100573795886646 
660	 0.100752213837107 
661	 0.101004718879607 
662	 0.101294131127593 
663	 0.101583236749221 
664	 0.101860381012411 
665	 0.102139840012004 
666	 0.102437947208973 
667	 0.102753323452644 
668	 0.103002145704639 
669	 0.103301910565882 
670	 0.10364996747489 
671	 0.103944058576594 
672	 0.104252707891969 
673	 0.104595198942377 
674	 0.104962713063735 
675	 0.105301419956935 
676	 0.105634840004588 
677	 0.105981807429973 
678	 0.106351960142838 
679	 0.106694176495907 
680	 0.10706582996569 
681	 0.107483363352312 
682	 0.107899862631619 
683	 0.108323014697695 
684	 0.108714546690401 
685	 0.109067102190778 
686	 0.109518425570702 
687	 0.109976817111184 
688	 0.110423132805738 
689	 0.110889235633268 
690	 0.11133568481367 
691	 0.111767924344979 
692	 0.112210625784396 
693	 0.112720651633206 
694	 0.113184918039222 
695	 0.113648551771358 
696	 0.114181805341685 
697	 0.114637662786036 
698	 0.115139459633178 
699	 0.115707926580531 
700	 0.116240870463656 
701	 0.11673552149961 
702	 0.117233900162771 
703	 0.117764660862393 
704	 0.118288153131065 
705	 0.118802013933324 
706	 0.119320357856609 
707	 0.119861690168426 
708	 0.120400174124027 
709	 0.120937541860836 
710	 0.121479452183725 
711	 0.122034409188699 
712	 0.122563477477261 
713	 0.123060366020969 
714	 0.123544037540199 
715	 0.124085398612024 
716	 0.124606427717122 
717	 0.125100066864837 
718	 0.125609939138444 
719	 0.126111175187886 
720	 0.126576203856417 
721	 0.127006933145811 
722	 0.127459178835479 
723	 0.127934069689333 
724	 0.128413101587557 
725	 0.128867671972684 
726	 0.129267534376586 
727	 0.129658135086488 
728	 0.130034760302857 
729	 0.130348058052769 
730	 0.130697610055237 
731	 0.131055528389528 
732	 0.131379056073508 
733	 0.131646741522455 
734	 0.13191458457392 
735	 0.132158574096635 
736	 0.132344255095687 
737	 0.132596652422031 
738	 0.132799326054385 
739	 0.13293293649307 
740	 0.13309969564593 
741	 0.133230467818065 
742	 0.133320058427975 
743	 0.133380277486052 
744	 0.133435441696894 
745	 0.133431434950058 
746	 0.133407059569013 
747	 0.133425382466939 
748	 0.133379322559974 
749	 0.133316620038959 
750	 0.133253055558423 
751	 0.133150396472023 
752	 0.133060808919385 
753	 0.132943787843343 
754	 0.132770410618588 
755	 0.132607698719147 
756	 0.132438062275241 
757	 0.132245913042787 
758	 0.132022800924723 
759	 0.131811069449583 
760	 0.131557829187294 
761	 0.131274042910022 
762	 0.131057452453127 
763	 0.130788481170525 
764	 0.130486142268522 
765	 0.130189466834014 
766	 0.129893665149996 
767	 0.129584532104319 
768	 0.129259916436945 
769	 0.128926144126391 
770	 0.12860174491629 
771	 0.128260799906247 
772	 0.12789179751231 
773	 0.127506437295752 
774	 0.127181430548773 
775	 0.126845113420954 
776	 0.126445582815262 
777	 0.126078850386137 
778	 0.125728161791981 
779	 0.125370265024689 
780	 0.124984117596897 
781	 0.124593036462641 
782	 0.124236332554753 
783	 0.123890945972605 
784	 0.123475819441828 
785	 0.123118239926068 
786	 0.122808022187766 
787	 0.12249787310286 
788	 0.122119111862403 
789	 0.121722360426959 
790	 0.121357052145765 
791	 0.1210484314899 
792	 0.120703528099962 
793	 0.12034456059944 
794	 0.119995488392156 
795	 0.119672889540035 
796	 0.119333628157527 
797	 0.118995819505721 
798	 0.118668698816903 
799	 0.118324915781472 
800	 0.118022379320926 
801	 0.117730351376342 
802	 0.117408639283033 
803	 0.117089232084582 
804	 0.116814744543034 
805	 0.116559572492796 
806	 0.116262916183499 
807	 0.115962195637094 
808	 0.115643357272772 
809	 0.115342850559202 
810	 0.115160444575208 
811	 0.114912449288321 
812	 0.114640226038 
813	 0.114400217741878 
814	 0.114142490051137 
815	 0.113873224347307 
816	 0.113619190286941 
817	 0.113409736995972 
818	 0.113237637048593 
819	 0.11304110860089 
820	 0.112810627731049 
821	 0.112586102730235 
822	 0.112393900332988 
823	 0.112194535937236 
824	 0.111981157065751 
825	 0.111818308664207 
826	 0.111618163802763 
827	 0.111435627092237 
828	 0.111321542703886 
829	 0.111192133210131 
830	 0.111013609611003 
831	 0.110823740527371 
832	 0.110685342047217 
833	 0.110565601048879 
834	 0.110439452861383 
835	 0.110317088162294 
836	 0.110232433634709 
837	 0.110069168761109 
838	 0.109926515463559 
839	 0.109849862556692 
840	 0.109732716471201 
841	 0.109659085109277 
842	 0.109565622094399 
843	 0.10941288725851 
844	 0.109359172789217 
845	 0.109339543925342 
846	 0.109297275596574 
847	 0.109202722134325 
848	 0.109153612427373 
849	 0.10909899847821 
850	 0.109026193197953 
851	 0.108964467706453 
852	 0.108940612082436 
853	 0.108918114697096 
854	 0.108879207056568 
855	 0.108847494300265 
856	 0.108863938093632 
857	 0.108854019863247 
858	 0.108786393378257 
859	 0.108815917496422 
860	 0.108790275460679 
861	 0.10876867608146 
862	 0.108841637376082 
863	 0.108898431380803 
864	 0.108893395727511 
865	 0.108867526016045 
866	 0.108900814995307 
867	 0.108930200893177 
868	 0.10899618600778 
869	 0.109073671180939 
870	 0.109075469254463 
871	 0.109107978822513 
872	 0.109175150275807 
873	 0.109263358667765 
874	 0.109360154448992 
875	 0.109423475166955 
876	 0.109499673416376 
877	 0.109620247531598 
878	 0.109714494424008 
879	 0.109845443877788 
880	 0.109956774713902 
881	 0.11000204340042 
882	 0.110148985155866 
883	 0.110288779184914 
884	 0.110401392406637 
885	 0.110517136508176 
886	 0.110611978551457 
887	 0.110768499045117 
888	 0.110952725328826 
889	 0.111044972356685 
890	 0.111154533402254 
891	 0.111295603057799 
892	 0.111492551429701 
893	 0.111782592904608 
894	 0.11190601073614 
895	 0.112033431493252 
896	 0.112275778721359 
897	 0.112479466092735 
898	 0.112680211009216 
899	 0.11288225933402 
900	 0.113081143260909 
901	 0.113258602634632 
902	 0.11347337656223 
903	 0.113742608905845 
904	 0.114043624942321 
905	 0.114278787798588 
906	 0.114530757505259 
907	 0.114794540435475 
908	 0.115038217177037 
909	 0.115334161067197 
910	 0.115597156118824 
911	 0.115851013967119 
912	 0.11617700386233 
913	 0.11649885186632 
914	 0.116770816707906 
915	 0.117039736447555 
916	 0.117403370239964 
917	 0.1176458095998 
918	 0.117955689259611 
919	 0.118372848985001 
920	 0.118717625264092 
921	 0.119090835682318 
922	 0.119427145624705 
923	 0.119719645352328 
924	 0.120078013995347 
925	 0.120466569376336 
926	 0.120917098923066 
927	 0.121398228656687 
928	 0.121748667059206 
929	 0.122194258849247 
930	 0.122635044802405 
931	 0.122990613896331 
932	 0.123422475164327 
933	 0.123872791208355 
934	 0.124338583122776 
935	 0.124810261983272 
936	 0.125214079922455 
937	 0.125679846281393 
938	 0.126155762058326 
939	 0.126585324183112 
940	 0.12712258323131 
941	 0.127652231367713 
942	 0.128167290258227 
943	 0.128706656145532 
944	 0.129302584598143 
945	 0.129840603147483 
946	 0.130388893473459 
947	 0.131022127523794 
948	 0.131446267181327 
949	 0.131951709272779 
950	 0.132569867400936 
951	 0.13319904038915 
952	 0.133882013214535 
953	 0.134512776173131 
954	 0.135060889037065 
955	 0.135582220993399 
956	 0.136289134425624 
957	 0.13696223282026 
958	 0.137575288088267 
959	 0.138232910499114 
960	 0.138938406331425 
961	 0.139632808980661 
962	 0.140336177860807 
963	 0.141088192977651 
964	 0.141712277050629 
965	 0.142385856587917 
966	 0.143155845314202 
967	 0.143946640211033 
968	 0.144645691469414 
969	 0.145307525913448 
970	 0.146013728936581 
971	 0.146821876531802 
972	 0.147635948224068 
973	 0.148427723785948 
974	 0.149190799333301 
975	 0.149944476567739 
976	 0.150761275966193 
977	 0.15157423897538 
978	 0.1523592911905 
979	 0.153136137388016 
980	 0.153955287512627 
981	 0.154734516934694 
982	 0.15551233257969 
983	 0.156377435416975 
984	 0.157235551780937 
985	 0.158086357056203 
986	 0.158951751909565 
987	 0.159840967864144 
988	 0.16064990381985 
989	 0.161568115912822 
990	 0.162527383553423 
991	 0.163366834243723 
992	 0.164203095914748 
993	 0.165019818054736 
994	 0.165829769895706 
995	 0.166674486096734 
996	 0.167662260617234 
997	 0.168504729036498 
998	 0.169371137253215 
999	 0.170444110063861 
1000	 0.17126433705075 
1001	 0.173464517706036 
1002	 0.174288112259688 
1003	 0.175143859436685 
1004	 0.176031902073302 
1005	 0.176937706574352 
1006	 0.177826295552819 
1007	 0.178764777493296 
1008	 0.179630174902362 
1009	 0.180451380617785 
1010	 0.181327437432295 
1011	 0.182191320926973 
1012	 0.183040404773815 
1013	 0.183921922557981 
1014	 0.184793079192688 
1015	 0.185588660558525 
1016	 0.186452092140921 
1017	 0.187282573544823 
1018	 0.188104375705728 
1019	 0.188827405807326 
1020	 0.189623302960218 
1021	 0.190419858659438 
1022	 0.191210321130937 
1023	 0.192021979778162 
1024	 0.192805400658349 
1025	 0.193570720290604 
1026	 0.194315120484651 
1027	 0.195068840520992 
1028	 0.195853675247442 
1029	 0.19665487160272 
1030	 0.197452362026669 
1031	 0.198209860091535 
1032	 0.19895665854427 
1033	 0.199685315037282 
1034	 0.200405327322464 
1035	 0.201108799942698 
1036	 0.201806196299333 
1037	 0.202504044738693 
1038	 0.203201804215272 
1039	 0.203920049014019 
1040	 0.204672783859323 
1041	 0.205388560336314 
1042	 0.206130471481522 
1043	 0.206875042836682 
1044	 0.207572421001755 
1045	 0.20822693085586 
1046	 0.208959910237409 
1047	 0.2096653209073 
1048	 0.21034370190281 
1049	 0.21108692211343 
1050	 0.21182215657663 
1051	 0.212555013907988 
1052	 0.213259604682748 
1053	 0.213944072505466 
1054	 0.214670117433377 
1055	 0.215378126566579 
1056	 0.216060353337474 
1057	 0.216778439041415 
1058	 0.217542990146561 
1059	 0.218259912456063 
1060	 0.218950510114379 
1061	 0.219681289700602 
1062	 0.220426507787004 
1063	 0.221133160244251 
1064	 0.221862860614592 
1065	 0.222602862562725 
1066	 0.223288237100583 
1067	 0.22398137061854 
1068	 0.224698791186564 
1069	 0.22542283314314 
1070	 0.226134106842243 
1071	 0.226825613868246 
1072	 0.22753533477055 
1073	 0.22825623328975 
1074	 0.228960656643281 
1075	 0.229634522771248 
1076	 0.23037684402296 
1077	 0.231148963686491 
1078	 0.231872373861709 
1079	 0.232605168864111 
1080	 0.233320083987533 
1081	 0.233969819750316 
1082	 0.234608583908419 
1083	 0.2352902573896 
1084	 0.235981337563585 
1085	 0.236713416983466 
1086	 0.237504565949302 
1087	 0.238238105211609 
1088	 0.238978657713611 
1089	 0.239689180260853 
1090	 0.240375923164899 
1091	 0.241063169552899 
1092	 0.241753925663127 
1093	 0.242449914843922 
1094	 0.243121251104267 
1095	 0.243786975681414 
1096	 0.244476035882655 
1097	 0.245207491061342 
1098	 0.245921860751497 
1099	 0.246656531770352 
1100	 0.247364686368558 
1101	 0.248030706687063 
1102	 0.248736787999146 
1103	 0.249449084506859 
1104	 0.250195264280346 
1105	 0.250923511162594 
1106	 0.251680828181838 
1107	 0.252394381181924 
1108	 0.253101217472739 
1109	 0.253844361257658 
1110	 0.254573304019805 
1111	 0.255312757483011 
1112	 0.256071880169843 
1113	 0.256811129888172 
1114	 0.257547680646405 
1115	 0.258275406100724 
1116	 0.258983883184268 
1117	 0.259722350636342 
1118	 0.26047877148624 
1119	 0.261201719194199 
1120	 0.261967478280391 
1121	 0.262714593075629 
1122	 0.263429346418012 
1123	 0.264206252874422 
1124	 0.26497868353987 
1125	 0.265771074651153 
1126	 0.266543258454682 
1127	 0.267320098884198 
1128	 0.268087295909943 
1129	 0.26884106168991 
1130	 0.269597009634036 
1131	 0.270357163535146 
1132	 0.271114462761147 
1133	 0.27187203371949 
1134	 0.272619016293245 
1135	 0.273373107520484 
1136	 0.274079750615371 
1137	 0.274811480501963 
1138	 0.275566395696959 
1139	 0.276319320746146 
1140	 0.277096146973482 
1141	 0.277857350351696 
1142	 0.278617235793016 
1143	 0.279360935865672 
1144	 0.280096805340561 
1145	 0.280828942028188 
1146	 0.281548887030457 
1147	 0.282267179673795 
1148	 0.282987372737119 
1149	 0.283701120847276 
1150	 0.284408900509275 
1151	 0.285103793263601 
1152	 0.28581302203051 
1153	 0.286510502031021 
1154	 0.287218777134087 
1155	 0.287941583018275 
1156	 0.288641993133947 
1157	 0.289342461141243 
1158	 0.290026646676121 
1159	 0.290693037178962 
1160	 0.291360155608597 
1161	 0.29201260000852 
1162	 0.292676747552279 
1163	 0.293355587496354 
1164	 0.294011791756462 
1165	 0.294650308780075 
1166	 0.295310797297177 
1167	 0.295971999154325 
1168	 0.296609630348161 
1169	 0.297242969075067 
1170	 0.297892378502466 
1171	 0.298501620978012 
1172	 0.299073336447741 
1173	 0.299659864292514 
1174	 0.300233330856354 
1175	 0.300819120267108 
1176	 0.301412747147586 
1177	 0.301999433096071 
1178	 0.302584353567036 
1179	 0.303172770340183 
1180	 0.303767863135498 
1181	 0.304348775374434 
1182	 0.304921875106991 
1183	 0.305506332779995 
1184	 0.306075148408616 
1185	 0.306634943742732 
1186	 0.307184879125517 
1187	 0.307733757218907 
1188	 0.308266183218809 
1189	 0.308778948382843 
1190	 0.309292991619821 
1191	 0.309801644297598 
1192	 0.310305333032378 
1193	 0.310812408672396 
1194	 0.311299085106617 
1195	 0.311761533341022 
1196	 0.312237417874552 
1197	 0.312719899013721 
1198	 0.313180710351949 
1199	 0.313634100469508 
1200	 0.314096104960179 
1201	 0.314530146564872 
1202	 0.314930973578825 
1203	 0.315349979259023 
1204	 0.315766219840375 
1205	 0.316185204356592 
1206	 0.31660731269311 
1207	 0.317023914092931 
1208	 0.317455528120093 
1209	 0.317855043191955 
1210	 0.318246172461586 
1211	 0.318615728368958 
1212	 0.318946706165938 
1213	 0.319288912573427 
1214	 0.319614515507193 
1215	 0.319951570137359 
1216	 0.320293673792166 
1217	 0.320645179425518 
1218	 0.32098830633082 
1219	 0.321342958958234 
1220	 0.321671078034656 
1221	 0.321990057564135 
1222	 0.322296678808446 
1223	 0.322583221848853 
1224	 0.322872419121602 
1225	 0.323155513929254 
1226	 0.323434126717967 
1227	 0.323714859066366 
1228	 0.323980145067164 
1229	 0.32422923967491 
1230	 0.324482367243786 
1231	 0.324727357148707 
1232	 0.324970902850233 
1233	 0.325213656816231 
1234	 0.325462494802324 
1235	 0.325696727082933 
1236	 0.325920566775057 
1237	 0.326148758210246 
1238	 0.326373707759738 
1239	 0.326596532461934 
1240	 0.326817841923778 
1241	 0.327040998866683 
1242	 0.327273979427208 
1243	 0.327483884231842 
1244	 0.327681918417166 
1245	 0.327881209959854 
1246	 0.328061600655828 
1247	 0.328248607832892 
1248	 0.328436063977938 
1249	 0.328635638441536 
1250	 0.328843869718307 
1251	 0.329016287698608 
1252	 0.329196193674548 
1253	 0.329383986400247 
1254	 0.329542569585433 
1255	 0.329672192799914 
1256	 0.329823619744134 
1257	 0.329968402021136 
1258	 0.330115481337974 
1259	 0.330277589467337 
1260	 0.330427037506216 
1261	 0.330569796879982 
1262	 0.330704679787462 
1263	 0.330840344717851 
1264	 0.330962321061117 
1265	 0.331075595717029 
1266	 0.331175392420676 
1267	 0.331245660536325 
1268	 0.331329854371516 
1269	 0.33143153556771 
1270	 0.331536794241038 
1271	 0.331635540740085 
1272	 0.331746615954444 
1273	 0.331861120389128 
1274	 0.331953470357752 
1275	 0.3320816902451 
1276	 0.332249973238885 
1277	 0.33239963512172 
1278	 0.33255403677769 
1279	 0.332704656843132 
1280	 0.332841326794499 
1281	 0.332999643628971 
1282	 0.333173455797551 
1283	 0.333340655816204 
1284	 0.333520176376691 
1285	 0.333694358247798 
1286	 0.333862743700136 
1287	 0.334029789708856 
1288	 0.334174734645694 
1289	 0.334303021130093 
1290	 0.334450455600429 
1291	 0.334583125942738 
1292	 0.334731094265937 
1293	 0.334916153933553 
1294	 0.335054933291785 
1295	 0.33516860927113 
1296	 0.335288457701431 
1297	 0.335388958522857 
1298	 0.335498404660025 
1299	 0.335617869373569 
1300	 0.335726598691649 
1301	 0.335836948990807 
1302	 0.335930940091665 
1303	 0.336013410545378 
1304	 0.336089839685556 
1305	 0.336158849624856 
1306	 0.336199404212583 
1307	 0.336263590086775 
1308	 0.336291168235377 
1309	 0.336310017059832 
1310	 0.33630568949599 
1311	 0.336329172312486 
1312	 0.336342616759777 
1313	 0.336370031581031 
1314	 0.336434580609904 
1315	 0.336454396081838 
1316	 0.336438742807628 
1317	 0.336457756140627 
1318	 0.33646933081031 
1319	 0.336496222988241 
1320	 0.336575033794229 
1321	 0.3366000077963 
1322	 0.336595880529712 
1323	 0.33659878284224 
1324	 0.336568515909277 
1325	 0.33656625700201 
1326	 0.336590341703246 
1327	 0.336597107075562 
1328	 0.336592163730012 
1329	 0.336576159209243 
1330	 0.336572780700838 
1331	 0.336555117802666 
1332	 0.336560793639675 
1333	 0.336594821185385 
1334	 0.336604836988495 
1335	 0.336612650905824 
1336	 0.336618974395106 
1337	 0.33659986008124 
1338	 0.336615485751348 
1339	 0.336660114363263 
1340	 0.336681387350053 
1341	 0.336722439367899 
1342	 0.336738116576056 
1343	 0.33673245138421 
1344	 0.336706540094503 
1345	 0.336702970950527 
1346	 0.336707292501014 
1347	 0.336708489863277 
1348	 0.336706538518633 
1349	 0.336689832825504 
1350	 0.336679620320854 
1351	 0.33666969460099 
1352	 0.336670786982689 
1353	 0.336651689741173 
1354	 0.336617398212183 
1355	 0.336592052771497 
1356	 0.33654721570011 
1357	 0.336530340270492 
1358	 0.336541212793293 
1359	 0.336541442134238 
1360	 0.336539613465878 
1361	 0.336551970115925 
1362	 0.336565272260637 
1363	 0.336582667138556 
1364	 0.336620819912392 
1365	 0.336652020525024 
1366	 0.336678768334995 
1367	 0.336710355420198 
1368	 0.336749694306015 
1369	 0.336766242192974 
1370	 0.336777093509069 
1371	 0.336781030683245 
1372	 0.336757468143716 
1373	 0.336735324014768 
1374	 0.336698722959839 
1375	 0.336645521587271 
1376	 0.336590220542367 
1377	 0.336539012494615 
1378	 0.336454421878412 
1379	 0.336350687334612 
1380	 0.336242918412987 
1381	 0.336091334669083 
1382	 0.335978107225784 
1383	 0.335884623003185 
1384	 0.335782840719324 
1385	 0.335720692653848 
1386	 0.335603648923505 
1387	 0.335456211707533 
1388	 0.335300626538998 
1389	 0.335121877826784 
1390	 0.334924009030315 
1391	 0.334722266967765 
1392	 0.334485875596052 
1393	 0.334212272115367 
1394	 0.33392824102052 
1395	 0.333618946078278 
1396	 0.333310686733985 
1397	 0.332994058751316 
1398	 0.332669785874571 
1399	 0.332327827492811 
1400	 0.331976152560802 
1401	 0.331616203356535 
1402	 0.331233307387436 
1403	 0.330867681579797 
1404	 0.33049744576311 
1405	 0.330139540870703 
1406	 0.329798334542327 
1407	 0.329446585734583 
1408	 0.329079787304971 
1409	 0.328740391564148 
1410	 0.328410503927401 
1411	 0.328082972500061 
1412	 0.327765192643542 
1413	 0.327471239064862 
1414	 0.327174531280838 
1415	 0.326882471115408 
1416	 0.326613787587761 
1417	 0.326367473985848 
1418	 0.326111143666846 
1419	 0.325864423024067 
1420	 0.325649875481078 
1421	 0.325444196799558 
1422	 0.325258545196718 
1423	 0.325095850854122 
1424	 0.324933965968858 
1425	 0.324780737250507 
1426	 0.324625983805344 
1427	 0.324469387546806 
1428	 0.324339034397883 
1429	 0.324216058963 
1430	 0.324112106655881 
1431	 0.324037832981633 
1432	 0.323956409835259 
1433	 0.323874910876008 
1434	 0.3238033521621 
1435	 0.323740062578898 
1436	 0.323687018602194 
1437	 0.323646139017557 
1438	 0.323608452338025 
1439	 0.323586165928917 
1440	 0.32355121611403 
1441	 0.323511555418446 
1442	 0.323480950257059 
1443	 0.323408451390135 
1444	 0.323344346687722 
1445	 0.323314790830868 
1446	 0.323281496365224 
1447	 0.323278607028932 
1448	 0.323296781003869 
1449	 0.32331728464083 
1450	 0.32333596495204 
1451	 0.323350903227315 
1452	 0.323363490220352 
1453	 0.32340158443933 
1454	 0.323438934423658 
1455	 0.323492095081635 
1456	 0.323583775895686 
1457	 0.323648077955706 
1458	 0.323704064964492 
1459	 0.323759345644905 
1460	 0.323804485194728 
1461	 0.323863688434162 
1462	 0.32392352563152 
1463	 0.323992553222865 
1464	 0.324079397643606 
1465	 0.324150664147162 
1466	 0.324224736705637 
1467	 0.324287140024083 
1468	 0.324321292138818 
1469	 0.324386117660589 
1470	 0.324459113465303 
1471	 0.324539132571445 
1472	 0.324629931869305 
1473	 0.324738771462947 
1474	 0.324848959720389 
1475	 0.324944165598345 
1476	 0.325054816308468 
1477	 0.325164942941635 
1478	 0.325262411494563 
1479	 0.325368236905948 
1480	 0.325492585731075 
1481	 0.325628306351812 
1482	 0.32573805999571 
1483	 0.325842873455171 
1484	 0.325952325155048 
1485	 0.326035252265623 
1486	 0.326144378397163 
1487	 0.326271830909794 
1488	 0.326405258148765 
1489	 0.326556030891849 
1490	 0.326683762014053 
1491	 0.3268203296202 
1492	 0.326942070388902 
1493	 0.327033762981979 
1494	 0.327142475489255 
1495	 0.327259822173719 
1496	 0.327369048175522 
1497	 0.3274739781377 
1498	 0.327579540165066 
1499	 0.327689123805946 
1500	 0.327786036285609 
1501	 0.327876752944498 
1502	 0.32796750287663 
1503	 0.32804896738683 
1504	 0.328128420128519 
1505	 0.328221118240632 
1506	 0.32831360704863 
1507	 0.328408851077331 
1508	 0.328490809008599 
1509	 0.328553847593764 
1510	 0.328638022845185 
1511	 0.328731501934189 
1512	 0.32881902859759 
1513	 0.328913150973006 
1514	 0.329003490739449 
1515	 0.329097253821378 
1516	 0.329185848871381 
1517	 0.329263291297061 
1518	 0.329341067002328 
1519	 0.329411107154569 
1520	 0.329460884890338 
1521	 0.329527419800893 
1522	 0.329604647736703 
1523	 0.329671285540833 
1524	 0.329730350735908 
1525	 0.329799751091954 
1526	 0.32986896470094 
1527	 0.329942548783428 
1528	 0.330030852196196 
1529	 0.330102870036649 
1530	 0.330163855882688 
1531	 0.330234710188843 
1532	 0.330304749042966 
1533	 0.330373468053602 
1534	 0.330450438988076 
1535	 0.330520896902483 
1536	 0.330581054002453 
1537	 0.33064524191811 
1538	 0.330705743917256 
1539	 0.330774702846935 
1540	 0.330858486718944 
1541	 0.330928847606166 
1542	 0.331003023938743 
1543	 0.331063179003036 
1544	 0.331104037757273 
1545	 0.331149259970172 
1546	 0.331180902329815 
1547	 0.331229799493017 
1548	 0.331300151883877 
1549	 0.331336776329603 
1550	 0.3313822531217 
1551	 0.331439569405014 
1552	 0.331488563135884 
1553	 0.33153760444303 
1554	 0.331583345086771 
1555	 0.331639090340543 
1556	 0.33169095478288 
1557	 0.331716065012081 
1558	 0.331739845511227 
1559	 0.331760657691813 
1560	 0.331787236705269 
1561	 0.331800682975733 
1562	 0.331844994305775 
1563	 0.331911312807789 
1564	 0.331966660000439 
1565	 0.3320314272284 
1566	 0.332093961680966 
1567	 0.332150901364943 
1568	 0.332213846811486 
1569	 0.332295776684576 
1570	 0.332340459840939 
1571	 0.332369443580179 
1572	 0.332401071317978 
1573	 0.33240575259422 
1574	 0.332429759323201 
1575	 0.332475857046006 
1576	 0.332494676831586 
1577	 0.332499441296642 
1578	 0.332510016168627 
1579	 0.332499481661365 
1580	 0.332514038435108 
1581	 0.332556428725319 
1582	 0.33257197905661 
1583	 0.332578852696553 
1584	 0.332598229254451 
1585	 0.332593817816189 
1586	 0.332625484962257 
1587	 0.332691664890429 
1588	 0.332747436118634 
1589	 0.332832243970639 
1590	 0.332880297853216 
1591	 0.332907169820034 
1592	 0.332939293243621 
1593	 0.332963847244598 
1594	 0.332969238563825 
1595	 0.332960736760663 
1596	 0.332958523494907 
1597	 0.332926776253638 
1598	 0.332920221101224 
1599	 0.332942114002806 
1600	 0.332954884789806 
1601	 0.33296551008093 
1602	 0.332984539459041 
1603	 0.333004708124843 
1604	 0.333029712698001 
1605	 0.33307118690633 
1606	 0.333102971095656 
1607	 0.333127085700256 
1608	 0.333160232265617 
1609	 0.333195498777878 
1610	 0.333220484258935 
1611	 0.333227918002279 
1612	 0.333236798554196 
1613	 0.333230980697106 
1614	 0.333201647945714 
1615	 0.333205625376386 
1616	 0.333211144484281 
1617	 0.333199397684878 
1618	 0.333207612195225 
1619	 0.333202202491327 
1620	 0.333185516551307 
1621	 0.333181694487999 
1622	 0.333191941347979 
1623	 0.333182299312982 
1624	 0.333159430243164 
1625	 0.333158348762947 
1626	 0.333155182504004 
1627	 0.333164148836713 
1628	 0.333195853029357 
1629	 0.33321433299603 
1630	 0.333228113344468 
1631	 0.333242553328836 
1632	 0.333260583986299 
1633	 0.333268847721376 
1634	 0.333273426311597 
1635	 0.333276803866088 
1636	 0.333274861312596 
1637	 0.333271830820102 
1638	 0.333267401398587 
1639	 0.333258223818703 
1640	 0.333247033791204 
1641	 0.333228316378096 
1642	 0.333208400446678 
1643	 0.333175664193127 
1644	 0.33311590010956 
1645	 0.333096974967916 
1646	 0.333082512939777 
1647	 0.333083943187918 
1648	 0.333119714715796 
1649	 0.333143022962846 
1650	 0.333173198792884 
1651	 0.333186304696882 
1652	 0.333205940779355 
1653	 0.333198584757145 
1654	 0.333156917794317 
1655	 0.333140197563578 
1656	 0.333118622236014 
1657	 0.333106178818909 
1658	 0.333122238326976 
1659	 0.333097056549966 
1660	 0.333047071451227 
1661	 0.333012977096844 
1662	 0.332963360452611 
1663	 0.332923122936718 
1664	 0.332887133557355 
1665	 0.33287131998667 
1666	 0.332871493528846 
1667	 0.332850925677815 
1668	 0.332847628456352 
1669	 0.332823824532828 
1670	 0.33275974667533 
1671	 0.332727977884513 
1672	 0.332713636034741 
1673	 0.332693154703403 
1674	 0.332673632809497 
1675	 0.332661484181455 
1676	 0.332645606440178 
1677	 0.332648602988998 
1678	 0.332677809027847 
1679	 0.332684319213059 
1680	 0.332706131876857 
1681	 0.332689541602034 
1682	 0.332631193888666 
1683	 0.332599681593289 
1684	 0.332549342599696 
1685	 0.332529852824641 
1686	 0.332539429398277 
1687	 0.332540826998471 
1688	 0.332555735480536 
1689	 0.332557502770724 
1690	 0.332558251529557 
1691	 0.332551708398102 
1692	 0.332537813824647 
1693	 0.332520732145056 
1694	 0.332498140139134 
1695	 0.332471713951738 
1696	 0.332434064288455 
1697	 0.332408639090033 
1698	 0.332381597848489 
1699	 0.332367621172733 
1700	 0.332370262321014 
1701	 0.332361743147579 
1702	 0.332367641897539 
1703	 0.33233933546336 
1704	 0.332291323595447 
1705	 0.332241318171786 
1706	 0.332148316813759 
1707	 0.33211375460814 
1708	 0.332121727685732 
1709	 0.332087807721773 
1710	 0.332052721210127 
1711	 0.332034563758855 
1712	 0.331997583200511 
1713	 0.331970486149839 
1714	 0.331977536198051 
1715	 0.331964229044049 
1716	 0.331920951723263 
1717	 0.331907886049184 
1718	 0.331922578607458 
1719	 0.331915564645253 
1720	 0.331912964075902 
1721	 0.331890243799544 
1722	 0.331845323683384 
1723	 0.331812968229137 
1724	 0.331779914680856 
1725	 0.331734894663334 
1726	 0.331687685920046 
1727	 0.331642485119928 
1728	 0.331585206983337 
1729	 0.33152974692925 
1730	 0.33148581549482 
1731	 0.331425994489549 
1732	 0.331352737734116 
1733	 0.331290440208554 
1734	 0.331232241134438 
1735	 0.331157422071295 
1736	 0.331072659908705 
1737	 0.33099040561224 
1738	 0.330892927865647 
1739	 0.330821962307815 
1740	 0.330771421835806 
1741	 0.330704318376036 
1742	 0.330633893097711 
1743	 0.330578442624004 
1744	 0.330524727218906 
1745	 0.330470992212325 
1746	 0.330437216448026 
1747	 0.330361274331899 
1748	 0.330295267431952 
1749	 0.33023167058269 
1750	 0.330159850430577 
1751	 0.330119319263419 
1752	 0.330063381806173 
1753	 0.33000157749886 
1754	 0.329937313187639 
1755	 0.329825727703091 
1756	 0.329730911940835 
1757	 0.329657401700039 
1758	 0.329577066040815 
1759	 0.329526092061976 
1760	 0.329473549490183 
1761	 0.329420431018632 
1762	 0.329388607111527 
1763	 0.329364189607173 
1764	 0.329357261321633 
1765	 0.329347548331903 
1766	 0.329333406262438 
1767	 0.329301927254437 
1768	 0.329257975759846 
1769	 0.32922614217916 
1770	 0.329163625819506 
1771	 0.329104746402962 
1772	 0.329045468267115 
1773	 0.328927819315993 
1774	 0.328833627160331 
1775	 0.328762189455607 
1776	 0.328687139343855 
1777	 0.328653109402306 
1778	 0.328618796979997 
1779	 0.328588744367695 
1780	 0.328556103368983 
1781	 0.328512266762894 
1782	 0.328504499451124 
1783	 0.328502158858437 
1784	 0.328489245119478 
1785	 0.3284920411906 
1786	 0.328461350122959 
1787	 0.328386352129671 
1788	 0.328339885314033 
1789	 0.328290518991123 
1790	 0.328270832792396 
1791	 0.328282488420357 
1792	 0.328283734625572 
1793	 0.328303407484227 
1794	 0.328288296941951 
1795	 0.328261399544773 
1796	 0.32823186744236 
1797	 0.32818416424241 
1798	 0.328139138641354 
1799	 0.328069278136374 
1800	 0.328046583212552 
1801	 0.325944857241437 
1802	 0.326026438865426 
1803	 0.326107016056132 
1804	 0.326182608810203 
1805	 0.326230064991878 
1806	 0.326303109882307 
1807	 0.326410868456676 
1808	 0.326503530257228 
1809	 0.326623718826501 
1810	 0.326711306488248 
1811	 0.326802240523173 
1812	 0.326837743462403 
1813	 0.326869639257337 
1814	 0.32687314221277 
1815	 0.326852339468015 
1816	 0.326857015763871 
1817	 0.326872495078329 
1818	 0.326902889449873 
1819	 0.326920896485558 
1820	 0.326953704671577 
1821	 0.326961551010106 
1822	 0.326956156263281 
1823	 0.326939413989123 
1824	 0.326942328055058 
1825	 0.32696307798132 
1826	 0.326981231492571 
1827	 0.327008889867052 
1828	 0.327006023675447 
1829	 0.32697576048627 
1830	 0.326948695056641 
1831	 0.326911460000656 
1832	 0.326863788738829 
1833	 0.326823359239992 
1834	 0.326777162153938 
1835	 0.326734509115757 
1836	 0.326705200996274 
1837	 0.326665947807922 
1838	 0.326667280545248 
1839	 0.326670773187123 
1840	 0.326703580623562 
1841	 0.326689592904236 
1842	 0.326690182622527 
1843	 0.326667015010531 
1844	 0.3266034293096 
1845	 0.326582433125769 
1846	 0.326559975805427 
1847	 0.326517155889698 
1848	 0.326480294831269 
1849	 0.326446827939531 
1850	 0.32642584286326 
1851	 0.326407084916588 
1852	 0.326404738549836 
1853	 0.326410945327623 
1854	 0.326404732020635 
1855	 0.326398921185669 
1856	 0.32636936760964 
1857	 0.326326226168776 
1858	 0.326285373733556 
1859	 0.326191526965201 
1860	 0.326066496020039 
1861	 0.325915383438226 
1862	 0.325743274125097 
1863	 0.325516899072919 
1864	 0.325266862552424 
1865	 0.325048888648046 
1866	 0.324796235656119 
1867	 0.324506292369581 
1868	 0.324227460244734 
1869	 0.323920032214441 
1870	 0.323605408311581 
1871	 0.323298193412067 
1872	 0.323010678904129 
1873	 0.322723611511006 
1874	 0.322382770717643 
1875	 0.322040801507362 
1876	 0.321667056757204 
1877	 0.321210387119903 
1878	 0.320743145761588 
1879	 0.320216778105723 
1880	 0.319633873632395 
1881	 0.319007366447576 
1882	 0.318325847001457 
1883	 0.317589564102837 
1884	 0.316780203616991 
1885	 0.315948324949249 
1886	 0.315036177333692 
1887	 0.314042794142653 
1888	 0.313021896704708 
1889	 0.311932934262692 
1890	 0.310796103958286 
1891	 0.30964884088235 
1892	 0.308478267846549 
1893	 0.307276377355368 
1894	 0.306045674754501 
1895	 0.30479419125287 
1896	 0.30349660872884 
1897	 0.302161883549387 
1898	 0.30079552298934 
1899	 0.299419582372449 
1900	 0.298084231883311 
1901	 0.296767488124291 
1902	 0.29549474038055 
1903	 0.294279327770249 
1904	 0.293080135132373 
1905	 0.291899694909711 
1906	 0.290769257256554 
1907	 0.289665472038438 
1908	 0.288574785540761 
1909	 0.287535434741278 
1910	 0.286527725219277 
1911	 0.28555551396371 
1912	 0.284633193013489 
1913	 0.283762474288946 
1914	 0.282940250172361 
1915	 0.282156298347488 
1916	 0.281419389614992 
1917	 0.280728908397629 
1918	 0.280083319710577 
1919	 0.279454160707726 
1920	 0.278891405037661 
1921	 0.278382372859932 
1922	 0.277903686203391 
1923	 0.277513128986165 
1924	 0.277161386333594 
1925	 0.276867203831964 
1926	 0.276612674146403 
1927	 0.276417358878163 
1928	 0.276240850947363 
1929	 0.27609787173048 
1930	 0.276007741099897 
1931	 0.275949859114334 
1932	 0.275894106028284 
1933	 0.275868715521173 
1934	 0.27588015719832 
1935	 0.275916196603278 
1936	 0.275986511678598 
1937	 0.276070215392889 
1938	 0.276183795020493 
1939	 0.276302394947765 
1940	 0.276433607790879 
1941	 0.276567918370993 
1942	 0.276722190744772 
1943	 0.276921349084734 
1944	 0.277148085085426 
1945	 0.277390412182509 
1946	 0.277633417863233 
1947	 0.277898967153522 
1948	 0.278164676397548 
1949	 0.278420475826447 
1950	 0.278699241076696 
1951	 0.279011219740622 
1952	 0.279302818545395 
1953	 0.279587834223415 
1954	 0.279895093898509 
1955	 0.280189754946914 
1956	 0.280464638158813 
1957	 0.280758221714306 
1958	 0.281062152454903 
1959	 0.281360109475338 
1960	 0.281661518523742 
1961	 0.281970459818417 
1962	 0.282260665015213 
1963	 0.282585070885434 
1964	 0.282930090666358 
1965	 0.283281486476307 
1966	 0.283675039470196 
1967	 0.284052975680977 
1968	 0.284408981168059 
1969	 0.284748169810518 
1970	 0.285099748856463 
1971	 0.285445605600456 
1972	 0.285789861450238 
1973	 0.286136564662164 
1974	 0.28648480676184 
1975	 0.2868243964568 
1976	 0.287151303951351 
1977	 0.287528381016328 
1978	 0.287928752256301 
1979	 0.288303043565098 
1980	 0.288698225288752 
1981	 0.289072218529918 
1982	 0.2894177928685 
1983	 0.289782024265658 
1984	 0.290159727628636 
1985	 0.29051848897667 
1986	 0.290860887812021 
1987	 0.291223810621484 
1988	 0.291590211241343 
1989	 0.291954473271237 
1990	 0.292336192270622 
1991	 0.292702657815422 
1992	 0.293081129760286 
1993	 0.293466726184682 
1994	 0.293832085533419 
1995	 0.294201377544764 
1996	 0.294562735157341 
1997	 0.294903960395441 
1998	 0.295244628522299 
1999	 0.295576517117342 
2000	 0.295920948797918 
2001	 0.296266159455654 
2002	 0.29660081623324 
2003	 0.296968629405734 
2004	 0.297332641701818 
2005	 0.297680405099109 
2006	 0.298018066650261 
2007	 0.298360617852431 
2008	 0.298683337545068 
2009	 0.299029670741314 
2010	 0.299397611473269 
2011	 0.299749269622293 
2012	 0.300112512309746 
2013	 0.300458701639184 
2014	 0.300787700514793 
2015	 0.301109728359297 
2016	 0.301435208224068 
2017	 0.301773643278979 
2018	 0.302112158700787 
2019	 0.302461988259561 
2020	 0.302801056396918 
2021	 0.303141785214076 
2022	 0.303472476682729 
2023	 0.303792387800046 
2024	 0.304123258605493 
2025	 0.304466933088665 
2026	 0.304785197320294 
2027	 0.305111905855915 
2028	 0.305394289161698 
2029	 0.30569537810604 
2030	 0.305975018354002 
2031	 0.306273570127969 
2032	 0.306590877590774 
2033	 0.306895424054014 
2034	 0.3071810426562 
2035	 0.307491528880252 
2036	 0.307828043554958 
2037	 0.308138204968164 
2038	 0.308460278816761 
2039	 0.308758570435912 
2040	 0.309036430332765 
2041	 0.309295744535761 
2042	 0.309547165715032 
2043	 0.309794175078238 
2044	 0.31003685156005 
2045	 0.310256680948166 
2046	 0.310503806108884 
2047	 0.310766700069544 
2048	 0.311018406862402 
2049	 0.311280673115321 
2050	 0.311533311079677 
2051	 0.311780694476973 
2052	 0.312013681446191 
2053	 0.31223141249488 
2054	 0.312460280551885 
2055	 0.312672459024618 
2056	 0.312906978592101 
2057	 0.313130220557574 
2058	 0.313364166660789 
2059	 0.31358765119667 
2060	 0.313792084588701 
2061	 0.314016097277425 
2062	 0.314252055223301 
2063	 0.314484390903602 
2064	 0.314724058174968 
2065	 0.314960002964942 
2066	 0.315198905250676 
2067	 0.31542908436444 
2068	 0.315654284925131 
2069	 0.315877776160157 
2070	 0.316099176698199 
2071	 0.316315261799934 
2072	 0.316528461758714 
2073	 0.316742368659784 
2074	 0.316948790105164 
2075	 0.317133584297541 
2076	 0.317348969285287 
2077	 0.317577632542472 
2078	 0.317803362826713 
2079	 0.318053929162576 
2080	 0.318283762276377 
2081	 0.31850557026699 
2082	 0.318717568079072 
2083	 0.318915937783013 
2084	 0.3191156448791 
2085	 0.319312865274665 
2086	 0.319499476339688 
2087	 0.319694027318439 
2088	 0.319896836008107 
2089	 0.320086437263304 
2090	 0.320269429842146 
2091	 0.320454745988568 
2092	 0.320619333445101 
2093	 0.320815774299738 
2094	 0.321039285389154 
2095	 0.32124511221125 
2096	 0.321473629330784 
2097	 0.32167651351577 
2098	 0.321853754189601 
2099	 0.322026545022698 
2100	 0.32220681232073 
2101	 0.322381416302399 
2102	 0.32255953727081 
2103	 0.322742856377279 
2104	 0.322924462239378 
2105	 0.323088376654044 
2106	 0.323287215421951 
2107	 0.323500724897302 
2108	 0.323724009156077 
2109	 0.323971027646358 
2110	 0.324220805086047 
2111	 0.324501038775861 
2112	 0.324746476407652 
2113	 0.324974903096363 
2114	 0.32522101412185 
2115	 0.325434312172454 
2116	 0.325614217260536 
2117	 0.32580657084895 
2118	 0.325991136558335 
2119	 0.326180702035678 
2120	 0.326353363585701 
2121	 0.326558378147852 
2122	 0.326783228608779 
2123	 0.327006321610423 
2124	 0.327273462895451 
2125	 0.327486934590605 
2126	 0.327681740833267 
2127	 0.327861267729621 
2128	 0.32800856643003 
2129	 0.328144184380805 
2130	 0.328277667076745 
2131	 0.328379642351201 
2132	 0.328470106459368 
2133	 0.32853941183393 
2134	 0.32859846576249 
2135	 0.328632626730686 
2136	 0.328676985064852 
2137	 0.328719900275971 
2138	 0.328743485047947 
2139	 0.328764992556078 
2140	 0.32877051401417 
2141	 0.328744962484448 
2142	 0.32872928764764 
2143	 0.328725461993726 
2144	 0.328696999238456 
2145	 0.328651746084707 
2146	 0.328604401721923 
2147	 0.328550575928807 
2148	 0.328469734270041 
2149	 0.328398015760396 
2150	 0.328340208447667 
2151	 0.328240245628139 
2152	 0.328113020819785 
2153	 0.327992976483507 
2154	 0.327847952642205 
2155	 0.327714145347359 
2156	 0.327597214265021 
2157	 0.327456026131802 
2158	 0.327299371104401 
2159	 0.327140096818369 
2160	 0.326970489051764 
2161	 0.326796695887884 
2162	 0.326623770310599 
2163	 0.326437826181819 
2164	 0.326254926896983 
2165	 0.326029683714469 
2166	 0.32582766081102 
2167	 0.325608868335691 
2168	 0.325427233337563 
2169	 0.325272098008384 
2170	 0.325098663330581 
2171	 0.324956483031398 
2172	 0.324759066253132 
2173	 0.324519625360264 
2174	 0.32429592152682 
2175	 0.324039982910744 
2176	 0.323811528976567 
2177	 0.323607459777299 
2178	 0.323391798137994 
2179	 0.323169213790986 
2180	 0.322960988564312 
2181	 0.322749789251086 
2182	 0.322551180712593 
2183	 0.322370004239281 
2184	 0.322197737192074 
2185	 0.32201613981197 
2186	 0.321829431310407 
2187	 0.321661462861276 
2188	 0.321491113047432 
2189	 0.321343669412282 
2190	 0.321241734403607 
2191	 0.32108945018934 
2192	 0.320923661244917 
2193	 0.320756470376063 
2194	 0.320551144332318 
2195	 0.32037525455089 
2196	 0.320217361336167 
2197	 0.320057507590578 
2198	 0.319883765082438 
2199	 0.319746113991633 
2200	 0.319635993378328 
2201	 0.319524749116436 
2202	 0.319432066003901 
2203	 0.319358348824264 
2204	 0.319268451397583 
2205	 0.319179066969633 
2206	 0.319063929373823 
2207	 0.318932131706594 
2208	 0.318815579195278 
2209	 0.318658298683394 
2210	 0.318570789795152 
2211	 0.318533196580133 
2212	 0.318485258193534 
2213	 0.318472906438323 
2214	 0.318443251294126 
2215	 0.31840654478525 
2216	 0.318373816546748 
2217	 0.318333853808994 
2218	 0.318309430105365 
2219	 0.318323481629937 
2220	 0.318289745866123 
2221	 0.318219469787933 
2222	 0.31818763428014 
2223	 0.318110046234825 
2224	 0.318026094760709 
2225	 0.317966796134124 
2226	 0.31793278054495 
2227	 0.317877593084175 
2228	 0.317813767130365 
2229	 0.31776667731114 
2230	 0.317738440665777 
2231	 0.317673261185297 
2232	 0.317609959890314 
2233	 0.317523554105785 
2234	 0.317385811368786 
2235	 0.317282872474442 
2236	 0.317167990893918 
2237	 0.317090411950001 
2238	 0.317041189909336 
2239	 0.316996209198208 
2240	 0.31697393178832 
2241	 0.316964271696355 
2242	 0.317001184731065 
2243	 0.316979378498831 
2244	 0.316938344561955 
2245	 0.31689247804727 
2246	 0.316825124326283 
2247	 0.316744129935175 
2248	 0.316695865490052 
2249	 0.31669081328951 
2250	 0.316647060330406 
2251	 0.316582618962485 
2252	 0.316545230321446 
2253	 0.316502949134696 
2254	 0.316484515450532 
2255	 0.316494873000541 
2256	 0.316493918192346 
2257	 0.316491550964179 
2258	 0.316513276136276 
2259	 0.316566560812949 
2260	 0.316573746500279 
2261	 0.316581887620799 
2262	 0.316577634253898 
2263	 0.316506489309764 
2264	 0.316494199261362 
2265	 0.316527582788133 
2266	 0.316537479641395 
2267	 0.316586554926079 
2268	 0.316589238020766 
2269	 0.316565622264561 
2270	 0.316495965687781 
2271	 0.316477621161069 
2272	 0.316448469403896 
2273	 0.316425390487841 
2274	 0.316464421242178 
2275	 0.31645272089294 
2276	 0.316413716606656 
2277	 0.316384561171785 
2278	 0.316348667320408 
2279	 0.316310946884138 
2280	 0.316269716606144 
2281	 0.316234315258637 
2282	 0.316194892202291 
2283	 0.316176226275663 
2284	 0.316173742101137 
2285	 0.316150987120251 
2286	 0.316140868773388 
2287	 0.316106175413005 
2288	 0.316026123063842 
2289	 0.315991544512358 
2290	 0.315972739925519 
2291	 0.31596081935905 
2292	 0.315984023602043 
2293	 0.315988285758092 
2294	 0.315973069314635 
2295	 0.315964172130384 
2296	 0.315943843163805 
2297	 0.315962077704405 
2298	 0.315950007991251 
2299	 0.315958799236338 
2300	 0.31596875975787 
2301	 0.315940564149436 
2302	 0.315893910993185 
2303	 0.315848663897493 
2304	 0.315797190531707 
2305	 0.315737198633582 
2306	 0.315685877689442 
2307	 0.315656493574733 
2308	 0.315603128274852 
2309	 0.315526440802907 
2310	 0.315474390463744 
2311	 0.31544147725742 
2312	 0.315378237437564 
2313	 0.315320084187218 
2314	 0.315231687827176 
2315	 0.315100802666065 
2316	 0.314988359368222 
2317	 0.314865250870537 
2318	 0.314753677651981 
2319	 0.314636785040058 
2320	 0.314549613410095 
2321	 0.314470103312154 
2322	 0.314411795652518 
2323	 0.314410368157196 
2324	 0.314369148789609 
2325	 0.314330354888996 
2326	 0.314273528109134 
2327	 0.314196757377097 
2328	 0.314093228322417 
2329	 0.314012460812492 
2330	 0.313935717489888 
2331	 0.313891688548751 
2332	 0.313836319230066 
2333	 0.313737485275322 
2334	 0.313626722846981 
2335	 0.313470962283547 
2336	 0.313334906424259 
2337	 0.313246850780887 
2338	 0.31318421798841 
2339	 0.313154168937502 
2340	 0.313072475633345 
2341	 0.312911720108985 
2342	 0.312743582313301 
2343	 0.312571244147407 
2344	 0.312399322584034 
2345	 0.312216600448855 
2346	 0.312047465986482 
2347	 0.311842904830594 
2348	 0.311599135098856 
2349	 0.311379240113847 
2350	 0.311178367746036 
2351	 0.31096209271562 
2352	 0.310735224307774 
2353	 0.310489470833948 
2354	 0.310209485457252 
2355	 0.309948864684244 
2356	 0.309690025272773 
2357	 0.309441449792092 
2358	 0.309227933211736 
2359	 0.308959376631144 
2360	 0.308659018383443 
2361	 0.308393764536299 
2362	 0.308133079461033 
2363	 0.307837206244379 
2364	 0.307514269234136 
2365	 0.307208191539962 
2366	 0.306874231704722 
2367	 0.306568349463898 
2368	 0.306298552972448 
2369	 0.306043232258269 
2370	 0.305803730544835 
2371	 0.305549542057418 
2372	 0.305269768880578 
2373	 0.305019023059826 
2374	 0.30476629279195 
2375	 0.304444617675524 
2376	 0.304181784734698 
2377	 0.303937590376012 
2378	 0.303595905999391 
2379	 0.303210056007504 
2380	 0.302825558389014 
2381	 0.302485634480413 
2382	 0.302174459935127 
2383	 0.301934461707408 
2384	 0.301713662609351 
2385	 0.301425111477096 
2386	 0.301137557106393 
2387	 0.300919957943883 
2388	 0.300718602594112 
2389	 0.300483168266235 
2390	 0.300241524297578 
2391	 0.29991730291388 
2392	 0.299614660066536 
2393	 0.299295217453179 
2394	 0.298942769824065 
2395	 0.298698536771567 
2396	 0.298423287252851 
2397	 0.298148599309871 
2398	 0.297836282310188 
2399	 0.297459849632389 
2400	 0.297105573192072 
2401	 0.296733915560826 
2402	 0.296520337773526 
2403	 0.296329908233706 
2404	 0.296043882544638 
2405	 0.295831838171896 
2406	 0.29551100624472 
2407	 0.295108107009664 
2408	 0.294801908883387 
2409	 0.294530763222942 
2410	 0.294229096448251 
2411	 0.293946804515315 
2412	 0.293677895504547 
2413	 0.293303855384136 
2414	 0.293003371347008 
2415	 0.292749091569852 
2416	 0.292447248975842 
2417	 0.292153486583537 
2418	 0.291867286207115 
2419	 0.291529432161729 
2420	 0.291198886943535 
2421	 0.290869212054321 
2422	 0.290557184894396 
2423	 0.29022456104628 
2424	 0.28993300210921 
2425	 0.289716312167769 
2426	 0.289430187156136 
2427	 0.289126054009328 
2428	 0.288872790052787 
2429	 0.288607398875381 
2430	 0.288352984838978 
2431	 0.288138084834558 
2432	 0.287851671379736 
2433	 0.287579334137605 
2434	 0.287247462708753 
2435	 0.286782061523882 
2436	 0.286407139985509 
2437	 0.286057809464409 
2438	 0.285717199372104 
2439	 0.285421817965427 
2440	 0.285165670858997 
2441	 0.284916801456767 
2442	 0.284657149638886 
2443	 0.284466615772473 
2444	 0.284185673795506 
2445	 0.283831426579876 
2446	 0.283529616971152 
2447	 0.283214515271645 
2448	 0.282865369729602 
2449	 0.282529244293823 
2450	 0.282280614264616 
2451	 0.282070001919603 
2452	 0.281756907503541 
2453	 0.281477205676946 
2454	 0.281061833286179 
2455	 0.280396184314614 
2456	 0.279975831841619 
2457	 0.279663101075333 
2458	 0.279368584170769 
2459	 0.279169267527591 
2460	 0.278955161352602 
2461	 0.278785013097326 
2462	 0.278558696996605 
2463	 0.278343245371476 
2464	 0.27810181795148 
2465	 0.277818917311913 
2466	 0.277515998038762 
2467	 0.277193279083073 
2468	 0.276851925308639 
2469	 0.276469264333743 
2470	 0.275991165929776 
2471	 0.275549835969579 
2472	 0.275067683804087 
2473	 0.274764041581047 
2474	 0.274654205748445 
2475	 0.27445345309237 
2476	 0.274215570419801 
2477	 0.273927410820625 
2478	 0.273450072279154 
2479	 0.273103722766044 
2480	 0.272886756925439 
2481	 0.272467175263708 
2482	 0.272058511209283 
2483	 0.271725076438444 
2484	 0.271494712377486 
2485	 0.271366098793243 
2486	 0.271228755566464 
2487	 0.271046514135248 
2488	 0.27062171125262 
2489	 0.270246759736817 
2490	 0.270054502488565 
2491	 0.269733657040519 
2492	 0.269459570769104 
2493	 0.269275295738084 
2494	 0.268884452476142 
2495	 0.268579870107396 
2496	 0.268446485616797 
2497	 0.268180572373059 
2498	 0.267968856284356 
2499	 0.26786956132006 
2500	 0.267618200533554 
