Wavelength	LMW800019.asd
350	 4.92014221093914E-02 
351	 5.24742747675857E-02 
352	 5.36161371927281E-02 
353	 4.94138231756777E-02 
354	 4.70197762507018E-02 
355	 4.71868730605114E-02 
356	 0.047468284624521 
357	 4.69062944617534E-02 
358	 5.49286871644976E-02 
359	 5.43701825784813E-02 
360	 0.048232517620881 
361	 5.11211382188981E-02 
362	 4.94718603367387E-02 
363	 0.048304256777029 
364	 5.02687026368868E-02 
365	 5.09499856511264E-02 
366	 5.15921715930017E-02 
367	 5.20695293042645E-02 
368	 5.25009842505433E-02 
369	 5.59297361923223E-02 
370	 5.33226582308145E-02 
371	 4.89458903706917E-02 
372	 5.45283102085791E-02 
373	 5.52589914302797E-02 
374	 5.49050166260952E-02 
375	 5.62255696193505E-02 
376	 5.60346528121101E-02 
377	 5.40289592636669E-02 
378	 5.27942099785239E-02 
379	 5.45359597841276E-02 
380	 5.62407921445886E-02 
381	 5.47471084842262E-02 
382	 5.25752729828516E-02 
383	 5.56103390144146E-02 
384	 5.53373609699379E-02 
385	 5.49196181589746E-02 
386	 5.62083606798206E-02 
387	 5.51539019276865E-02 
388	 5.58421179370395E-02 
389	 5.68261775855137E-02 
390	 5.59236535817856E-02 
391	 5.61304424060468E-02 
392	 5.72720206165738E-02 
393	 5.83350561939387E-02 
394	 5.79149892080525E-02 
395	 5.76687551712342E-02 
396	 5.80769655614575E-02 
397	 5.89448285589764E-02 
398	 5.91366459657471E-02 
399	 5.92422764266781E-02 
400	 5.96388020618981E-02 
401	 6.04044456312622E-02 
402	 6.03192229011643E-02 
403	 6.08861596628433E-02 
404	 6.17710252701155E-02 
405	 6.07801858834446E-02 
406	 6.06265950347601E-02 
407	 6.18098602258279E-02 
408	 6.32962569875647E-02 
409	 6.11865808197688E-02 
410	 6.00805048728494E-02 
411	 6.05275329700973E-02 
412	 6.11346060458477E-02 
413	 6.19350142552495E-02 
414	 6.21335336318353E-02 
415	 6.16622922202386E-02 
416	 6.13847524523356E-02 
417	 6.15439530560693E-02 
418	 6.19946201644899E-02 
419	 6.24190918158547E-02 
420	 6.24393678307219E-02 
421	 6.18490819177327E-02 
422	 6.13366495654152E-02 
423	 6.19465781053596E-02 
424	 6.21748166181066E-02 
425	 6.18403451329231E-02 
426	 6.12047116534418E-02 
427	 0.06092648379706 
428	 6.09114831799839E-02 
429	 6.09213209219888E-02 
430	 0.060783453843941 
431	 6.10233588384036E-02 
432	 6.10574539700755E-02 
433	 6.09145171903617E-02 
434	 0.06121900304265 
435	 6.14266179537965E-02 
436	 0.061349144247727 
437	 6.10243142631759E-02 
438	 6.08097711516552E-02 
439	 6.09808140742662E-02 
440	 6.13106177305437E-02 
441	 6.13628109363264E-02 
442	 0.061321019690439 
443	 6.13530863672244E-02 
444	 6.14681135406002E-02 
445	 6.14318886095543E-02 
446	 6.16697636464445E-02 
447	 6.19516561431374E-02 
448	 6.20121143861706E-02 
449	 6.23209756107871E-02 
450	 6.24062923418657E-02 
451	 6.23220423045163E-02 
452	 6.25565149081047E-02 
453	 6.27562926419378E-02 
454	 0.062734827793633 
455	 6.25372314153957E-02 
456	 6.26901678110679E-02 
457	 6.28725227253613E-02 
458	 6.30323671835846E-02 
459	 6.32121228518163E-02 
460	 6.32651509430641E-02 
461	 6.32023502333132E-02 
462	 6.31301888645444E-02 
463	 6.32617327849946E-02 
464	 6.34611065944913E-02 
465	 6.36598739009532E-02 
466	 6.37907181424807E-02 
467	 6.37002422199565E-02 
468	 0.063732162741359 
469	 6.38937318770908E-02 
470	 6.39201736342124E-02 
471	 6.39138350398453E-02 
472	 6.38792528091526E-02 
473	 6.38277465914546E-02 
474	 6.38071673699628E-02 
475	 0.063891346307542 
476	 6.40236761497758E-02 
477	 0.064092528658791 
478	 6.40686812549112E-02 
479	 6.41494374720533E-02 
480	 6.43087029129451E-02 
481	 6.41809525030601E-02 
482	 6.43868694916772E-02 
483	 6.45989263260796E-02 
484	 6.44462005287158E-02 
485	 6.45152655045265E-02 
486	 6.44530581547905E-02 
487	 6.43228279421269E-02 
488	 6.45086115668477E-02 
489	 6.44533687002628E-02 
490	 6.44068756594496E-02 
491	 6.45637848646445E-02 
492	 6.46605318383378E-02 
493	 6.45575106666398E-02 
494	 6.43901490443096E-02 
495	 6.44061845778085E-02 
496	 6.45466698806228E-02 
497	 0.064553706756059 
498	 6.44083622070562E-02 
499	 6.44674320072142E-02 
500	 6.45197455840028E-02 
501	 0.064478715214952 
502	 6.43626134788011E-02 
503	 6.44959470469668E-02 
504	 6.45509233352845E-02 
505	 6.44624965899859E-02 
506	 6.44238707596037E-02 
507	 6.44882534662009E-02 
508	 6.45043687210419E-02 
509	 6.44144039740725E-02 
510	 6.45583113618727E-02 
511	 6.44366274784477E-02 
512	 6.42154746065858E-02 
513	 0.064347008531029 
514	 0.064377509721969 
515	 6.43747823232001E-02 
516	 6.43998685747824E-02 
517	 0.064400239494717 
518	 6.43891976228046E-02 
519	 6.43651775733808E-02 
520	 6.43324317344776E-02 
521	 6.43370513133865E-02 
522	 6.43842753427051E-02 
523	 6.44303302596126E-02 
524	 6.43874622449563E-02 
525	 6.44048219203441E-02 
526	 6.44421908742493E-02 
527	 6.44523611052415E-02 
528	 6.45170074228917E-02 
529	 6.45210777257371E-02 
530	 6.45286337787504E-02 
531	 6.46859528436849E-02 
532	 6.45993517942634E-02 
533	 0.06455806456063 
534	 6.47119892504128E-02 
535	 6.47268628432748E-02 
536	 6.46893929532766E-02 
537	 6.46553756527097E-02 
538	 6.46769143400379E-02 
539	 0.064805160423096 
540	 6.48630261562135E-02 
541	 6.48167886104154E-02 
542	 6.48408497070585E-02 
543	 6.49027005663386E-02 
544	 6.49689287107387E-02 
545	 6.50170995231799E-02 
546	 6.50959840756644E-02 
547	 6.51152326535552E-02 
548	 6.51010879457222E-02 
549	 6.51726743614275E-02 
550	 6.52081578357866E-02 
551	 0.065255165000832 
552	 6.53555869617444E-02 
553	 6.54629836653291E-02 
554	 6.55386668392223E-02 
555	 6.55976577711732E-02 
556	 6.56814482816334E-02 
557	 6.57708120275575E-02 
558	 6.58542146052313E-02 
559	 6.59464716772052E-02 
560	 6.61144039577264E-02 
561	 6.62213931304291E-02 
562	 6.63113206469891E-02 
563	 6.64686575592919E-02 
564	 6.66203792978765E-02 
565	 6.67867684432858E-02 
566	 6.69682008390817E-02 
567	 0.067138634654647 
568	 6.73593787203519E-02 
569	 6.75970247902476E-02 
570	 6.78286170681073E-02 
571	 6.81549959211391E-02 
572	 6.84630618920352E-02 
573	 6.87233779922627E-02 
574	 0.068972311086436 
575	 6.92595228636324E-02 
576	 6.95748965963776E-02 
577	 6.99055142841611E-02 
578	 7.02591010173883E-02 
579	 7.06141615489574E-02 
580	 7.10052790381767E-02 
581	 7.14724612882301E-02 
582	 7.19065266928743E-02 
583	 7.23619533695244E-02 
584	 7.28613917744096E-02 
585	 7.33634820523488E-02 
586	 7.38762752653902E-02 
587	 7.43999920104156E-02 
588	 7.49369008493461E-02 
589	 7.55101071419785E-02 
590	 7.60702996153834E-02 
591	 7.66208231088018E-02 
592	 7.72125044035608E-02 
593	 7.77741133844825E-02 
594	 7.83562137635938E-02 
595	 7.89881735974738E-02 
596	 7.95774279686257E-02 
597	 8.02217109966073E-02 
598	 8.08986906683283E-02 
599	 8.15291690342958E-02 
600	 8.21403574931295E-02 
601	 8.27329211862803E-02 
602	 8.32896951047613E-02 
603	 8.37610578973351E-02 
604	 8.42575090120333E-02 
605	 8.47927755150702E-02 
606	 8.53415045558061E-02 
607	 8.58850977201555E-02 
608	 8.64025740218558E-02 
609	 8.68915727871504E-02 
610	 8.73714653164317E-02 
611	 8.78706807722129E-02 
612	 8.83547904942795E-02 
613	 8.87871786280793E-02 
614	 8.91909578924138E-02 
615	 8.95364589813169E-02 
616	 8.98555125308292E-02 
617	 9.02132446142801E-02 
618	 9.05415003890129E-02 
619	 9.08157967080396E-02 
620	 9.10501297052426E-02 
621	 9.13227066729688E-02 
622	 0.091608603707274 
623	 9.18660659760798E-02 
624	 9.20619057532277E-02 
625	 9.22831688971958E-02 
626	 9.25096860193772E-02 
627	 9.27218866355519E-02 
628	 9.29123357965546E-02 
629	 9.31622135111841E-02 
630	 9.34064903678534E-02 
631	 9.35720492861651E-02 
632	 9.37157044461217E-02 
633	 9.38826566698673E-02 
634	 9.40984161601626E-02 
635	 9.43606249042419E-02 
636	 9.45049418304363E-02 
637	 0.094625788149804 
638	 0.094802478531556 
639	 9.49561702159107E-02 
640	 0.0951407385331 
641	 9.53519819401726E-02 
642	 9.55620826446796E-02 
643	 9.57880625305179E-02 
644	 9.60059598648279E-02 
645	 9.61926088808392E-02 
646	 9.63286431745826E-02 
647	 9.64926818949255E-02 
648	 9.66993258235515E-02 
649	 9.69331634120014E-02 
650	 9.71511211063721E-02 
651	 9.73715471068711E-02 
652	 9.76017555144776E-02 
653	 0.097838904368595 
654	 9.81107844313976E-02 
655	 9.83357278429296E-02 
656	 9.84920102921672E-02 
657	 9.87497227073864E-02 
658	 9.90637298370149E-02 
659	 9.93610513961304E-02 
660	 9.95728630388883E-02 
661	 9.98039137378781E-02 
662	 0.100110416632621 
663	 0.100476074890421 
664	 0.100790456493075 
665	 0.101084654930375 
666	 0.101380784278353 
667	 0.101694411454527 
668	 0.102005150831764 
669	 0.102360310460445 
670	 0.102735152606333 
671	 0.103051201717415 
672	 0.103418391620635 
673	 0.103815846052444 
674	 0.104211169641233 
675	 0.104600504197035 
676	 0.105001048847173 
677	 0.105393293744737 
678	 0.105761565591721 
679	 0.106232360240739 
680	 0.106704598799467 
681	 0.107143032867201 
682	 0.107624844680512 
683	 0.108107947766532 
684	 0.108546145507553 
685	 0.108941939639816 
686	 0.109472717580929 
687	 0.110013126747659 
688	 0.110526758626883 
689	 0.111044907238389 
690	 0.111562776832248 
691	 0.112088749602801 
692	 0.112634583383532 
693	 0.113223065544764 
694	 0.113774577674532 
695	 0.114314165977275 
696	 0.114894859783145 
697	 0.115475963971323 
698	 0.116101791757982 
699	 0.116754498612681 
700	 0.117349748360691 
701	 0.117951893667402 
702	 0.118566496832738 
703	 0.11919164375024 
704	 0.119845022308736 
705	 0.120473871271905 
706	 0.12109315514922 
707	 0.121742990770402 
708	 0.122349394507399 
709	 0.122961649088726 
710	 0.123610456122916 
711	 0.124283511530132 
712	 0.124921882352633 
713	 0.12553111187259 
714	 0.126137425590247 
715	 0.126758020263961 
716	 0.1273853006806 
717	 0.128002255935064 
718	 0.128589012875682 
719	 0.129180180512171 
720	 0.129767536975814 
721	 0.130340507386028 
722	 0.13089550842294 
723	 0.131454319181546 
724	 0.131996161352965 
725	 0.132498857671403 
726	 0.133014065656663 
727	 0.133477770709411 
728	 0.133896630096974 
729	 0.134343290896244 
730	 0.134800645958056 
731	 0.135201090747506 
732	 0.135525653349334 
733	 0.135896838023943 
734	 0.136215997208717 
735	 0.136489912740542 
736	 0.136762885961067 
737	 0.137029070219596 
738	 0.137240937182989 
739	 0.137402570938332 
740	 0.137575482779714 
741	 0.137727870152135 
742	 0.137843065927897 
743	 0.137917617652206 
744	 0.137979276804232 
745	 0.137976998615564 
746	 0.137943143970089 
747	 0.137934077788132 
748	 0.137867631011712 
749	 0.137778566916899 
750	 0.137675928574188 
751	 0.137526657857631 
752	 0.137389848728322 
753	 0.137233496795645 
754	 0.137028273385391 
755	 0.136819758093163 
756	 0.136564345577408 
757	 0.136285257969325 
758	 0.136031284858775 
759	 0.135765024023426 
760	 0.135463269863786 
761	 0.135115610237908 
762	 0.134726345810602 
763	 0.134392191404758 
764	 0.134049822345795 
765	 0.133642950812255 
766	 0.133251943746439 
767	 0.132869847217615 
768	 0.132481537290754 
769	 0.132071896272087 
770	 0.13167262813936 
771	 0.131272414445212 
772	 0.130852565101333 
773	 0.130391989926518 
774	 0.129929476691225 
775	 0.129479765516668 
776	 0.129045180272726 
777	 0.128616643813714 
778	 0.128157855117349 
779	 0.127701913534936 
780	 0.127292224373771 
781	 0.12681394334143 
782	 0.126355698278773 
783	 0.125926726395061 
784	 0.12544269227341 
785	 0.124992903670908 
786	 0.124559079655908 
787	 0.124110146633535 
788	 0.123627414986455 
789	 0.123189526658112 
790	 0.122787854180749 
791	 0.122379660047697 
792	 0.121947362192916 
793	 0.121532461073271 
794	 0.121129480551915 
795	 0.120696517318284 
796	 0.12029606835077 
797	 0.119913645745181 
798	 0.119522997537475 
799	 0.119096880725356 
800	 0.118721553190258 
801	 0.118375442350801 
802	 0.118013101279442 
803	 0.117640290600444 
804	 0.117280256073161 
805	 0.11693217550254 
806	 0.116582002964729 
807	 0.116239814282835 
808	 0.115884848526643 
809	 0.115528807720353 
810	 0.115225216613151 
811	 0.114951804277194 
812	 0.11466967032788 
813	 0.114360168192441 
814	 0.114069564702326 
815	 0.113777423204538 
816	 0.11348888208034 
817	 0.113217004562996 
818	 0.112957032032826 
819	 0.112727641517943 
820	 0.112505181245784 
821	 0.112236698675453 
822	 0.111976238780212 
823	 0.111727223966013 
824	 0.111493987647874 
825	 0.111296156272959 
826	 0.111058676162795 
827	 0.110851836756516 
828	 0.11072723379344 
829	 0.110550420619694 
830	 0.110329480063834 
831	 0.110124107646621 
832	 0.109993096938549 
833	 0.109816377057844 
834	 0.109651766055289 
835	 0.109509324264748 
836	 0.109346965503419 
837	 0.109206029261358 
838	 0.10910267842773 
839	 0.109015473815733 
840	 0.108868048767606 
841	 0.108764152691283 
842	 0.108654766318857 
843	 0.108505355557254 
844	 0.108466357206922 
845	 0.108420354514423 
846	 0.108343886985704 
847	 0.108258331263228 
848	 0.108152013109991 
849	 0.108098910812799 
850	 0.108075090287283 
851	 0.107983281554126 
852	 0.107920804245535 
853	 0.107895313374619 
854	 0.1078782439128 
855	 0.107811246397087 
856	 0.107827146347271 
857	 0.107867508271003 
858	 0.107861640124589 
859	 0.107822378616156 
860	 0.107848731879852 
861	 0.107886014840368 
862	 0.107863402800844 
863	 0.107907693621363 
864	 0.107960332709439 
865	 0.1080033250283 
866	 0.10804544619982 
867	 0.108067998240219 
868	 0.108110455324129 
869	 0.108173161673296 
870	 0.108216324674146 
871	 0.108290068777361 
872	 0.108372725868146 
873	 0.108453657432731 
874	 0.108558169647151 
875	 0.108686881417524 
876	 0.10882817680095 
877	 0.108953696737278 
878	 0.108988427806199 
879	 0.109138594114007 
880	 0.109312358609473 
881	 0.109379860439564 
882	 0.109531370123193 
883	 0.109693425082895 
884	 0.109837332091035 
885	 0.109971005454864 
886	 0.110135754631053 
887	 0.110351362799398 
888	 0.110563894236027 
889	 0.110682349972192 
890	 0.110855329622416 
891	 0.111055993787357 
892	 0.111268815788414 
893	 0.111517804653899 
894	 0.111740703707139 
895	 0.111952811307348 
896	 0.112190399852571 
897	 0.112495798206949 
898	 0.112764075137661 
899	 0.113017008311761 
900	 0.113280723176208 
901	 0.113491008230461 
902	 0.113737199847956 
903	 0.114008621235837 
904	 0.114279960562722 
905	 0.114613844468353 
906	 0.11496331361203 
907	 0.115290768408719 
908	 0.115585116659828 
909	 0.115924540054856 
910	 0.116279705824454 
911	 0.116624298960815 
912	 0.116954811679896 
913	 0.117383414180207 
914	 0.11777961739308 
915	 0.118136225167168 
916	 0.118554528163299 
917	 0.11886131410828 
918	 0.119272709299049 
919	 0.119807731729256 
920	 0.120217218839767 
921	 0.120573881571411 
922	 0.120978290630048 
923	 0.121458277092765 
924	 0.121928155005272 
925	 0.122424022816756 
926	 0.122952589543718 
927	 0.123483197997207 
928	 0.123929897900481 
929	 0.124453542569957 
930	 0.12498416686807 
931	 0.125478173680259 
932	 0.126098315211434 
933	 0.126684882894652 
934	 0.127225716921122 
935	 0.127756260484888 
936	 0.128300117284581 
937	 0.128927450355143 
938	 0.129566875058983 
939	 0.130151516300705 
940	 0.130808874845252 
941	 0.131492712118671 
942	 0.132184621629734 
943	 0.132870651359995 
944	 0.133508072431529 
945	 0.134156983991088 
946	 0.134846862104353 
947	 0.135578689631813 
948	 0.136325972201045 
949	 0.137045208991416 
950	 0.137738758186298 
951	 0.138456828622378 
952	 0.139329150801798 
953	 0.140233169380953 
954	 0.141040134094303 
955	 0.141703897653462 
956	 0.14252964318774 
957	 0.143442314500286 
958	 0.144309211670066 
959	 0.145045527852729 
960	 0.145922470591319 
961	 0.146841820287331 
962	 0.147777921364462 
963	 0.14874447072564 
964	 0.149624930070061 
965	 0.150459099196561 
966	 0.151346178756198 
967	 0.152366433898565 
968	 0.153300062027212 
969	 0.154287881330589 
970	 0.155269075196799 
971	 0.156102885614744 
972	 0.157127241954006 
973	 0.158242796850151 
974	 0.159351133358868 
975	 0.16041405075025 
976	 0.161592180110173 
977	 0.162734672355943 
978	 0.163745610054379 
979	 0.164639708763835 
980	 0.165703512311899 
981	 0.16667415629489 
982	 0.167631424033248 
983	 0.168819760576133 
984	 0.170052844950848 
985	 0.171196280156288 
986	 0.172296633353849 
987	 0.173458331308933 
988	 0.174501718138299 
989	 0.175692301925033 
990	 0.176897496046706 
991	 0.177898081539628 
992	 0.179126451308568 
993	 0.180238377685861 
994	 0.181382027509557 
995	 0.182779204884985 
996	 0.183973079879222 
997	 0.185106780784814 
998	 0.186195562284552 
999	 0.187287717860759 
1000	 0.188728993294968 
1001	 0.191400484173777 
1002	 0.192595882684361 
1003	 0.193753212418808 
1004	 0.194900224054822 
1005	 0.19602657213893 
1006	 0.197137701018574 
1007	 0.198212281907171 
1008	 0.199326781107576 
1009	 0.200426597885188 
1010	 0.201555226089645 
1011	 0.202676577949116 
1012	 0.203759333189111 
1013	 0.204911031728022 
1014	 0.206031890812127 
1015	 0.20707795468816 
1016	 0.208192701128898 
1017	 0.209285482682791 
1018	 0.210341292465132 
1019	 0.211368121081123 
1020	 0.212451199905831 
1021	 0.213499437767255 
1022	 0.214504262528197 
1023	 0.215497646882046 
1024	 0.2165358512184 
1025	 0.217558806593728 
1026	 0.218509779401133 
1027	 0.219473750994254 
1028	 0.220461926065499 
1029	 0.221424691813709 
1030	 0.222368223638445 
1031	 0.223340513207561 
1032	 0.224350677512088 
1033	 0.225317269897486 
1034	 0.226264166215653 
1035	 0.227236428433772 
1036	 0.228143760031597 
1037	 0.229065504956472 
1038	 0.229996695245035 
1039	 0.230918891423806 
1040	 0.231879660114488 
1041	 0.232838625740975 
1042	 0.233788201910365 
1043	 0.234698620796373 
1044	 0.235626956242623 
1045	 0.23656357505128 
1046	 0.237493041359105 
1047	 0.238389485107691 
1048	 0.239337363456331 
1049	 0.240330450089415 
1050	 0.241303332758933 
1051	 0.24223921968273 
1052	 0.243179970507768 
1053	 0.244074363029802 
1054	 0.244896373633301 
1055	 0.245751631598725 
1056	 0.246639071056569 
1057	 0.247510698655883 
1058	 0.248370173485095 
1059	 0.249247965634363 
1060	 0.250149476578874 
1061	 0.250993224932427 
1062	 0.2518442764747 
1063	 0.252732428139576 
1064	 0.253579547836007 
1065	 0.254416786716778 
1066	 0.255270742177605 
1067	 0.256069888351134 
1068	 0.256847179337129 
1069	 0.257654256807582 
1070	 0.25845706734458 
1071	 0.259234678674025 
1072	 0.260049685587019 
1073	 0.26090706365168 
1074	 0.261715443016008 
1075	 0.262506568058677 
1076	 0.26331612463134 
1077	 0.264098463932355 
1078	 0.26481291717035 
1079	 0.26555886363275 
1080	 0.266325223444076 
1081	 0.267045938100101 
1082	 0.267813042745022 
1083	 0.268573989717346 
1084	 0.269323131785562 
1085	 0.270093464068612 
1086	 0.270863083957113 
1087	 0.271655513424329 
1088	 0.27248037452916 
1089	 0.273299096541524 
1090	 0.274054372603705 
1091	 0.274826177918673 
1092	 0.275578398622072 
1093	 0.276323297620927 
1094	 0.277141479799387 
1095	 0.277965385746841 
1096	 0.278781092422996 
1097	 0.279625620982842 
1098	 0.280482345476555 
1099	 0.28136087632778 
1100	 0.282218326571282 
1101	 0.283072051034296 
1102	 0.283958225790824 
1103	 0.284836998994414 
1104	 0.285737710453513 
1105	 0.286712817523749 
1106	 0.287671376669511 
1107	 0.28856059775125 
1108	 0.289468207569318 
1109	 0.290391828037309 
1110	 0.291279449489426 
1111	 0.292216037744896 
1112	 0.293196650603117 
1113	 0.294180877849942 
1114	 0.295182127591524 
1115	 0.29618193103478 
1116	 0.297210318475607 
1117	 0.298222238429116 
1118	 0.299222363708769 
1119	 0.300215018245367 
1120	 0.301247329868979 
1121	 0.302264890868681 
1122	 0.303284081837407 
1123	 0.304334118694341 
1124	 0.305374271743716 
1125	 0.306406655014861 
1126	 0.307460858772091 
1127	 0.308521026091896 
1128	 0.309592775304427 
1129	 0.310690791444825 
1130	 0.31176182815315 
1131	 0.312826833143869 
1132	 0.313903757690681 
1133	 0.314989423375436 
1134	 0.316045369228478 
1135	 0.317107595898229 
1136	 0.318134351831963 
1137	 0.319138898310606 
1138	 0.320156534474495 
1139	 0.32118320976823 
1140	 0.322235470310789 
1141	 0.323256700362023 
1142	 0.324277240023778 
1143	 0.325275815462516 
1144	 0.326239647890476 
1145	 0.32722269505087 
1146	 0.328201080249811 
1147	 0.329181254610062 
1148	 0.330176956720268 
1149	 0.331161318115042 
1150	 0.332154606922252 
1151	 0.333119919467011 
1152	 0.33405348998336 
1153	 0.334973656316574 
1154	 0.335895991947048 
1155	 0.336797551476713 
1156	 0.337699611403008 
1157	 0.338610719949009 
1158	 0.339507289566003 
1159	 0.340382004476277 
1160	 0.341261118472085 
1161	 0.34216589101971 
1162	 0.34302341441778 
1163	 0.34384889384588 
1164	 0.344681420360482 
1165	 0.345495716938034 
1166	 0.346297286508288 
1167	 0.347126599062591 
1168	 0.347956560480661 
1169	 0.348767447750887 
1170	 0.349583879360292 
1171	 0.350363831556572 
1172	 0.35111989325873 
1173	 0.351870899809161 
1174	 0.352600545030311 
1175	 0.353326474724102 
1176	 0.354045183551455 
1177	 0.35475995295397 
1178	 0.355458652378916 
1179	 0.356165297467459 
1180	 0.356890968201654 
1181	 0.357588069553624 
1182	 0.358274965682444 
1183	 0.358957570433082 
1184	 0.35961313791686 
1185	 0.36023701097924 
1186	 0.360877161056814 
1187	 0.361515615478967 
1188	 0.362138008954869 
1189	 0.362759043204675 
1190	 0.363365729006371 
1191	 0.363953156522166 
1192	 0.364540679961007 
1193	 0.36513651377125 
1194	 0.365704895487916 
1195	 0.36625514682625 
1196	 0.366797377391903 
1197	 0.36731520247327 
1198	 0.367835440267057 
1199	 0.368351737720378 
1200	 0.368871211059121 
1201	 0.369364184788978 
1202	 0.369838045033903 
1203	 0.370325887796819 
1204	 0.370802337590158 
1205	 0.371283001660048 
1206	 0.371778641249784 
1207	 0.37225965520415 
1208	 0.372740360665622 
1209	 0.373198756552551 
1210	 0.373649137578763 
1211	 0.374087625484185 
1212	 0.374498946378011 
1213	 0.374913037837338 
1214	 0.375335773792926 
1215	 0.375736140479653 
1216	 0.37612338105672 
1217	 0.376492401675413 
1218	 0.376873419541865 
1219	 0.37724853320147 
1220	 0.377614627406139 
1221	 0.377989518695011 
1222	 0.378344643814168 
1223	 0.378682353101661 
1224	 0.379012828370366 
1225	 0.379328143070066 
1226	 0.37965236540296 
1227	 0.3799815355101 
1228	 0.380289110816063 
1229	 0.380589143574837 
1230	 0.380889432298617 
1231	 0.381176824874365 
1232	 0.381454635395979 
1233	 0.381728248999088 
1234	 0.382001105338895 
1235	 0.382283196325192 
1236	 0.38255950420625 
1237	 0.38283196075757 
1238	 0.383131178047301 
1239	 0.383389030681052 
1240	 0.383614597095448 
1241	 0.383847286255882 
1242	 0.384056814810639 
1243	 0.384285973668231 
1244	 0.384524685611988 
1245	 0.384756791649893 
1246	 0.385010487884348 
1247	 0.385236950608858 
1248	 0.385441309370062 
1249	 0.385645634265795 
1250	 0.385842568403084 
1251	 0.386034865252682 
1252	 0.386232111008022 
1253	 0.386442098097903 
1254	 0.386626840585088 
1255	 0.386796685358246 
1256	 0.386972517852083 
1257	 0.387136738096062 
1258	 0.387307574957175 
1259	 0.387492100993684 
1260	 0.387659631808609 
1261	 0.387825246201608 
1262	 0.387973073668503 
1263	 0.388093606970109 
1264	 0.388230477308571 
1265	 0.388360818396553 
1266	 0.388498545050952 
1267	 0.38865277445878 
1268	 0.38879559918741 
1269	 0.388951190783101 
1270	 0.389109590767575 
1271	 0.38926542014279 
1272	 0.389426304741528 
1273	 0.389594639077311 
1274	 0.389752408986765 
1275	 0.389936452145804 
1276	 0.390141976704399 
1277	 0.390346191045645 
1278	 0.390570767226018 
1279	 0.390778917771161 
1280	 0.390986066915115 
1281	 0.39119102926306 
1282	 0.391402695000961 
1283	 0.391587622572404 
1284	 0.391778362546332 
1285	 0.391925702970085 
1286	 0.392035322562294 
1287	 0.39216070039042 
1288	 0.392253221001196 
1289	 0.392319444563951 
1290	 0.392387078451391 
1291	 0.392441852692478 
1292	 0.392480737042918 
1293	 0.392525031800668 
1294	 0.392527608439205 
1295	 0.392499258020967 
1296	 0.392455514123625 
1297	 0.392385617138951 
1298	 0.392298834952509 
1299	 0.39219001825864 
1300	 0.392073061012844 
1301	 0.39192183930316 
1302	 0.391783249503496 
1303	 0.391649178555156 
1304	 0.391503128629369 
1305	 0.391355429023656 
1306	 0.391211396168632 
1307	 0.391038518014921 
1308	 0.39085578092677 
1309	 0.39068228565519 
1310	 0.39049553493705 
1311	 0.390336200692519 
1312	 0.390183033891711 
1313	 0.390055591792944 
1314	 0.389955908699609 
1315	 0.389843915116031 
1316	 0.389721158752861 
1317	 0.389651045856809 
1318	 0.389597317949034 
1319	 0.389561021506246 
1320	 0.38959685379344 
1321	 0.389588733599237 
1322	 0.389543662242458 
1323	 0.389532813752793 
1324	 0.389547499525055 
1325	 0.389561521342688 
1326	 0.389633155981744 
1327	 0.389737166806811 
1328	 0.38981506064041 
1329	 0.389900142051331 
1330	 0.390002765395449 
1331	 0.390098253213477 
1332	 0.390230881498421 
1333	 0.39039406087963 
1334	 0.390562703024697 
1335	 0.390745511821506 
1336	 0.390943893201262 
1337	 0.391174737135278 
1338	 0.391378471146035 
1339	 0.391574751886114 
1340	 0.391786238030356 
1341	 0.392001939446975 
1342	 0.392204901850766 
1343	 0.392408270873565 
1344	 0.392623831183216 
1345	 0.39283479225983 
1346	 0.393026987971538 
1347	 0.393245979326044 
1348	 0.393480114747429 
1349	 0.393668784329093 
1350	 0.393829454447595 
1351	 0.394018794896695 
1352	 0.394198412122508 
1353	 0.394396816650476 
1354	 0.394628523964266 
1355	 0.394837815368938 
1356	 0.395049081292236 
1357	 0.395241705241968 
1358	 0.395411460635399 
1359	 0.395598653344811 
1360	 0.395773343999214 
1361	 0.395966752258116 
1362	 0.39618372977082 
1363	 0.396392452802276 
1364	 0.396603709713413 
1365	 0.396815065472663 
1366	 0.397024116368956 
1367	 0.397233317195393 
1368	 0.397461274602019 
1369	 0.397681792278202 
1370	 0.397891954353958 
1371	 0.398095850649626 
1372	 0.39824978729425 
1373	 0.398370667405079 
1374	 0.398482717653182 
1375	 0.398574623554929 
1376	 0.398634616754247 
1377	 0.398677661895649 
1378	 0.398696844305661 
1379	 0.398684780122049 
1380	 0.398655551901891 
1381	 0.39858598074115 
1382	 0.398541382550159 
1383	 0.398485060099078 
1384	 0.39842870484857 
1385	 0.398430378157308 
1386	 0.398351098004683 
1387	 0.398228209377966 
1388	 0.398080407688606 
1389	 0.397890937666912 
1390	 0.397668613282414 
1391	 0.397439247868615 
1392	 0.397186334024901 
1393	 0.396865723981606 
1394	 0.396502980492462 
1395	 0.396095587898779 
1396	 0.395665591152299 
1397	 0.395238890535383 
1398	 0.394820166184359 
1399	 0.394341758953204 
1400	 0.393833872350768 
1401	 0.393309586790041 
1402	 0.392733911082995 
1403	 0.392168044984511 
1404	 0.39159008885273 
1405	 0.391026262906322 
1406	 0.39046522313724 
1407	 0.389888352954892 
1408	 0.389308055020459 
1409	 0.388733278569892 
1410	 0.388130681474695 
1411	 0.387558153178279 
1412	 0.386998972060304 
1413	 0.3864623989529 
1414	 0.385951226844101 
1415	 0.385456055449594 
1416	 0.384995140709869 
1417	 0.384563930484728 
1418	 0.38413339703967 
1419	 0.383721350396419 
1420	 0.383337772029833 
1421	 0.382982296470099 
1422	 0.382657686298696 
1423	 0.382356984567639 
1424	 0.382056706562242 
1425	 0.38176588690544 
1426	 0.381488276842568 
1427	 0.381205443051478 
1428	 0.38097281102342 
1429	 0.380780433553634 
1430	 0.380586975375627 
1431	 0.380421931585068 
1432	 0.380254305862809 
1433	 0.380074942779838 
1434	 0.379932042043381 
1435	 0.379817906096056 
1436	 0.379710418282008 
1437	 0.379632069808295 
1438	 0.379541311863714 
1439	 0.37945563449628 
1440	 0.379365300112794 
1441	 0.379259106741551 
1442	 0.379170267243607 
1443	 0.379082007335382 
1444	 0.37899915036928 
1445	 0.37894937456732 
1446	 0.378896390384322 
1447	 0.378856461023218 
1448	 0.378833900020796 
1449	 0.378801162586519 
1450	 0.378787629417034 
1451	 0.378779383467478 
1452	 0.378759792738763 
1453	 0.378796861815681 
1454	 0.378862599608381 
1455	 0.378939663469363 
1456	 0.379070925470362 
1457	 0.379174887608987 
1458	 0.379274541869618 
1459	 0.379378894354694 
1460	 0.379481910259928 
1461	 0.379585371785164 
1462	 0.379701523318966 
1463	 0.379801562597933 
1464	 0.379899026207079 
1465	 0.379984452447227 
1466	 0.380049328906562 
1467	 0.38012137212415 
1468	 0.380176331871042 
1469	 0.380258938865803 
1470	 0.380363272368935 
1471	 0.380455060841181 
1472	 0.38055934749641 
1473	 0.380679603164101 
1474	 0.380780956818181 
1475	 0.380894016193732 
1476	 0.381014420774977 
1477	 0.381117609144191 
1478	 0.381258620201929 
1479	 0.381403054818314 
1480	 0.381539833445761 
1481	 0.381706303899988 
1482	 0.381839836149782 
1483	 0.381943537200426 
1484	 0.382066424059219 
1485	 0.382184504531857 
1486	 0.382318043805765 
1487	 0.382459821138414 
1488	 0.382613424494533 
1489	 0.382779507457441 
1490	 0.382941637659794 
1491	 0.383127099267521 
1492	 0.383283020147288 
1493	 0.383419748296481 
1494	 0.383563669375635 
1495	 0.383699195937691 
1496	 0.383830210844539 
1497	 0.383962211741054 
1498	 0.384095822371069 
1499	 0.3842205613117 
1500	 0.384340993729562 
1501	 0.384474849557382 
1502	 0.384592075524888 
1503	 0.384695728736697 
1504	 0.384788872409602 
1505	 0.384886971256506 
1506	 0.384988842314578 
1507	 0.385089415202017 
1508	 0.38519864116919 
1509	 0.385302782329481 
1510	 0.385401146116596 
1511	 0.385508915038886 
1512	 0.385616985164168 
1513	 0.385742165167788 
1514	 0.385854366802154 
1515	 0.385964368586997 
1516	 0.386093622321042 
1517	 0.386187314713734 
1518	 0.386259669411553 
1519	 0.386342403008935 
1520	 0.386404184362108 
1521	 0.386485062773726 
1522	 0.38658276294709 
1523	 0.386677222993108 
1524	 0.386770288747574 
1525	 0.386866314156408 
1526	 0.386971168704374 
1527	 0.387064176168248 
1528	 0.387155625744796 
1529	 0.387239762920541 
1530	 0.387309349616979 
1531	 0.387394359775333 
1532	 0.387476295786004 
1533	 0.387570147508248 
1534	 0.387690620796118 
1535	 0.387786052468916 
1536	 0.387874678327869 
1537	 0.387961078088113 
1538	 0.388035235389123 
1539	 0.388104350563433 
1540	 0.388169693695654 
1541	 0.38823755412774 
1542	 0.388299775841541 
1543	 0.388359774345927 
1544	 0.38843255328776 
1545	 0.388484998850653 
1546	 0.388508444300553 
1547	 0.3885473817324 
1548	 0.388618736470336 
1549	 0.38867875621344 
1550	 0.388749900037144 
1551	 0.388833684996441 
1552	 0.388896530849828 
1553	 0.388944157112417 
1554	 0.389004128138608 
1555	 0.389066990546476 
1556	 0.389114119736961 
1557	 0.389170913586901 
1558	 0.389223131712829 
1559	 0.389266145925383 
1560	 0.389314983658879 
1561	 0.38935599198206 
1562	 0.389406035035018 
1563	 0.389463448173932 
1564	 0.389523674597277 
1565	 0.389583898620452 
1566	 0.389660311350271 
1567	 0.389747298834851 
1568	 0.389833170043034 
1569	 0.389938552290802 
1570	 0.39001119378277 
1571	 0.390077088744024 
1572	 0.390131491366161 
1573	 0.390161170720861 
1574	 0.390200534147141 
1575	 0.390232473626851 
1576	 0.390268991928968 
1577	 0.390315715478233 
1578	 0.390344169759505 
1579	 0.390371016001896 
1580	 0.390385721512889 
1581	 0.390367982692949 
1582	 0.390378326625599 
1583	 0.390392407335318 
1584	 0.390416453965539 
1585	 0.390449219151485 
1586	 0.390500548879138 
1587	 0.390581633317258 
1588	 0.390636245645405 
1589	 0.390704976522374 
1590	 0.390751238191613 
1591	 0.390757207624538 
1592	 0.390781273672478 
1593	 0.390810466683503 
1594	 0.3908361893732 
1595	 0.390849293649071 
1596	 0.390888426375339 
1597	 0.39094161679305 
1598	 0.390994050078122 
1599	 0.391070850382441 
1600	 0.391134314801192 
1601	 0.391194134835231 
1602	 0.391243859862941 
1603	 0.391279317042495 
1604	 0.391325607944646 
1605	 0.39138109165041 
1606	 0.39141597505271 
1607	 0.391452025505916 
1608	 0.391473042471362 
1609	 0.391471598448148 
1610	 0.391478135928684 
1611	 0.391468671737256 
1612	 0.391461676989505 
1613	 0.391453233454734 
1614	 0.391440998518943 
1615	 0.391463583264493 
1616	 0.391482415957897 
1617	 0.391514332256921 
1618	 0.39155079804851 
1619	 0.391577450295712 
1620	 0.391637055118233 
1621	 0.391662972712619 
1622	 0.391684648607553 
1623	 0.391692341034119 
1624	 0.391668674966887 
1625	 0.391685329059617 
1626	 0.391713375879847 
1627	 0.391738996290456 
1628	 0.391794087451296 
1629	 0.391806038748383 
1630	 0.391793367076214 
1631	 0.391789073982961 
1632	 0.3917725858779 
1633	 0.391757903138841 
1634	 0.391743016309484 
1635	 0.391728795854968 
1636	 0.391700563609269 
1637	 0.391699490138408 
1638	 0.391717666168827 
1639	 0.39172444256352 
1640	 0.391745544142434 
1641	 0.391746036135044 
1642	 0.391741497776341 
1643	 0.391714700331437 
1644	 0.39165479671131 
1645	 0.391636740067997 
1646	 0.391621104209124 
1647	 0.391604831503228 
1648	 0.391613431667533 
1649	 0.391617172008989 
1650	 0.391608377211583 
1651	 0.39160478666548 
1652	 0.391627151566445 
1653	 0.391617908892623 
1654	 0.391572370483783 
1655	 0.391564708146677 
1656	 0.391570527506183 
1657	 0.391565535580249 
1658	 0.39158429978058 
1659	 0.391567433410338 
1660	 0.391523103724587 
1661	 0.391484335536421 
1662	 0.391421761515654 
1663	 0.391390763213912 
1664	 0.391368102812207 
1665	 0.391354430911362 
1666	 0.391367301144416 
1667	 0.39136391703589 
1668	 0.391351371985564 
1669	 0.391354391212848 
1670	 0.391378354934705 
1671	 0.391366001748827 
1672	 0.391347250626087 
1673	 0.391319926039922 
1674	 0.391250671162727 
1675	 0.391216968362229 
1676	 0.391195831110783 
1677	 0.39118586680886 
1678	 0.39119575650353 
1679	 0.391194501232464 
1680	 0.391208983686709 
1681	 0.391198730544987 
1682	 0.391168716680493 
1683	 0.391145228689271 
1684	 0.391108487252559 
1685	 0.391085690254516 
1686	 0.391067043942602 
1687	 0.39105649095156 
1688	 0.391063013129385 
1689	 0.391050833648783 
1690	 0.391029583256635 
1691	 0.391021397631008 
1692	 0.391015111407306 
1693	 0.390998204216815 
1694	 0.390987540076737 
1695	 0.390973025796334 
1696	 0.390928877402781 
1697	 0.390922812537467 
1698	 0.390942269856014 
1699	 0.390958063351075 
1700	 0.390998410089962 
1701	 0.391011142289564 
1702	 0.39103647460962 
1703	 0.391008149994586 
1704	 0.390939394697242 
1705	 0.390872800670572 
1706	 0.390744260525397 
1707	 0.390684059855031 
1708	 0.390660729342379 
1709	 0.390622427410293 
1710	 0.390598884579311 
1711	 0.390588717545428 
1712	 0.39056547917876 
1713	 0.39057979181366 
1714	 0.390647269462978 
1715	 0.390682192866598 
1716	 0.390735066042393 
1717	 0.390735759476761 
1718	 0.390701781431368 
1719	 0.390669592412952 
1720	 0.390604445149494 
1721	 0.39055508065846 
1722	 0.390510175501572 
1723	 0.390467892151511 
1724	 0.39042249885951 
1725	 0.390380033351359 
1726	 0.390346284241703 
1727	 0.39030179452485 
1728	 0.390255286695647 
1729	 0.390197795086563 
1730	 0.39013090976974 
1731	 0.390074269905743 
1732	 0.390030006570181 
1733	 0.389936520039188 
1734	 0.389822537798086 
1735	 0.389712029089354 
1736	 0.389552999814727 
1737	 0.389446316351628 
1738	 0.389372937432915 
1739	 0.389296122279461 
1740	 0.389231537102673 
1741	 0.389161570564002 
1742	 0.389094762281096 
1743	 0.389032001272662 
1744	 0.388963890172213 
1745	 0.388914336261923 
1746	 0.388880956899299 
1747	 0.388863384693747 
1748	 0.388834721258407 
1749	 0.388793944167556 
1750	 0.388752455497131 
1751	 0.388701967835507 
1752	 0.388633557439181 
1753	 0.388547284211605 
1754	 0.388467546470041 
1755	 0.388410082052123 
1756	 0.388331511354789 
1757	 0.388243945704511 
1758	 0.388174848142583 
1759	 0.388088334219951 
1760	 0.388008827527878 
1761	 0.387961055922062 
1762	 0.387897328849223 
1763	 0.387788207311491 
1764	 0.38769420195982 
1765	 0.38763953351254 
1766	 0.387602475704913 
1767	 0.387594128584068 
1768	 0.38758631978089 
1769	 0.387569440989866 
1770	 0.387521258978087 
1771	 0.387465719082642 
1772	 0.387429842024941 
1773	 0.387348425010864 
1774	 0.3872713974081 
1775	 0.387220809202686 
1776	 0.387153120645955 
1777	 0.387119485724151 
1778	 0.387121912907401 
1779	 0.38713180821945 
1780	 0.387129506410758 
1781	 0.387132110998609 
1782	 0.387128225976 
1783	 0.387088428284442 
1784	 0.387068922087706 
1785	 0.387043110213882 
1786	 0.387003835992249 
1787	 0.386957579320137 
1788	 0.386922347227849 
1789	 0.386888233970755 
1790	 0.386869919212783 
1791	 0.386873461622876 
1792	 0.386869011585261 
1793	 0.386852984565748 
1794	 0.386843911251594 
1795	 0.386852390562584 
1796	 0.386834955104307 
1797	 0.386799891256707 
1798	 0.386787685751929 
1799	 0.386757729889049 
1800	 0.386777167264929 
1801	 0.379210735606579 
1802	 0.379367479185076 
1803	 0.379551529197737 
1804	 0.379755316839484 
1805	 0.379922975414401 
1806	 0.380091445884048 
1807	 0.380279882300108 
1808	 0.380416499274712 
1809	 0.380532502730936 
1810	 0.380626691149831 
1811	 0.38069117297285 
1812	 0.380731781828414 
1813	 0.380779316471883 
1814	 0.380787221627889 
1815	 0.380761503676098 
1816	 0.380741842618762 
1817	 0.380738381201234 
1818	 0.38070465048457 
1819	 0.380731809544988 
1820	 0.380815316159387 
1821	 0.380868077053934 
1822	 0.380902002940125 
1823	 0.380946566753141 
1824	 0.380950049984645 
1825	 0.380959531018066 
1826	 0.381001057467355 
1827	 0.38101982858533 
1828	 0.381035155521304 
1829	 0.381055142016948 
1830	 0.381051774647713 
1831	 0.381031098779922 
1832	 0.381017623657715 
1833	 0.380958693935625 
1834	 0.380915529100702 
1835	 0.380889925627649 
1836	 0.380851293670035 
1837	 0.380821076831241 
1838	 0.380821716685936 
1839	 0.380842982947312 
1840	 0.38089343229185 
1841	 0.380906316001717 
1842	 0.380938669834805 
1843	 0.380972547115323 
1844	 0.380923085650343 
1845	 0.380891210134807 
1846	 0.380887922436262 
1847	 0.380869101553012 
1848	 0.380821840206692 
1849	 0.380777528270367 
1850	 0.380748223567848 
1851	 0.38072071949812 
1852	 0.380664201551661 
1853	 0.380664267475753 
1854	 0.38066156356539 
1855	 0.380633798230848 
1856	 0.380624645404896 
1857	 0.380562440273917 
1858	 0.380470187007332 
1859	 0.380354092993916 
1860	 0.380201972640932 
1861	 0.380005062516154 
1862	 0.379778189415111 
1863	 0.379552987420726 
1864	 0.37929423834495 
1865	 0.379011891448571 
1866	 0.378733908457537 
1867	 0.378420813937522 
1868	 0.37810791059787 
1869	 0.377779050660488 
1870	 0.377446040682343 
1871	 0.377099780598453 
1872	 0.376754419788037 
1873	 0.376374692279976 
1874	 0.375987857533802 
1875	 0.375573323271173 
1876	 0.375115270304063 
1877	 0.374614869330257 
1878	 0.374028094671893 
1879	 0.373405757304201 
1880	 0.372734104729008 
1881	 0.371989871124694 
1882	 0.371223025588754 
1883	 0.370452573314258 
1884	 0.369568166154263 
1885	 0.368620005745507 
1886	 0.367607164240423 
1887	 0.366491133878926 
1888	 0.365351222965067 
1889	 0.364132928631135 
1890	 0.362854531555264 
1891	 0.361507233312003 
1892	 0.360054796273413 
1893	 0.35857467343452 
1894	 0.357036480300299 
1895	 0.35547113611133 
1896	 0.353839058638767 
1897	 0.352205310814018 
1898	 0.350517917788334 
1899	 0.348781978630799 
1900	 0.34705565809792 
1901	 0.345335151996989 
1902	 0.343653048114896 
1903	 0.341995293153155 
1904	 0.34036829077011 
1905	 0.338763196957793 
1906	 0.337205794229782 
1907	 0.335675699727491 
1908	 0.334192047695965 
1909	 0.332806222742255 
1910	 0.331473588159004 
1911	 0.330201319707397 
1912	 0.329013740550072 
1913	 0.327881551152114 
1914	 0.326803105006168 
1915	 0.32579181797213 
1916	 0.324854991562601 
1917	 0.32396055388394 
1918	 0.32313365968709 
1919	 0.322357391406181 
1920	 0.321627346822872 
1921	 0.320979909347052 
1922	 0.320412816093624 
1923	 0.319892169237572 
1924	 0.319429130965404 
1925	 0.31905205906439 
1926	 0.318703305119951 
1927	 0.318391799287031 
1928	 0.318131846359797 
1929	 0.317922699665255 
1930	 0.317751605132537 
1931	 0.317626222803688 
1932	 0.317526191565832 
1933	 0.317458720650002 
1934	 0.317427514340811 
1935	 0.31741651161624 
1936	 0.317426570905402 
1937	 0.317467137598499 
1938	 0.317548666729071 
1939	 0.31763130412582 
1940	 0.317710864238098 
1941	 0.317845902398919 
1942	 0.318022382368819 
1943	 0.31822435420569 
1944	 0.318461956393107 
1945	 0.318707107629115 
1946	 0.318963041260839 
1947	 0.319203787107499 
1948	 0.319489626410265 
1949	 0.319827349854686 
1950	 0.320150239408628 
1951	 0.320480784420907 
1952	 0.320832595378606 
1953	 0.321170582719381 
1954	 0.321494378897082 
1955	 0.321857816717014 
1956	 0.322208434695723 
1957	 0.322544627739245 
1958	 0.322865486625835 
1959	 0.323214454134126 
1960	 0.323553521361181 
1961	 0.323908379626988 
1962	 0.324304148293856 
1963	 0.324685942905159 
1964	 0.325059401992072 
1965	 0.325428685399283 
1966	 0.325830797446589 
1967	 0.326210403170608 
1968	 0.326595008408634 
1969	 0.326976145333875 
1970	 0.327372088167014 
1971	 0.32777342130829 
1972	 0.328178232913648 
1973	 0.328597069675451 
1974	 0.329011289520096 
1975	 0.329428620794914 
1976	 0.329828812717249 
1977	 0.33025553912023 
1978	 0.330678215306161 
1979	 0.331105683564677 
1980	 0.331560568602416 
1981	 0.332006394325255 
1982	 0.33245623051608 
1983	 0.332911023846049 
1984	 0.333363643678774 
1985	 0.333825685823613 
1986	 0.334306275461911 
1987	 0.334768074850462 
1988	 0.33522475948231 
1989	 0.335692468337276 
1990	 0.336141055788262 
1991	 0.336579338502077 
1992	 0.337023233697572 
1993	 0.337473170095884 
1994	 0.337913685270225 
1995	 0.338342709487567 
1996	 0.338779826837839 
1997	 0.339213704872825 
1998	 0.339654380808209 
1999	 0.340115740263287 
2000	 0.340555048729448 
2001	 0.340998485566758 
2002	 0.341418806927507 
2003	 0.341813708035981 
2004	 0.342197979839355 
2005	 0.342582624836666 
2006	 0.342946298196004 
2007	 0.343333506523403 
2008	 0.343720058007548 
2009	 0.344122959621712 
2010	 0.344553255180157 
2011	 0.344967542459715 
2012	 0.345386616916879 
2013	 0.345799150649608 
2014	 0.34620966738157 
2015	 0.346602407136153 
2016	 0.346986921663005 
2017	 0.347410209083624 
2018	 0.347824817863313 
2019	 0.348243447595637 
2020	 0.348660727943309 
2021	 0.349094947452573 
2022	 0.349504142347608 
2023	 0.349916141748771 
2024	 0.350302832170129 
2025	 0.350658618889385 
2026	 0.351019596559437 
2027	 0.351365467161355 
2028	 0.351702114622944 
2029	 0.352060924465708 
2030	 0.352427373013386 
2031	 0.352802885022164 
2032	 0.353196862756987 
2033	 0.35357632519829 
2034	 0.353964379085335 
2035	 0.354336779686362 
2036	 0.35468883127535 
2037	 0.355056741678886 
2038	 0.355446466668141 
2039	 0.355798317438334 
2040	 0.356146352623955 
2041	 0.356477080388734 
2042	 0.356761404908623 
2043	 0.357036284521612 
2044	 0.357325901657203 
2045	 0.357610715512716 
2046	 0.357904910611451 
2047	 0.358208008338718 
2048	 0.358508636581134 
2049	 0.3588158587296 
2050	 0.359113366748863 
2051	 0.359412724293227 
2052	 0.359703028226043 
2053	 0.359969672988041 
2054	 0.360257929609025 
2055	 0.360565531630722 
2056	 0.360856246607268 
2057	 0.361136055751593 
2058	 0.361420934296161 
2059	 0.361690662890598 
2060	 0.361926811217008 
2061	 0.362191448620631 
2062	 0.362469823682741 
2063	 0.362741659651094 
2064	 0.363024779649846 
2065	 0.363290895445382 
2066	 0.363558145102308 
2067	 0.363807811685388 
2068	 0.364042743137784 
2069	 0.364257543033312 
2070	 0.364495590104879 
2071	 0.364733241593479 
2072	 0.364967585777146 
2073	 0.365227901113142 
2074	 0.365438682337577 
2075	 0.365605599470676 
2076	 0.365804359254975 
2077	 0.365978784729593 
2078	 0.366190675778053 
2079	 0.366442294277077 
2080	 0.366679237968317 
2081	 0.366933264480749 
2082	 0.367169519204377 
2083	 0.367390781181385 
2084	 0.367610108032301 
2085	 0.367856035789286 
2086	 0.368109636021334 
2087	 0.368358229528938 
2088	 0.368635051985442 
2089	 0.368880691912734 
2090	 0.369107157652402 
2091	 0.369331723479186 
2092	 0.369546985809916 
2093	 0.369764350394155 
2094	 0.36997197798645 
2095	 0.370179382041421 
2096	 0.370390437004763 
2097	 0.370596824354335 
2098	 0.370791065134693 
2099	 0.370991297444257 
2100	 0.371201414413727 
2101	 0.371417439563284 
2102	 0.371631424119124 
2103	 0.371838144553622 
2104	 0.372082917891769 
2105	 0.372336051078207 
2106	 0.372606957222521 
2107	 0.37292604494798 
2108	 0.373220571491187 
2109	 0.373529785845552 
2110	 0.37381048399352 
2111	 0.374069084836734 
2112	 0.374332013394633 
2113	 0.374594875613511 
2114	 0.37482250052411 
2115	 0.375063738550556 
2116	 0.375308567768755 
2117	 0.375553839395838 
2118	 0.375786895606279 
2119	 0.376035539417137 
2120	 0.376296887164158 
2121	 0.376557549910117 
2122	 0.376812037985614 
2123	 0.377084656289939 
2124	 0.377387381824651 
2125	 0.377661114843623 
2126	 0.37795655465801 
2127	 0.378206493426546 
2128	 0.378419414589603 
2129	 0.378618373394951 
2130	 0.378777191797827 
2131	 0.378941267507599 
2132	 0.379097929350666 
2133	 0.379261265346933 
2134	 0.379369283098049 
2135	 0.379454617971903 
2136	 0.379522627393884 
2137	 0.379534352623993 
2138	 0.379569758101686 
2139	 0.379621721873126 
2140	 0.379637826293992 
2141	 0.379635594323379 
2142	 0.379621552216135 
2143	 0.379576028855581 
2144	 0.379536867437548 
2145	 0.379508924772112 
2146	 0.379450332313897 
2147	 0.379371761315368 
2148	 0.379283739945945 
2149	 0.379191755927244 
2150	 0.379085169211497 
2151	 0.378956401823066 
2152	 0.378824169281083 
2153	 0.378671636152678 
2154	 0.378470887205401 
2155	 0.378301475662032 
2156	 0.378135186984129 
2157	 0.377976289498576 
2158	 0.377843192099457 
2159	 0.377676445687545 
2160	 0.377510217732356 
2161	 0.377320715131253 
2162	 0.377082923623386 
2163	 0.376869018969549 
2164	 0.376673138266523 
2165	 0.376442703357651 
2166	 0.37622575204381 
2167	 0.376014297516753 
2168	 0.375804002147372 
2169	 0.375594371562507 
2170	 0.375370045060127 
2171	 0.375145738267979 
2172	 0.374917381071246 
2173	 0.37467112223657 
2174	 0.374430727903008 
2175	 0.374189856047912 
2176	 0.373958946481582 
2177	 0.373717984817838 
2178	 0.373497118853314 
2179	 0.373305468004794 
2180	 0.373100560060154 
2181	 0.372876475326207 
2182	 0.372686767574327 
2183	 0.372512784073878 
2184	 0.372354848493769 
2185	 0.37217694369778 
2186	 0.372017736270699 
2187	 0.371839624576642 
2188	 0.371628096194448 
2189	 0.371443863351594 
2190	 0.371274156638176 
2191	 0.371106392324623 
2192	 0.370934228120316 
2193	 0.370778118604247 
2194	 0.370633273185102 
2195	 0.370500348524475 
2196	 0.370394666480905 
2197	 0.370269665411086 
2198	 0.370138729203112 
2199	 0.370018851307871 
2200	 0.369874486553246 
2201	 0.369762653128954 
2202	 0.369700240207994 
2203	 0.369614946051597 
2204	 0.369521934010871 
2205	 0.369434714237087 
2206	 0.369345500947329 
2207	 0.36922744785364 
2208	 0.369149607169109 
2209	 0.369084820820515 
2210	 0.369044796050528 
2211	 0.36904851279403 
2212	 0.369015695888413 
2213	 0.368997867636354 
2214	 0.368957085435473 
2215	 0.368873796392386 
2216	 0.368815324110357 
2217	 0.368773671055899 
2218	 0.36871202612009 
2219	 0.368620943958781 
2220	 0.368570564724675 
2221	 0.368500566725783 
2222	 0.368493857897718 
2223	 0.36853994441111 
2224	 0.36857050769978 
2225	 0.368575285174592 
2226	 0.368584485962634 
2227	 0.368559411911964 
2228	 0.36849301584702 
2229	 0.368446268024195 
2230	 0.368395906658271 
2231	 0.368340340619345 
2232	 0.368263840455 
2233	 0.368227002538262 
2234	 0.368198018663352 
2235	 0.368181873084098 
2236	 0.368228145059782 
2237	 0.368210724479972 
2238	 0.368166820491857 
2239	 0.368116324269497 
2240	 0.368005698621557 
2241	 0.367944463578057 
2242	 0.367898835151264 
2243	 0.367868059049716 
2244	 0.367851412119048 
2245	 0.367878996390078 
2246	 0.367885555054356 
2247	 0.367875778615196 
2248	 0.367875725395822 
2249	 0.367876639051055 
2250	 0.367862429480864 
2251	 0.367845538287744 
2252	 0.367830916207499 
2253	 0.367804833537815 
2254	 0.367778116291085 
2255	 0.367760196826078 
2256	 0.367731632053341 
2257	 0.367661115997924 
2258	 0.367655824011063 
2259	 0.367697419270254 
2260	 0.367709380489283 
2261	 0.367752637721738 
2262	 0.367768159608432 
2263	 0.367738857439652 
2264	 0.367734359527849 
2265	 0.367738099390604 
2266	 0.367751670330853 
2267	 0.367786545902043 
2268	 0.367801811004113 
2269	 0.367820107032269 
2270	 0.367811829204812 
2271	 0.367832907784905 
2272	 0.367856981381596 
2273	 0.367863478760544 
2274	 0.367883326666615 
2275	 0.367877916741943 
2276	 0.367836949824116 
2277	 0.367811692994756 
2278	 0.367797369046518 
2279	 0.36775779072062 
2280	 0.367695500369671 
2281	 0.367649606852965 
2282	 0.367580649570678 
2283	 0.367555232314979 
2284	 0.36756555094239 
2285	 0.367563905076882 
2286	 0.367583935886113 
2287	 0.36758763165586 
2288	 0.367586391101594 
2289	 0.367570050123464 
2290	 0.367546641421594 
2291	 0.367520394276572 
2292	 0.367467249089373 
2293	 0.367437133699254 
2294	 0.367411224984342 
2295	 0.367395024779198 
2296	 0.36738123098269 
2297	 0.367401553911892 
2298	 0.36743094949148 
2299	 0.36743784429565 
2300	 0.367447974895312 
2301	 0.367417008200616 
2302	 0.367356153461658 
2303	 0.367296528537661 
2304	 0.36723770150947 
2305	 0.36719895755379 
2306	 0.367153241757738 
2307	 0.367108354587407 
2308	 0.367063628778277 
2309	 0.367049740613646 
2310	 0.366962960752575 
2311	 0.366845792232579 
2312	 0.366735171883445 
2313	 0.366567679771727 
2314	 0.366415280302637 
2315	 0.366268141074777 
2316	 0.366135521862623 
2317	 0.365975831216682 
2318	 0.365870506075644 
2319	 0.365811573127187 
2320	 0.365755881147442 
2321	 0.365727154494304 
2322	 0.365709597638844 
2323	 0.365726232195768 
2324	 0.365714513914657 
2325	 0.365740491789848 
2326	 0.365685401630046 
2327	 0.365564639659646 
2328	 0.365444644552718 
2329	 0.365328636201823 
2330	 0.365167984408112 
2331	 0.365087550969865 
2332	 0.365053027063588 
2333	 0.364947805173289 
2334	 0.364898697895008 
2335	 0.364856352265016 
2336	 0.364777499702842 
2337	 0.364741789240191 
2338	 0.36471919306444 
2339	 0.364655846300451 
2340	 0.364546242245062 
2341	 0.364415123834145 
2342	 0.364258409002877 
2343	 0.364082228958681 
2344	 0.36388261980346 
2345	 0.363663710467763 
2346	 0.363410865773021 
2347	 0.363144805500134 
2348	 0.362839553462435 
2349	 0.362608929430637 
2350	 0.362401161513667 
2351	 0.36219499214435 
2352	 0.362043656486066 
2353	 0.361813059833892 
2354	 0.361529821502142 
2355	 0.361272037606757 
2356	 0.361015111946262 
2357	 0.360733776163797 
2358	 0.360419463468096 
2359	 0.360154459046223 
2360	 0.359893864962311 
2361	 0.359648532843162 
2362	 0.359475758896787 
2363	 0.359236896246625 
2364	 0.358925664783537 
2365	 0.358665409391697 
2366	 0.35846866231341 
2367	 0.358161320823826 
2368	 0.357780421921165 
2369	 0.357469901656603 
2370	 0.357087335591536 
2371	 0.356791152400632 
2372	 0.35659671042463 
2373	 0.356367498108993 
2374	 0.356193844088064 
2375	 0.355925336470731 
2376	 0.355714005587287 
2377	 0.355527824540187 
2378	 0.355185125706484 
2379	 0.354842419909728 
2380	 0.354406212812766 
2381	 0.353985023183372 
2382	 0.353638080523934 
2383	 0.353336631895051 
2384	 0.353115610265195 
2385	 0.352858980988568 
2386	 0.352557047307571 
2387	 0.352198942032595 
2388	 0.351788771165429 
2389	 0.351356862805627 
2390	 0.350977306411922 
2391	 0.35070840181538 
2392	 0.350467687506067 
2393	 0.35019945361582 
2394	 0.349887444537981 
2395	 0.349562557291676 
2396	 0.349249812981801 
2397	 0.348929482470675 
2398	 0.348558612191951 
2399	 0.348084567705885 
2400	 0.347550501248298 
2401	 0.347060942977459 
2402	 0.346723010025957 
2403	 0.346462345150799 
2404	 0.346212674067214 
2405	 0.345969349841753 
2406	 0.345680532877724 
2407	 0.345383277701344 
2408	 0.345084173251721 
2409	 0.344772700654903 
2410	 0.344395348211196 
2411	 0.344045613953254 
2412	 0.343723099594475 
2413	 0.343347821184716 
2414	 0.34303413903863 
2415	 0.342710045200079 
2416	 0.342339810868346 
2417	 0.341904276126364 
2418	 0.341558461209862 
2419	 0.341218729120464 
2420	 0.34086310106559 
2421	 0.34055373653265 
2422	 0.340225889089695 
2423	 0.339861089672538 
2424	 0.339526331414571 
2425	 0.339251073235941 
2426	 0.338922127786705 
2427	 0.338583922659783 
2428	 0.338229236289936 
2429	 0.337764687057948 
2430	 0.337430395135987 
2431	 0.337165089743878 
2432	 0.336885213538799 
2433	 0.336722384043127 
2434	 0.336482571627008 
2435	 0.33619040189834 
2436	 0.335777482278629 
2437	 0.335350319226618 
2438	 0.334878675393642 
2439	 0.334200766740926 
2440	 0.33376943565538 
2441	 0.333399233492152 
2442	 0.332981959454634 
2443	 0.332703215260528 
2444	 0.332399834247581 
2445	 0.332059282973238 
2446	 0.331794051379823 
2447	 0.331608104430301 
2448	 0.331203547369889 
2449	 0.330729560042391 
2450	 0.330287119168877 
2451	 0.329699620706471 
2452	 0.329378210498205 
2453	 0.329216646030361 
2454	 0.328863491763653 
2455	 0.328562646464785 
2456	 0.328183320804528 
2457	 0.32763945044086 
2458	 0.327352041008322 
2459	 0.327178019593982 
2460	 0.326936087949764 
2461	 0.326767124276975 
2462	 0.326456090169557 
2463	 0.326088136529906 
2464	 0.325686966186628 
2465	 0.325270534566481 
2466	 0.32484184971828 
2467	 0.324271321061711 
2468	 0.323850873020734 
2469	 0.323474313575916 
2470	 0.323151638764906 
2471	 0.322900686895731 
2472	 0.322672590766339 
2473	 0.322415513894046 
2474	 0.322135450106512 
2475	 0.32194471592113 
2476	 0.321792501608511 
2477	 0.321498376771027 
2478	 0.321130646673218 
2479	 0.32077020025766 
2480	 0.320389623522745 
2481	 0.319847718615105 
2482	 0.319417199938238 
2483	 0.319111659526083 
2484	 0.318832819115295 
2485	 0.318659894931965 
2486	 0.318356412660365 
2487	 0.318168124136506 
2488	 0.317901211120738 
2489	 0.317593631772454 
2490	 0.317498291384943 
2491	 0.317164921140221 
2492	 0.316718371760817 
2493	 0.31637873246445 
2494	 0.315999866466154 
2495	 0.315678590470492 
2496	 0.315627173585106 
2497	 0.315435229428046 
2498	 0.315206362283414 
2499	 0.315263186909178 
2500	 0.314978930523128 
