Wavelength	MM100009.asd
350	 2.64396133403659E-02 
351	 2.82315924594949E-02 
352	 2.46316676202823E-02 
353	 1.60544461708216E-02 
354	 2.36406742587322E-02 
355	 2.56813292178816E-02 
356	 2.54700639668244E-02 
357	 2.91750361673911E-02 
358	 2.82043887358681E-02 
359	 2.98261237027772E-02 
360	 0.032618827679684 
361	 3.00339847171612E-02 
362	 2.61142129999908E-02 
363	 2.59049723594055E-02 
364	 2.89295685215916E-02 
365	 2.59339255038457E-02 
366	 2.78415678891718E-02 
367	 3.08290106660374E-02 
368	 2.94576427358969E-02 
369	 2.84010706796886E-02 
370	 2.88062083653602E-02 
371	 2.98815118221842E-02 
372	 2.98654624191588E-02 
373	 0.031753486672351 
374	 3.33240256388941E-02 
375	 3.30767262103385E-02 
376	 3.17988931877989E-02 
377	 3.07810813544323E-02 
378	 0.031839827190133 
379	 3.51971367824068E-02 
380	 3.46732336828175E-02 
381	 3.32878208715867E-02 
382	 3.34952378891365E-02 
383	 3.64233434193762E-02 
384	 3.55043896762181E-02 
385	 3.38008807734384E-02 
386	 3.42048084515867E-02 
387	 0.036739953680446 
388	 3.83391412728761E-02 
389	 3.85620846487824E-02 
390	 3.81354172698338E-02 
391	 3.81543467860299E-02 
392	 0.038727993792054 
393	 3.94359932678564E-02 
394	 3.95658851606435E-02 
395	 4.04195827826382E-02 
396	 4.11350443182447E-02 
397	 4.12333689367037E-02 
398	 0.041835060506457 
399	 4.23260634143046E-02 
400	 4.30713523131782E-02 
401	 4.44529531999373E-02 
402	 4.50381839627081E-02 
403	 4.54938684205919E-02 
404	 4.57199581074233E-02 
405	 4.48041803205429E-02 
406	 0.045612433478776 
407	 4.72243012589766E-02 
408	 0.048062375773849 
409	 4.68072384944094E-02 
410	 4.53962226887979E-02 
411	 4.54439760667973E-02 
412	 4.77133718579311E-02 
413	 4.88834659266521E-02 
414	 4.90351621504861E-02 
415	 4.88540432563554E-02 
416	 4.93128513365835E-02 
417	 4.91207761089025E-02 
418	 4.90562665918006E-02 
419	 4.97367167059566E-02 
420	 4.95111505593749E-02 
421	 4.93859606902524E-02 
422	 0.049652715962426 
423	 5.00471403017897E-02 
424	 0.049866656563894 
425	 4.97079785020419E-02 
426	 0.049851180153869 
427	 4.97237470481403E-02 
428	 0.049278052228545 
429	 4.90108556113802E-02 
430	 4.93233466947536E-02 
431	 4.92083778094205E-02 
432	 4.90581004840032E-02 
433	 4.89262111391534E-02 
434	 4.85058484759918E-02 
435	 4.86747281161332E-02 
436	 4.89200522537327E-02 
437	 4.87141466977583E-02 
438	 4.80865030608829E-02 
439	 4.83108979247333E-02 
440	 0.048952989383363 
441	 4.88718046560363E-02 
442	 4.89176323876103E-02 
443	 4.91787888527102E-02 
444	 4.94613702877142E-02 
445	 4.92546855954436E-02 
446	 4.92565894606162E-02 
447	 4.94969395249798E-02 
448	 0.049805736995877 
449	 0.050099121358737 
450	 5.03252693200286E-02 
451	 5.04127427380012E-02 
452	 5.03058666077778E-02 
453	 0.0505890499401 
454	 5.08264918819891E-02 
455	 5.07634966762889E-02 
456	 5.10474231843145E-02 
457	 5.13104289113046E-02 
458	 5.14453898803609E-02 
459	 5.14673689964723E-02 
460	 5.13916940044501E-02 
461	 5.14156398104061E-02 
462	 5.15766633710317E-02 
463	 5.16751421858998E-02 
464	 5.17816308209568E-02 
465	 0.051913747911714 
466	 5.20498535932761E-02 
467	 5.20583231323286E-02 
468	 5.20666719465903E-02 
469	 5.20939111131024E-02 
470	 0.052065262911 
471	 0.051913469977306 
472	 5.19458603761415E-02 
473	 5.22445615305007E-02 
474	 5.22403379537503E-02 
475	 5.20945808949376E-02 
476	 5.19933287001921E-02 
477	 5.20925925578565E-02 
478	 5.21414174638666E-02 
479	 5.21341550705431E-02 
480	 5.21432726987794E-02 
481	 0.052317739044237 
482	 5.24380373798891E-02 
483	 5.25000121903885E-02 
484	 5.25522160917966E-02 
485	 5.26032091301629E-02 
486	 5.25129423226276E-02 
487	 5.23810087066765E-02 
488	 5.24827732869943E-02 
489	 5.25466169469862E-02 
490	 5.25319812187605E-02 
491	 5.24885165908301E-02 
492	 5.25982800552067E-02 
493	 5.25752069172988E-02 
494	 5.24966362451383E-02 
495	 5.25751578633783E-02 
496	 5.26171017199982E-02 
497	 5.26843562359102E-02 
498	 5.27833224233388E-02 
499	 0.052805106770261 
500	 0.052785132903909 
501	 5.27308017623502E-02 
502	 5.26677650430987E-02 
503	 5.27220933888015E-02 
504	 5.27838820992004E-02 
505	 5.28223792133866E-02 
506	 5.28819943576103E-02 
507	 5.28181690428163E-02 
508	 0.052864024740538 
509	 5.31108426928248E-02 
510	 5.30850207102995E-02 
511	 5.30219513637366E-02 
512	 0.053018556262937 
513	 0.053082884094266 
514	 5.30915674933745E-02 
515	 5.31232971310423E-02 
516	 5.31947877088688E-02 
517	 5.31776012084817E-02 
518	 5.31382218078156E-02 
519	 5.31202245683576E-02 
520	 5.31538239677146E-02 
521	 5.32377411070325E-02 
522	 5.33079288520974E-02 
523	 0.05331964129316 
524	 5.32553708056256E-02 
525	 5.33474421907651E-02 
526	 0.053484985500095 
527	 5.35289543343034E-02 
528	 5.35073707740716E-02 
529	 5.35281095426003E-02 
530	 5.35800823918631E-02 
531	 5.35854824064364E-02 
532	 5.36884298624998E-02 
533	 5.38351583228372E-02 
534	 5.39439074119478E-02 
535	 5.39064558328252E-02 
536	 5.40317082642539E-02 
537	 5.42358734896398E-02 
538	 5.43103247083712E-02 
539	 5.43932577226267E-02 
540	 5.44154127916737E-02 
541	 5.44057071858161E-02 
542	 5.45408121007425E-02 
543	 5.47021054280353E-02 
544	 5.48714463807413E-02 
545	 5.50404321772028E-02 
546	 5.51317811383945E-02 
547	 5.52201221575852E-02 
548	 5.53442919274639E-02 
549	 5.55072422771959E-02 
550	 5.57027644668748E-02 
551	 5.59132635688536E-02 
552	 5.61290043907669E-02 
553	 5.63667592284442E-02 
554	 0.056599858849446 
555	 5.68493160334495E-02 
556	 5.71534994520592E-02 
557	 5.74675168726107E-02 
558	 5.77600948287937E-02 
559	 5.80582369687689E-02 
560	 5.84938373901545E-02 
561	 0.058901195203882 
562	 5.92811678950777E-02 
563	 5.96927953498478E-02 
564	 6.01671150141654E-02 
565	 6.06636538582536E-02 
566	 6.11783591972041E-02 
567	 0.061753173381969 
568	 6.23438225637785E-02 
569	 6.29584238401219E-02 
570	 6.36134368899822E-02 
571	 6.43095101271472E-02 
572	 6.50582857894532E-02 
573	 6.58349055934011E-02 
574	 6.65901254905018E-02 
575	 6.73330691964893E-02 
576	 0.06814228091289 
577	 6.90407553648463E-02 
578	 6.99062119832864E-02 
579	 0.070816092467735 
580	 7.17910009655815E-02 
581	 7.28239585096383E-02 
582	 7.38804582870855E-02 
583	 0.074960509663712 
584	 7.60656151707523E-02 
585	 7.72002479380479E-02 
586	 7.83068854832166E-02 
587	 7.94200250962328E-02 
588	 8.05778277509511E-02 
589	 8.17038109795004E-02 
590	 0.082894202964167 
591	 8.41258049154373E-02 
592	 8.52735573717323E-02 
593	 8.64726647698004E-02 
594	 8.76700690270741E-02 
595	 0.088809756822785 
596	 8.99196707106029E-02 
597	 9.11147463586223E-02 
598	 9.23495445494017E-02 
599	 0.093499939735856 
600	 9.45760625462345E-02 
601	 9.56470477920896E-02 
602	 9.67244658800664E-02 
603	 9.77085565241816E-02 
604	 9.86306916176307E-02 
605	 9.95628499494754E-02 
606	 0.100565599048668 
607	 0.101550589010466 
608	 0.102441277813901 
609	 0.103260142229343 
610	 0.104138852264946 
611	 0.104940302101521 
612	 0.105691626401961 
613	 0.106432568972658 
614	 0.107121448704797 
615	 0.107738299593523 
616	 0.108310078874231 
617	 0.108891036562263 
618	 0.109472063043969 
619	 0.109957978187843 
620	 0.110356701622692 
621	 0.110936499335729 
622	 0.111430763003478 
623	 0.111829621656567 
624	 0.112224131410367 
625	 0.112635732329625 
626	 0.11301235171122 
627	 0.113352839332616 
628	 0.113731525879317 
629	 0.114105955170761 
630	 0.114428653985371 
631	 0.114695508860294 
632	 0.115071651153514 
633	 0.115448029433137 
634	 0.115797816618712 
635	 0.11616259838641 
636	 0.11646413567047 
637	 0.11676815593491 
638	 0.117110796534564 
639	 0.117387919483341 
640	 0.117699400514184 
641	 0.11805410336174 
642	 0.118414828492593 
643	 0.118749953658683 
644	 0.119088758300415 
645	 0.119435111511064 
646	 0.119744716748158 
647	 0.120099647645782 
648	 0.120467568184302 
649	 0.120805929807508 
650	 0.121181761608524 
651	 0.12155870022891 
652	 0.121934402410251 
653	 0.122336633396577 
654	 0.122740916837547 
655	 0.123135745512665 
656	 0.123523138624148 
657	 0.123926456050261 
658	 0.124367013188111 
659	 0.124826137307866 
660	 0.125268424445017 
661	 0.125713338958829 
662	 0.126168854480008 
663	 0.126637512862517 
664	 0.127114739870561 
665	 0.127603407092756 
666	 0.128115503297744 
667	 0.128654081752525 
668	 0.129169168674466 
669	 0.129712112715292 
670	 0.130284922894555 
671	 0.130845157390984 
672	 0.131404926685283 
673	 0.131976721082224 
674	 0.132570745808092 
675	 0.133197744945754 
676	 0.133793938781498 
677	 0.134379456187263 
678	 0.135007890689425 
679	 0.135671807797619 
680	 0.136341675474259 
681	 0.137014921038538 
682	 0.137729119154123 
683	 0.138406104489996 
684	 0.139050130327161 
685	 0.139712270183793 
686	 0.140531636084981 
687	 0.141306581993799 
688	 0.142017088664228 
689	 0.142773327600527 
690	 0.143537202116753 
691	 0.14427690149374 
692	 0.145002439425011 
693	 0.145812165758432 
694	 0.146602616002402 
695	 0.147391850014005 
696	 0.148221711923449 
697	 0.148997400913082 
698	 0.149808005911097 
699	 0.150670801621554 
700	 0.151516688476047 
701	 0.152356926824022 
702	 0.153182519783163 
703	 0.153997426501419 
704	 0.154854760799245 
705	 0.155669875087558 
706	 0.156470034207598 
707	 0.157326052455079 
708	 0.158141274065344 
709	 0.158970330329329 
710	 0.159838340469629 
711	 0.160708804522094 
712	 0.161517852954232 
713	 0.162293044391205 
714	 0.16308273345982 
715	 0.163896781797197 
716	 0.164688302837619 
717	 0.165457030070152 
718	 0.166232809543304 
719	 0.166972148209837 
720	 0.167678554766688 
721	 0.168365483307927 
722	 0.169051960967213 
723	 0.169709953008334 
724	 0.170389040225208 
725	 0.171116213907141 
726	 0.171673350423461 
727	 0.172203521901856 
728	 0.172762152696032 
729	 0.173305190619172 
730	 0.173855750966696 
731	 0.174328063242175 
732	 0.174701646100493 
733	 0.175160802555731 
734	 0.175545641684624 
735	 0.175877468923598 
736	 0.176236720262367 
737	 0.176584493953068 
738	 0.176851721511031 
739	 0.177044532791418 
740	 0.177250434913104 
741	 0.177416000329954 
742	 0.177583726563183 
743	 0.177761289051011 
744	 0.17780863123468 
745	 0.177823810675813 
746	 0.177845797707755 
747	 0.177871710627752 
748	 0.177821617174322 
749	 0.177747576614935 
750	 0.177668672155592 
751	 0.17754996298827 
752	 0.177391903282719 
753	 0.177209473929316 
754	 0.177014213221446 
755	 0.17679617498981 
756	 0.176551404027262 
757	 0.176281020901325 
758	 0.175989528538831 
759	 0.175679594836692 
760	 0.1753435648728 
761	 0.174979583275847 
762	 0.174593916080391 
763	 0.174240425240857 
764	 0.173860679721966 
765	 0.173412094297478 
766	 0.17297573955584 
767	 0.172541018302254 
768	 0.172091526604715 
769	 0.171616906942696 
770	 0.171195887843936 
771	 0.170690754753865 
772	 0.170108820673536 
773	 0.169645719697672 
774	 0.16917505236207 
775	 0.168662112500388 
776	 0.168116745636065 
777	 0.167615677707772 
778	 0.167105681733878 
779	 0.166560080481677 
780	 0.165979186009023 
781	 0.165443427914093 
782	 0.164933275563038 
783	 0.164409178895588 
784	 0.163827768890376 
785	 0.163305872046319 
786	 0.162792871332031 
787	 0.162240698697446 
788	 0.161682731772044 
789	 0.161148094228881 
790	 0.160637994276599 
791	 0.16013433032996 
792	 0.159598942838563 
793	 0.159051158309889 
794	 0.158521338586154 
795	 0.158040466436345 
796	 0.157546695446474 
797	 0.157055180509969 
798	 0.156556447953822 
799	 0.155967824725443 
800	 0.15545063784307 
801	 0.15502030960887 
802	 0.154611545876459 
803	 0.154044806444635 
804	 0.153562301149627 
805	 0.153175824300738 
806	 0.15274824368958 
807	 0.15227608346555 
808	 0.151793673483333 
809	 0.151335365087697 
810	 0.15092257252175 
811	 0.150534206051143 
812	 0.150137007362848 
813	 0.14972265249919 
814	 0.149361410414492 
815	 0.148959568515024 
816	 0.148540197002341 
817	 0.148170561679696 
818	 0.147870405692083 
819	 0.147523604070085 
820	 0.147131393530725 
821	 0.146796750265563 
822	 0.146488297278731 
823	 0.146181818688995 
824	 0.145862402294948 
825	 0.145531233968578 
826	 0.145204624739961 
827	 0.144939635986591 
828	 0.144745329980603 
829	 0.144453947992599 
830	 0.144135910815881 
831	 0.14384304918889 
832	 0.143604946063087 
833	 0.143374502581223 
834	 0.143167840904638 
835	 0.142978043185782 
836	 0.142774047683219 
837	 0.14255063785342 
838	 0.142329111200719 
839	 0.142133021588805 
840	 0.141982200363791 
841	 0.141793351309113 
842	 0.141604963050875 
843	 0.1414633174449 
844	 0.141323278667621 
845	 0.141207105445518 
846	 0.141095501758556 
847	 0.140961084805827 
848	 0.140841524359169 
849	 0.140745408964329 
850	 0.140656638119463 
851	 0.14054605105066 
852	 0.140459011179302 
853	 0.140417962418761 
854	 0.14039714523719 
855	 0.140311600015591 
856	 0.140255653767087 
857	 0.140235420448214 
858	 0.140226967606368 
859	 0.140185277385037 
860	 0.140158864616062 
861	 0.14015965471845 
862	 0.140181359265578 
863	 0.140208617730485 
864	 0.14020516134116 
865	 0.140202965252331 
866	 0.140261555130745 
867	 0.140311971313974 
868	 0.140368777396372 
869	 0.140436745623296 
870	 0.140503246562989 
871	 0.140554186355009 
872	 0.14065113489695 
873	 0.140802628711262 
874	 0.140915558023196 
875	 0.141049465644785 
876	 0.141165826787225 
877	 0.141248702121954 
878	 0.141400062171378 
879	 0.141567799031676 
880	 0.141727589434733 
881	 0.141880050684666 
882	 0.142091674092927 
883	 0.142283848456886 
884	 0.142429019839218 
885	 0.142560879077993 
886	 0.142871485401866 
887	 0.143109496822716 
888	 0.143247625586116 
889	 0.143468909598532 
890	 0.143749221245524 
891	 0.144004156861279 
892	 0.144241760700984 
893	 0.144583404039291 
894	 0.144829391243554 
895	 0.14508565394332 
896	 0.14541898534477 
897	 0.145718118457162 
898	 0.146002152396693 
899	 0.146311729717813 
900	 0.146657998927418 
901	 0.146946745560584 
902	 0.147325875421965 
903	 0.147749466842123 
904	 0.148130452222183 
905	 0.148503869377274 
906	 0.148895534311744 
907	 0.149312686726552 
908	 0.149738320348799 
909	 0.150092338448026 
910	 0.150488898147031 
911	 0.150945675368297 
912	 0.15140592505674 
913	 0.151843770981714 
914	 0.15229293688702 
915	 0.152783032059136 
916	 0.15332134777205 
917	 0.153793278724077 
918	 0.154289497370612 
919	 0.154838708414321 
920	 0.155368178120661 
921	 0.155916066714637 
922	 0.156467478534298 
923	 0.157002599455351 
924	 0.15751090043948 
925	 0.158066957377219 
926	 0.158712374563477 
927	 0.159391771842564 
928	 0.159900091614952 
929	 0.160534464954918 
930	 0.16122534760227 
931	 0.161863760065837 
932	 0.16248479131375 
933	 0.163131819602126 
934	 0.16377535209855 
935	 0.164400059079291 
936	 0.16509187255184 
937	 0.165838944026963 
938	 0.16656306833945 
939	 0.167222761227839 
940	 0.167980933662922 
941	 0.168729744816543 
942	 0.169509914535687 
943	 0.170369195937048 
944	 0.171146478758557 
945	 0.171902977062826 
946	 0.172670015962368 
947	 0.173460920811282 
948	 0.174297962971416 
949	 0.175044714099782 
950	 0.175795077416982 
951	 0.176707921366068 
952	 0.17762815487407 
953	 0.178492417578627 
954	 0.179315562265323 
955	 0.180162981160451 
956	 0.18110860197746 
957	 0.181997851244414 
958	 0.182793023652214 
959	 0.183569084582434 
960	 0.184491109540959 
961	 0.185469133143702 
962	 0.186420939352518 
963	 0.18730641615412 
964	 0.188206611772906 
965	 0.189176001978319 
966	 0.190170659481755 
967	 0.191108683348954 
968	 0.192077654882443 
969	 0.193058250424548 
970	 0.19402214537633 
971	 0.194954991835629 
972	 0.195939704601393 
973	 0.196974399862204 
974	 0.198001474328735 
975	 0.198963224708148 
976	 0.199989222609308 
977	 0.201002748533329 
978	 0.202023319749796 
979	 0.20309538781593 
980	 0.203979255632249 
981	 0.204995495220898 
982	 0.206072157373579 
983	 0.206955255089385 
984	 0.207916780010456 
985	 0.208967457412202 
986	 0.209962211926824 
987	 0.210783062066147 
988	 0.211851389292668 
989	 0.212868759669408 
990	 0.213832492456907 
991	 0.2148653317844 
992	 0.215840440477248 
993	 0.216690174056892 
994	 0.217614579753831 
995	 0.218762268812718 
996	 0.219588863012638 
997	 0.220580995936345 
998	 0.221601615628056 
999	 0.22243119253159 
1000	 0.223517360838385 
1001	 0.227316472531347 
1002	 0.228230409819496 
1003	 0.229144221353009 
1004	 0.230048568854851 
1005	 0.23100572508768 
1006	 0.231899912087419 
1007	 0.23274575546735 
1008	 0.233596844006437 
1009	 0.23442398514643 
1010	 0.235172705065149 
1011	 0.235992447205957 
1012	 0.236795257491079 
1013	 0.237531434334582 
1014	 0.23830744849054 
1015	 0.239047792898478 
1016	 0.239732306558283 
1017	 0.240437394337296 
1018	 0.241139381787269 
1019	 0.241875651082436 
1020	 0.242621939349605 
1021	 0.243302646277039 
1022	 0.244002516228361 
1023	 0.244719805419872 
1024	 0.245373166398512 
1025	 0.246056251211803 
1026	 0.24672716653326 
1027	 0.247261337222077 
1028	 0.247813892061406 
1029	 0.248453550735126 
1030	 0.249010751753806 
1031	 0.249577263779971 
1032	 0.250175729692387 
1033	 0.250789176722495 
1034	 0.251317951259887 
1035	 0.251895061846436 
1036	 0.252577125954196 
1037	 0.253232348112075 
1038	 0.253786269759767 
1039	 0.254342353704932 
1040	 0.254854374647243 
1041	 0.255307726635777 
1042	 0.255830673468216 
1043	 0.256393844318477 
1044	 0.256946413954731 
1045	 0.257517396508679 
1046	 0.258070347325055 
1047	 0.258580915840265 
1048	 0.259111776693721 
1049	 0.259651889522506 
1050	 0.260170131458353 
1051	 0.260698585098679 
1052	 0.2612083248451 
1053	 0.261681660719525 
1054	 0.26216336150767 
1055	 0.262680835937041 
1056	 0.263243674101105 
1057	 0.263741281565492 
1058	 0.264185889247305 
1059	 0.264662859488281 
1060	 0.265146167089403 
1061	 0.265560790203728 
1062	 0.26600935830652 
1063	 0.266513764681368 
1064	 0.266942205493777 
1065	 0.267394696227927 
1066	 0.267873889328174 
1067	 0.268280161420685 
1068	 0.268706167128116 
1069	 0.269135619452055 
1070	 0.269530843726774 
1071	 0.26989843364913 
1072	 0.270277552725345 
1073	 0.270630312521635 
1074	 0.270989691414077 
1075	 0.2713307450564 
1076	 0.271704052842572 
1077	 0.272132727987488 
1078	 0.272521897057446 
1079	 0.272893979827841 
1080	 0.273240557174371 
1081	 0.273488708570315 
1082	 0.273754667144246 
1083	 0.274049699266742 
1084	 0.274352766685436 
1085	 0.274654219178368 
1086	 0.274980070135197 
1087	 0.275282621208256 
1088	 0.27555996976482 
1089	 0.275866522696395 
1090	 0.276183923421073 
1091	 0.276495034572042 
1092	 0.276796698722466 
1093	 0.27711160330311 
1094	 0.277410020622899 
1095	 0.277690684572599 
1096	 0.277992697062752 
1097	 0.278260407346115 
1098	 0.278551311088299 
1099	 0.278866672774474 
1100	 0.27915617328477 
1101	 0.279434155813294 
1102	 0.279724132708069 
1103	 0.28001230747729 
1104	 0.280260987561745 
1105	 0.280595560288991 
1106	 0.280950935221191 
1107	 0.281258253215324 
1108	 0.281577535002846 
1109	 0.281856758524054 
1110	 0.282111996704843 
1111	 0.282395225354466 
1112	 0.28269091924735 
1113	 0.282990047681922 
1114	 0.283298175650165 
1115	 0.283609103959723 
1116	 0.283922211753575 
1117	 0.28424705988517 
1118	 0.284601797384619 
1119	 0.284910457406833 
1120	 0.285220807434041 
1121	 0.285529703293812 
1122	 0.285798534075476 
1123	 0.286099692153958 
1124	 0.286410735340734 
1125	 0.286737395947167 
1126	 0.287057665540123 
1127	 0.287394656159252 
1128	 0.287706357007835 
1129	 0.288017499956174 
1130	 0.288304701980059 
1131	 0.288560753428476 
1132	 0.288839521463175 
1133	 0.289107985566628 
1134	 0.289384659012267 
1135	 0.289689555562435 
1136	 0.289970497436048 
1137	 0.290240578892233 
1138	 0.290484418488174 
1139	 0.290739017115147 
1140	 0.29098790006505 
1141	 0.291232377068984 
1142	 0.291479488188481 
1143	 0.29171970586654 
1144	 0.291948713913902 
1145	 0.292177472772696 
1146	 0.292407762895963 
1147	 0.292629210905952 
1148	 0.292838928945903 
1149	 0.293051311340947 
1150	 0.293266888943445 
1151	 0.293477225391861 
1152	 0.293660725229619 
1153	 0.293853146194665 
1154	 0.29404129942229 
1155	 0.294210075477573 
1156	 0.29439889558177 
1157	 0.294614099897878 
1158	 0.294793395512548 
1159	 0.29495616824737 
1160	 0.295123906633583 
1161	 0.295283738280079 
1162	 0.295438045703204 
1163	 0.295586573690926 
1164	 0.295742281902111 
1165	 0.295888125154656 
1166	 0.296035944873587 
1167	 0.296225261261529 
1168	 0.296413499620293 
1169	 0.296578224107277 
1170	 0.296751419842383 
1171	 0.296895328819885 
1172	 0.297004672191073 
1173	 0.297128467062922 
1174	 0.297239827762397 
1175	 0.297365166906903 
1176	 0.297503817960393 
1177	 0.297626494410225 
1178	 0.297749213714992 
1179	 0.297870780409365 
1180	 0.297977011383564 
1181	 0.298088448549824 
1182	 0.298210806489589 
1183	 0.298321867089387 
1184	 0.298439398095216 
1185	 0.298560855093649 
1186	 0.298670562267263 
1187	 0.298776886639031 
1188	 0.298884969661504 
1189	 0.298986417589003 
1190	 0.299085590781352 
1191	 0.299186571684584 
1192	 0.299287178227498 
1193	 0.299385231852166 
1194	 0.299477008981219 
1195	 0.29956859095045 
1196	 0.299659007952074 
1197	 0.299733961204463 
1198	 0.299819898885241 
1199	 0.299910891456056 
1200	 0.300015497586018 
1201	 0.300098194403252 
1202	 0.300169493899584 
1203	 0.300259769544059 
1204	 0.300348986444813 
1205	 0.30043773242467 
1206	 0.300541406623538 
1207	 0.300637416168806 
1208	 0.300717500008899 
1209	 0.300811171372487 
1210	 0.300924063843544 
1211	 0.301021244674941 
1212	 0.301115399761932 
1213	 0.301204676683068 
1214	 0.301289419921403 
1215	 0.30136605390355 
1216	 0.301436807610115 
1217	 0.301499058014451 
1218	 0.30156919573898 
1219	 0.301627552215911 
1220	 0.301707766617173 
1221	 0.301810985519922 
1222	 0.30189161009557 
1223	 0.30198159736422 
1224	 0.302048049363011 
1225	 0.3020855267103 
1226	 0.302138165763207 
1227	 0.30218818561362 
1228	 0.302236566853415 
1229	 0.302293624942598 
1230	 0.30234064481587 
1231	 0.302378419126667 
1232	 0.302414854623475 
1233	 0.30244801704686 
1234	 0.302470000225899 
1235	 0.302514037173178 
1236	 0.302559275498753 
1237	 0.302618622995631 
1238	 0.30271089727013 
1239	 0.30276583269787 
1240	 0.30280615484272 
1241	 0.302857110102414 
1242	 0.302887789993556 
1243	 0.302938323588602 
1244	 0.303019235789866 
1245	 0.303075454860955 
1246	 0.303123731826583 
1247	 0.303172034744554 
1248	 0.303218444254365 
1249	 0.303250287544054 
1250	 0.303275576972413 
1251	 0.303304493681344 
1252	 0.303326280598857 
1253	 0.303332563048182 
1254	 0.303352871764778 
1255	 0.303372704403527 
1256	 0.303404931355161 
1257	 0.303456538257833 
1258	 0.303483400818129 
1259	 0.303515888502283 
1260	 0.303530115115189 
1261	 0.30350760562677 
1262	 0.303509913283436 
1263	 0.303514396589706 
1264	 0.303525870141193 
1265	 0.303559587245536 
1266	 0.30357565842115 
1267	 0.303579570915037 
1268	 0.303594126042926 
1269	 0.30360466554824 
1270	 0.30359612068345 
1271	 0.303625714048468 
1272	 0.303676213599644 
1273	 0.303721954462607 
1274	 0.303781297914271 
1275	 0.303844538801073 
1276	 0.303904404704378 
1277	 0.303981866220902 
1278	 0.304085794053885 
1279	 0.304173160797504 
1280	 0.304255578782108 
1281	 0.304345134269543 
1282	 0.304431838029719 
1283	 0.304525079677319 
1284	 0.304636503261588 
1285	 0.304738659281136 
1286	 0.304830066462141 
1287	 0.304902833218646 
1288	 0.304950737993528 
1289	 0.304966918948853 
1290	 0.304997670001156 
1291	 0.305011714344887 
1292	 0.305033121158102 
1293	 0.30507884227158 
1294	 0.305079011971676 
1295	 0.305046354414093 
1296	 0.30502786709403 
1297	 0.30499673491356 
1298	 0.304955668540525 
1299	 0.304935679700459 
1300	 0.30487564933929 
1301	 0.304766297010673 
1302	 0.304674508783334 
1303	 0.304573558345153 
1304	 0.304471095836845 
1305	 0.304368341320486 
1306	 0.304279956010143 
1307	 0.304176432683096 
1308	 0.304035911609391 
1309	 0.303910479752417 
1310	 0.303781399397874 
1311	 0.303648517961194 
1312	 0.303510169298391 
1313	 0.303384869609841 
1314	 0.303255340181201 
1315	 0.303131651418831 
1316	 0.303017438883493 
1317	 0.302909285249791 
1318	 0.302809345734813 
1319	 0.302706057421576 
1320	 0.30260666711677 
1321	 0.302509258458052 
1322	 0.302406972825262 
1323	 0.302305525026134 
1324	 0.302233956933503 
1325	 0.30216643947647 
1326	 0.302108858873654 
1327	 0.302056539023131 
1328	 0.301970855984639 
1329	 0.30188454906095 
1330	 0.301807508677919 
1331	 0.301714409582689 
1332	 0.301647690193926 
1333	 0.30160099055873 
1334	 0.301558463407061 
1335	 0.301516893626605 
1336	 0.301496772746693 
1337	 0.301506730084923 
1338	 0.301494161926788 
1339	 0.301488310856746 
1340	 0.301472679662714 
1341	 0.301439606203584 
1342	 0.30141493002027 
1343	 0.301398710431367 
1344	 0.301369886266978 
1345	 0.301334139812205 
1346	 0.301303169415727 
1347	 0.301282696515408 
1348	 0.301277772696611 
1349	 0.301257682008746 
1350	 0.301212312705828 
1351	 0.301171079581253 
1352	 0.301092108435977 
1353	 0.301062313711273 
1354	 0.301071100714107 
1355	 0.301045476131134 
1356	 0.301022865610436 
1357	 0.3009932931248 
1358	 0.300925412995918 
1359	 0.300899392994353 
1360	 0.300905084736582 
1361	 0.300895067678087 
1362	 0.300903286659842 
1363	 0.300893854943081 
1364	 0.300871220810741 
1365	 0.300845755483329 
1366	 0.30081244721095 
1367	 0.300775583399026 
1368	 0.300758958892096 
1369	 0.300705575709218 
1370	 0.3006429637843 
1371	 0.300570027159937 
1372	 0.300429943977502 
1373	 0.300285317615971 
1374	 0.300128951283976 
1375	 0.299955272506172 
1376	 0.299752812997366 
1377	 0.299549724876582 
1378	 0.299292039972809 
1379	 0.298986992237192 
1380	 0.298672458620122 
1381	 0.298327425361968 
1382	 0.297962242667054 
1383	 0.297585035410333 
1384	 0.29717161702368 
1385	 0.296750887172696 
1386	 0.296272003727866 
1387	 0.295752023670228 
1388	 0.295196732812306 
1389	 0.294598213450459 
1390	 0.293960673393617 
1391	 0.293291887369537 
1392	 0.292565078410578 
1393	 0.291768652287038 
1394	 0.290939863882233 
1395	 0.290072136308043 
1396	 0.289198480575688 
1397	 0.288340445528635 
1398	 0.287484334794875 
1399	 0.286615007594487 
1400	 0.285750926810809 
1401	 0.284877718800602 
1402	 0.28397768757152 
1403	 0.283111021717272 
1404	 0.282234220872702 
1405	 0.281404925747037 
1406	 0.280603332075293 
1407	 0.279826225439419 
1408	 0.279079485552536 
1409	 0.278361304302929 
1410	 0.277656301442665 
1411	 0.276994193288432 
1412	 0.276358408746905 
1413	 0.275773081535144 
1414	 0.275239660678885 
1415	 0.274734430728859 
1416	 0.274279302797528 
1417	 0.273867714384062 
1418	 0.273485755215568 
1419	 0.273127176035487 
1420	 0.272778063780393 
1421	 0.27246134716198 
1422	 0.272167423702115 
1423	 0.271877678368202 
1424	 0.271612978946558 
1425	 0.271384084780149 
1426	 0.271145666760816 
1427	 0.270907365135555 
1428	 0.270698365750587 
1429	 0.270506877849915 
1430	 0.2703176090959 
1431	 0.270146767069147 
1432	 0.269981865516977 
1433	 0.269809780018845 
1434	 0.269669655433415 
1435	 0.269549331293815 
1436	 0.269444144659711 
1437	 0.269364956898801 
1438	 0.269287011384073 
1439	 0.269225183416912 
1440	 0.269168690830405 
1441	 0.269091821845152 
1442	 0.269033640475564 
1443	 0.268974090564849 
1444	 0.268906705594035 
1445	 0.268868772116044 
1446	 0.268840451945141 
1447	 0.268814944169425 
1448	 0.268801194002212 
1449	 0.268781652416295 
1450	 0.268760130732541 
1451	 0.268743856912135 
1452	 0.268720118755636 
1453	 0.268723906478071 
1454	 0.268740323481754 
1455	 0.26876097707771 
1456	 0.268812084050991 
1457	 0.268839726623826 
1458	 0.268847773946499 
1459	 0.268881855311037 
1460	 0.268908816470648 
1461	 0.26896249578477 
1462	 0.269040254125162 
1463	 0.269129040516632 
1464	 0.269234812852405 
1465	 0.269349555852293 
1466	 0.269481460861277 
1467	 0.269621985359184 
1468	 0.269760836553829 
1469	 0.269926058173498 
1470	 0.270118788081044 
1471	 0.270305706570292 
1472	 0.270500487141301 
1473	 0.270722472830016 
1474	 0.27094210405921 
1475	 0.271177174191353 
1476	 0.271428031461684 
1477	 0.271676973321137 
1478	 0.271952258293708 
1479	 0.272217540126381 
1480	 0.272465791860041 
1481	 0.272748311430469 
1482	 0.273013544044656 
1483	 0.273252799556789 
1484	 0.273525393824034 
1485	 0.273820408350585 
1486	 0.274099874463285 
1487	 0.274383112976895 
1488	 0.274668213469302 
1489	 0.274952841889042 
1490	 0.275233687568308 
1491	 0.275527199510332 
1492	 0.275801163715088 
1493	 0.276057482698006 
1494	 0.276317985656349 
1495	 0.276561830063063 
1496	 0.276823125000857 
1497	 0.277099702011364 
1498	 0.277365225796082 
1499	 0.277647815171933 
1500	 0.277900336774364 
1501	 0.278118601634275 
1502	 0.278355482177069 
1503	 0.27858653279591 
1504	 0.278820330799142 
1505	 0.279064014307255 
1506	 0.279314415659381 
1507	 0.279547316529076 
1508	 0.279769088097212 
1509	 0.279991481485221 
1510	 0.280198982094105 
1511	 0.280407929695047 
1512	 0.280624763795286 
1513	 0.280850151818928 
1514	 0.281069603662333 
1515	 0.281296801622262 
1516	 0.281538370210334 
1517	 0.281750302045478 
1518	 0.281950416732526 
1519	 0.282148672569943 
1520	 0.2823327235131 
1521	 0.282509865872831 
1522	 0.282679804021116 
1523	 0.282857438813353 
1524	 0.283019386036449 
1525	 0.283200272726719 
1526	 0.28340670260782 
1527	 0.283589545778327 
1528	 0.283765722576919 
1529	 0.283938158181088 
1530	 0.284094305931557 
1531	 0.284265603690791 
1532	 0.284451371748273 
1533	 0.284620931960217 
1534	 0.284793879103032 
1535	 0.28495080764832 
1536	 0.285079494779793 
1537	 0.285223655901134 
1538	 0.285365772548565 
1539	 0.28551339179296 
1540	 0.285682364864882 
1541	 0.285832125630048 
1542	 0.285971065217561 
1543	 0.286109239986704 
1544	 0.286241393916981 
1545	 0.286364324974528 
1546	 0.286475099734805 
1547	 0.28659804408264 
1548	 0.2867185310501 
1549	 0.286821570575351 
1550	 0.286949206597162 
1551	 0.287074537559363 
1552	 0.287183465596 
1553	 0.287305437227926 
1554	 0.287421827313405 
1555	 0.287519356343406 
1556	 0.287619700809896 
1557	 0.287727289393292 
1558	 0.287825669630665 
1559	 0.28792348221014 
1560	 0.288031700313816 
1561	 0.288141895371603 
1562	 0.288257716330244 
1563	 0.288392085897232 
1564	 0.288501554776565 
1565	 0.288598980508652 
1566	 0.288708621721706 
1567	 0.288810886586196 
1568	 0.288915823028987 
1569	 0.289034001439916 
1570	 0.289137028890921 
1571	 0.289237348244399 
1572	 0.289322549122715 
1573	 0.289402068211075 
1574	 0.28946673680853 
1575	 0.289495159709319 
1576	 0.289557452348592 
1577	 0.289643975975078 
1578	 0.289696831609475 
1579	 0.28974129898751 
1580	 0.289794364195593 
1581	 0.289826158815383 
1582	 0.28986949899027 
1583	 0.289936588731783 
1584	 0.289989139187629 
1585	 0.290021916883579 
1586	 0.290067711233049 
1587	 0.290116725235222 
1588	 0.290176329510418 
1589	 0.290250341354246 
1590	 0.290311435436927 
1591	 0.290379639191903 
1592	 0.290438929140755 
1593	 0.290478327363842 
1594	 0.290532175410657 
1595	 0.290594108893242 
1596	 0.290650727686502 
1597	 0.290709275602679 
1598	 0.290766869329965 
1599	 0.290825849265309 
1600	 0.290876380353662 
1601	 0.290921179089754 
1602	 0.290969384344974 
1603	 0.291009952706712 
1604	 0.291053578539307 
1605	 0.291105072391213 
1606	 0.291153015324554 
1607	 0.29119191413202 
1608	 0.291240876486824 
1609	 0.291309543883991 
1610	 0.291359748680643 
1611	 0.291401930804878 
1612	 0.291451986803635 
1613	 0.291470962129125 
1614	 0.291486817713113 
1615	 0.291515032911079 
1616	 0.291533844387594 
1617	 0.291556248102063 
1618	 0.29158053748422 
1619	 0.291593863554017 
1620	 0.291612707056798 
1621	 0.291635009403476 
1622	 0.291659724110361 
1623	 0.291680212484525 
1624	 0.291705719457699 
1625	 0.291721819456643 
1626	 0.291725241710484 
1627	 0.291743994932503 
1628	 0.291769553437765 
1629	 0.291789691487374 
1630	 0.291814066700999 
1631	 0.291837121499709 
1632	 0.291859132976258 
1633	 0.291869826915438 
1634	 0.291873152416453 
1635	 0.291889341501138 
1636	 0.291904993012593 
1637	 0.291914174178309 
1638	 0.291925800390175 
1639	 0.291948219248702 
1640	 0.291964984637728 
1641	 0.291986170078122 
1642	 0.292023235180156 
1643	 0.292060638717727 
1644	 0.292092048755084 
1645	 0.292124584449853 
1646	 0.292172304263006 
1647	 0.292207379562159 
1648	 0.292238771543753 
1649	 0.29225047992645 
1650	 0.292253708771979 
1651	 0.292254099016414 
1652	 0.292227120852054 
1653	 0.292221380511227 
1654	 0.292228499768498 
1655	 0.292230029300512 
1656	 0.292236171301762 
1657	 0.292231764393117 
1658	 0.292220360839085 
1659	 0.292215228597895 
1660	 0.292211524986978 
1661	 0.292195948774041 
1662	 0.292179213108603 
1663	 0.292160567604902 
1664	 0.292122691879866 
1665	 0.29210408040107 
1666	 0.292102268251924 
1667	 0.292087957265658 
1668	 0.292073831570684 
1669	 0.292056898058172 
1670	 0.292037078280991 
1671	 0.292011144366239 
1672	 0.291985797868801 
1673	 0.291950460238986 
1674	 0.291884552478576 
1675	 0.291864055148447 
1676	 0.291863456560563 
1677	 0.291859028564365 
1678	 0.29188883013485 
1679	 0.291891006646554 
1680	 0.291874863768483 
1681	 0.291859702023911 
1682	 0.2918288883778 
1683	 0.291823855201621 
1684	 0.291824825966015 
1685	 0.29183109522672 
1686	 0.291867664047912 
1687	 0.291876514261012 
1688	 0.291878135652893 
1689	 0.291864365291093 
1690	 0.291828279431691 
1691	 0.291805084825601 
1692	 0.291778878534164 
1693	 0.291748738871075 
1694	 0.291719092619765 
1695	 0.291692417916208 
1696	 0.29166363453329 
1697	 0.291625926324237 
1698	 0.291594686274132 
1699	 0.29155246817912 
1700	 0.29148396738018 
1701	 0.291441603476119 
1702	 0.291412460653225 
1703	 0.291377013120704 
1704	 0.291358849669903 
1705	 0.29131449337356 
1706	 0.291243303018087 
1707	 0.291196036337493 
1708	 0.291155153739127 
1709	 0.291103647852285 
1710	 0.291052438346641 
1711	 0.291013101089574 
1712	 0.290966901144323 
1713	 0.290923930762477 
1714	 0.290906960625929 
1715	 0.290868684833434 
1716	 0.290803449042633 
1717	 0.290766743151868 
1718	 0.290753273523199 
1719	 0.290702178391663 
1720	 0.290641993376159 
1721	 0.290587283249118 
1722	 0.290505770613562 
1723	 0.290447641154482 
1724	 0.29041826401607 
1725	 0.290362185631736 
1726	 0.290294657241475 
1727	 0.290226079834445 
1728	 0.290150642261865 
1729	 0.290073822947698 
1730	 0.289999018837621 
1731	 0.289909053302696 
1732	 0.289809905342841 
1733	 0.289708176362643 
1734	 0.289589299203172 
1735	 0.28948327813767 
1736	 0.289396357039409 
1737	 0.289266558492637 
1738	 0.289106849763148 
1739	 0.28898532013417 
1740	 0.288855388841314 
1741	 0.288731082919917 
1742	 0.288642914897573 
1743	 0.28852589099832 
1744	 0.288375562950255 
1745	 0.288254213024431 
1746	 0.288145180098628 
1747	 0.288043702754077 
1748	 0.287951965623567 
1749	 0.287855025262344 
1750	 0.287746805177273 
1751	 0.287636926666127 
1752	 0.287527012373414 
1753	 0.287419350536656 
1754	 0.287309973633204 
1755	 0.287184177873754 
1756	 0.287058190388749 
1757	 0.286952693196401 
1758	 0.28686937426321 
1759	 0.28679532092581 
1760	 0.286694644356284 
1761	 0.286575588141527 
1762	 0.286450948952288 
1763	 0.286303232426177 
1764	 0.286172083548233 
1765	 0.286058020625429 
1766	 0.285935954240341 
1767	 0.285841075803062 
1768	 0.285756159984487 
1769	 0.285663424029795 
1770	 0.285575754506965 
1771	 0.28549395826952 
1772	 0.285402809112661 
1773	 0.285292686528307 
1774	 0.285182083717677 
1775	 0.285041976054978 
1776	 0.284930753309883 
1777	 0.284875091226037 
1778	 0.284824273737424 
1779	 0.284825317990131 
1780	 0.284815059606915 
1781	 0.284749956643992 
1782	 0.284680337282985 
1783	 0.284626221678249 
1784	 0.284565042629723 
1785	 0.28451529476629 
1786	 0.284460615482989 
1787	 0.284365842483794 
1788	 0.28430655668773 
1789	 0.284287167845423 
1790	 0.284266241932294 
1791	 0.28426227783194 
1792	 0.28423947786737 
1793	 0.284213377753655 
1794	 0.284171104250596 
1795	 0.284111311129128 
1796	 0.284072923182755 
1797	 0.284034031070972 
1798	 0.283973159793161 
1799	 0.283903608038023 
1800	 0.283865043452063 
1801	 0.283449205272274 
1802	 0.283529037168705 
1803	 0.283613027415867 
1804	 0.283751589340701 
1805	 0.283871089320711 
1806	 0.283965493110859 
1807	 0.284082331422902 
1808	 0.284175321810536 
1809	 0.284275971701871 
1810	 0.284346785951515 
1811	 0.284404720603794 
1812	 0.284428081556467 
1813	 0.284441566479287 
1814	 0.284449686764811 
1815	 0.284433523373058 
1816	 0.284414101230874 
1817	 0.284389444796861 
1818	 0.284335106397833 
1819	 0.284312384132363 
1820	 0.284302676675418 
1821	 0.284288996008099 
1822	 0.284282419083886 
1823	 0.284288404901882 
1824	 0.284271083504782 
1825	 0.284234878601578 
1826	 0.284211753224313 
1827	 0.284178223452337 
1828	 0.284120655583136 
1829	 0.284041193891172 
1830	 0.28396546062925 
1831	 0.283872821792635 
1832	 0.283780444281272 
1833	 0.283686435075081 
1834	 0.28361377655214 
1835	 0.283523644942745 
1836	 0.283424462092376 
1837	 0.283317809905622 
1838	 0.283196675221341 
1839	 0.283100160203145 
1840	 0.283021531638623 
1841	 0.282921650684606 
1842	 0.282822828512144 
1843	 0.282740406934261 
1844	 0.282616530931601 
1845	 0.282468996077288 
1846	 0.282311854047271 
1847	 0.28213886695292 
1848	 0.281920923531358 
1849	 0.281690077506661 
1850	 0.281490118134173 
1851	 0.281306633957335 
1852	 0.281109388788659 
1853	 0.280903565873223 
1854	 0.280681012790689 
1855	 0.280395653073395 
1856	 0.280078974234729 
1857	 0.279774846663137 
1858	 0.279443617868299 
1859	 0.279063700889597 
1860	 0.278617846535261 
1861	 0.278123546828088 
1862	 0.277544899305975 
1863	 0.276899078525124 
1864	 0.276222437668737 
1865	 0.275540987026477 
1866	 0.274786695600725 
1867	 0.274014302765242 
1868	 0.273222915270979 
1869	 0.272327292630992 
1870	 0.27141247178504 
1871	 0.27041893601029 
1872	 0.269371127576156 
1873	 0.268243793877827 
1874	 0.267071397163252 
1875	 0.2657833397626 
1876	 0.264407692892608 
1877	 0.262953226986606 
1878	 0.261379883608566 
1879	 0.25969518168383 
1880	 0.257907215890614 
1881	 0.25599607589737 
1882	 0.254009711480838 
1883	 0.251924782652831 
1884	 0.249731578387074 
1885	 0.247463684166735 
1886	 0.245131967509681 
1887	 0.242674693057797 
1888	 0.240146753405545 
1889	 0.237557821516824 
1890	 0.23490381643139 
1891	 0.232275507759054 
1892	 0.229585953005772 
1893	 0.226958146665232 
1894	 0.224346197591256 
1895	 0.221764583950759 
1896	 0.219183657115558 
1897	 0.216670802105304 
1898	 0.214198784494848 
1899	 0.211829932316724 
1900	 0.209599573796456 
1901	 0.207491330682462 
1902	 0.205498957400747 
1903	 0.203658712130834 
1904	 0.201896211435516 
1905	 0.20022994918975 
1906	 0.198689015131227 
1907	 0.197235085245829 
1908	 0.195875237354291 
1909	 0.194630097482558 
1910	 0.193441227656886 
1911	 0.192360634898194 
1912	 0.191384045592133 
1913	 0.190455797461581 
1914	 0.189602955104358 
1915	 0.188813823347817 
1916	 0.188087796426403 
1917	 0.187415504174001 
1918	 0.186832432119413 
1919	 0.186326104645413 
1920	 0.185881588123533 
1921	 0.185483182005152 
1922	 0.185141659928727 
1923	 0.18483520335801 
1924	 0.184572840654517 
1925	 0.184361931158027 
1926	 0.184192596694211 
1927	 0.184068085678118 
1928	 0.183971971479504 
1929	 0.183915716222019 
1930	 0.183899106430709 
1931	 0.183927830519759 
1932	 0.183984132131443 
1933	 0.184080374113219 
1934	 0.184204291733221 
1935	 0.184354616630105 
1936	 0.184536650708266 
1937	 0.184738522784613 
1938	 0.184956700359501 
1939	 0.185212584379051 
1940	 0.185500301888962 
1941	 0.185794040208977 
1942	 0.186142598778106 
1943	 0.186536918532193 
1944	 0.186914030611805 
1945	 0.187313680023804 
1946	 0.187734188870589 
1947	 0.188165047264646 
1948	 0.188613013211305 
1949	 0.189095474883306 
1950	 0.189575790622089 
1951	 0.190059464650816 
1952	 0.190560172673517 
1953	 0.191062821859307 
1954	 0.191577016809021 
1955	 0.192107410105602 
1956	 0.192639158019276 
1957	 0.193193358963168 
1958	 0.193771932082481 
1959	 0.194351856931669 
1960	 0.19495312418287 
1961	 0.195544249923118 
1962	 0.196136695786377 
1963	 0.196737583917558 
1964	 0.197340155662354 
1965	 0.19794264714243 
1966	 0.198564881827075 
1967	 0.199169934769276 
1968	 0.199791314430099 
1969	 0.200423538920279 
1970	 0.201047543358799 
1971	 0.201675052289263 
1972	 0.202310220765162 
1973	 0.202948148761231 
1974	 0.203578357046962 
1975	 0.204220525901648 
1976	 0.204845552089684 
1977	 0.205461071440875 
1978	 0.206059049378773 
1979	 0.206668762159119 
1980	 0.207296635322641 
1981	 0.207922715507296 
1982	 0.208557338663313 
1983	 0.209194829955214 
1984	 0.209835720125882 
1985	 0.210475009651639 
1986	 0.211131219418429 
1987	 0.211764172303586 
1988	 0.212373979461016 
1989	 0.213001976618349 
1990	 0.213623902353086 
1991	 0.214265775177008 
1992	 0.214909717319459 
1993	 0.215585211332682 
1994	 0.216227668698276 
1995	 0.216849633318999 
1996	 0.217479531869302 
1997	 0.218113304577443 
1998	 0.218732182538266 
1999	 0.219345628548151 
2000	 0.219963278843739 
2001	 0.220584167803946 
2002	 0.221166626091494 
2003	 0.221790974145391 
2004	 0.222408992917777 
2005	 0.222997395035816 
2006	 0.223570107190213 
2007	 0.224147650618927 
2008	 0.224690068349773 
2009	 0.225259892598307 
2010	 0.225862915990312 
2011	 0.226432807670235 
2012	 0.226992087150781 
2013	 0.227550305564092 
2014	 0.228096469982117 
2015	 0.228632853483101 
2016	 0.229166413311939 
2017	 0.229699291985234 
2018	 0.230247681317686 
2019	 0.230791739841257 
2020	 0.231353907291495 
2021	 0.231968433317296 
2022	 0.232518940795583 
2023	 0.233063694903775 
2024	 0.233572618654624 
2025	 0.234000431926212 
2026	 0.23447653550597 
2027	 0.234958250057746 
2028	 0.235438898761933 
2029	 0.235927265230326 
2030	 0.236449323922435 
2031	 0.236926821741677 
2032	 0.237384563738789 
2033	 0.237842992421021 
2034	 0.238278646566979 
2035	 0.238731404291165 
2036	 0.239198204577901 
2037	 0.239644683080372 
2038	 0.240087593468705 
2039	 0.240523738180752 
2040	 0.240949431970589 
2041	 0.241364123999911 
2042	 0.241758820973309 
2043	 0.242180033900116 
2044	 0.242598935365471 
2045	 0.243014297322332 
2046	 0.243433656048925 
2047	 0.243883254989652 
2048	 0.244290400078389 
2049	 0.244686207531954 
2050	 0.245057829530639 
2051	 0.245382064217478 
2052	 0.245730198457179 
2053	 0.246068855614702 
2054	 0.246416065812811 
2055	 0.246773178888652 
2056	 0.247139269484701 
2057	 0.247496532770335 
2058	 0.24784932177973 
2059	 0.248203393398056 
2060	 0.248557271313602 
2061	 0.248912470503081 
2062	 0.249266931736306 
2063	 0.249622042822476 
2064	 0.24998213554764 
2065	 0.250336026625438 
2066	 0.250682374839016 
2067	 0.251036470387412 
2068	 0.251407825478346 
2069	 0.251751998350156 
2070	 0.252088189624256 
2071	 0.252427679217185 
2072	 0.252740725532336 
2073	 0.253019071373423 
2074	 0.253319480888552 
2075	 0.253606707396081 
2076	 0.25391519018182 
2077	 0.254249554570664 
2078	 0.254558475682497 
2079	 0.254858407895272 
2080	 0.25517131282243 
2081	 0.25548868703844 
2082	 0.255787724309453 
2083	 0.256097301814316 
2084	 0.256388622137716 
2085	 0.256671848675904 
2086	 0.256926003895183 
2087	 0.257197709946608 
2088	 0.257468869081485 
2089	 0.257747718527821 
2090	 0.258029682579416 
2091	 0.258308054887112 
2092	 0.258596923431113 
2093	 0.258878129792857 
2094	 0.259144385911253 
2095	 0.259421950863877 
2096	 0.259719432457063 
2097	 0.259992020460603 
2098	 0.260255080337186 
2099	 0.260518376724646 
2100	 0.260765922247979 
2101	 0.260983845534476 
2102	 0.26122991431228 
2103	 0.261471380539911 
2104	 0.261737572283463 
2105	 0.262025306494982 
2106	 0.262309394491188 
2107	 0.26261931691639 
2108	 0.262904829959172 
2109	 0.263177425634771 
2110	 0.263453538354264 
2111	 0.26371597747323 
2112	 0.263986969328757 
2113	 0.264257526320701 
2114	 0.264545264942442 
2115	 0.264820880596975 
2116	 0.26510211645669 
2117	 0.265365888657827 
2118	 0.265617239702454 
2119	 0.265874953231821 
2120	 0.266119848474054 
2121	 0.26637885331479 
2122	 0.26665244712801 
2123	 0.266915774592327 
2124	 0.267192713144529 
2125	 0.267441088168163 
2126	 0.267681051852362 
2127	 0.267900874378051 
2128	 0.268092520907385 
2129	 0.2682803559597 
2130	 0.268454955513654 
2131	 0.268624521769736 
2132	 0.268775591363072 
2133	 0.268916973294142 
2134	 0.269039651077061 
2135	 0.269141924333463 
2136	 0.269237944818236 
2137	 0.269321580098271 
2138	 0.26939298965659 
2139	 0.269454347525605 
2140	 0.26950114920012 
2141	 0.269525548201677 
2142	 0.269552808186801 
2143	 0.26957144337239 
2144	 0.269585172342368 
2145	 0.269592022052228 
2146	 0.269599314276647 
2147	 0.269605417989065 
2148	 0.269604732270741 
2149	 0.269592890481656 
2150	 0.269587669396543 
2151	 0.269547355234616 
2152	 0.269484518961062 
2153	 0.269407371455462 
2154	 0.269294174457178 
2155	 0.269203488942927 
2156	 0.269120584617283 
2157	 0.26901419799533 
2158	 0.268910285462189 
2159	 0.268786309071428 
2160	 0.268637572842277 
2161	 0.268478154725584 
2162	 0.268290650964904 
2163	 0.268123274911452 
2164	 0.267944254759672 
2165	 0.267774674217396 
2166	 0.267622422875848 
2167	 0.267502732735953 
2168	 0.267353770457803 
2169	 0.267206062830349 
2170	 0.267043942300987 
2171	 0.266865992210759 
2172	 0.266691689036955 
2173	 0.266504786169718 
2174	 0.266330652408627 
2175	 0.266166622940081 
2176	 0.265991612964692 
2177	 0.265818057396185 
2178	 0.265640933648596 
2179	 0.265444262357422 
2180	 0.26526384565605 
2181	 0.26508993202536 
2182	 0.264922691607103 
2183	 0.264760750898681 
2184	 0.264621608270709 
2185	 0.264451861610009 
2186	 0.264265962921452 
2187	 0.264105439484846 
2188	 0.26393874908672 
2189	 0.263781903284732 
2190	 0.263654002066394 
2191	 0.263507112462795 
2192	 0.263338543948025 
2193	 0.263194567314807 
2194	 0.263058344517707 
2195	 0.262932065169804 
2196	 0.262833104235975 
2197	 0.26271173680759 
2198	 0.262565643940937 
2199	 0.262456112001692 
2200	 0.262353505603869 
2201	 0.262257386293226 
2202	 0.262188693085144 
2203	 0.262131577768389 
2204	 0.262069210929036 
2205	 0.262000947356014 
2206	 0.2619481375853 
2207	 0.26189407416697 
2208	 0.26187570149437 
2209	 0.261871835772362 
2210	 0.261884701191672 
2211	 0.261956637206577 
2212	 0.26197431420587 
2213	 0.261967671920512 
2214	 0.261977021855332 
2215	 0.261973327656103 
2216	 0.261976800992289 
2217	 0.262009890618211 
2218	 0.262011506410911 
2219	 0.261988983661204 
2220	 0.261967307970257 
2221	 0.261925913549702 
2222	 0.26188909397589 
2223	 0.261884679039069 
2224	 0.261893668834065 
2225	 0.261885898342206 
2226	 0.261904636686798 
2227	 0.261873783459324 
2228	 0.261793666169889 
2229	 0.261758982517638 
2230	 0.261724380901395 
2231	 0.261696449148111 
2232	 0.261710654865906 
2233	 0.261669298320245 
2234	 0.261586667241934 
2235	 0.261528883647537 
2236	 0.261467776723293 
2237	 0.261395923410971 
2238	 0.261319976355138 
2239	 0.261255766602379 
2240	 0.261177624906651 
2241	 0.261109909853847 
2242	 0.261097687299443 
2243	 0.261028675852201 
2244	 0.260932702736437 
2245	 0.260812679160566 
2246	 0.260658170848156 
2247	 0.260518222157332 
2248	 0.260404282744234 
2249	 0.260308347011816 
2250	 0.260200978705902 
2251	 0.260102026832606 
2252	 0.260018834826102 
2253	 0.259952464360096 
2254	 0.259851132871136 
2255	 0.259737749648161 
2256	 0.259648095643144 
2257	 0.259530281117383 
2258	 0.2594524071582 
2259	 0.259446464875085 
2260	 0.259388213537116 
2261	 0.259283563442313 
2262	 0.259220875097967 
2263	 0.259155443877232 
2264	 0.259115349221305 
2265	 0.259140852491062 
2266	 0.259125915535986 
2267	 0.259115332573293 
2268	 0.259072007282242 
2269	 0.258982229266952 
2270	 0.258894788024558 
2271	 0.258835821846689 
2272	 0.25878992449977 
2273	 0.258772734327094 
2274	 0.258766506097887 
2275	 0.258728758996364 
2276	 0.258658023450925 
2277	 0.258628542522498 
2278	 0.25861993723515 
2279	 0.258564146603281 
2280	 0.258512962146442 
2281	 0.258446036649645 
2282	 0.258320446231202 
2283	 0.258243490013547 
2284	 0.258199379405491 
2285	 0.258141192413952 
2286	 0.258081389306948 
2287	 0.258024602012377 
2288	 0.257977854207522 
2289	 0.257909052371193 
2290	 0.2578346601848 
2291	 0.257755937852806 
2292	 0.257652414861031 
2293	 0.257565348635289 
2294	 0.257478190658394 
2295	 0.257406020693525 
2296	 0.257331760245519 
2297	 0.257285906943344 
2298	 0.257287260916724 
2299	 0.257270075925419 
2300	 0.257266758640877 
2301	 0.25723609569783 
2302	 0.257175384425499 
2303	 0.257096611397163 
2304	 0.257019097100542 
2305	 0.256976366943768 
2306	 0.256877916713387 
2307	 0.256736008584589 
2308	 0.2566484789174 
2309	 0.256556967018603 
2310	 0.256462779631984 
2311	 0.256434970336498 
2312	 0.256324666074582 
2313	 0.256132655117387 
2314	 0.255988203885895 
2315	 0.25582292608593 
2316	 0.255686389794615 
2317	 0.255585006884158 
2318	 0.255486114943853 
2319	 0.255391392986443 
2320	 0.255317126526056 
2321	 0.255279075976085 
2322	 0.255198281121234 
2323	 0.255108482735158 
2324	 0.255019099141703 
2325	 0.254903225808831 
2326	 0.254795353404049 
2327	 0.254699543436998 
2328	 0.254605575604956 
2329	 0.25445028274422 
2330	 0.254313102857299 
2331	 0.254220917255558 
2332	 0.25409894354978 
2333	 0.253951480737134 
2334	 0.253818482929857 
2335	 0.253661512621258 
2336	 0.253461776146181 
2337	 0.253335528809315 
2338	 0.253224680050348 
2339	 0.253023311632088 
2340	 0.252862423340281 
2341	 0.252718367139356 
2342	 0.252525998333822 
2343	 0.252388423584497 
2344	 0.252268173739448 
2345	 0.252102487532671 
2346	 0.25191862198248 
2347	 0.251714665683465 
2348	 0.251458847564923 
2349	 0.251234679792418 
2350	 0.25102437809068 
2351	 0.250800131700415 
2352	 0.250569262700559 
2353	 0.250343843272419 
2354	 0.250115803383117 
2355	 0.249869654586338 
2356	 0.249638156600296 
2357	 0.249376884980219 
2358	 0.249074326820083 
2359	 0.24878284137364 
2360	 0.24845453049642 
2361	 0.248180443853253 
2362	 0.24797033150613 
2363	 0.247695989008984 
2364	 0.247405039153968 
2365	 0.247141514535245 
2366	 0.246856643060162 
2367	 0.246561666731726 
2368	 0.246298535042438 
2369	 0.246008018484359 
2370	 0.245688019151324 
2371	 0.245341366792448 
2372	 0.245025374211257 
2373	 0.244747302933754 
2374	 0.244479242770608 
2375	 0.244194926928444 
2376	 0.243887109084074 
2377	 0.243578969178797 
2378	 0.243235129292924 
2379	 0.242842370620373 
2380	 0.242451087395744 
2381	 0.242043844844892 
2382	 0.241602294170718 
2383	 0.241265323302924 
2384	 0.241049356789332 
2385	 0.240817098100038 
2386	 0.240566852692449 
2387	 0.24029829861564 
2388	 0.239945270154883 
2389	 0.239528535682548 
2390	 0.239179858692871 
2391	 0.238881065682514 
2392	 0.238495245808185 
2393	 0.238091762618143 
2394	 0.237673592987921 
2395	 0.237227399899132 
2396	 0.236912395823612 
2397	 0.236628211229043 
2398	 0.236321333474958 
2399	 0.235994982222273 
2400	 0.235556186859638 
2401	 0.23513149346936 
2402	 0.234715631181986 
2403	 0.234274843191922 
2404	 0.233905580436352 
2405	 0.233502817817524 
2406	 0.23305950630665 
2407	 0.232660669857834 
2408	 0.232242715805031 
2409	 0.231846506694767 
2410	 0.231463311053731 
2411	 0.231107284055641 
2412	 0.230774810859906 
2413	 0.230396559764812 
2414	 0.2300266653711 
2415	 0.229654390169979 
2416	 0.229270279356532 
2417	 0.228878251609397 
2418	 0.228424802523039 
2419	 0.227913477951008 
2420	 0.227474103221228 
2421	 0.227014627787114 
2422	 0.226548681504204 
2423	 0.22614579210955 
2424	 0.225722589082178 
2425	 0.225240343931418 
2426	 0.224794606633701 
2427	 0.224398903165135 
2428	 0.223994112433741 
2429	 0.223529498575676 
2430	 0.223186012836088 
2431	 0.222929084347563 
2432	 0.22262208266748 
2433	 0.222367785425258 
2434	 0.22210718415574 
2435	 0.22188491684491 
2436	 0.221606205871662 
2437	 0.221346054405016 
2438	 0.220921119664559 
2439	 0.220323779753313 
2440	 0.21976896227223 
2441	 0.21911058864241 
2442	 0.218611016884936 
2443	 0.218200524800496 
2444	 0.217779764589952 
2445	 0.217419975756623 
2446	 0.217058513153713 
2447	 0.216739111866964 
2448	 0.216261976784327 
2449	 0.215655508092309 
2450	 0.215193885268532 
2451	 0.214767557934726 
2452	 0.214337981055154 
2453	 0.214057733382806 
2454	 0.21364615067283 
2455	 0.213000342299156 
2456	 0.212495543381167 
2457	 0.212093977141367 
2458	 0.211662980766941 
2459	 0.211292433108058 
2460	 0.210866495284535 
2461	 0.210360546958672 
2462	 0.209961436064663 
2463	 0.209553536009254 
2464	 0.209189605342302 
2465	 0.208950077688705 
2466	 0.208572667144508 
2467	 0.208183289167194 
2468	 0.207780832246643 
2469	 0.207304701007712 
2470	 0.206912189902709 
2471	 0.206498968789169 
2472	 0.205993763928552 
2473	 0.2054587224993 
2474	 0.204981282106071 
2475	 0.204604138256028 
2476	 0.204298933546361 
2477	 0.203888917324353 
2478	 0.203458025466717 
2479	 0.202980414730841 
2480	 0.20239282860959 
2481	 0.201983161550593 
2482	 0.201678690419424 
2483	 0.201271323655526 
2484	 0.20104808375233 
2485	 0.200812920901882 
2486	 0.200368149512644 
2487	 0.200046244711453 
2488	 0.199672659216377 
2489	 0.199244808490096 
2490	 0.198976075217063 
2491	 0.198589784731942 
2492	 0.198113015999257 
2493	 0.197839500248999 
2494	 0.197537458523662 
2495	 0.197239625646561 
2496	 0.197170281892563 
2497	 0.19690612271714 
2498	 0.196592724151605 
2499	 0.196405538728469 
2500	 0.196096956745531 
