Wavelength	MM100002.asd
350	 3.46233516687761E-02 
351	 4.17853834764024E-02 
352	 4.00056320204338E-02 
353	 2.65474979892391E-02 
354	 0.030422773909248 
355	 0.031885154206643 
356	 2.98969471908489E-02 
357	 2.84186488370766E-02 
358	 3.13087987985358E-02 
359	 3.15226623976691E-02 
360	 3.08882834309395E-02 
361	 3.57082803036916E-02 
362	 3.33230628768245E-02 
363	 3.31633931130013E-02 
364	 3.76471235293431E-02 
365	 3.40524213790666E-02 
366	 3.16679124115696E-02 
367	 0.030788310197773 
368	 0.029781859658919 
369	 2.87619971211685E-02 
370	 0.032740736627497 
371	 3.76997529182344E-02 
372	 3.46734912578611E-02 
373	 3.31595975920838E-02 
374	 3.30172300154882E-02 
375	 0.033387923355901 
376	 3.45757689592781E-02 
377	 3.55920278910202E-02 
378	 3.56010496729296E-02 
379	 3.47565801540039E-02 
380	 3.70594973073618E-02 
381	 0.037274776999775 
382	 3.62673039281604E-02 
383	 3.90529198046458E-02 
384	 0.039206369467262 
385	 3.83596793861479E-02 
386	 3.82531658759585E-02 
387	 3.84288520399083E-02 
388	 4.06264459546678E-02 
389	 4.18971935470271E-02 
390	 3.96318821725161E-02 
391	 3.98335057705985E-02 
392	 4.09525600493261E-02 
393	 4.23831902736277E-02 
394	 4.44861874722381E-02 
395	 4.50353243762108E-02 
396	 4.51134459805757E-02 
397	 4.54892801423532E-02 
398	 0.044966094530092 
399	 4.45616245456488E-02 
400	 0.045238622574842 
401	 4.73043986870103E-02 
402	 4.79528721523587E-02 
403	 4.80786945565107E-02 
404	 4.80247030283011E-02 
405	 4.73769668634878E-02 
406	 4.85807398138163E-02 
407	 4.98558849069213E-02 
408	 4.97078151533021E-02 
409	 4.94562802459243E-02 
410	 0.049428482271689 
411	 4.98029819182198E-02 
412	 5.06019887015203E-02 
413	 5.18255416671896E-02 
414	 5.18094918868777E-02 
415	 5.08523722249581E-02 
416	 5.18513398876672E-02 
417	 5.20895772226327E-02 
418	 5.20317671354571E-02 
419	 5.24477897488493E-02 
420	 5.24943196331837E-02 
421	 5.18886132878146E-02 
422	 5.14002803275658E-02 
423	 5.21788548546732E-02 
424	 5.17422139649393E-02 
425	 5.14297704060224E-02 
426	 5.19197232333954E-02 
427	 5.18091834613229E-02 
428	 5.18549398683694E-02 
429	 5.17342976533728E-02 
430	 5.11101150345718E-02 
431	 5.12457505884423E-02 
432	 5.12640824647196E-02 
433	 5.09745087627963E-02 
434	 5.09262202221007E-02 
435	 5.09886260850797E-02 
436	 5.11011180672572E-02 
437	 5.11343490359606E-02 
438	 5.06932016049853E-02 
439	 5.05728211271268E-02 
440	 5.08002609130738E-02 
441	 5.10099784294713E-02 
442	 0.051136209743199 
443	 5.13799704145333E-02 
444	 5.16887355894489E-02 
445	 5.15724604615556E-02 
446	 5.16746685248675E-02 
447	 5.21394267637039E-02 
448	 5.27463276867303E-02 
449	 5.24049106520356E-02 
450	 5.24398447241104E-02 
451	 5.29227231202989E-02 
452	 5.28569755511787E-02 
453	 5.29665771223913E-02 
454	 5.30391318344983E-02 
455	 5.29398071219223E-02 
456	 5.31160552699971E-02 
457	 5.32859938911977E-02 
458	 5.34326990390955E-02 
459	 0.053642524934977 
460	 0.053906071658563 
461	 0.053797265095175 
462	 5.34473030941837E-02 
463	 5.38033381961158E-02 
464	 5.39699720669543E-02 
465	 5.40310923381273E-02 
466	 5.42261875349255E-02 
467	 5.42759482713842E-02 
468	 5.44025463529863E-02 
469	 0.054479199914349 
470	 5.41521572802561E-02 
471	 5.42294166236143E-02 
472	 5.44765813926794E-02 
473	 5.45688119681268E-02 
474	 5.43820503005128E-02 
475	 5.42526482100188E-02 
476	 5.42723555733252E-02 
477	 5.43833990080719E-02 
478	 5.43579411821847E-02 
479	 5.43352115801641E-02 
480	 5.43726335548762E-02 
481	 5.43643969041691E-02 
482	 5.45105512347446E-02 
483	 5.46679269792318E-02 
484	 5.46773882450925E-02 
485	 5.47461281909353E-02 
486	 5.46201672841168E-02 
487	 5.43638698021923E-02 
488	 5.43074736376294E-02 
489	 5.45494595362367E-02 
490	 0.054673840005967 
491	 5.44900822817333E-02 
492	 5.45945565748984E-02 
493	 5.45448656410187E-02 
494	 5.43953986245954E-02 
495	 5.44214022620939E-02 
496	 5.47168305301073E-02 
497	 5.48414764632656E-02 
498	 5.47299768455509E-02 
499	 5.49458151851579E-02 
500	 5.50100919813878E-02 
501	 0.054911839883633 
502	 5.48090803741249E-02 
503	 5.49860257620143E-02 
504	 5.49236786496175E-02 
505	 5.47038673813605E-02 
506	 5.49370432297091E-02 
507	 5.50188871291482E-02 
508	 5.49873175132855E-02 
509	 0.054972213552407 
510	 5.50115175151494E-02 
511	 5.49714663431222E-02 
512	 5.49087836885811E-02 
513	 5.49714852022509E-02 
514	 5.51385800632702E-02 
515	 5.52443329261336E-02 
516	 5.52215214818816E-02 
517	 5.51829550982338E-02 
518	 5.52042102965702E-02 
519	 5.52025326884605E-02 
520	 5.51024516909369E-02 
521	 5.51702790505386E-02 
522	 5.52970794105062E-02 
523	 5.53743943166917E-02 
524	 5.53234753949014E-02 
525	 5.54417773092681E-02 
526	 5.55342096880936E-02 
527	 5.54460159884134E-02 
528	 5.55092927950872E-02 
529	 5.55978503233564E-02 
530	 5.56651978503976E-02 
531	 5.57191177936072E-02 
532	 5.57429188734014E-02 
533	 5.58097668717661E-02 
534	 5.59361327407154E-02 
535	 5.59923991613817E-02 
536	 5.60900985362575E-02 
537	 0.056202363208978 
538	 5.62663694025154E-02 
539	 5.63708369836888E-02 
540	 5.64297160003081E-02 
541	 5.64452259979603E-02 
542	 5.65522093624231E-02 
543	 5.66688197157678E-02 
544	 0.056771974118655 
545	 5.68801051239959E-02 
546	 5.71323089208061E-02 
547	 5.72756016605539E-02 
548	 5.73331499611251E-02 
549	 5.75560062556359E-02 
550	 5.77463992209905E-02 
551	 5.79187155341517E-02 
552	 5.81082618770411E-02 
553	 0.0582962216012 
554	 5.85439799123799E-02 
555	 5.88246389098014E-02 
556	 5.90754997849867E-02 
557	 5.93771878027374E-02 
558	 5.97171818056896E-02 
559	 6.00745522752439E-02 
560	 6.04346732036909E-02 
561	 6.07765771620167E-02 
562	 6.11545113371154E-02 
563	 6.16264227264157E-02 
564	 6.21246552949688E-02 
565	 6.25846170977387E-02 
566	 6.30329384354645E-02 
567	 6.35951131502368E-02 
568	 6.42331636185331E-02 
569	 6.48718338705486E-02 
570	 6.54759717045028E-02 
571	 6.61783710284106E-02 
572	 6.69344187135381E-02 
573	 6.76977162381764E-02 
574	 6.84263290209599E-02 
575	 6.91723164511963E-02 
576	 6.99541484641272E-02 
577	 7.07743788849938E-02 
578	 7.16040355998986E-02 
579	 7.25619680021465E-02 
580	 7.35642258349639E-02 
581	 0.07448524462229 
582	 7.55942393467832E-02 
583	 7.67076302192744E-02 
584	 7.77404783808535E-02 
585	 7.88065053623713E-02 
586	 7.99330616004478E-02 
587	 8.10547685887932E-02 
588	 0.082119469796385 
589	 8.32802228506674E-02 
590	 8.44396102618823E-02 
591	 8.55817373518905E-02 
592	 8.67700064667765E-02 
593	 8.79082574091392E-02 
594	 8.90341690851372E-02 
595	 9.01829068400252E-02 
596	 0.091314212775781 
597	 9.24664137197045E-02 
598	 9.36334456020897E-02 
599	 9.47841275580471E-02 
600	 9.58610588123416E-02 
601	 9.68918560062021E-02 
602	 9.78971438307091E-02 
603	 9.88685307740601E-02 
604	 9.98173878518194E-02 
605	 0.100748805191833 
606	 0.101667764516855 
607	 0.102595801418438 
608	 0.103474361401616 
609	 0.104297179569873 
610	 0.10512306959585 
611	 0.105904912979853 
612	 0.106667540634223 
613	 0.107420505888793 
614	 0.108078286680885 
615	 0.10867223507306 
616	 0.109230411157927 
617	 0.109777547541408 
618	 0.110363201180335 
619	 0.110873177948863 
620	 0.111271183683237 
621	 0.111737375464535 
622	 0.112181948289963 
623	 0.112597461813105 
624	 0.113006250176699 
625	 0.11342195353079 
626	 0.113805167888982 
627	 0.114149864265857 
628	 0.114498838567566 
629	 0.114867318176241 
630	 0.115212332033907 
631	 0.115503332059533 
632	 0.115823340546396 
633	 0.116147276690098 
634	 0.11646780746019 
635	 0.116793899115923 
636	 0.117118915946022 
637	 0.117441981827218 
638	 0.117765086225801 
639	 0.118101539592384 
640	 0.118370759534545 
641	 0.118627198347985 
642	 0.118973722941222 
643	 0.119349775211767 
644	 0.11969269672516 
645	 0.119994872300298 
646	 0.120327290247174 
647	 0.120653446523108 
648	 0.120975110457514 
649	 0.121308643056232 
650	 0.121687436850404 
651	 0.122068214644715 
652	 0.122425822803877 
653	 0.122759521577805 
654	 0.123168750531749 
655	 0.12358364240612 
656	 0.123951429310236 
657	 0.124336679848536 
658	 0.124757603504298 
659	 0.125207937642285 
660	 0.125662202769893 
661	 0.126077970716164 
662	 0.126531723052285 
663	 0.127038451520112 
664	 0.127508864680127 
665	 0.127948904696543 
666	 0.128406276778694 
667	 0.128914287492033 
668	 0.129376070659637 
669	 0.129893838803145 
670	 0.130455559978416 
671	 0.130958914429947 
672	 0.131561469735559 
673	 0.132162351784441 
674	 0.132701957242907 
675	 0.133330677740832 
676	 0.133928654880894 
677	 0.13449301451626 
678	 0.135077136983299 
679	 0.135745644211598 
680	 0.13639154547221 
681	 0.136997952195427 
682	 0.137685650891848 
683	 0.138350010406468 
684	 0.138995141555893 
685	 0.139663218059691 
686	 0.140436217550529 
687	 0.141147941195946 
688	 0.141816671533957 
689	 0.142580576523224 
690	 0.143295161771564 
691	 0.143992225097964 
692	 0.144723496107873 
693	 0.145537524684891 
694	 0.14632232305689 
695	 0.147082767358931 
696	 0.147859063806179 
697	 0.148608236927892 
698	 0.149404563228312 
699	 0.150246191556818 
700	 0.151046880113373 
701	 0.151860711474137 
702	 0.152667382811789 
703	 0.153449156825486 
704	 0.15423392881807 
705	 0.155041089690871 
706	 0.155866947564572 
707	 0.156687907793149 
708	 0.157439995818296 
709	 0.158233127905645 
710	 0.159096796900421 
711	 0.159922156042047 
712	 0.16069681143622 
713	 0.161445330999768 
714	 0.162203346737574 
715	 0.162988200308994 
716	 0.16376087900148 
717	 0.164519067116368 
718	 0.165281035947165 
719	 0.165968601717281 
720	 0.16663794963322 
721	 0.167320814134815 
722	 0.167960928776704 
723	 0.168614260913066 
724	 0.16928356540212 
725	 0.169940783170715 
726	 0.17050900830986 
727	 0.171031839470072 
728	 0.171552106646384 
729	 0.172098858838805 
730	 0.172610031878778 
731	 0.173051704097822 
732	 0.173435410327261 
733	 0.173869533664535 
734	 0.174245962371452 
735	 0.174578551574116 
736	 0.174920906483311 
737	 0.175242822836066 
738	 0.175503365063803 
739	 0.175702021032623 
740	 0.175882874457687 
741	 0.176063614336544 
742	 0.176241174360739 
743	 0.176385894677099 
744	 0.17640540857341 
745	 0.176440564182147 
746	 0.176484682592839 
747	 0.176466690361438 
748	 0.176417120357587 
749	 0.17634562263654 
750	 0.176259421295163 
751	 0.176163699510265 
752	 0.175999958412054 
753	 0.175824421763735 
754	 0.175676785772828 
755	 0.175469689069286 
756	 0.175219339638958 
757	 0.174950241436787 
758	 0.174683881256556 
759	 0.174375219263275 
760	 0.17402386791156 
761	 0.173656560822652 
762	 0.173325197863902 
763	 0.17297371296567 
764	 0.172569950339175 
765	 0.172119863990921 
766	 0.171715559222455 
767	 0.171318784779504 
768	 0.170899718002597 
769	 0.170440392082808 
770	 0.169983910473349 
771	 0.169510381954815 
772	 0.169010841219957 
773	 0.168496789118259 
774	 0.168024855547549 
775	 0.167553720197965 
776	 0.167045147775028 
777	 0.166534669951826 
778	 0.166015096329313 
779	 0.165481971719063 
780	 0.164937606505584 
781	 0.164416490533938 
782	 0.163933981170535 
783	 0.163449866306473 
784	 0.162877885005031 
785	 0.162354927481125 
786	 0.161840123457612 
787	 0.161298981508284 
788	 0.160797698114234 
789	 0.16029198999294 
790	 0.159768702790513 
791	 0.159233190883266 
792	 0.158721868332829 
793	 0.158216707673603 
794	 0.157710407224224 
795	 0.157208852096053 
796	 0.15671168964462 
797	 0.156229910939158 
798	 0.155751306491208 
799	 0.155215847825957 
800	 0.154725397334942 
801	 0.154301117105891 
802	 0.153904508294641 
803	 0.153378580235791 
804	 0.152903700706784 
805	 0.152497250119216 
806	 0.152072594198987 
807	 0.151647720918495 
808	 0.151210615371617 
809	 0.150761745637252 
810	 0.150318430651808 
811	 0.149946185576074 
812	 0.149586865491963 
813	 0.149194291250068 
814	 0.148843927530959 
815	 0.148438435906178 
816	 0.148008727954788 
817	 0.147637270662291 
818	 0.147367125555659 
819	 0.147060193748331 
820	 0.146690882677429 
821	 0.146339248336672 
822	 0.146003448210961 
823	 0.145703415045183 
824	 0.145423673064766 
825	 0.145090670427482 
826	 0.144784297754946 
827	 0.14453120061559 
828	 0.14431508870784 
829	 0.144039582670555 
830	 0.143745864533543 
831	 0.143463316516768 
832	 0.143214872842762 
833	 0.143022188220148 
834	 0.142819726343442 
835	 0.142607765416319 
836	 0.142446166068936 
837	 0.14224439710265 
838	 0.142019980331591 
839	 0.141810198003738 
840	 0.141654179694112 
841	 0.141480047218989 
842	 0.141289504869957 
843	 0.141109399889615 
844	 0.140970686966764 
845	 0.140873924213781 
846	 0.140780853751151 
847	 0.140654492524967 
848	 0.140575917786357 
849	 0.140493685564058 
850	 0.14037865995206 
851	 0.140237254837722 
852	 0.140152490355302 
853	 0.140104437377154 
854	 0.140063658118469 
855	 0.140012696118999 
856	 0.139995786596297 
857	 0.139979678483779 
858	 0.139937994349252 
859	 0.139909071786155 
860	 0.139879689635183 
861	 0.139860450365967 
862	 0.139863219300112 
863	 0.139872433477469 
864	 0.139876922857417 
865	 0.139899752365295 
866	 0.139972028500154 
867	 0.14002605114403 
868	 0.140093858575994 
869	 0.140164788356609 
870	 0.140185560685353 
871	 0.140249421889282 
872	 0.140355051595853 
873	 0.1404739888195 
874	 0.140563412899239 
875	 0.140731307319741 
876	 0.140864286387808 
877	 0.140900822171753 
878	 0.14105805366669 
879	 0.141239988050758 
880	 0.14140160907236 
881	 0.141537438958234 
882	 0.141736874441383 
883	 0.141931803475121 
884	 0.142087543931731 
885	 0.142216874234808 
886	 0.142471444404353 
887	 0.142698215006691 
888	 0.142869069681503 
889	 0.14307996602019 
890	 0.143339632724368 
891	 0.143572370051027 
892	 0.14379990329559 
893	 0.1441614265352 
894	 0.144391260553086 
895	 0.144620042840426 
896	 0.144944877349091 
897	 0.145259614388549 
898	 0.145571569829778 
899	 0.145866698467804 
900	 0.146152265693361 
901	 0.146496733012922 
902	 0.146844761074988 
903	 0.147188483497967 
904	 0.147536684436535 
905	 0.147890899522532 
906	 0.148297489213706 
907	 0.148730024336262 
908	 0.1491295831763 
909	 0.149473281958034 
910	 0.149828473720767 
911	 0.150253015789303 
912	 0.150760318507297 
913	 0.151175077960207 
914	 0.151590216271252 
915	 0.152057704828393 
916	 0.152560719741626 
917	 0.153000395639367 
918	 0.153503620737809 
919	 0.154072214271676 
920	 0.154544695143702 
921	 0.155060925068894 
922	 0.155594389848528 
923	 0.156116924781497 
924	 0.156640188505064 
925	 0.157183104658741 
926	 0.157769276598388 
927	 0.158381212060231 
928	 0.158928679765242 
929	 0.159615054931573 
930	 0.16028794996061 
931	 0.16083565792978 
932	 0.161458031161588 
933	 0.162085621193271 
934	 0.162705432118448 
935	 0.163337283364912 
936	 0.164054031070463 
937	 0.164750577178242 
938	 0.165395460508586 
939	 0.166019337290375 
940	 0.166753619627289 
941	 0.167528834757778 
942	 0.168327058915596 
943	 0.169127420849426 
944	 0.169814040247402 
945	 0.170511789581879 
946	 0.171269443329882 
947	 0.172075805422841 
948	 0.172871663067041 
949	 0.173608580535063 
950	 0.174316842219441 
951	 0.175081379936653 
952	 0.176022801394949 
953	 0.17691420676393 
954	 0.177695773442059 
955	 0.178451936471219 
956	 0.179387939263451 
957	 0.180267537026354 
958	 0.18105033956082 
959	 0.181842943245652 
960	 0.18270279198773 
961	 0.183629942807047 
962	 0.184578628069121 
963	 0.185485708627439 
964	 0.186358092481893 
965	 0.187245149080264 
966	 0.188178151932331 
967	 0.189159245399968 
968	 0.190123045855372 
969	 0.191049270528233 
970	 0.191948591971665 
971	 0.192854934874587 
972	 0.193828923703125 
973	 0.194813229751638 
974	 0.195787996164963 
975	 0.196759070895234 
976	 0.197671750356027 
977	 0.198617651413606 
978	 0.199610152614245 
979	 0.200606005568995 
980	 0.201626860374704 
981	 0.202500856818035 
982	 0.203392083954926 
983	 0.204544818996375 
984	 0.205454352040828 
985	 0.206353649203015 
986	 0.207276225120419 
987	 0.208152072478011 
988	 0.209120573378788 
989	 0.210177257956839 
990	 0.211189051463306 
991	 0.212046299459925 
992	 0.2130175115674 
993	 0.214010504002864 
994	 0.214992613232036 
995	 0.21594963799009 
996	 0.216805617818704 
997	 0.217716949894667 
998	 0.218626025462536 
999	 0.219460648507897 
1000	 0.220422579406871 
1001	 0.224202201590024 
1002	 0.225059403937381 
1003	 0.225886470527706 
1004	 0.226722154314504 
1005	 0.227613997036256 
1006	 0.228479002732243 
1007	 0.229336663819179 
1008	 0.230119378271545 
1009	 0.230950949471419 
1010	 0.231777932401293 
1011	 0.232557493189489 
1012	 0.233378145240096 
1013	 0.23414791244348 
1014	 0.234829295251026 
1015	 0.235558503558242 
1016	 0.236257469339975 
1017	 0.236953606823659 
1018	 0.237628118961856 
1019	 0.238348699824329 
1020	 0.239039606611012 
1021	 0.239745946687092 
1022	 0.240446798565519 
1023	 0.241101977066873 
1024	 0.241747003131628 
1025	 0.242367471617087 
1026	 0.242980516234838 
1027	 0.243574598097426 
1028	 0.244107701836848 
1029	 0.244646666450384 
1030	 0.245198942535684 
1031	 0.245762703355693 
1032	 0.246338113573232 
1033	 0.246981300807832 
1034	 0.247603611483555 
1035	 0.248152149628902 
1036	 0.248652878300634 
1037	 0.249131501228746 
1038	 0.249622871134218 
1039	 0.250164498550597 
1040	 0.250756775180127 
1041	 0.251368051971432 
1042	 0.251969167740839 
1043	 0.252501745379239 
1044	 0.253016855521317 
1045	 0.253492996300364 
1046	 0.253993899560743 
1047	 0.254471081226089 
1048	 0.254944719937908 
1049	 0.255442841831124 
1050	 0.255942060652413 
1051	 0.25645832327912 
1052	 0.25697619315448 
1053	 0.257512619275701 
1054	 0.2580524420833 
1055	 0.258519357326247 
1056	 0.259008301046449 
1057	 0.259504724362383 
1058	 0.259985144150454 
1059	 0.260458943323661 
1060	 0.26095130627013 
1061	 0.261442056266717 
1062	 0.26186541913677 
1063	 0.262283785681935 
1064	 0.262733502495698 
1065	 0.263136523100182 
1066	 0.263519078045234 
1067	 0.263930134426718 
1068	 0.264310009045198 
1069	 0.26471571785316 
1070	 0.26509926009005 
1071	 0.265465229678025 
1072	 0.265850625952305 
1073	 0.266239165979683 
1074	 0.266601969355416 
1075	 0.266944511955694 
1076	 0.267357298121354 
1077	 0.267753111451182 
1078	 0.268102290928387 
1079	 0.268444483947654 
1080	 0.2687640955732 
1081	 0.269054447989597 
1082	 0.269349520660285 
1083	 0.269640227744604 
1084	 0.269954585542694 
1085	 0.27023264010561 
1086	 0.270456965836543 
1087	 0.270735160809571 
1088	 0.27103148061165 
1089	 0.271314574407238 
1090	 0.271639053013134 
1091	 0.271950568664971 
1092	 0.272208424542966 
1093	 0.2725164687626 
1094	 0.272820995415992 
1095	 0.273095472998562 
1096	 0.273382805935353 
1097	 0.273660059421934 
1098	 0.273917055844368 
1099	 0.274113732087629 
1100	 0.274382356383301 
1101	 0.274678490191715 
1102	 0.27497464144534 
1103	 0.275305242167592 
1104	 0.275639693897744 
1105	 0.275921707581746 
1106	 0.27620834831621 
1107	 0.276488941973937 
1108	 0.276770303837911 
1109	 0.277079727640598 
1110	 0.277353475444771 
1111	 0.277643061227023 
1112	 0.277929250386868 
1113	 0.278231175348759 
1114	 0.27854476480719 
1115	 0.278856896661031 
1116	 0.279184864249259 
1117	 0.279499032374279 
1118	 0.279821227520301 
1119	 0.280106318669826 
1120	 0.280391909983851 
1121	 0.280678608583638 
1122	 0.280954971994434 
1123	 0.281271987276144 
1124	 0.281592214940634 
1125	 0.281937810028963 
1126	 0.282255230466841 
1127	 0.282575567737736 
1128	 0.282878652701623 
1129	 0.283166205876649 
1130	 0.283450481294477 
1131	 0.283731213195111 
1132	 0.284008681166777 
1133	 0.284267084410932 
1134	 0.284537048300327 
1135	 0.284823134709148 
1136	 0.285085910370066 
1137	 0.285336701731395 
1138	 0.285588231716428 
1139	 0.285839228166306 
1140	 0.286085055803244 
1141	 0.28631785837499 
1142	 0.286549417796546 
1143	 0.286774372568535 
1144	 0.286972711497817 
1145	 0.287187574024529 
1146	 0.287418794121634 
1147	 0.287639389804952 
1148	 0.287863036290509 
1149	 0.28807191019315 
1150	 0.288270614663903 
1151	 0.288463940803064 
1152	 0.288654786467516 
1153	 0.288839160798726 
1154	 0.289034865679487 
1155	 0.289248543379305 
1156	 0.28943038698614 
1157	 0.289607595223651 
1158	 0.289774001130497 
1159	 0.289906717284176 
1160	 0.290066023231055 
1161	 0.290228727972921 
1162	 0.290398455738876 
1163	 0.290593043186498 
1164	 0.290765685535628 
1165	 0.290930361790995 
1166	 0.291098410598712 
1167	 0.29125709303735 
1168	 0.291395377302283 
1169	 0.291541182142105 
1170	 0.291689373040723 
1171	 0.291828063386531 
1172	 0.291964536292344 
1173	 0.292089298869057 
1174	 0.29220527045558 
1175	 0.29231819129794 
1176	 0.292413315801001 
1177	 0.292523787408781 
1178	 0.29263180721965 
1179	 0.292752980811132 
1180	 0.292906140587302 
1181	 0.293028078918652 
1182	 0.293144449565237 
1183	 0.293250172603944 
1184	 0.293353167826971 
1185	 0.293428765684845 
1186	 0.293533583694864 
1187	 0.293657474965215 
1188	 0.293764356311975 
1189	 0.293866207169101 
1190	 0.293975810031253 
1191	 0.294090154288283 
1192	 0.294190681873241 
1193	 0.294298684045747 
1194	 0.294391117360199 
1195	 0.294447603264254 
1196	 0.294531837756971 
1197	 0.294634678794898 
1198	 0.294723474482631 
1199	 0.294811644540989 
1200	 0.294908279470387 
1201	 0.294997093477558 
1202	 0.295073739519493 
1203	 0.29515676727788 
1204	 0.29524709482354 
1205	 0.295330844593352 
1206	 0.295400247021865 
1207	 0.295487520305943 
1208	 0.295592889972151 
1209	 0.295680106943792 
1210	 0.295767164075007 
1211	 0.295851439316883 
1212	 0.295924627415553 
1213	 0.295996781669358 
1214	 0.296083558760744 
1215	 0.29614824662421 
1216	 0.296200227835961 
1217	 0.296226523330394 
1218	 0.296285461363122 
1219	 0.296335329888987 
1220	 0.296411322843763 
1221	 0.296528142672996 
1222	 0.296610729584964 
1223	 0.2966965494484 
1224	 0.296762124140009 
1225	 0.296797425148177 
1226	 0.29685261462475 
1227	 0.296907971870121 
1228	 0.29696075155381 
1229	 0.297026699708902 
1230	 0.297080434395626 
1231	 0.297115788539498 
1232	 0.297160719765068 
1233	 0.297207420572483 
1234	 0.297257727502032 
1235	 0.297299116933833 
1236	 0.297329852463933 
1237	 0.297388507501066 
1238	 0.297459068304814 
1239	 0.297517551615819 
1240	 0.297596320583156 
1241	 0.297657704459761 
1242	 0.29770312253825 
1243	 0.297743339362261 
1244	 0.297778505521499 
1245	 0.297815766206572 
1246	 0.297828897923954 
1247	 0.297864168602326 
1248	 0.297910737310536 
1249	 0.297972747906385 
1250	 0.298042560567708 
1251	 0.298093919705246 
1252	 0.298134178937958 
1253	 0.298164712377133 
1254	 0.298189915402871 
1255	 0.298199058344756 
1256	 0.2982147727507 
1257	 0.298222326475089 
1258	 0.298242869427471 
1259	 0.298267283340427 
1260	 0.298293208802035 
1261	 0.298347811013349 
1262	 0.298364591627072 
1263	 0.298338964999241 
1264	 0.298347603968427 
1265	 0.298361782481526 
1266	 0.298368401443709 
1267	 0.298374493207852 
1268	 0.298421565464914 
1269	 0.298440672013413 
1270	 0.298427600219878 
1271	 0.298456638461029 
1272	 0.298508074390793 
1273	 0.29855156322557 
1274	 0.298595973941124 
1275	 0.298667072212192 
1276	 0.298756649776428 
1277	 0.298841233330642 
1278	 0.298934607330251 
1279	 0.299043966011763 
1280	 0.299176230401874 
1281	 0.299273585108167 
1282	 0.299380556368798 
1283	 0.299472374041292 
1284	 0.299526937965343 
1285	 0.299584764177391 
1286	 0.299640634746905 
1287	 0.299700666714916 
1288	 0.299744458771695 
1289	 0.299765831926769 
1290	 0.299799167688773 
1291	 0.299840342134823 
1292	 0.299859520765697 
1293	 0.299875561854783 
1294	 0.299870975029378 
1295	 0.299846935110223 
1296	 0.299820438594971 
1297	 0.299781945236953 
1298	 0.299735300404398 
1299	 0.299679506307378 
1300	 0.299615266597406 
1301	 0.299545412023839 
1302	 0.299462312295597 
1303	 0.299371981130357 
1304	 0.299267368704645 
1305	 0.299154199876268 
1306	 0.299022502107104 
1307	 0.298881130479592 
1308	 0.29874769698001 
1309	 0.298609300692531 
1310	 0.298463760115978 
1311	 0.298324654728325 
1312	 0.298179585008426 
1313	 0.298051960070134 
1314	 0.297942131625792 
1315	 0.29781505847335 
1316	 0.297679325590897 
1317	 0.297569527056376 
1318	 0.297459422577528 
1319	 0.297356543288566 
1320	 0.297287567021762 
1321	 0.297202328661434 
1322	 0.297109476609304 
1323	 0.297007672486783 
1324	 0.296923769845805 
1325	 0.296845767445769 
1326	 0.296766458161155 
1327	 0.29669262839804 
1328	 0.296616247374937 
1329	 0.296544973033489 
1330	 0.296465050014337 
1331	 0.296364558767986 
1332	 0.296312623221328 
1333	 0.296275061164691 
1334	 0.296239556473947 
1335	 0.296238642107787 
1336	 0.296226611651527 
1337	 0.296213181174471 
1338	 0.296196105627273 
1339	 0.296182291061256 
1340	 0.29616904515958 
1341	 0.296152710410528 
1342	 0.296126038258719 
1343	 0.296095256925895 
1344	 0.296069065889442 
1345	 0.296049994743969 
1346	 0.296027148890772 
1347	 0.296006599499559 
1348	 0.296014413590595 
1349	 0.295991065179551 
1350	 0.295945011139557 
1351	 0.295919683600958 
1352	 0.295894703387447 
1353	 0.295872249640192 
1354	 0.295866798356116 
1355	 0.295846001844199 
1356	 0.295815963404479 
1357	 0.295789731270392 
1358	 0.295755000019692 
1359	 0.29572729485094 
1360	 0.295705900221081 
1361	 0.295685503515685 
1362	 0.295667458254282 
1363	 0.295646841648306 
1364	 0.295628150022825 
1365	 0.29560823663663 
1366	 0.295589617566271 
1367	 0.295568067820914 
1368	 0.295556493548585 
1369	 0.295504445032767 
1370	 0.29542530933956 
1371	 0.295362558746756 
1372	 0.29524031090437 
1373	 0.295105443836856 
1374	 0.294956132289908 
1375	 0.294782835406758 
1376	 0.294588666646433 
1377	 0.294397660325427 
1378	 0.294145580799463 
1379	 0.293851189854233 
1380	 0.293542513918932 
1381	 0.293190129415651 
1382	 0.29282877112885 
1383	 0.292456103390113 
1384	 0.292055774222208 
1385	 0.291658161832648 
1386	 0.291198194003718 
1387	 0.290715178638192 
1388	 0.290175811032776 
1389	 0.289584258004094 
1390	 0.28893390854486 
1391	 0.28825591875173 
1392	 0.287526120007213 
1393	 0.286756543661066 
1394	 0.285985648766975 
1395	 0.285171219328054 
1396	 0.284337648589521 
1397	 0.283514691115264 
1398	 0.282681092423661 
1399	 0.281836498391814 
1400	 0.280990638332729 
1401	 0.280146834306916 
1402	 0.279278793607467 
1403	 0.278438724944092 
1404	 0.277600916957448 
1405	 0.276799897643678 
1406	 0.276007268981065 
1407	 0.275254100025815 
1408	 0.274534149989198 
1409	 0.27384061964502 
1410	 0.273172703872554 
1411	 0.272536668116848 
1412	 0.271916472612107 
1413	 0.271359211618325 
1414	 0.270833917393171 
1415	 0.270336346645947 
1416	 0.269897461013076 
1417	 0.269487812960485 
1418	 0.269107427484541 
1419	 0.268765949040629 
1420	 0.268437700840526 
1421	 0.268128884210479 
1422	 0.267848867482686 
1423	 0.267571809283833 
1424	 0.267312616876154 
1425	 0.267080561377838 
1426	 0.266840870687058 
1427	 0.26659827410782 
1428	 0.266385903696297 
1429	 0.266185082432942 
1430	 0.265999433045047 
1431	 0.265839107005623 
1432	 0.265681720845525 
1433	 0.265526545458456 
1434	 0.265392258400807 
1435	 0.265277248921832 
1436	 0.265168485648935 
1437	 0.265072443012775 
1438	 0.264985979406867 
1439	 0.26491291480696 
1440	 0.264838424320617 
1441	 0.264771779090817 
1442	 0.264729717498557 
1443	 0.264672510051777 
1444	 0.264613221717289 
1445	 0.264581943083417 
1446	 0.26454469555514 
1447	 0.264516348059425 
1448	 0.264507609257738 
1449	 0.26448455101759 
1450	 0.264450808770307 
1451	 0.264420161076476 
1452	 0.264371850321124 
1453	 0.264372345430043 
1454	 0.264392022061655 
1455	 0.264413793599531 
1456	 0.26447531364273 
1457	 0.264512778719038 
1458	 0.264531364056347 
1459	 0.264570641986495 
1460	 0.264607455695843 
1461	 0.264672952248173 
1462	 0.264758160963418 
1463	 0.264845925880521 
1464	 0.264952034729917 
1465	 0.265066742253706 
1466	 0.265175924970462 
1467	 0.265311323811332 
1468	 0.265473751652056 
1469	 0.265641850679432 
1470	 0.265818936858711 
1471	 0.266020265829526 
1472	 0.266225074681126 
1473	 0.266430237800531 
1474	 0.266652052029811 
1475	 0.266886091003931 
1476	 0.26712058258943 
1477	 0.267350772529251 
1478	 0.267604784878849 
1479	 0.267857548755166 
1480	 0.268112869397384 
1481	 0.268394154729893 
1482	 0.268653024966187 
1483	 0.268898883345746 
1484	 0.26914979027024 
1485	 0.269393656995797 
1486	 0.269651361379705 
1487	 0.269909146548367 
1488	 0.270179721833359 
1489	 0.270470745767695 
1490	 0.270744151771391 
1491	 0.271020891668169 
1492	 0.271293112320832 
1493	 0.271558189661947 
1494	 0.271818453490444 
1495	 0.272080601999023 
1496	 0.272326451344173 
1497	 0.272551593858036 
1498	 0.272792550062775 
1499	 0.273037086975137 
1500	 0.273274463733955 
1501	 0.273516079000067 
1502	 0.27374825725498 
1503	 0.273965755154753 
1504	 0.274188570187661 
1505	 0.27441220406254 
1506	 0.274641966106978 
1507	 0.274867716307109 
1508	 0.275083782292076 
1509	 0.275294619819338 
1510	 0.275507609981835 
1511	 0.275717901745468 
1512	 0.275926314584141 
1513	 0.276149828641459 
1514	 0.276369028156258 
1515	 0.276591895367939 
1516	 0.276823672784625 
1517	 0.27702924888893 
1518	 0.277221255570502 
1519	 0.277411558804793 
1520	 0.277583924149112 
1521	 0.27776309511643 
1522	 0.277945536135979 
1523	 0.278120346826926 
1524	 0.278289786971495 
1525	 0.278459887015331 
1526	 0.278620067403857 
1527	 0.278793566988829 
1528	 0.278974044998531 
1529	 0.279145996980446 
1530	 0.279324888692302 
1531	 0.27950028587545 
1532	 0.279662713949115 
1533	 0.279841639978311 
1534	 0.280047576244278 
1535	 0.280211810782662 
1536	 0.280361586167184 
1537	 0.280505111834565 
1538	 0.280611928964398 
1539	 0.280739985415867 
1540	 0.280886645677651 
1541	 0.281016741643524 
1542	 0.281132800818121 
1543	 0.281258432869413 
1544	 0.28138746034418 
1545	 0.281507006380952 
1546	 0.281626727465955 
1547	 0.28175022840893 
1548	 0.281849402853546 
1549	 0.281953452642482 
1550	 0.282081968119357 
1551	 0.282202386082321 
1552	 0.282311122752352 
1553	 0.282424508864963 
1554	 0.282526376063672 
1555	 0.282618801830628 
1556	 0.282729159530615 
1557	 0.282851780817355 
1558	 0.282973502728708 
1559	 0.283080716968562 
1560	 0.283188664249986 
1561	 0.283294610493491 
1562	 0.283396063361312 
1563	 0.283488966990153 
1564	 0.283593014110633 
1565	 0.283703294475447 
1566	 0.283795577945055 
1567	 0.283883417117087 
1568	 0.283979834448153 
1569	 0.284064883579977 
1570	 0.28415799350152 
1571	 0.284271323243034 
1572	 0.284362097030709 
1573	 0.284439837550117 
1574	 0.284519219376292 
1575	 0.284594880127809 
1576	 0.284661900841929 
1577	 0.284727245027819 
1578	 0.284783362871268 
1579	 0.28481984689483 
1580	 0.284870740328752 
1581	 0.284923423702728 
1582	 0.284973223291012 
1583	 0.285032084295121 
1584	 0.285084999295364 
1585	 0.285126749043984 
1586	 0.285176949613404 
1587	 0.28522493358772 
1588	 0.285282464403314 
1589	 0.285365260240815 
1590	 0.285417816318608 
1591	 0.285454303554201 
1592	 0.285499740167404 
1593	 0.285524744320575 
1594	 0.285562271289695 
1595	 0.285610405554889 
1596	 0.28566790491746 
1597	 0.285736741880829 
1598	 0.285797262798042 
1599	 0.28587319136633 
1600	 0.285933031582613 
1601	 0.285969959452707 
1602	 0.28601650205264 
1603	 0.286071073202329 
1604	 0.286112482405496 
1605	 0.286138497120421 
1606	 0.286181038053213 
1607	 0.286230724043176 
1608	 0.286265726643318 
1609	 0.286316681491322 
1610	 0.286373539750683 
1611	 0.286404415958235 
1612	 0.286422436662609 
1613	 0.286428846528001 
1614	 0.286436985312109 
1615	 0.286463252393804 
1616	 0.286487297377527 
1617	 0.286530393179913 
1618	 0.286571965088363 
1619	 0.286587932794743 
1620	 0.286618455431894 
1621	 0.286640560670251 
1622	 0.286655250963657 
1623	 0.286679825557413 
1624	 0.286707851399676 
1625	 0.286732863371609 
1626	 0.286762014128549 
1627	 0.28678766419861 
1628	 0.286811701670354 
1629	 0.286831868937724 
1630	 0.286853678876857 
1631	 0.286862822834972 
1632	 0.286859777026839 
1633	 0.286865241558285 
1634	 0.286861550211465 
1635	 0.286877472220421 
1636	 0.286905625746959 
1637	 0.286931485263647 
1638	 0.286970051390255 
1639	 0.286994305106958 
1640	 0.287007887410214 
1641	 0.287037750986155 
1642	 0.287070738501255 
1643	 0.287101399663152 
1644	 0.287140021102306 
1645	 0.2871776323311 
1646	 0.287214341909256 
1647	 0.287243604107114 
1648	 0.28728781269977 
1649	 0.28729497917762 
1650	 0.28726654108181 
1651	 0.287262201519498 
1652	 0.287246506561848 
1653	 0.287244234196209 
1654	 0.287272616179596 
1655	 0.287260793213932 
1656	 0.287222226022478 
1657	 0.287204484766392 
1658	 0.287177434531282 
1659	 0.287156054786788 
1660	 0.287149869206677 
1661	 0.287138389336769 
1662	 0.287115770745594 
1663	 0.287104101675171 
1664	 0.287110592042069 
1665	 0.287097847990642 
1666	 0.287067471697269 
1667	 0.287059918715378 
1668	 0.287061998318959 
1669	 0.287051738362072 
1670	 0.287054652232565 
1671	 0.287040840706687 
1672	 0.28700246986335 
1673	 0.28697801521337 
1674	 0.286953896258816 
1675	 0.286938231819425 
1676	 0.286923313900879 
1677	 0.286919133500325 
1678	 0.286928706035529 
1679	 0.286935109060318 
1680	 0.286954579498185 
1681	 0.286953712632766 
1682	 0.286941740136885 
1683	 0.286933919328176 
1684	 0.286922374195304 
1685	 0.286901276847984 
1686	 0.286872042846647 
1687	 0.286854921172854 
1688	 0.28683147013429 
1689	 0.286811879577081 
1690	 0.286811037411131 
1691	 0.286794522391997 
1692	 0.286769242775959 
1693	 0.286738522221803 
1694	 0.286694752100457 
1695	 0.286667557139055 
1696	 0.286642049995531 
1697	 0.286614914360764 
1698	 0.286602754770743 
1699	 0.286578566218518 
1700	 0.286537677340419 
1701	 0.286510240692082 
1702	 0.286496774744247 
1703	 0.286461652799525 
1704	 0.286424022241087 
1705	 0.286377392880542 
1706	 0.286302540775434 
1707	 0.28626060660228 
1708	 0.286242607444214 
1709	 0.286191647909019 
1710	 0.286130736109636 
1711	 0.286081742772108 
1712	 0.286013414882344 
1713	 0.28596486117289 
1714	 0.28594623694025 
1715	 0.285912264103431 
1716	 0.285865087377868 
1717	 0.285831156609711 
1718	 0.28581507051768 
1719	 0.285772405527619 
1720	 0.285725249437847 
1721	 0.285671643951494 
1722	 0.285597774578957 
1723	 0.285532689132983 
1724	 0.285469190938658 
1725	 0.285397321887242 
1726	 0.285313180286567 
1727	 0.285249248253969 
1728	 0.285199626760638 
1729	 0.285133009832746 
1730	 0.285079975553165 
1731	 0.284993678605518 
1732	 0.284876065788018 
1733	 0.284766639400648 
1734	 0.284638743950612 
1735	 0.284536717918905 
1736	 0.284446732918744 
1737	 0.284346141004615 
1738	 0.284259954278925 
1739	 0.284153571399904 
1740	 0.284033944472455 
1741	 0.28391455771582 
1742	 0.283781714793377 
1743	 0.283662667567399 
1744	 0.283536922023514 
1745	 0.283427791866799 
1746	 0.283336611136374 
1747	 0.283255888643772 
1748	 0.28317797834489 
1749	 0.283072725666556 
1750	 0.28295843486786 
1751	 0.282833529187954 
1752	 0.282685307022639 
1753	 0.28254868297968 
1754	 0.282431249901557 
1755	 0.282339484390114 
1756	 0.282238903981912 
1757	 0.282133851969475 
1758	 0.282046727339805 
1759	 0.281943266296466 
1760	 0.28183876780669 
1761	 0.281734349860571 
1762	 0.281613514154849 
1763	 0.281472897382535 
1764	 0.281343512403545 
1765	 0.281256072489028 
1766	 0.281175218075862 
1767	 0.281090777471624 
1768	 0.281005308083022 
1769	 0.280923008785609 
1770	 0.280824917675061 
1771	 0.280727365698591 
1772	 0.280638677503596 
1773	 0.280517463971911 
1774	 0.280405615202078 
1775	 0.280310684993569 
1776	 0.28021614411015 
1777	 0.280149211558116 
1778	 0.280093276781487 
1779	 0.280055087392901 
1780	 0.28001549783109 
1781	 0.279960863083899 
1782	 0.279937763814308 
1783	 0.279868544201104 
1784	 0.279813626456968 
1785	 0.279763418716753 
1786	 0.279704669221046 
1787	 0.279642056055716 
1788	 0.279606963364543 
1789	 0.279587695645433 
1790	 0.279566450434252 
1791	 0.279549570988056 
1792	 0.279538859521428 
1793	 0.27954394618787 
1794	 0.279523161652691 
1795	 0.279521418648881 
1796	 0.279480498279249 
1797	 0.279372288077058 
1798	 0.279313467033727 
1799	 0.279250180891699 
1800	 0.279210475233597 
1801	 0.279306081751322 
1802	 0.279426355685742 
1803	 0.27951080541882 
1804	 0.279606779904441 
1805	 0.279714493698268 
1806	 0.279800293124303 
1807	 0.279910958100998 
1808	 0.280005728367866 
1809	 0.280118676285228 
1810	 0.2801792187163 
1811	 0.280229113289919 
1812	 0.280231138643181 
1813	 0.280213292563865 
1814	 0.280192978998923 
1815	 0.280181186039135 
1816	 0.28018875121979 
1817	 0.280188898403029 
1818	 0.280193583266504 
1819	 0.280183148441928 
1820	 0.28016244459145 
1821	 0.280155665235697 
1822	 0.280131961973347 
1823	 0.280105433330753 
1824	 0.2800909984113 
1825	 0.280029671451821 
1826	 0.279967863439879 
1827	 0.279898964514186 
1828	 0.27983250900078 
1829	 0.279767420123548 
1830	 0.279699137516049 
1831	 0.279627685758797 
1832	 0.279562316641768 
1833	 0.279486064674271 
1834	 0.279380848267285 
1835	 0.279295240643378 
1836	 0.279195756473608 
1837	 0.279081750326513 
1838	 0.278991176442648 
1839	 0.278897121452654 
1840	 0.278810040522476 
1841	 0.278704509392264 
1842	 0.27859074987483 
1843	 0.278484078342098 
1844	 0.278378070228319 
1845	 0.278227995785752 
1846	 0.278049373368036 
1847	 0.277883702368073 
1848	 0.277693551101551 
1849	 0.277510303360038 
1850	 0.277324032721572 
1851	 0.277170252352453 
1852	 0.276955515429869 
1853	 0.276706465326517 
1854	 0.276471220757615 
1855	 0.27623828827959 
1856	 0.275977829215178 
1857	 0.275701730143412 
1858	 0.275391938766433 
1859	 0.274983443695341 
1860	 0.274532847505106 
1861	 0.274034150459642 
1862	 0.273489197556382 
1863	 0.272868655572441 
1864	 0.272249184242966 
1865	 0.271607575369296 
1866	 0.270886936604798 
1867	 0.270130399796878 
1868	 0.269342175463616 
1869	 0.268479239229579 
1870	 0.267569072185008 
1871	 0.266594771641331 
1872	 0.265574712100677 
1873	 0.264489645618051 
1874	 0.263322074481495 
1875	 0.262053973772973 
1876	 0.260718414098372 
1877	 0.259274966655617 
1878	 0.257711407537754 
1879	 0.256072965687245 
1880	 0.254320252077313 
1881	 0.252434093539841 
1882	 0.250475638753284 
1883	 0.24842796102731 
1884	 0.24625543727675 
1885	 0.24403891394061 
1886	 0.241746819068603 
1887	 0.239307295526925 
1888	 0.236835870369738 
1889	 0.234269318505687 
1890	 0.231635631264706 
1891	 0.229049363413449 
1892	 0.226429045109506 
1893	 0.223848916936435 
1894	 0.221277086805985 
1895	 0.21875882689633 
1896	 0.21623140948452 
1897	 0.213797891235102 
1898	 0.211413416625673 
1899	 0.209095556094467 
1900	 0.206894069776282 
1901	 0.204797469574945 
1902	 0.202829957911315 
1903	 0.201005490863551 
1904	 0.199266291501887 
1905	 0.197632987149853 
1906	 0.196128114124502 
1907	 0.194702099639736 
1908	 0.193372606622768 
1909	 0.192161809794017 
1910	 0.191038570099325 
1911	 0.190014354629641 
1912	 0.189058789372551 
1913	 0.18816817594715 
1914	 0.187357588480929 
1915	 0.186596878367338 
1916	 0.185891283037793 
1917	 0.185260463535754 
1918	 0.1846826015683 
1919	 0.18415897546295 
1920	 0.183721873510338 
1921	 0.183329317323753 
1922	 0.182987409949908 
1923	 0.182705810646554 
1924	 0.182448276732277 
1925	 0.182209890984507 
1926	 0.182038100587492 
1927	 0.181925993942071 
1928	 0.181835640835755 
1929	 0.181777939630369 
1930	 0.181762346075084 
1931	 0.181770182594209 
1932	 0.18181072028278 
1933	 0.181893227618813 
1934	 0.182016513754596 
1935	 0.182165071374553 
1936	 0.182342189367255 
1937	 0.182544770366296 
1938	 0.182786721844623 
1939	 0.183044826840439 
1940	 0.183321376916665 
1941	 0.183626258106803 
1942	 0.183963627322828 
1943	 0.184303959275323 
1944	 0.184672368787845 
1945	 0.185083144161417 
1946	 0.185495515614488 
1947	 0.185924359218255 
1948	 0.186366512227313 
1949	 0.186826749178744 
1950	 0.18728963008332 
1951	 0.187757139321386 
1952	 0.188254952238481 
1953	 0.18875521943581 
1954	 0.189255826191213 
1955	 0.189766533292109 
1956	 0.190294462356944 
1957	 0.19083385690166 
1958	 0.191381967524904 
1959	 0.191945514318147 
1960	 0.192529448895829 
1961	 0.193115112868485 
1962	 0.193721595080139 
1963	 0.194319498148069 
1964	 0.194919560364931 
1965	 0.195521216593321 
1966	 0.196122416350232 
1967	 0.196713947355069 
1968	 0.197322501936731 
1969	 0.197938349020724 
1970	 0.198559941631136 
1971	 0.199203418164948 
1972	 0.199830287459645 
1973	 0.200449705870486 
1974	 0.201074573768805 
1975	 0.201706726782994 
1976	 0.202314804920827 
1977	 0.202936306370267 
1978	 0.203558555162028 
1979	 0.204155773532332 
1980	 0.204759929145505 
1981	 0.205375841160816 
1982	 0.205994459560182 
1983	 0.206620823436627 
1984	 0.2072679606287 
1985	 0.207901810442532 
1986	 0.20853263444142 
1987	 0.209159059283433 
1988	 0.209778404116673 
1989	 0.210402356812333 
1990	 0.211037808255624 
1991	 0.211675218155284 
1992	 0.212300503134405 
1993	 0.212934968741606 
1994	 0.213551035126765 
1995	 0.214150627837538 
1996	 0.214746255113847 
1997	 0.215330311205628 
1998	 0.215920612595232 
1999	 0.216496575437738 
2000	 0.217084694233995 
2001	 0.217684563413698 
2002	 0.218283584060465 
2003	 0.218890767244918 
2004	 0.21949394187663 
2005	 0.220075122983699 
2006	 0.220646182786189 
2007	 0.221212959768587 
2008	 0.221744067632023 
2009	 0.222310535977901 
2010	 0.222912260126154 
2011	 0.223475653645951 
2012	 0.224041314835117 
2013	 0.224588456528102 
2014	 0.225097669184133 
2015	 0.225614053019576 
2016	 0.226126545756154 
2017	 0.226648691830945 
2018	 0.227178731653371 
2019	 0.227720370543802 
2020	 0.228247910417613 
2021	 0.228784386697652 
2022	 0.229306725670748 
2023	 0.229820703214004 
2024	 0.230324569079777 
2025	 0.230815474134152 
2026	 0.231307809910789 
2027	 0.231801497859291 
2028	 0.232271764040298 
2029	 0.232741866963352 
2030	 0.233215415358652 
2031	 0.23367208671013 
2032	 0.234102965762331 
2033	 0.234555347175173 
2034	 0.235006005294299 
2035	 0.235463837012281 
2036	 0.235949080791026 
2037	 0.236401041281726 
2038	 0.236838264726192 
2039	 0.23727493954706 
2040	 0.237698397274712 
2041	 0.238111180402229 
2042	 0.238527291012872 
2043	 0.238942668059288 
2044	 0.239354321713987 
2045	 0.239762017622677 
2046	 0.240159337421204 
2047	 0.240562650953596 
2048	 0.240942657822648 
2049	 0.241289323124074 
2050	 0.241656012277322 
2051	 0.242023594853433 
2052	 0.242383086376329 
2053	 0.24274775492071 
2054	 0.243110692082425 
2055	 0.243472937936492 
2056	 0.243817835945258 
2057	 0.244160046718284 
2058	 0.244501761712619 
2059	 0.244837080359802 
2060	 0.24515041070461 
2061	 0.245484673141635 
2062	 0.245828220566959 
2063	 0.246169362485106 
2064	 0.246519770126356 
2065	 0.246863329447393 
2066	 0.247207673267628 
2067	 0.247545323058639 
2068	 0.247878459126785 
2069	 0.248203867867648 
2070	 0.248537949112473 
2071	 0.248874739686514 
2072	 0.249200136785765 
2073	 0.249536576212042 
2074	 0.24984215212128 
2075	 0.250120167724939 
2076	 0.2504076402224 
2077	 0.250676586054064 
2078	 0.250960144906414 
2079	 0.251240865514405 
2080	 0.251540974252664 
2081	 0.251867810572502 
2082	 0.252173879307044 
2083	 0.252494532000175 
2084	 0.252797274233548 
2085	 0.253078915635001 
2086	 0.253322649650088 
2087	 0.2536056180523 
2088	 0.253892867691577 
2089	 0.254175608098731 
2090	 0.254482550457253 
2091	 0.2547608305593 
2092	 0.255010942470994 
2093	 0.25527601757146 
2094	 0.255540170286943 
2095	 0.255803445138612 
2096	 0.256077662727515 
2097	 0.256337619149887 
2098	 0.256577088081239 
2099	 0.256830381455553 
2100	 0.257089611766596 
2101	 0.257351785372808 
2102	 0.257603446566322 
2103	 0.257863682502415 
2104	 0.258115453900432 
2105	 0.258340555835821 
2106	 0.258594804481234 
2107	 0.258862821099358 
2108	 0.259134857881111 
2109	 0.259422810841219 
2110	 0.259705788188109 
2111	 0.260008391506198 
2112	 0.260284024274094 
2113	 0.260546949659488 
2114	 0.260801174723803 
2115	 0.261052127284334 
2116	 0.261281512637248 
2117	 0.26152875788311 
2118	 0.261782018546877 
2119	 0.262035800795278 
2120	 0.262295253901614 
2121	 0.262547112468851 
2122	 0.262789637837954 
2123	 0.26304621393902 
2124	 0.263316568929162 
2125	 0.263569462839945 
2126	 0.263853390600688 
2127	 0.264084247545907 
2128	 0.264270091241746 
2129	 0.264452029161195 
2130	 0.264608873822004 
2131	 0.264748168403154 
2132	 0.264882214609093 
2133	 0.265010375187161 
2134	 0.265127390384162 
2135	 0.265232231950993 
2136	 0.265320990786329 
2137	 0.265406921986446 
2138	 0.265465697109737 
2139	 0.265493254987528 
2140	 0.265522666425078 
2141	 0.265530508713241 
2142	 0.26554363825409 
2143	 0.265542747874526 
2144	 0.265559292932892 
2145	 0.265607268379125 
2146	 0.265619638110758 
2147	 0.265628901562421 
2148	 0.265619221812654 
2149	 0.265602209761071 
2150	 0.265553103978457 
2151	 0.265513202195706 
2152	 0.265491737213972 
2153	 0.26542212940268 
2154	 0.265314524617379 
2155	 0.265222566187785 
2156	 0.265110913992608 
2157	 0.265002333001871 
2158	 0.264914497574385 
2159	 0.264793952320608 
2160	 0.264655590508341 
2161	 0.264503954250848 
2162	 0.264309751594067 
2163	 0.264141689075569 
2164	 0.263969828786925 
2165	 0.263808565885845 
2166	 0.263654355786808 
2167	 0.263522967163585 
2168	 0.263377613839067 
2169	 0.263234743858317 
2170	 0.263077735019526 
2171	 0.262921882580881 
2172	 0.262749445493044 
2173	 0.262551387868051 
2174	 0.262367465208308 
2175	 0.262181228084139 
2176	 0.261996844788486 
2177	 0.261812337544422 
2178	 0.261634266255805 
2179	 0.261448093534875 
2180	 0.261279646991643 
2181	 0.261143742755715 
2182	 0.260984907889457 
2183	 0.26082559340405 
2184	 0.260663705478503 
2185	 0.260484320265551 
2186	 0.260265389199151 
2187	 0.26009979281622 
2188	 0.259952930060305 
2189	 0.259796393860013 
2190	 0.259664134169155 
2191	 0.25951690888815 
2192	 0.259340187974022 
2193	 0.259198800255455 
2194	 0.259076376014048 
2195	 0.25895844739997 
2196	 0.25886756580102 
2197	 0.258758847332233 
2198	 0.258634364398823 
2199	 0.258531518487076 
2200	 0.25843386685926 
2201	 0.258338226808532 
2202	 0.258259543865235 
2203	 0.258185312701403 
2204	 0.258106247478222 
2205	 0.258018961334146 
2206	 0.257947405139922 
2207	 0.257867174635193 
2208	 0.257833244814768 
2209	 0.257817529239199 
2210	 0.257823743499387 
2211	 0.257892003880658 
2212	 0.257916410848461 
2213	 0.257928024845816 
2214	 0.257951753177858 
2215	 0.257971182372537 
2216	 0.257988091736812 
2217	 0.258017954223862 
2218	 0.258038862292156 
2219	 0.258057987749609 
2220	 0.258059323411874 
2221	 0.2580434307349 
2222	 0.258040637592526 
2223	 0.25802640243688 
2224	 0.257970562493887 
2225	 0.257947141330138 
2226	 0.257938612934499 
2227	 0.257908182611925 
2228	 0.257877112343268 
2229	 0.25784304115472 
2230	 0.257789120414219 
2231	 0.25774706245251 
2232	 0.25772644041315 
2233	 0.257668121544701 
2234	 0.257589017392333 
2235	 0.257518904651601 
2236	 0.257428170180381 
2237	 0.257346699058878 
2238	 0.257269168100703 
2239	 0.257199011014642 
2240	 0.257135626273629 
2241	 0.257063743053181 
2242	 0.25702229813807 
2243	 0.256938002840873 
2244	 0.256814937207829 
2245	 0.256691716902477 
2246	 0.256561021783971 
2247	 0.256427908741358 
2248	 0.256342741499655 
2249	 0.256312940599311 
2250	 0.256211065386778 
2251	 0.256098974798455 
2252	 0.256002377316317 
2253	 0.255865820052149 
2254	 0.255765856164373 
2255	 0.255713872457018 
2256	 0.255629936520067 
2257	 0.255536905473733 
2258	 0.255437057150852 
2259	 0.255321503272586 
2260	 0.25522249201033 
2261	 0.255096854609936 
2262	 0.255017383851506 
2263	 0.254977807309291 
2264	 0.25494265513206 
2265	 0.254938181730551 
2266	 0.254927280661376 
2267	 0.254938055693745 
2268	 0.254921275195842 
2269	 0.254894188186647 
2270	 0.25486848259686 
2271	 0.254790695315683 
2272	 0.254706490274524 
2273	 0.254637196353376 
2274	 0.254571075163171 
2275	 0.254540364080846 
2276	 0.254554818414775 
2277	 0.254534466998987 
2278	 0.254531537227755 
2279	 0.254493661115185 
2280	 0.254431005414882 
2281	 0.254363069624521 
2282	 0.25427065191105 
2283	 0.254191975465181 
2284	 0.254101366194103 
2285	 0.254035510354003 
2286	 0.253986745081237 
2287	 0.253930891605258 
2288	 0.253888753775747 
2289	 0.253830119682033 
2290	 0.253739330146117 
2291	 0.253699893766306 
2292	 0.253694911969429 
2293	 0.253670694442716 
2294	 0.253692943986547 
2295	 0.253665766754518 
2296	 0.253586275425649 
2297	 0.253516899793455 
2298	 0.253461079294437 
2299	 0.253381823539478 
2300	 0.253332878591704 
2301	 0.253277845409766 
2302	 0.253188277856365 
2303	 0.253116821301964 
2304	 0.253060981162865 
2305	 0.252985370805931 
2306	 0.252900390257904 
2307	 0.25281466962641 
2308	 0.252717438064036 
2309	 0.2526023344356 
2310	 0.252492412543658 
2311	 0.252390072594407 
2312	 0.252270130034598 
2313	 0.25212744081943 
2314	 0.251990220379503 
2315	 0.251817920225587 
2316	 0.251719412921509 
2317	 0.251678489495665 
2318	 0.251598817329191 
2319	 0.251540555671898 
2320	 0.251477514407209 
2321	 0.251391635833449 
2322	 0.251308586012212 
2323	 0.251271126861456 
2324	 0.251177414041766 
2325	 0.251004115966998 
2326	 0.25087908066498 
2327	 0.250770998082829 
2328	 0.250640981006981 
2329	 0.250475614085178 
2330	 0.250398036536729 
2331	 0.250303779339216 
2332	 0.250199510946386 
2333	 0.250101472797677 
2334	 0.249966136571245 
2335	 0.249858280883622 
2336	 0.249717504367705 
2337	 0.249564211337215 
2338	 0.249464900624054 
2339	 0.249321149869155 
2340	 0.249165530428061 
2341	 0.249045438575564 
2342	 0.248894256003794 
2343	 0.248686114806078 
2344	 0.248463812196456 
2345	 0.248275166875492 
2346	 0.248131735369683 
2347	 0.247896018692624 
2348	 0.247639958663472 
2349	 0.247379804012192 
2350	 0.247042015591361 
2351	 0.246781017330358 
2352	 0.246541596747324 
2353	 0.246315576565243 
2354	 0.246118072129031 
2355	 0.245897679035885 
2356	 0.245721459606275 
2357	 0.245512491395101 
2358	 0.245274405172255 
2359	 0.245037055061416 
2360	 0.244777820383335 
2361	 0.244503460453852 
2362	 0.244207790542473 
2363	 0.243935446655003 
2364	 0.243681962488082 
2365	 0.243408118139637 
2366	 0.243155556373771 
2367	 0.242853493046438 
2368	 0.242469779056575 
2369	 0.242152158551263 
2370	 0.241860128351579 
2371	 0.241533001402282 
2372	 0.241238360858681 
2373	 0.240943052609647 
2374	 0.240625039885417 
2375	 0.240335213448016 
2376	 0.23999170020007 
2377	 0.23970216322311 
2378	 0.239451490501204 
2379	 0.239043030496331 
2380	 0.238683167780099 
2381	 0.238402261067474 
2382	 0.238003342985398 
2383	 0.237622394998374 
2384	 0.237290471687751 
2385	 0.236912679416475 
2386	 0.236581263025631 
2387	 0.236320441447629 
2388	 0.236066258851488 
2389	 0.235759951404301 
2390	 0.235358663177088 
2391	 0.234992362481134 
2392	 0.234689386153399 
2393	 0.234352686091355 
2394	 0.23407506635338 
2395	 0.233810332685954 
2396	 0.23345907875133 
2397	 0.233071406249467 
2398	 0.232679263155902 
2399	 0.232273324499266 
2400	 0.231898028659368 
2401	 0.231528076860546 
2402	 0.231099487639943 
2403	 0.230717227187763 
2404	 0.230319401191861 
2405	 0.229952738049249 
2406	 0.229649117494161 
2407	 0.229321457362798 
2408	 0.229019074585903 
2409	 0.228610198295836 
2410	 0.228191737429509 
2411	 0.227869055983385 
2412	 0.227491793984033 
2413	 0.227116146325262 
2414	 0.226778253895589 
2415	 0.226344194295453 
2416	 0.225898431234468 
2417	 0.225424342236951 
2418	 0.224967135887712 
2419	 0.224451675581308 
2420	 0.223988655257084 
2421	 0.223521528774321 
2422	 0.223142472128605 
2423	 0.222882210103445 
2424	 0.222536024360278 
2425	 0.222204337879237 
2426	 0.221810999828761 
2427	 0.221331796348463 
2428	 0.220866039681433 
2429	 0.220424451124877 
2430	 0.220012650204708 
2431	 0.219517760823823 
2432	 0.219124504689089 
2433	 0.218846176014619 
2434	 0.218492017942255 
2435	 0.218160891238779 
2436	 0.217814024992493 
2437	 0.21746122141384 
2438	 0.217029074452723 
2439	 0.216509929544365 
2440	 0.216075333112085 
2441	 0.215641353061797 
2442	 0.215213168423611 
2443	 0.214874558599231 
2444	 0.214478059948401 
2445	 0.213995538635788 
2446	 0.213543638722428 
2447	 0.21312727573229 
2448	 0.212633350293437 
2449	 0.212051626161196 
2450	 0.211646114217945 
2451	 0.211280687560215 
2452	 0.210890331724199 
2453	 0.21066583503098 
2454	 0.210270297000915 
2455	 0.209763010196397 
2456	 0.209255007394473 
2457	 0.208646844360318 
2458	 0.208151377664126 
2459	 0.207658261530604 
2460	 0.207190802384678 
2461	 0.206836690867381 
2462	 0.206421087109123 
2463	 0.205952232932938 
2464	 0.205512001324804 
2465	 0.20508337399285 
2466	 0.2047060297863 
2467	 0.204420400312698 
2468	 0.204014089018163 
2469	 0.203505193344415 
2470	 0.203036686593818 
2471	 0.202537825184334 
2472	 0.202050154353303 
2473	 0.20175626229503 
2474	 0.201565185692751 
2475	 0.201406625424538 
2476	 0.20110457713014 
2477	 0.20072737387027 
2478	 0.200367286511806 
2479	 0.199832788451268 
2480	 0.199307464770152 
2481	 0.198931194329889 
2482	 0.198372224271029 
2483	 0.19788840661818 
2484	 0.197696326662776 
2485	 0.197393519370672 
2486	 0.197191358206463 
2487	 0.197062168544269 
2488	 0.196535056114606 
2489	 0.196111677682404 
2490	 0.195882768399344 
2491	 0.195437136674814 
2492	 0.195203322096003 
2493	 0.194971312885156 
2494	 0.194489307678798 
2495	 0.194194275049535 
2496	 0.194010091549758 
2497	 0.193795758402792 
2498	 0.193510397140053 
2499	 0.193205561604971 
2500	 0.192809013703834 
