Wavelength	MM1000015.asd
350	 4.30767007077702E-02 
351	 0.050279937899898 
352	 4.80565285867147E-02 
353	 3.63311034752951E-02 
354	 3.83890569176088E-02 
355	 4.18793023091814E-02 
356	 0.04220392234111 
357	 4.06857491837276E-02 
358	 5.48393182174012E-02 
359	 5.39585977166636E-02 
360	 4.31779282458199E-02 
361	 4.83880986457712E-02 
362	 4.37974897766084E-02 
363	 4.28501905243245E-02 
364	 4.91683951764588E-02 
365	 4.35984710353328E-02 
366	 4.16767287053004E-02 
367	 4.34805192936168E-02 
368	 4.51487721739197E-02 
369	 4.47474074904658E-02 
370	 4.46850643930723E-02 
371	 4.49241935425272E-02 
372	 4.40551299324225E-02 
373	 4.65922995973998E-02 
374	 4.80523186258678E-02 
375	 4.70923938491853E-02 
376	 4.99871495418346E-02 
377	 4.73239276747215E-02 
378	 4.50153956118602E-02 
379	 4.97193942040186E-02 
380	 5.15627286007711E-02 
381	 4.92955816693496E-02 
382	 4.61863081641196E-02 
383	 4.79025804386372E-02 
384	 4.78586512983272E-02 
385	 4.73617362495425E-02 
386	 4.81993112784971E-02 
387	 5.11383528050201E-02 
388	 5.20337038352786E-02 
389	 5.17539793129339E-02 
390	 5.21014527007843E-02 
391	 5.03684992846117E-02 
392	 5.05822038506048E-02 
393	 0.053198439233636 
394	 5.54004547544659E-02 
395	 5.49933030464215E-02 
396	 5.42431206140767E-02 
397	 5.44964009645165E-02 
398	 5.31673731318558E-02 
399	 5.36326804865076E-02 
400	 5.53855775528721E-02 
401	 5.64683946322091E-02 
402	 0.055721478121488 
403	 5.51133086854982E-02 
404	 5.56471859739317E-02 
405	 5.70654841993112E-02 
406	 5.65007347502011E-02 
407	 5.57513420812106E-02 
408	 5.61290969314743E-02 
409	 5.50820102519484E-02 
410	 5.49030708275449E-02 
411	 5.58494543250838E-02 
412	 0.056994523380276 
413	 5.65997451236747E-02 
414	 0.055913662402664 
415	 5.58138055509521E-02 
416	 5.63418568939421E-02 
417	 0.056964974831989 
418	 5.77060006500259E-02 
419	 5.84668231533594E-02 
420	 5.82162969397989E-02 
421	 5.77352559848033E-02 
422	 5.77279473692732E-02 
423	 5.85749604117129E-02 
424	 5.79664910187913E-02 
425	 0.057570398928153 
426	 5.81504392962228E-02 
427	 5.79654411115192E-02 
428	 5.73480655845432E-02 
429	 5.69709973857497E-02 
430	 5.73625783863589E-02 
431	 0.057702253294311 
432	 5.74622914930371E-02 
433	 0.056909238010859 
434	 5.69904091411306E-02 
435	 0.057292571745752 
436	 0.057470885852775 
437	 5.73294965769349E-02 
438	 5.69590885732222E-02 
439	 5.68721016167149E-02 
440	 5.69259545698171E-02 
441	 5.67240012805222E-02 
442	 0.056761026136949 
443	 5.71158809155222E-02 
444	 5.74306240267068E-02 
445	 5.67154441434742E-02 
446	 5.69865968108728E-02 
447	 0.057366178024097 
448	 5.67601560404267E-02 
449	 5.68993336203432E-02 
450	 5.73604408381195E-02 
451	 5.77522897591452E-02 
452	 5.77994443574888E-02 
453	 0.057788891436995 
454	 5.75838726201723E-02 
455	 5.72384638782918E-02 
456	 5.74998240850626E-02 
457	 0.057473186940784 
458	 0.057212146368931 
459	 5.71781297294054E-02 
460	 5.73593410311269E-02 
461	 5.74207372679204E-02 
462	 5.72534350602168E-02 
463	 5.70910692524773E-02 
464	 5.73085915560538E-02 
465	 5.75717732719307E-02 
466	 5.74895173899968E-02 
467	 5.73077113076668E-02 
468	 5.72538175097025E-02 
469	 5.73173192261972E-02 
470	 5.73017771132351E-02 
471	 5.72854479259103E-02 
472	 0.057328151727968 
473	 5.74091036528179E-02 
474	 5.73044532889924E-02 
475	 5.73265162491959E-02 
476	 5.73636492087196E-02 
477	 5.71852336710258E-02 
478	 5.71619128851941E-02 
479	 0.057125939213496 
480	 5.70363979042024E-02 
481	 5.70890785566555E-02 
482	 5.72590403407477E-02 
483	 5.73303023099484E-02 
484	 5.71693133362643E-02 
485	 5.71990233858419E-02 
486	 5.71193043374068E-02 
487	 5.69969456560117E-02 
488	 5.71805345615567E-02 
489	 5.72403795197414E-02 
490	 5.71054528285515E-02 
491	 5.68920553713224E-02 
492	 5.70311400521539E-02 
493	 5.69739274755586E-02 
494	 0.056804090785257 
495	 5.68715386113509E-02 
496	 5.70845313296502E-02 
497	 5.72613034380052E-02 
498	 5.73318140261196E-02 
499	 5.74093568911106E-02 
500	 0.057272121840091 
501	 5.70790969610351E-02 
502	 5.70402999911905E-02 
503	 5.70597274064306E-02 
504	 5.70897742976103E-02 
505	 5.70906581415211E-02 
506	 0.057040287024851 
507	 5.71896688563454E-02 
508	 5.73581913305988E-02 
509	 5.73539891519907E-02 
510	 5.71723139871825E-02 
511	 5.69666911591006E-02 
512	 5.68981352607584E-02 
513	 0.057075929859656 
514	 5.71844719670531E-02 
515	 5.72342803132509E-02 
516	 5.72560090712449E-02 
517	 5.72403020302869E-02 
518	 5.72009183829327E-02 
519	 0.057171987706592 
520	 5.71938269539296E-02 
521	 5.73214845004022E-02 
522	 5.73662340831425E-02 
523	 5.73008893083397E-02 
524	 0.057277829059723 
525	 5.73040857338502E-02 
526	 5.73490184685967E-02 
527	 5.73825056539768E-02 
528	 5.74250296195113E-02 
529	 5.73971995059472E-02 
530	 5.73793424329469E-02 
531	 5.75283556909002E-02 
532	 0.057572202986576 
533	 5.76405725584305E-02 
534	 5.77823301827124E-02 
535	 0.057747019498464 
536	 5.77277855908665E-02 
537	 0.057800817748415 
538	 5.79656881887856E-02 
539	 5.80469283393933E-02 
540	 5.80550202564742E-02 
541	 5.80582018185802E-02 
542	 5.81777493494409E-02 
543	 5.82676255987463E-02 
544	 5.83636461632152E-02 
545	 5.85091650282988E-02 
546	 0.058575383174431 
547	 5.85973793391147E-02 
548	 5.86574377349904E-02 
549	 5.88566708177885E-02 
550	 5.89299173063593E-02 
551	 5.89962438287568E-02 
552	 5.91602763809633E-02 
553	 0.059300963582984 
554	 5.94342865158093E-02 
555	 5.95693594763825E-02 
556	 5.97217947120732E-02 
557	 5.99678620248908E-02 
558	 6.02510285953723E-02 
559	 6.05319002787466E-02 
560	 6.08305652366147E-02 
561	 6.11059910793106E-02 
562	 6.13788415242572E-02 
563	 6.16779393034344E-02 
564	 6.19532959333286E-02 
565	 6.21931863058988E-02 
566	 0.062436232123729 
567	 6.27716020933613E-02 
568	 0.063173335970995 
569	 6.36394634835382E-02 
570	 6.41596706416863E-02 
571	 6.46875166951143E-02 
572	 6.52515423497045E-02 
573	 6.58414770126528E-02 
574	 6.64184140811434E-02 
575	 6.69661493698637E-02 
576	 6.74955085807341E-02 
577	 6.80340224554003E-02 
578	 6.86338738700648E-02 
579	 6.92683740053444E-02 
580	 0.069949076574728 
581	 0.070699161909966 
582	 7.15070470787616E-02 
583	 0.072322469862531 
584	 0.073139666453525 
585	 0.074023189942435 
586	 7.49189851230809E-02 
587	 7.58025926353502E-02 
588	 7.66763800662545E-02 
589	 7.76155197670595E-02 
590	 7.86002933568934E-02 
591	 7.96138205852703E-02 
592	 8.06490706175267E-02 
593	 8.16873513727228E-02 
594	 8.27706229390225E-02 
595	 8.38886841785843E-02 
596	 8.48669859191006E-02 
597	 8.57766585379125E-02 
598	 8.66548698638249E-02 
599	 8.75280900859738E-02 
600	 8.84345912208251E-02 
601	 8.93163363057784E-02 
602	 9.01584102018469E-02 
603	 9.10507926163977E-02 
604	 9.19640945918448E-02 
605	 9.28412346848529E-02 
606	 9.36407756050242E-02 
607	 9.44829941682582E-02 
608	 9.53143965210922E-02 
609	 9.61126486791266E-02 
610	 9.69023331544856E-02 
611	 0.097599144668534 
612	 9.82267891885301E-02 
613	 9.88210243663404E-02 
614	 9.93617626503326E-02 
615	 9.98875647087502E-02 
616	 0.100397498593717 
617	 0.100867391614534 
618	 0.101397629646636 
619	 0.10188001778509 
620	 0.102264739987328 
621	 0.102692058684587 
622	 0.103084409816443 
623	 0.103445867795102 
624	 0.103813689431093 
625	 0.10423003067876 
626	 0.104594757510287 
627	 0.104877928213 
628	 0.105154646141624 
629	 0.105460461142666 
630	 0.105791725646581 
631	 0.106121497695563 
632	 0.106394909449337 
633	 0.106638183493942 
634	 0.106883310834468 
635	 0.107162730932846 
636	 0.10745599078575 
637	 0.107735945510445 
638	 0.107991013084091 
639	 0.108248403923613 
640	 0.108519645669194 
641	 0.108797947514011 
642	 0.109071297811064 
643	 0.109373902994752 
644	 0.109675550142036 
645	 0.109967887536304 
646	 0.110283359392947 
647	 0.110566629774949 
648	 0.110848000274448 
649	 0.111170137624074 
650	 0.111513544513503 
651	 0.111874400873512 
652	 0.112220529298208 
653	 0.112506409063418 
654	 0.112897352811483 
655	 0.113266750459053 
656	 0.113545283957393 
657	 0.113939739185981 
658	 0.114372509673287 
659	 0.114792334202366 
660	 0.115167076721744 
661	 0.115548194591272 
662	 0.115955190688161 
663	 0.116382218206614 
664	 0.116791745951867 
665	 0.117218335253214 
666	 0.117682423803401 
667	 0.118188375071557 
668	 0.118696890165293 
669	 0.119182831176815 
670	 0.119663656872978 
671	 0.120187791947897 
672	 0.12073975143593 
673	 0.121270991918788 
674	 0.121768481743373 
675	 0.122311948486891 
676	 0.122913561609684 
677	 0.123524960982333 
678	 0.124087710914675 
679	 0.124694945766332 
680	 0.125305883972514 
681	 0.125912940417807 
682	 0.1265659470452 
683	 0.127231808705377 
684	 0.127894939563969 
685	 0.128554046322943 
686	 0.129240800238294 
687	 0.129949447524056 
688	 0.130668900939932 
689	 0.13138458391405 
690	 0.132100902351019 
691	 0.132826451673179 
692	 0.133579463112688 
693	 0.134409789276173 
694	 0.135165778218503 
695	 0.135894515098595 
696	 0.136698810429152 
697	 0.137540812249284 
698	 0.138336721513063 
699	 0.139099471099779 
700	 0.139942365085863 
701	 0.140780986196664 
702	 0.141620630485701 
703	 0.142474643412714 
704	 0.143330713732975 
705	 0.144145172714812 
706	 0.14497490035684 
707	 0.145899736869651 
708	 0.146728867960952 
709	 0.147537495016747 
710	 0.148377001855794 
711	 0.149225457021528 
712	 0.150018133011665 
713	 0.150826106906244 
714	 0.15171000721837 
715	 0.152532501481723 
716	 0.153327007740437 
717	 0.154117282142444 
718	 0.154913711061757 
719	 0.155683645027918 
720	 0.156436360319481 
721	 0.157182526791906 
722	 0.157927822484629 
723	 0.158633251640897 
724	 0.159309139260951 
725	 0.159976289441939 
726	 0.16060267668685 
727	 0.161217600362922 
728	 0.16181144496416 
729	 0.162340803445371 
730	 0.162910686119749 
731	 0.163456940802762 
732	 0.163923831957118 
733	 0.164350733462457 
734	 0.164739811544037 
735	 0.165119680530975 
736	 0.165508052928994 
737	 0.165799566191696 
738	 0.166070608574745 
739	 0.16633907549472 
740	 0.166545232610822 
741	 0.166700557178213 
742	 0.166836744437006 
743	 0.166966368965944 
744	 0.167036800673663 
745	 0.16707882701206 
746	 0.167105997468423 
747	 0.167113560942508 
748	 0.167032620906008 
749	 0.166918125035941 
750	 0.166807348177945 
751	 0.166700608281048 
752	 0.166491635332553 
753	 0.16625538706335 
754	 0.166056855133379 
755	 0.165804597909651 
756	 0.165503825417908 
757	 0.16517630406239 
758	 0.164849370347601 
759	 0.164508130790479 
760	 0.164138814671675 
761	 0.163748063743717 
762	 0.163367188533168 
763	 0.162909683376632 
764	 0.162428038276315 
765	 0.161973879283868 
766	 0.161493495656318 
767	 0.161008666379045 
768	 0.160493964348552 
769	 0.159922093946295 
770	 0.159428384306016 
771	 0.158928794467505 
772	 0.15837416495479 
773	 0.157784051500769 
774	 0.157208888746037 
775	 0.156665591442993 
776	 0.156141237143392 
777	 0.155571109769427 
778	 0.154997370508018 
779	 0.154417813572838 
780	 0.153822428769772 
781	 0.153291214876247 
782	 0.152722857931174 
783	 0.15210610764187 
784	 0.151538359988489 
785	 0.15101630932653 
786	 0.150460714126496 
787	 0.149846187962254 
788	 0.149308524107261 
789	 0.1487978742789 
790	 0.148267605473331 
791	 0.147691759725216 
792	 0.147160166670242 
793	 0.14660641325451 
794	 0.146041872512561 
795	 0.145542782094246 
796	 0.14501899101108 
797	 0.144505591330143 
798	 0.144022131774008 
799	 0.143524175329998 
800	 0.143033440253771 
801	 0.142558266517383 
802	 0.142092257912447 
803	 0.141584964578698 
804	 0.141122441075099 
805	 0.140688754278752 
806	 0.140214839769187 
807	 0.139775830924054 
808	 0.139363650107209 
809	 0.138948520771297 
810	 0.138486448071337 
811	 0.138063311438081 
812	 0.137644780137535 
813	 0.137212508018758 
814	 0.136869763632027 
815	 0.136543082519862 
816	 0.136193287982737 
817	 0.13580982654108 
818	 0.13544717795714 
819	 0.135111797137231 
820	 0.134792168425309 
821	 0.134466866039606 
822	 0.134162938344214 
823	 0.133851844557706 
824	 0.133534027530155 
825	 0.133269839336648 
826	 0.133007777120236 
827	 0.132724947959279 
828	 0.132423279651479 
829	 0.132147825170427 
830	 0.131921495711163 
831	 0.131723121008647 
832	 0.131512689807698 
833	 0.131293385460663 
834	 0.131081228553799 
835	 0.130868453104365 
836	 0.130632505765868 
837	 0.130474613381612 
838	 0.130343861885468 
839	 0.13017783626791 
840	 0.129939077866948 
841	 0.129758315794031 
842	 0.12965526806371 
843	 0.129591594245166 
844	 0.12946628910654 
845	 0.129344964478297 
846	 0.129228741130871 
847	 0.129100686127456 
848	 0.129018923922209 
849	 0.128942171530886 
850	 0.128859168429318 
851	 0.128787785853968 
852	 0.128708153718859 
853	 0.128641490536926 
854	 0.128610473126439 
855	 0.128629618449933 
856	 0.128612304517712 
857	 0.128577804960899 
858	 0.12855622122762 
859	 0.128528561888218 
860	 0.128560793371927 
861	 0.12858989962274 
862	 0.128551695790804 
863	 0.128588990130735 
864	 0.128645029714314 
865	 0.128709616350893 
866	 0.128790169363467 
867	 0.128774758345586 
868	 0.128834323889301 
869	 0.12900149471014 
870	 0.129140459321987 
871	 0.129178473810921 
872	 0.129225831730305 
873	 0.129339667029664 
874	 0.129438187638088 
875	 0.129542101923957 
876	 0.129667392856626 
877	 0.129820731758174 
878	 0.129983951027664 
879	 0.130179605538026 
880	 0.130363115257449 
881	 0.130494496469413 
882	 0.130642561293731 
883	 0.130867334949932 
884	 0.131098797242913 
885	 0.131235532422236 
886	 0.131464510197971 
887	 0.131699747723123 
888	 0.131935433436385 
889	 0.13223502773673 
890	 0.132487313600928 
891	 0.13272190510342 
892	 0.132987052366938 
893	 0.133320090539106 
894	 0.133587258226303 
895	 0.133843381136937 
896	 0.134140659359081 
897	 0.134454418555493 
898	 0.134827283292317 
899	 0.135184603453673 
900	 0.135482770185677 
901	 0.135832163662232 
902	 0.136254852372439 
903	 0.136674439013344 
904	 0.137019086008977 
905	 0.13738218384263 
906	 0.13771315788518 
907	 0.138078462895979 
908	 0.138566076556385 
909	 0.139087539624113 
910	 0.139547489073587 
911	 0.139959601788362 
912	 0.1404031257036 
913	 0.140844302761406 
914	 0.141347083190781 
915	 0.141872284741605 
916	 0.142308088372541 
917	 0.142796105455628 
918	 0.14330458570698 
919	 0.143819967782903 
920	 0.144372222056391 
921	 0.144978675380966 
922	 0.145575920062491 
923	 0.146150653178678 
924	 0.146776201776903 
925	 0.147254687077701 
926	 0.147797094223086 
927	 0.14849843896826 
928	 0.149084981008736 
929	 0.149759582772935 
930	 0.150432198324412 
931	 0.151040445628537 
932	 0.151754143977885 
933	 0.15246468516126 
934	 0.15318228634389 
935	 0.153930717480798 
936	 0.154671492700931 
937	 0.155416450703159 
938	 0.156157001278681 
939	 0.156901309097679 
940	 0.157733774459829 
941	 0.158584396444826 
942	 0.159422311276666 
943	 0.160251469945928 
944	 0.161140817612053 
945	 0.161979358598204 
946	 0.162794858021438 
947	 0.163653251897995 
948	 0.164469715942907 
949	 0.16536935005643 
950	 0.166330421399326 
951	 0.167274604127147 
952	 0.168270879761036 
953	 0.169222844823831 
954	 0.170155321799273 
955	 0.171143001317544 
956	 0.172117129079427 
957	 0.173052165684066 
958	 0.174011213700832 
959	 0.175076043584752 
960	 0.176128106276684 
961	 0.177236288188934 
962	 0.178423162487227 
963	 0.17961965546976 
964	 0.180468368067317 
965	 0.181476755458574 
966	 0.182674814700152 
967	 0.18376852107215 
968	 0.184897433224483 
969	 0.186009114412223 
970	 0.187130107889396 
971	 0.188319513918255 
972	 0.189463044149614 
973	 0.190701549104715 
974	 0.191924959624904 
975	 0.192945844492651 
976	 0.194197042798179 
977	 0.195500379417438 
978	 0.196743630098336 
979	 0.197923339841979 
980	 0.199200673434389 
981	 0.200403699772521 
982	 0.20154830026347 
983	 0.202782634233383 
984	 0.204219499357706 
985	 0.205504905937361 
986	 0.206642739722908 
987	 0.207865743588967 
988	 0.209328631204188 
989	 0.210529224237738 
990	 0.211574386996509 
991	 0.212832374126724 
992	 0.214187507652324 
993	 0.215425395082575 
994	 0.21665629499802 
995	 0.218039433196552 
996	 0.21928013083178 
997	 0.220546055437696 
998	 0.221792933862999 
999	 0.222967044041782 
1000	 0.224279372810356 
1001	 0.221296244127622 
1002	 0.222482943351641 
1003	 0.223611095908379 
1004	 0.22477052855374 
1005	 0.225955665444575 
1006	 0.227101165580703 
1007	 0.228221659687086 
1008	 0.22935610052206 
1009	 0.230509266473995 
1010	 0.231650481369301 
1011	 0.232790718750901 
1012	 0.233953539479765 
1013	 0.235079566389434 
1014	 0.236138976321174 
1015	 0.237290614741154 
1016	 0.238429062718751 
1017	 0.239486259654614 
1018	 0.24048335986448 
1019	 0.241491164854011 
1020	 0.242459258410608 
1021	 0.243476861686808 
1022	 0.244507011024007 
1023	 0.245529491834919 
1024	 0.24659914976999 
1025	 0.247594818263713 
1026	 0.248585171546274 
1027	 0.249645136114935 
1028	 0.250664159970438 
1029	 0.251576673135405 
1030	 0.252500859971711 
1031	 0.253442096728434 
1032	 0.254376441727242 
1033	 0.255256404558423 
1034	 0.256205326029324 
1035	 0.25711671310519 
1036	 0.257945139905201 
1037	 0.25881688922298 
1038	 0.25970803431403 
1039	 0.260633671993168 
1040	 0.261537506957644 
1041	 0.262408153549904 
1042	 0.263260482327421 
1043	 0.264065435021452 
1044	 0.264898709985063 
1045	 0.265737350429526 
1046	 0.266607449584056 
1047	 0.267479177110065 
1048	 0.268352574029344 
1049	 0.269251144144223 
1050	 0.270127961317109 
1051	 0.270949388388708 
1052	 0.271740335610154 
1053	 0.272484173949562 
1054	 0.273272362008967 
1055	 0.274074295081001 
1056	 0.27485867833466 
1057	 0.27564294960627 
1058	 0.276411203182893 
1059	 0.277178579963561 
1060	 0.277926420823683 
1061	 0.278726382134685 
1062	 0.279528221800272 
1063	 0.280316826075588 
1064	 0.281063811013457 
1065	 0.281810628606479 
1066	 0.282529378249951 
1067	 0.283201997464948 
1068	 0.283933755102591 
1069	 0.284644681201386 
1070	 0.285335239619905 
1071	 0.286003146253505 
1072	 0.286719658820392 
1073	 0.287441882486321 
1074	 0.288139336579493 
1075	 0.288858135701445 
1076	 0.289548461557516 
1077	 0.29018566436695 
1078	 0.29084663997246 
1079	 0.291535718550771 
1080	 0.292206610290414 
1081	 0.292893603403985 
1082	 0.29357103976384 
1083	 0.294238476118442 
1084	 0.294911116844822 
1085	 0.295559771426273 
1086	 0.296169850823496 
1087	 0.296797106313008 
1088	 0.29740301575091 
1089	 0.298038961617504 
1090	 0.298698835524963 
1091	 0.299382416102517 
1092	 0.300073786024732 
1093	 0.300690092494828 
1094	 0.301305033646862 
1095	 0.301966825182789 
1096	 0.302603187930467 
1097	 0.303294812544049 
1098	 0.303981590476446 
1099	 0.304690079269365 
1100	 0.305365598761112 
1101	 0.306039646744943 
1102	 0.306700872406024 
1103	 0.307335473975495 
1104	 0.307984005500262 
1105	 0.308650091008452 
1106	 0.309375481974044 
1107	 0.310094591929995 
1108	 0.310818329019598 
1109	 0.31154413889667 
1110	 0.312249209635672 
1111	 0.312958489762121 
1112	 0.313659587476561 
1113	 0.314371266300977 
1114	 0.315065192277423 
1115	 0.315802894416977 
1116	 0.316594933212055 
1117	 0.317355437046902 
1118	 0.318124617272744 
1119	 0.3188749608574 
1120	 0.319637631623225 
1121	 0.320384312654852 
1122	 0.321137455880145 
1123	 0.321889426411261 
1124	 0.322614534642153 
1125	 0.323296075687719 
1126	 0.324013342268399 
1127	 0.324731442142157 
1128	 0.325462671320752 
1129	 0.326214132251169 
1130	 0.326944054451882 
1131	 0.327695636073444 
1132	 0.32840849752943 
1133	 0.329084873341065 
1134	 0.329773213627562 
1135	 0.33047240191934 
1136	 0.331093748703784 
1137	 0.331762934633484 
1138	 0.332463180739949 
1139	 0.33314587886484 
1140	 0.333839372332256 
1141	 0.334520706860813 
1142	 0.335198938000863 
1143	 0.335857208878926 
1144	 0.336500134439527 
1145	 0.337145307043636 
1146	 0.337799674509205 
1147	 0.338418613438884 
1148	 0.3390127124438 
1149	 0.33960899941139 
1150	 0.340184670602746 
1151	 0.340749619621722 
1152	 0.34131818375233 
1153	 0.341908978195401 
1154	 0.342490033192729 
1155	 0.343071517052438 
1156	 0.34363208513435 
1157	 0.344197552855382 
1158	 0.344742810950855 
1159	 0.345259521881405 
1160	 0.345782135998557 
1161	 0.346299902476364 
1162	 0.346816121653291 
1163	 0.347342952856871 
1164	 0.347841878736827 
1165	 0.348322544494655 
1166	 0.348804421286319 
1167	 0.349271549809043 
1168	 0.349769649971065 
1169	 0.350241549680652 
1170	 0.350727327865546 
1171	 0.351183978625604 
1172	 0.351604724476536 
1173	 0.352048365920207 
1174	 0.352507519244392 
1175	 0.352941350406521 
1176	 0.353361380414775 
1177	 0.353788974325496 
1178	 0.354218382023905 
1179	 0.354627090236489 
1180	 0.355034766375014 
1181	 0.355434879188428 
1182	 0.355818439242597 
1183	 0.356181030886416 
1184	 0.356559144991628 
1185	 0.356954864335097 
1186	 0.357315930216515 
1187	 0.357658091310369 
1188	 0.358008043859267 
1189	 0.358348446083333 
1190	 0.358683598223342 
1191	 0.359023830780671 
1192	 0.359352533548915 
1193	 0.359665961812361 
1194	 0.35997843910319 
1195	 0.36028728700871 
1196	 0.360594682606877 
1197	 0.360896495657016 
1198	 0.361195045260434 
1199	 0.361491558769043 
1200	 0.361787774623431 
1201	 0.362083290017332 
1202	 0.362382700972104 
1203	 0.362662634709879 
1204	 0.36294065036252 
1205	 0.363203462428408 
1206	 0.363444989547144 
1207	 0.363688719587349 
1208	 0.363919438419639 
1209	 0.364162555854376 
1210	 0.364418280037384 
1211	 0.364652339676834 
1212	 0.364882146617262 
1213	 0.365109326928395 
1214	 0.365323853868884 
1215	 0.365530537658713 
1216	 0.365732847118009 
1217	 0.365937925227589 
1218	 0.366134272393809 
1219	 0.36631228767261 
1220	 0.366504988611578 
1221	 0.366713279066924 
1222	 0.366897169501495 
1223	 0.367069394770438 
1224	 0.367246430236122 
1225	 0.367400434290379 
1226	 0.367580035245453 
1227	 0.367796405847486 
1228	 0.367976276900684 
1229	 0.368145862867671 
1230	 0.368316389002066 
1231	 0.368464003768321 
1232	 0.368615931773204 
1233	 0.368769795224613 
1234	 0.36893252462168 
1235	 0.369091346127615 
1236	 0.369253045290249 
1237	 0.369395124775213 
1238	 0.369535027422448 
1239	 0.36966485582317 
1240	 0.369766819145177 
1241	 0.369887904418495 
1242	 0.370025340454182 
1243	 0.370143357808656 
1244	 0.370244372827644 
1245	 0.370362244782335 
1246	 0.370492496271129 
1247	 0.370600705273812 
1248	 0.370697052182477 
1249	 0.370812511589032 
1250	 0.37091523746671 
1251	 0.370997326794085 
1252	 0.371101141683724 
1253	 0.371221780196087 
1254	 0.371341832069258 
1255	 0.371469535692019 
1256	 0.371582021405549 
1257	 0.371704091095325 
1258	 0.371807631422584 
1259	 0.371879880151804 
1260	 0.37197412837399 
1261	 0.372072124005528 
1262	 0.372171857488494 
1263	 0.372286211113342 
1264	 0.372388335140583 
1265	 0.3724863658311 
1266	 0.372581625600013 
1267	 0.372670132940259 
1268	 0.372751320869344 
1269	 0.372846583591415 
1270	 0.372951286265935 
1271	 0.37304123770418 
1272	 0.373135673607958 
1273	 0.37321767625966 
1274	 0.373267273075997 
1275	 0.373360038006 
1276	 0.373469061266521 
1277	 0.3735788067961 
1278	 0.373718578389948 
1279	 0.373838930077351 
1280	 0.373946724267553 
1281	 0.374063452951864 
1282	 0.374195581828573 
1283	 0.374300037172275 
1284	 0.374398791199348 
1285	 0.37448305170522 
1286	 0.374536406755929 
1287	 0.374612373430479 
1288	 0.374678456494801 
1289	 0.374745020129925 
1290	 0.374807109937165 
1291	 0.374871213930509 
1292	 0.374915639849277 
1293	 0.374951502874355 
1294	 0.374983131626786 
1295	 0.374997327684476 
1296	 0.375015133931155 
1297	 0.375047552094108 
1298	 0.375047746502778 
1299	 0.375026954476868 
1300	 0.375001665295171 
1301	 0.374947366839917 
1302	 0.374907759330989 
1303	 0.374867850839182 
1304	 0.374836478626757 
1305	 0.374812911524375 
1306	 0.374761071022421 
1307	 0.374704553199565 
1308	 0.374650136589009 
1309	 0.374586046502061 
1310	 0.374506960969989 
1311	 0.37444971668918 
1312	 0.374394184201685 
1313	 0.374337515606106 
1314	 0.374288562362278 
1315	 0.374242941089243 
1316	 0.374196255902206 
1317	 0.374154947030258 
1318	 0.374116973454567 
1319	 0.374092302089457 
1320	 0.374065771452164 
1321	 0.374055883371375 
1322	 0.37407296951068 
1323	 0.374084360602964 
1324	 0.374084027960467 
1325	 0.374083929927727 
1326	 0.374076753911726 
1327	 0.374085667449852 
1328	 0.374122988374413 
1329	 0.374169094423847 
1330	 0.374221548332293 
1331	 0.37428760739481 
1332	 0.374358762205942 
1333	 0.374445539366002 
1334	 0.37451791356217 
1335	 0.374588470649839 
1336	 0.374668105480409 
1337	 0.374726502365575 
1338	 0.37482023252172 
1339	 0.374938069534111 
1340	 0.375061138668307 
1341	 0.375214848342247 
1342	 0.37534734646292 
1343	 0.375472080520266 
1344	 0.375614028877283 
1345	 0.375737034973645 
1346	 0.375843770134582 
1347	 0.375934716249957 
1348	 0.376032083980959 
1349	 0.376139053689839 
1350	 0.376237744295308 
1351	 0.376345108567971 
1352	 0.37646520578754 
1353	 0.3765832821432 
1354	 0.376697462079011 
1355	 0.376820603833488 
1356	 0.376966550358768 
1357	 0.377084984586441 
1358	 0.37717998456924 
1359	 0.377299863693278 
1360	 0.377424464641103 
1361	 0.37753773570483 
1362	 0.377674294744158 
1363	 0.377784174558015 
1364	 0.377858646769455 
1365	 0.377950906874418 
1366	 0.378052344155746 
1367	 0.378134041386653 
1368	 0.378220983635625 
1369	 0.37829950874094 
1370	 0.37836763958605 
1371	 0.3784418205719 
1372	 0.378507078498093 
1373	 0.378565114435209 
1374	 0.378608703844756 
1375	 0.378638364777244 
1376	 0.378659220917689 
1377	 0.378671663251305 
1378	 0.378673003722733 
1379	 0.378665887829604 
1380	 0.378645291322786 
1381	 0.378603547998275 
1382	 0.378567078761931 
1383	 0.378533420878768 
1384	 0.378476694297639 
1385	 0.378413418161168 
1386	 0.378340569141202 
1387	 0.378244853863064 
1388	 0.378148682099847 
1389	 0.378056481772286 
1390	 0.377946046563799 
1391	 0.377821769686234 
1392	 0.377685099404937 
1393	 0.377515931919673 
1394	 0.377321845291739 
1395	 0.377113878541002 
1396	 0.37690335590708 
1397	 0.376685300888924 
1398	 0.376461568593334 
1399	 0.376225465305102 
1400	 0.375976926916393 
1401	 0.375728960300418 
1402	 0.375474062731839 
1403	 0.375227843518577 
1404	 0.374983115867701 
1405	 0.374729179150862 
1406	 0.374470830658748 
1407	 0.374211270009639 
1408	 0.373941280898787 
1409	 0.373683724348875 
1410	 0.373423246309289 
1411	 0.373184002842513 
1412	 0.37294832312449 
1413	 0.372739553910734 
1414	 0.372545402688887 
1415	 0.372366810969135 
1416	 0.372233856268126 
1417	 0.372128306864209 
1418	 0.372045441115236 
1419	 0.371959449387603 
1420	 0.371868109389156 
1421	 0.371786697181962 
1422	 0.371704178552591 
1423	 0.371627699826957 
1424	 0.371552077218159 
1425	 0.371473339932335 
1426	 0.371404007941134 
1427	 0.371340550578962 
1428	 0.371285327108319 
1429	 0.3712425773438 
1430	 0.371195203791176 
1431	 0.371150261197136 
1432	 0.371100306219513 
1433	 0.37103300080134 
1434	 0.370998601991115 
1435	 0.370981168238266 
1436	 0.370965929790116 
1437	 0.370975555135123 
1438	 0.370975358525664 
1439	 0.370965935256906 
1440	 0.370967037760804 
1441	 0.370973681750152 
1442	 0.370977490464671 
1443	 0.370966743878123 
1444	 0.370949211271653 
1445	 0.37095049013667 
1446	 0.370949408237033 
1447	 0.370951202889823 
1448	 0.370974544724496 
1449	 0.370997445440388 
1450	 0.371011306233432 
1451	 0.371032065000504 
1452	 0.371062907795784 
1453	 0.371095646652862 
1454	 0.371131841304705 
1455	 0.37115920700454 
1456	 0.371195542497324 
1457	 0.371212653122861 
1458	 0.371200239616062 
1459	 0.371217677253835 
1460	 0.371238060690963 
1461	 0.371269174341511 
1462	 0.371322304810568 
1463	 0.371365809595457 
1464	 0.371400291508538 
1465	 0.371456929737819 
1466	 0.371529183426234 
1467	 0.371593101696584 
1468	 0.371664308899573 
1469	 0.371740966325986 
1470	 0.371814643292845 
1471	 0.371891686433273 
1472	 0.371972171232476 
1473	 0.37206389662513 
1474	 0.372152720909257 
1475	 0.372231011082792 
1476	 0.372326590928944 
1477	 0.372409108597496 
1478	 0.372477839981185 
1479	 0.372571856013367 
1480	 0.372661335858725 
1481	 0.372742636055927 
1482	 0.372842450847781 
1483	 0.372961319442787 
1484	 0.373054480507528 
1485	 0.373147321064143 
1486	 0.373241245917246 
1487	 0.373307766401163 
1488	 0.373411152995878 
1489	 0.373533141828433 
1490	 0.373660845228673 
1491	 0.373805906717601 
1492	 0.373951720874478 
1493	 0.374122384431636 
1494	 0.374265103668822 
1495	 0.374408955137273 
1496	 0.374526975308397 
1497	 0.374599210391268 
1498	 0.374702923184352 
1499	 0.374816915448021 
1500	 0.374919294861271 
1501	 0.375039864023222 
1502	 0.375133356265925 
1503	 0.375190865196237 
1504	 0.375268288338449 
1505	 0.37534761439392 
1506	 0.375424264032218 
1507	 0.375522552444234 
1508	 0.37559864712359 
1509	 0.375662544745159 
1510	 0.375753651712978 
1511	 0.37583697133299 
1512	 0.375907700314116 
1513	 0.375989734077308 
1514	 0.37605879762495 
1515	 0.376110882109253 
1516	 0.376164173403515 
1517	 0.376220915453038 
1518	 0.376267322038078 
1519	 0.376331072652007 
1520	 0.376416848665209 
1521	 0.376478838566562 
1522	 0.376527617140342 
1523	 0.376595498009795 
1524	 0.376662578374962 
1525	 0.376728313866485 
1526	 0.376812916891069 
1527	 0.376879439472805 
1528	 0.376929930696986 
1529	 0.376983049254513 
1530	 0.377034414378701 
1531	 0.377092479257619 
1532	 0.377135968992969 
1533	 0.377204556627031 
1534	 0.377290718681997 
1535	 0.377373717923123 
1536	 0.37748598742054 
1537	 0.377568655390388 
1538	 0.377651912329334 
1539	 0.377704192319945 
1540	 0.377707506685937 
1541	 0.377740159493392 
1542	 0.377756007107644 
1543	 0.377796223011901 
1544	 0.377882719506634 
1545	 0.377937698518557 
1546	 0.377986980083634 
1547	 0.378024743833437 
1548	 0.37805064330672 
1549	 0.378081240372491 
1550	 0.378133509203397 
1551	 0.378204188123533 
1552	 0.37828045068428 
1553	 0.378349583437016 
1554	 0.378418694326533 
1555	 0.378479311098488 
1556	 0.378527348081203 
1557	 0.378580169215198 
1558	 0.378617647585506 
1559	 0.378651750754069 
1560	 0.378685342933737 
1561	 0.378707808421984 
1562	 0.378751861613596 
1563	 0.378804395988662 
1564	 0.378857999453776 
1565	 0.378930578003617 
1566	 0.37899245658867 
1567	 0.379049689863295 
1568	 0.379095551265671 
1569	 0.379134891295196 
1570	 0.379175479329934 
1571	 0.379203486702825 
1572	 0.379248126701037 
1573	 0.379310820353215 
1574	 0.379354197843206 
1575	 0.379390411957601 
1576	 0.379429882751924 
1577	 0.379458699177922 
1578	 0.379495308797566 
1579	 0.379537868451588 
1580	 0.379581814781706 
1581	 0.379628627198501 
1582	 0.37967514469488 
1583	 0.379726158369656 
1584	 0.379774622559085 
1585	 0.37981570201642 
1586	 0.379862775261593 
1587	 0.379917492619827 
1588	 0.379969376960141 
1589	 0.380025671118879 
1590	 0.380075545567987 
1591	 0.380123562058234 
1592	 0.380162249645044 
1593	 0.380175377956695 
1594	 0.380220921796918 
1595	 0.380286751528759 
1596	 0.380340120384421 
1597	 0.380422267743981 
1598	 0.380474367459998 
1599	 0.380500475943202 
1600	 0.38052248143944 
1601	 0.380528558783502 
1602	 0.380532947485471 
1603	 0.380508145036603 
1604	 0.380516784395284 
1605	 0.380542364102473 
1606	 0.380571631761874 
1607	 0.380632197141013 
1608	 0.380676035990047 
1609	 0.38071618090014 
1610	 0.380776392359686 
1611	 0.380836174000896 
1612	 0.380878219795977 
1613	 0.380902080090132 
1614	 0.380935213258318 
1615	 0.38097419037479 
1616	 0.381017852401009 
1617	 0.381060177307884 
1618	 0.381078006513765 
1619	 0.381072256480871 
1620	 0.381079097812644 
1621	 0.381086661760554 
1622	 0.381092937219671 
1623	 0.381108869038542 
1624	 0.381129192570465 
1625	 0.381157624103539 
1626	 0.381194022453012 
1627	 0.381235391789878 
1628	 0.381273014154682 
1629	 0.381345171928896 
1630	 0.381448599403002 
1631	 0.38151981327901 
1632	 0.381611182829616 
1633	 0.381667503025832 
1634	 0.381686100735507 
1635	 0.381716732601876 
1636	 0.381749795569635 
1637	 0.381763856189861 
1638	 0.381756929328773 
1639	 0.381770055433325 
1640	 0.381775448678654 
1641	 0.38179723214867 
1642	 0.381839260412391 
1643	 0.381868120508312 
1644	 0.381899675138273 
1645	 0.381924080428519 
1646	 0.381942074580101 
1647	 0.381962808247856 
1648	 0.381971876241384 
1649	 0.382005892767116 
1650	 0.382054056582265 
1651	 0.382097107191977 
1652	 0.382158521249582 
1653	 0.382200686704058 
1654	 0.382231544304643 
1655	 0.382262402531254 
1656	 0.38228604656319 
1657	 0.382314871550667 
1658	 0.382341786511913 
1659	 0.382370452886354 
1660	 0.382408161045632 
1661	 0.382430821328686 
1662	 0.382450354625993 
1663	 0.382458086296132 
1664	 0.382449562795632 
1665	 0.382447620047271 
1666	 0.382426583926688 
1667	 0.382440155224597 
1668	 0.38247033400388 
1669	 0.382504806138602 
1670	 0.382564541589107 
1671	 0.382612715095213 
1672	 0.382656430866002 
1673	 0.382706741292886 
1674	 0.382772583597466 
1675	 0.382813206031427 
1676	 0.382846849705544 
1677	 0.382872091528581 
1678	 0.382869423018348 
1679	 0.382889395723874 
1680	 0.382920585917914 
1681	 0.38294195470773 
1682	 0.382965782108371 
1683	 0.382986397512855 
1684	 0.383008389141989 
1685	 0.383012451591631 
1686	 0.382997183188259 
1687	 0.383006805731911 
1688	 0.383001045178307 
1689	 0.38302860678538 
1690	 0.383110368581127 
1691	 0.383144526769274 
1692	 0.383166593746534 
1693	 0.383189467453018 
1694	 0.383188251598037 
1695	 0.38320109527516 
1696	 0.383224841998595 
1697	 0.383246346180537 
1698	 0.383264029519781 
1699	 0.383286687037187 
1700	 0.383325809200179 
1701	 0.383338646829572 
1702	 0.383324225417406 
1703	 0.383345108532561 
1704	 0.383374816149621 
1705	 0.383395585957469 
1706	 0.383430237897671 
1707	 0.383469438515488 
1708	 0.383497886182301 
1709	 0.383531311467404 
1710	 0.383600275343383 
1711	 0.383622671368028 
1712	 0.383608383360604 
1713	 0.383611070447894 
1714	 0.383600151506002 
1715	 0.38359972806082 
1716	 0.38360790463821 
1717	 0.383613950808849 
1718	 0.383623802816281 
1719	 0.383625611124111 
1720	 0.383632307860818 
1721	 0.383624432220878 
1722	 0.383593307426822 
1723	 0.383586903333623 
1724	 0.383579728254688 
1725	 0.383580645465257 
1726	 0.383607697917836 
1727	 0.383607590208593 
1728	 0.383601000433458 
1729	 0.383588143861888 
1730	 0.38355845088344 
1731	 0.383538703857711 
1732	 0.383520645602261 
1733	 0.383501709748298 
1734	 0.383491834327256 
1735	 0.383457581147565 
1736	 0.383409018022187 
1737	 0.3833601321118 
1738	 0.383295120678452 
1739	 0.383239403131136 
1740	 0.383188650283067 
1741	 0.383127402826351 
1742	 0.383059821629011 
1743	 0.383006443098449 
1744	 0.382942243376466 
1745	 0.382921765837232 
1746	 0.382925090517795 
1747	 0.382940694575763 
1748	 0.382954578110618 
1749	 0.382936552257967 
1750	 0.382931205175058 
1751	 0.382895146404535 
1752	 0.382840413538531 
1753	 0.382738437333187 
1754	 0.382610248053982 
1755	 0.382524767369338 
1756	 0.382455291403868 
1757	 0.382417213786521 
1758	 0.382427711827626 
1759	 0.382433704573169 
1760	 0.382442212966479 
1761	 0.382477191729554 
1762	 0.382480624115035 
1763	 0.382466906965537 
1764	 0.38243313193324 
1765	 0.38237609386676 
1766	 0.38235325589111 
1767	 0.382326730365039 
1768	 0.382291004967 
1769	 0.382266309205856 
1770	 0.382231498337816 
1771	 0.382227711482965 
1772	 0.382254898568026 
1773	 0.382271195112746 
1774	 0.382301059276455 
1775	 0.382319437908583 
1776	 0.382302507704139 
1777	 0.38230481121319 
1778	 0.382305659320666 
1779	 0.382265083668402 
1780	 0.382207955164532 
1781	 0.382150250723921 
1782	 0.382111674091478 
1783	 0.382147187145209 
1784	 0.382161496061598 
1785	 0.382205375363989 
1786	 0.382219080628546 
1787	 0.382189456001791 
1788	 0.382181777549891 
1789	 0.3821982508081 
1790	 0.382173392608924 
1791	 0.382118648674711 
1792	 0.382087630395226 
1793	 0.382026876957321 
1794	 0.382010901238858 
1795	 0.382038005968193 
1796	 0.382072742856774 
1797	 0.382129719850499 
1798	 0.382177099006382 
1799	 0.382241766108125 
1800	 0.382282745004192 
1801	 0.37934161321192 
1802	 0.379374379433934 
1803	 0.379422868265837 
1804	 0.379429230395758 
1805	 0.379444736073547 
1806	 0.379503081817805 
1807	 0.379538777670815 
1808	 0.379550437119099 
1809	 0.379533506963114 
1810	 0.379539700148805 
1811	 0.379537351736013 
1812	 0.379540860881732 
1813	 0.379528594391866 
1814	 0.379516464053652 
1815	 0.379503269987165 
1816	 0.379489238488045 
1817	 0.379499898569044 
1818	 0.379567733020555 
1819	 0.379584854771437 
1820	 0.379599305227589 
1821	 0.379575169941803 
1822	 0.379537795045193 
1823	 0.379533602954308 
1824	 0.379538046468129 
1825	 0.379543908371442 
1826	 0.379604263339909 
1827	 0.379628854820288 
1828	 0.379637612111775 
1829	 0.379658522883609 
1830	 0.379659171229588 
1831	 0.379628036594272 
1832	 0.379584409539427 
1833	 0.379557358094651 
1834	 0.379530641753047 
1835	 0.379510611431947 
1836	 0.379500138477995 
1837	 0.37949647240956 
1838	 0.379497801536718 
1839	 0.379510447350437 
1840	 0.379540984571305 
1841	 0.379549568248717 
1842	 0.379564462095074 
1843	 0.379547501182413 
1844	 0.379491382656976 
1845	 0.37946398901272 
1846	 0.379409915819848 
1847	 0.379364384616907 
1848	 0.379331161338176 
1849	 0.379281701721694 
1850	 0.379241822625443 
1851	 0.379212856073777 
1852	 0.379185838132792 
1853	 0.379169674435184 
1854	 0.379144745397687 
1855	 0.379095074351872 
1856	 0.379061878433033 
1857	 0.379008442216811 
1858	 0.378928404031686 
1859	 0.378895625511484 
1860	 0.378839104082901 
1861	 0.37878943870813 
1862	 0.378671114218051 
1863	 0.378518939956702 
1864	 0.378335292322515 
1865	 0.378097691690411 
1866	 0.377861121301916 
1867	 0.377661680802409 
1868	 0.377427175183006 
1869	 0.377186811073628 
1870	 0.376979753715539 
1871	 0.376743093722892 
1872	 0.376489936557132 
1873	 0.376248075430006 
1874	 0.375999245385377 
1875	 0.37572907649832 
1876	 0.375459694088369 
1877	 0.375154262764853 
1878	 0.374794888134642 
1879	 0.37434636491156 
1880	 0.373852652243566 
1881	 0.373303541357954 
1882	 0.37270220471954 
1883	 0.372043975912716 
1884	 0.371325317423841 
1885	 0.370580741641668 
1886	 0.369771371898481 
1887	 0.368938163255186 
1888	 0.368106160614854 
1889	 0.367196820311216 
1890	 0.366271163945287 
1891	 0.365328429465557 
1892	 0.364351912149862 
1893	 0.363343227970228 
1894	 0.36233146250673 
1895	 0.361266767165755 
1896	 0.36011732647773 
1897	 0.35895890252148 
1898	 0.357770079272857 
1899	 0.356564063174703 
1900	 0.355393883741192 
1901	 0.354229414984593 
1902	 0.353077159792069 
1903	 0.351936355427845 
1904	 0.350818195050295 
1905	 0.349698305860229 
1906	 0.348633330965969 
1907	 0.347603502622122 
1908	 0.346596463513817 
1909	 0.34566037833546 
1910	 0.344762252571078 
1911	 0.343925412564173 
1912	 0.34318266239185 
1913	 0.34244371928849 
1914	 0.341749281787354 
1915	 0.341076519723046 
1916	 0.340426287387942 
1917	 0.339797714651242 
1918	 0.339220487744658 
1919	 0.338674294691063 
1920	 0.33817684506017 
1921	 0.337729841812281 
1922	 0.337324390596122 
1923	 0.336971661081769 
1924	 0.336649597255043 
1925	 0.33637128542263 
1926	 0.336120770237571 
1927	 0.335900575250442 
1928	 0.33571961219323 
1929	 0.335573185958928 
1930	 0.335438540407084 
1931	 0.335352784439897 
1932	 0.335319291416073 
1933	 0.335311349691217 
1934	 0.335330308815554 
1935	 0.335366367015301 
1936	 0.33542856859674 
1937	 0.335493296692208 
1938	 0.335575255779854 
1939	 0.335676187909917 
1940	 0.335787427243964 
1941	 0.335905034467144 
1942	 0.336069382862671 
1943	 0.336244101012165 
1944	 0.336425591932145 
1945	 0.336615011990221 
1946	 0.336811917427319 
1947	 0.337012259418025 
1948	 0.337217420000935 
1949	 0.337432747293004 
1950	 0.337655161566876 
1951	 0.337882265761496 
1952	 0.338116665651207 
1953	 0.338337651765302 
1954	 0.338581683339259 
1955	 0.338834318281803 
1956	 0.339090882545775 
1957	 0.339355664520016 
1958	 0.339641416412225 
1959	 0.339918910771086 
1960	 0.340193851109022 
1961	 0.340472269109634 
1962	 0.34074293812055 
1963	 0.341042721083401 
1964	 0.341362148451295 
1965	 0.341674654216763 
1966	 0.341992362230053 
1967	 0.34234849225956 
1968	 0.34270512467201 
1969	 0.343067291717505 
1970	 0.343432796579051 
1971	 0.343831539841965 
1972	 0.344198154392307 
1973	 0.344548953339786 
1974	 0.344897568965959 
1975	 0.345237570246661 
1976	 0.345566749437689 
1977	 0.345920834143339 
1978	 0.346265910907813 
1979	 0.34663673872003 
1980	 0.347014309252156 
1981	 0.347389578460532 
1982	 0.347769258346457 
1983	 0.348152608604891 
1984	 0.348537327769902 
1985	 0.348927141902343 
1986	 0.349333304913668 
1987	 0.349714716311555 
1988	 0.350086421764856 
1989	 0.350456653686909 
1990	 0.350834462654054 
1991	 0.351193336130152 
1992	 0.351541974885915 
1993	 0.351884727515741 
1994	 0.352237852690486 
1995	 0.35256496592185 
1996	 0.352926127098155 
1997	 0.353323855876712 
1998	 0.353696604223727 
1999	 0.354056824887819 
2000	 0.354433990892832 
2001	 0.354787073549152 
2002	 0.355206719477979 
2003	 0.355633121719285 
2004	 0.356035627505068 
2005	 0.356412041043872 
2006	 0.356763005853755 
2007	 0.357120226368658 
2008	 0.357448790876971 
2009	 0.357794972653533 
2010	 0.358158957532088 
2011	 0.358509888795759 
2012	 0.358839262081606 
2013	 0.359195519311301 
2014	 0.359552661078197 
2015	 0.359927909753568 
2016	 0.360344272034254 
2017	 0.360746848540315 
2018	 0.36112363219116 
2019	 0.361495575209471 
2020	 0.361854546070556 
2021	 0.362181973528142 
2022	 0.362515480511491 
2023	 0.36284561054172 
2024	 0.363178424271813 
2025	 0.363506536003189 
2026	 0.363830738921656 
2027	 0.364152096734424 
2028	 0.364486069128511 
2029	 0.364799963699039 
2030	 0.365097658600061 
2031	 0.365396429269023 
2032	 0.36569008262923 
2033	 0.365980801406489 
2034	 0.366263981093516 
2035	 0.366554148004753 
2036	 0.366843036384665 
2037	 0.367130575485331 
2038	 0.36744810797176 
2039	 0.367717200803204 
2040	 0.367937073371049 
2041	 0.36819423896696 
2042	 0.368448163580466 
2043	 0.368645025585779 
2044	 0.368872976197048 
2045	 0.369125508784089 
2046	 0.369354019478769 
2047	 0.369564891721446 
2048	 0.369780415278906 
2049	 0.36999300473943 
2050	 0.370204283255489 
2051	 0.370411986591649 
2052	 0.370620401520851 
2053	 0.370829084113626 
2054	 0.371036752957985 
2055	 0.371250898575561 
2056	 0.371444869163294 
2057	 0.371646685069458 
2058	 0.371842381167716 
2059	 0.372055014222999 
2060	 0.372273826366675 
2061	 0.372491925484107 
2062	 0.372724188887998 
2063	 0.372946756603251 
2064	 0.373172536785684 
2065	 0.373381817060379 
2066	 0.373574141972926 
2067	 0.373778353517883 
2068	 0.373980363385776 
2069	 0.374174488931387 
2070	 0.374373384329284 
2071	 0.374588270493147 
2072	 0.374782025223814 
2073	 0.374960255512274 
2074	 0.375144006884315 
2075	 0.375311382836835 
2076	 0.37550588989102 
2077	 0.375716924588958 
2078	 0.375919312476067 
2079	 0.376141102664542 
2080	 0.376350589320787 
2081	 0.376549861192825 
2082	 0.376743326791256 
2083	 0.376943090698003 
2084	 0.377115573763013 
2085	 0.377305545170915 
2086	 0.377491504051236 
2087	 0.377678318664463 
2088	 0.377878262623 
2089	 0.378058517168581 
2090	 0.378221820092752 
2091	 0.378392533322701 
2092	 0.378569710924748 
2093	 0.378727489078568 
2094	 0.378854517372732 
2095	 0.379017190654846 
2096	 0.379188009156181 
2097	 0.379357024934613 
2098	 0.379536783238974 
2099	 0.379742932912218 
2100	 0.37993383562655 
2101	 0.38011144215986 
2102	 0.380297744574437 
2103	 0.380488788645433 
2104	 0.380688628668782 
2105	 0.380876130505009 
2106	 0.381099416022361 
2107	 0.381348177189728 
2108	 0.381604224689328 
2109	 0.381896862486518 
2110	 0.382162004015414 
2111	 0.382435275700178 
2112	 0.382691565995897 
2113	 0.3829096527064 
2114	 0.383156981636969 
2115	 0.383397530770233 
2116	 0.383634819125519 
2117	 0.383871786194075 
2118	 0.38412054397836 
2119	 0.384346043643036 
2120	 0.384578481869347 
2121	 0.384765563640084 
2122	 0.384905019908542 
2123	 0.385074028989402 
2124	 0.385220292869661 
2125	 0.385378438318305 
2126	 0.385559093289198 
2127	 0.385735912104083 
2128	 0.385927818853918 
2129	 0.386084006387243 
2130	 0.386229491708036 
2131	 0.386371876513673 
2132	 0.386481699280835 
2133	 0.386542034686146 
2134	 0.386627790271477 
2135	 0.386722433867283 
2136	 0.38678536852519 
2137	 0.386842830332915 
2138	 0.386871537500025 
2139	 0.386873442052817 
2140	 0.386859326484307 
2141	 0.386822330704681 
2142	 0.38677688274617 
2143	 0.386714163132183 
2144	 0.386636131081401 
2145	 0.386550244431181 
2146	 0.38643975789382 
2147	 0.386302011413196 
2148	 0.386159788107958 
2149	 0.385995083662748 
2150	 0.385808725601167 
2151	 0.385615675915819 
2152	 0.385388175150461 
2153	 0.385199085921396 
2154	 0.385026319635094 
2155	 0.384829651242766 
2156	 0.384647973988292 
2157	 0.384446837968038 
2158	 0.384203878324108 
2159	 0.38398653052044 
2160	 0.383805661137643 
2161	 0.383579140507646 
2162	 0.383326780953042 
2163	 0.383081503074169 
2164	 0.382823396025283 
2165	 0.382542101607625 
2166	 0.382271177179962 
2167	 0.382015248737468 
2168	 0.381734519330182 
2169	 0.381422609456105 
2170	 0.381145426582855 
2171	 0.380868605287392 
2172	 0.380608714088512 
2173	 0.380373109700438 
2174	 0.380133775208856 
2175	 0.37991670878013 
2176	 0.379672241451156 
2177	 0.379423094919194 
2178	 0.379160377701718 
2179	 0.378868095760364 
2180	 0.378585190327219 
2181	 0.378287782162407 
2182	 0.378012679610467 
2183	 0.377733229918816 
2184	 0.377480959022671 
2185	 0.377251939886415 
2186	 0.37705523914962 
2187	 0.376843509609716 
2188	 0.376649929730672 
2189	 0.376450420810225 
2190	 0.376248943662455 
2191	 0.376042367719212 
2192	 0.375839191473422 
2193	 0.375633655603641 
2194	 0.375403830684458 
2195	 0.37520463228919 
2196	 0.375020450788369 
2197	 0.374846176883637 
2198	 0.374691393738638 
2199	 0.374540808292918 
2200	 0.374392157299216 
2201	 0.374258928740974 
2202	 0.374144858909378 
2203	 0.374029149176533 
2204	 0.37391947293612 
2205	 0.373812429350691 
2206	 0.373741863391427 
2207	 0.373682138889845 
2208	 0.373640154449027 
2209	 0.373634653402441 
2210	 0.37362581946008 
2211	 0.373623872379605 
2212	 0.373627260539148 
2213	 0.373650976458251 
2214	 0.373669421159445 
2215	 0.373680680696559 
2216	 0.373704734175981 
2217	 0.373759664287343 
2218	 0.373774373675927 
2219	 0.373756501136346 
2220	 0.373766924579185 
2221	 0.373760647630535 
2222	 0.373774427406691 
2223	 0.373836446290557 
2224	 0.373864723978807 
2225	 0.373862546948034 
2226	 0.373829171737644 
2227	 0.373818189019585 
2228	 0.373804747079247 
2229	 0.373757018386714 
2230	 0.373699987258946 
2231	 0.373636671908832 
2232	 0.373516601171814 
2233	 0.373449927976618 
2234	 0.373415118924896 
2235	 0.373381341844507 
2236	 0.373362991098394 
2237	 0.373342338164256 
2238	 0.373346236433198 
2239	 0.373318826209183 
2240	 0.373254655399438 
2241	 0.373227213818732 
2242	 0.373207426371374 
2243	 0.373181870353337 
2244	 0.373185072133142 
2245	 0.373173397255877 
2246	 0.373105590271753 
2247	 0.373119856658299 
2248	 0.373141804827616 
2249	 0.373182413494163 
2250	 0.373246042917392 
2251	 0.373370889290817 
2252	 0.373418855447214 
2253	 0.373471834105842 
2254	 0.373474527263968 
2255	 0.37339673696778 
2256	 0.373377665013515 
2257	 0.373367051645385 
2258	 0.37334081768165 
2259	 0.373323511718882 
2260	 0.373305608722326 
2261	 0.373257094742017 
2262	 0.373238342406844 
2263	 0.373238639740323 
2264	 0.373250280918618 
2265	 0.373278508301878 
2266	 0.373311305528873 
2267	 0.373380854794462 
2268	 0.373417696708204 
2269	 0.37344643172766 
2270	 0.373445591624288 
2271	 0.373453567475104 
2272	 0.373494414594016 
2273	 0.37351887341343 
2274	 0.373586607160161 
2275	 0.373625190910086 
2276	 0.373638925826889 
2277	 0.373672900827187 
2278	 0.373729563023635 
2279	 0.373749854390512 
2280	 0.373748507841353 
2281	 0.373777420344901 
2282	 0.373789870495451 
2283	 0.37383335938142 
2284	 0.373913181845331 
2285	 0.373995437206263 
2286	 0.374106420887516 
2287	 0.374174480503542 
2288	 0.374254345848767 
2289	 0.374284448894074 
2290	 0.3742098874255 
2291	 0.374231557996126 
2292	 0.374280795821395 
2293	 0.374346830566899 
2294	 0.374500915572312 
2295	 0.374610484012156 
2296	 0.374720270825682 
2297	 0.374771322115062 
2298	 0.374826797133354 
2299	 0.374864669105617 
2300	 0.374900589095773 
2301	 0.374943812868981 
2302	 0.375052393720983 
2303	 0.375116150685292 
2304	 0.375127811307199 
2305	 0.375164964905354 
2306	 0.375172243546267 
2307	 0.375140782388152 
2308	 0.37510631381795 
2309	 0.375058366178138 
2310	 0.375029478464361 
2311	 0.374955643889752 
2312	 0.374943931628312 
2313	 0.374998954159896 
2314	 0.375013894197377 
2315	 0.37504030767912 
2316	 0.375051636762727 
2317	 0.375012595387257 
2318	 0.375053096214063 
2319	 0.375144262093399 
2320	 0.375204053383249 
2321	 0.375340312303268 
2322	 0.375385957777084 
2323	 0.375355307221266 
2324	 0.375321098801457 
2325	 0.375224689098373 
2326	 0.375165031413445 
2327	 0.37508765851901 
2328	 0.37504987763762 
2329	 0.375073009566191 
2330	 0.375101363680486 
2331	 0.375138962618054 
2332	 0.375218232513914 
2333	 0.375249577122278 
2334	 0.375311503885385 
2335	 0.375422775968678 
2336	 0.375484306795407 
2337	 0.375538643305469 
2338	 0.375585945222242 
2339	 0.375621678917673 
2340	 0.375629508350233 
2341	 0.375589347469099 
2342	 0.375510672755671 
2343	 0.375381027410617 
2344	 0.37525901935054 
2345	 0.375160573925452 
2346	 0.375086819181727 
2347	 0.375040091062589 
2348	 0.375021393192876 
2349	 0.37497363506192 
2350	 0.374953698592264 
2351	 0.374907802293487 
2352	 0.374847616239328 
2353	 0.374738119304731 
2354	 0.374614872977548 
2355	 0.374454430040473 
2356	 0.374176075215219 
2357	 0.374020914035886 
2358	 0.373935158071697 
2359	 0.373823409530594 
2360	 0.373754937119181 
2361	 0.373666032358398 
2362	 0.373542952235264 
2363	 0.373409987919832 
2364	 0.373296113960377 
2365	 0.373182152302159 
2366	 0.373056309963268 
2367	 0.372926235457186 
2368	 0.372814283109385 
2369	 0.372641803278203 
2370	 0.372443137882704 
2371	 0.372184683717557 
2372	 0.371878499178782 
2373	 0.371632201057075 
2374	 0.371399052187736 
2375	 0.371161915488208 
2376	 0.370897103579862 
2377	 0.370597666356617 
2378	 0.370345942130602 
2379	 0.37012512205661 
2380	 0.369872272136865 
2381	 0.369739806978839 
2382	 0.369565670859504 
2383	 0.369341476424601 
2384	 0.369240448887302 
2385	 0.369091885416832 
2386	 0.368891558410133 
2387	 0.368680205303696 
2388	 0.368471773570935 
2389	 0.368226133700075 
2390	 0.367920346603712 
2391	 0.367596809805646 
2392	 0.367292383533908 
2393	 0.367034850266442 
2394	 0.366838481599188 
2395	 0.3666904170864 
2396	 0.366500812049661 
2397	 0.366314700800125 
2398	 0.366097859288422 
2399	 0.365854950692779 
2400	 0.365671930414563 
2401	 0.365450215316083 
2402	 0.36524568902816 
2403	 0.364997973466056 
2404	 0.364564903766398 
2405	 0.364161724140002 
2406	 0.363845926984194 
2407	 0.363556351127264 
2408	 0.363373889140239 
2409	 0.363238780073741 
2410	 0.363065007220995 
2411	 0.362847144249184 
2412	 0.362623624658033 
2413	 0.36235693656669 
2414	 0.361962499887117 
2415	 0.361531847224266 
2416	 0.3611542748809 
2417	 0.360713840464679 
2418	 0.36041720330379 
2419	 0.360264037777318 
2420	 0.360048589510733 
2421	 0.359945733512803 
2422	 0.35970980215175 
2423	 0.359333278975315 
2424	 0.359032178994445 
2425	 0.358686647983013 
2426	 0.358350082488114 
2427	 0.358111679725873 
2428	 0.357798513434646 
2429	 0.35742101214024 
2430	 0.357072338514225 
2431	 0.356685046680035 
2432	 0.356318368508954 
2433	 0.355971642799713 
2434	 0.355706257735941 
2435	 0.355500373776996 
2436	 0.355243039572216 
2437	 0.355033858309061 
2438	 0.354700280767333 
2439	 0.354213760157662 
2440	 0.353840292136037 
2441	 0.353507437807625 
2442	 0.353232607132956 
2443	 0.353043894230023 
2444	 0.352793776317104 
2445	 0.35254046598946 
2446	 0.352172673187257 
2447	 0.35171782352048 
2448	 0.351372295207995 
2449	 0.351030032329886 
2450	 0.350692119206635 
2451	 0.350368837472682 
2452	 0.350075388837789 
2453	 0.349825460291573 
2454	 0.349547381693285 
2455	 0.349297809621885 
2456	 0.349003487082457 
2457	 0.348582136783483 
2458	 0.348271624247917 
2459	 0.348078534715323 
2460	 0.347852555511046 
2461	 0.347689266872931 
2462	 0.347422726297714 
2463	 0.347100954309822 
2464	 0.346767422563305 
2465	 0.346317447880608 
2466	 0.346013536054502 
2467	 0.345715118274483 
2468	 0.345343258345521 
2469	 0.345072678379359 
2470	 0.344675290851391 
2471	 0.344483021595441 
2472	 0.344431442145871 
2473	 0.344114554015956 
2474	 0.343727058957866 
2475	 0.343461011745084 
2476	 0.343122062417378 
2477	 0.342790953354103 
2478	 0.342542880202293 
2479	 0.342222900390846 
2480	 0.341952844702951 
2481	 0.341856686137244 
2482	 0.341670188883562 
2483	 0.34133494842318 
2484	 0.341030967430339 
2485	 0.340560506310723 
2486	 0.340313343596131 
2487	 0.340164189289928 
2488	 0.339648945366824 
2489	 0.339379944794295 
2490	 0.339088395204363 
2491	 0.338585737425901 
2492	 0.338337687268955 
2493	 0.338150426437094 
2494	 0.337791207113577 
2495	 0.337581525994971 
2496	 0.337675588806821 
2497	 0.337547238152412 
2498	 0.337217822351255 
2499	 0.336910737317432 
2500	 0.336459847156581 
