Wavelength	MM1000016.asd
350	 3.70968173464366E-02 
351	 4.33356560544514E-02 
352	 4.35471976827747E-02 
353	 3.93793583880613E-02 
354	 3.82845040671729E-02 
355	 0.041922614148632 
356	 4.16398272906756E-02 
357	 3.40134053365839E-02 
358	 4.64983565643493E-02 
359	 4.85406642335794E-02 
360	 4.10658002979425E-02 
361	 4.38415938261798E-02 
362	 3.64816597149708E-02 
363	 3.68867694368924E-02 
364	 4.85080614297139E-02 
365	 4.54184379673723E-02 
366	 4.48517040949217E-02 
367	 4.60879022473996E-02 
368	 4.55490802679207E-02 
369	 4.80924835887009E-02 
370	 4.79716803415961E-02 
371	 0.045344224523779 
372	 4.45068356625786E-02 
373	 4.57039998998316E-02 
374	 4.63678721304848E-02 
375	 4.58431816350155E-02 
376	 4.76012040647189E-02 
377	 4.54289363737269E-02 
378	 4.45951137761697E-02 
379	 4.98910034317651E-02 
380	 0.049411822848593 
381	 4.77814020490378E-02 
382	 4.72558303318631E-02 
383	 4.78136581500875E-02 
384	 0.050541476019121 
385	 5.03824169594164E-02 
386	 4.65563738349831E-02 
387	 4.78667928031199E-02 
388	 0.048841848260637 
389	 4.96679492596051E-02 
390	 5.12355713458895E-02 
391	 4.90377747850113E-02 
392	 0.048940481515259 
393	 5.15826191189718E-02 
394	 5.29442273645437E-02 
395	 5.32851644348621E-02 
396	 5.27935898157031E-02 
397	 5.20025218603635E-02 
398	 5.18959906440023E-02 
399	 5.29867831105371E-02 
400	 5.50033437793046E-02 
401	 5.68753248591342E-02 
402	 5.52594755569471E-02 
403	 5.44729742352117E-02 
404	 5.53328138433941E-02 
405	 5.47995514836046E-02 
406	 5.56756970028806E-02 
407	 5.69437198819433E-02 
408	 5.73396333982579E-02 
409	 5.67718841146172E-02 
410	 5.63272849915362E-02 
411	 5.64857593699958E-02 
412	 0.057171338257617 
413	 5.69200149336376E-02 
414	 5.63667905801055E-02 
415	 5.60197315881595E-02 
416	 5.59631613985642E-02 
417	 0.055747103754366 
418	 5.64838504770956E-02 
419	 5.84644935219554E-02 
420	 5.80686412343162E-02 
421	 0.057320291908726 
422	 5.72867521622854E-02 
423	 0.058124286830447 
424	 5.80238856229462E-02 
425	 5.75521801939582E-02 
426	 0.057388856915987 
427	 5.79107657618083E-02 
428	 5.78084876845228E-02 
429	 5.72455418664854E-02 
430	 5.68678505543758E-02 
431	 5.70328149642522E-02 
432	 5.70627326182692E-02 
433	 5.68997199922466E-02 
434	 5.71013357466499E-02 
435	 5.74618514766706E-02 
436	 0.057447095955686 
437	 5.68788554507032E-02 
438	 5.65881825012953E-02 
439	 5.65686362329872E-02 
440	 5.67170363589785E-02 
441	 5.68425629197331E-02 
442	 0.056610174681334 
443	 5.65891768690327E-02 
444	 5.68936673558321E-02 
445	 5.68325848088339E-02 
446	 5.68250957206643E-02 
447	 5.70137802834184E-02 
448	 5.73206865623537E-02 
449	 5.70459583233016E-02 
450	 0.057068103713906 
451	 5.74048417099135E-02 
452	 5.73456002755647E-02 
453	 5.74072525094379E-02 
454	 5.73548355448134E-02 
455	 5.70935687605416E-02 
456	 5.71890856697753E-02 
457	 0.057223693775771 
458	 0.057171166216882 
459	 5.71674514077898E-02 
460	 5.71636573595242E-02 
461	 0.057128305926899 
462	 5.71067942575104E-02 
463	 5.72549548094666E-02 
464	 5.72015999393832E-02 
465	 5.71194993924663E-02 
466	 0.057252481258555 
467	 5.75122417461169E-02 
468	 5.75450573215849E-02 
469	 5.73831203193186E-02 
470	 5.73684621248084E-02 
471	 5.75095057233704E-02 
472	 5.75485047030534E-02 
473	 5.73470930749036E-02 
474	 5.71240400868893E-02 
475	 5.70354386359999E-02 
476	 5.70823317307234E-02 
477	 5.71619898617193E-02 
478	 5.70913144302373E-02 
479	 5.69851411945532E-02 
480	 5.69540176226295E-02 
481	 5.70647475957067E-02 
482	 5.71168382569794E-02 
483	 5.71914337158182E-02 
484	 5.73682168314742E-02 
485	 5.74126103583234E-02 
486	 5.72504150200796E-02 
487	 5.69803598164568E-02 
488	 5.68392755988423E-02 
489	 5.69498710360269E-02 
490	 0.057104919097854 
491	 5.71521121865025E-02 
492	 5.72520201305835E-02 
493	 5.71178285216726E-02 
494	 5.68972549060761E-02 
495	 0.056909769620743 
496	 5.70611505694505E-02 
497	 5.71428990059344E-02 
498	 5.70720228471401E-02 
499	 5.69501157094319E-02 
500	 5.70644736262513E-02 
501	 5.72483838432645E-02 
502	 5.72420465467965E-02 
503	 5.70350621532142E-02 
504	 5.69221226995028E-02 
505	 5.69558728053335E-02 
506	 5.69656549843854E-02 
507	 5.70875380659917E-02 
508	 5.72226655795228E-02 
509	 5.72549269979337E-02 
510	 5.71141230186842E-02 
511	 0.057073976073455 
512	 5.70836741005032E-02 
513	 5.69631533623442E-02 
514	 5.71016061710726E-02 
515	 5.72336226271213E-02 
516	 5.71959077576331E-02 
517	 0.057108326069593 
518	 5.70971433407732E-02 
519	 5.71535216280841E-02 
520	 5.72182032689474E-02 
521	 5.72754123784294E-02 
522	 5.73153512743501E-02 
523	 5.73362637091634E-02 
524	 5.73434250964756E-02 
525	 0.057328805326255 
526	 5.73063658775544E-02 
527	 5.72968986590953E-02 
528	 5.73224845903066E-02 
529	 5.74067339679812E-02 
530	 5.74944673505947E-02 
531	 5.74894224091115E-02 
532	 5.74379706430504E-02 
533	 0.057519855513318 
534	 5.77529004070822E-02 
535	 5.77897137935246E-02 
536	 5.77891262415222E-02 
537	 5.78015864856304E-02 
538	 5.78422711305969E-02 
539	 5.79334315861093E-02 
540	 5.80213148436198E-02 
541	 5.80911644799601E-02 
542	 5.81866357941869E-02 
543	 5.83037055953094E-02 
544	 5.83894079651539E-02 
545	 5.84179152203395E-02 
546	 5.85277072555039E-02 
547	 5.86278351213565E-02 
548	 5.86874937103624E-02 
549	 5.87370276675332E-02 
550	 5.88801231870834E-02 
551	 0.059008342249495 
552	 5.90701386144918E-02 
553	 0.059276736746886 
554	 5.94276225672922E-02 
555	 5.95676512935823E-02 
556	 5.98401826648153E-02 
557	 6.00264415265912E-02 
558	 6.02174132372888E-02 
559	 6.04887159881899E-02 
560	 0.060839951312117 
561	 6.10840152235029E-02 
562	 6.13031804216154E-02 
563	 6.16287250556542E-02 
564	 6.18801155400932E-02 
565	 0.062137776531416 
566	 6.24365063078246E-02 
567	 0.062744848091186 
568	 6.31970110329036E-02 
569	 6.37019084113856E-02 
570	 6.41641082745752E-02 
571	 6.46663245596778E-02 
572	 6.52144457174803E-02 
573	 6.57970092456484E-02 
574	 6.63845411460806E-02 
575	 6.68937438355663E-02 
576	 6.74538449503922E-02 
577	 0.06811453430765 
578	 6.86710866710034E-02 
579	 6.92666292614937E-02 
580	 6.99332894837682E-02 
581	 7.06563783103571E-02 
582	 7.14191734646484E-02 
583	 7.22244862297223E-02 
584	 7.30629027884111E-02 
585	 7.39068030651631E-02 
586	 7.48271368196854E-02 
587	 7.57399063993048E-02 
588	 7.65791482934712E-02 
589	 7.75660751079034E-02 
590	 7.85677136800988E-02 
591	 7.95523436241619E-02 
592	 8.05945883094034E-02 
593	 8.16968540456152E-02 
594	 8.27959635073509E-02 
595	 8.38329409362805E-02 
596	 8.47973369936092E-02 
597	 8.57217069441681E-02 
598	 8.66258739494136E-02 
599	 8.75237399446793E-02 
600	 8.84045983477211E-02 
601	 8.92690860944886E-02 
602	 9.01244668841607E-02 
603	 9.09954217035837E-02 
604	 9.18758761059992E-02 
605	 9.27348041774812E-02 
606	 9.35496722157475E-02 
607	 9.44104491312675E-02 
608	 9.52351729226035E-02 
609	 9.60123831317886E-02 
610	 9.68204259149249E-02 
611	 9.75283621596417E-02 
612	 9.81528151110042E-02 
613	 9.87397219072146E-02 
614	 9.93080558130769E-02 
615	 9.98200080756014E-02 
616	 0.10032253203138 
617	 0.100902225848435 
618	 0.101403360056865 
619	 0.101824524980916 
620	 0.102209048997909 
621	 0.1026391782867 
622	 0.103076734946402 
623	 0.103473307907288 
624	 0.103796169785141 
625	 0.104158878480689 
626	 0.104503980917991 
627	 0.10480798315764 
628	 0.105109719673776 
629	 0.105421852702829 
630	 0.105738087498718 
631	 0.106046223811554 
632	 0.106336218537053 
633	 0.106634853051336 
634	 0.106917085185159 
635	 0.107126318093076 
636	 0.107404872563272 
637	 0.107700130456356 
638	 0.107960210808371 
639	 0.10822215256709 
640	 0.108490713240462 
641	 0.10877470904665 
642	 0.109079328104757 
643	 0.109385160244172 
644	 0.109690943312583 
645	 0.109981026375514 
646	 0.110212207168797 
647	 0.110533252500418 
648	 0.110867316962277 
649	 0.111125296117195 
650	 0.111467755803128 
651	 0.111837723336219 
652	 0.112179932213906 
653	 0.11245749119608 
654	 0.112834854021292 
655	 0.113215409491221 
656	 0.113534649921079 
657	 0.113934731806679 
658	 0.114317297378728 
659	 0.114692968517775 
660	 0.115110990020537 
661	 0.115506339845025 
662	 0.115904556923682 
663	 0.116327521874915 
664	 0.116779830909409 
665	 0.117218955372986 
666	 0.11767019498259 
667	 0.118164456534399 
668	 0.118666960160326 
669	 0.119159767088076 
670	 0.119643989327771 
671	 0.120136937356511 
672	 0.120679573223071 
673	 0.121200605982837 
674	 0.121684511843158 
675	 0.122304133103666 
676	 0.122891981718024 
677	 0.123456678237505 
678	 0.124068074227742 
679	 0.124641914062124 
680	 0.125231646502263 
681	 0.125869234551085 
682	 0.126544134967435 
683	 0.127211448046291 
684	 0.12784702935936 
685	 0.128463217736745 
686	 0.129169669349279 
687	 0.129903810814391 
688	 0.130639987940984 
689	 0.131378581228518 
690	 0.132099562543991 
691	 0.132797960312172 
692	 0.133497219506054 
693	 0.134278295942595 
694	 0.13504560899368 
695	 0.135822028096913 
696	 0.136656366097656 
697	 0.137489403619487 
698	 0.138302580122809 
699	 0.13909816356921 
700	 0.139898943213881 
701	 0.140735526602694 
702	 0.141583088808612 
703	 0.142420581258875 
704	 0.143279731440808 
705	 0.144098974402226 
706	 0.144928647780243 
707	 0.145847330793991 
708	 0.146653205257829 
709	 0.147469258622004 
710	 0.148341863573703 
711	 0.149159059750694 
712	 0.149979298076889 
713	 0.150810743275122 
714	 0.151644647150212 
715	 0.152451810824137 
716	 0.153256642530838 
717	 0.154055066902723 
718	 0.154826024060655 
719	 0.155630018379196 
720	 0.156388949840566 
721	 0.157079908665097 
722	 0.157826993451979 
723	 0.158544793957037 
724	 0.159243705104545 
725	 0.159942665488487 
726	 0.160529374126333 
727	 0.161120480168314 
728	 0.161734665045109 
729	 0.162290772926946 
730	 0.16281917986197 
731	 0.163333225351802 
732	 0.16382586075705 
733	 0.164244728442054 
734	 0.164657641212613 
735	 0.165061323700707 
736	 0.16542046748703 
737	 0.165702248082286 
738	 0.165983065831589 
739	 0.166261622483024 
740	 0.166447569281216 
741	 0.166673566929765 
742	 0.166846798663738 
743	 0.16690509039401 
744	 0.167003172650238 
745	 0.167050967345741 
746	 0.16704811202127 
747	 0.1670276152716 
748	 0.166937746637082 
749	 0.166833755440627 
750	 0.166738530254249 
751	 0.166624370340378 
752	 0.166431023930732 
753	 0.166210132656232 
754	 0.166000747550951 
755	 0.165721848843855 
756	 0.165420042822862 
757	 0.16511821089405 
758	 0.164815997591597 
759	 0.164442015362927 
760	 0.164038551732644 
761	 0.163649507678977 
762	 0.163304413033307 
763	 0.162856960722661 
764	 0.162376595467921 
765	 0.161935363809543 
766	 0.161450780813374 
767	 0.160947974230948 
768	 0.160436096178385 
769	 0.159913379539169 
770	 0.159356410205412 
771	 0.158826403647978 
772	 0.158318885455289 
773	 0.157746413690166 
774	 0.157180397208398 
775	 0.156623459490021 
776	 0.156066110990565 
777	 0.15551088504164 
778	 0.154942927859929 
779	 0.154363719326623 
780	 0.153785454013136 
781	 0.153235636829547 
782	 0.152679914127509 
783	 0.152098245784304 
784	 0.151496374080517 
785	 0.150967200103137 
786	 0.150428741946432 
787	 0.149826357022041 
788	 0.149244752587093 
789	 0.148736329215238 
790	 0.148239784226012 
791	 0.147674292019035 
792	 0.147127281061971 
793	 0.146564662095991 
794	 0.146007326508894 
795	 0.145517826201377 
796	 0.144992952657378 
797	 0.144456669264666 
798	 0.143943098406609 
799	 0.143467384172781 
800	 0.142990006057932 
801	 0.142502353148375 
802	 0.142010475786958 
803	 0.141530918141056 
804	 0.141083713415793 
805	 0.140648368380125 
806	 0.140188461651285 
807	 0.139755871755835 
808	 0.139334692850057 
809	 0.138912299581064 
810	 0.138489033272895 
811	 0.138068916850175 
812	 0.137642404098097 
813	 0.137220374940253 
814	 0.136879237293945 
815	 0.136539370570701 
816	 0.136174567583182 
817	 0.135790371080985 
818	 0.135423328159036 
819	 0.135079548528571 
820	 0.134749200205494 
821	 0.134414127177265 
822	 0.134107049796228 
823	 0.133811921309578 
824	 0.133521225650114 
825	 0.133254156412514 
826	 0.13298185193021 
827	 0.132702167895026 
828	 0.132421329474935 
829	 0.13213848448774 
830	 0.131906547985073 
831	 0.131703533511039 
832	 0.131476411148658 
833	 0.131235997796768 
834	 0.13103008620186 
835	 0.130849618865089 
836	 0.130637545410254 
837	 0.130475580553782 
838	 0.130324499332804 
839	 0.130148582156046 
840	 0.129951800044167 
841	 0.12976436250908 
842	 0.129637862887681 
843	 0.129580654803995 
844	 0.129462047952431 
845	 0.129321232020022 
846	 0.129189846806863 
847	 0.129091156013039 
848	 0.129017778754664 
849	 0.128898723750806 
850	 0.128762538463208 
851	 0.128711642718113 
852	 0.128648802833034 
853	 0.128618878265249 
854	 0.128631745807484 
855	 0.128620781188285 
856	 0.128572690721935 
857	 0.128532200060264 
858	 0.128526866754794 
859	 0.128497989491968 
860	 0.128508696295504 
861	 0.128531201213184 
862	 0.128531612236151 
863	 0.128601503317289 
864	 0.128653863066319 
865	 0.128678602821901 
866	 0.128716102921329 
867	 0.128765337578079 
868	 0.128832269917209 
869	 0.128936049282993 
870	 0.129096824365018 
871	 0.129173562461143 
872	 0.129229693423651 
873	 0.129318912217386 
874	 0.129419702173147 
875	 0.129532220370027 
876	 0.129666614534721 
877	 0.129815324802542 
878	 0.129906474425278 
879	 0.130122326338234 
880	 0.130357405396968 
881	 0.130468295362458 
882	 0.130605093531173 
883	 0.130808137431561 
884	 0.131054662745072 
885	 0.13129060708964 
886	 0.131527259216059 
887	 0.131755188183873 
888	 0.131975322569353 
889	 0.13220085038956 
890	 0.132472565983664 
891	 0.132725724638651 
892	 0.132961279234331 
893	 0.133270276872965 
894	 0.133542147974726 
895	 0.133830833076193 
896	 0.134159249364756 
897	 0.134438509691744 
898	 0.134747545347784 
899	 0.135096976740285 
900	 0.13547005542919 
901	 0.135824795427638 
902	 0.136227607139103 
903	 0.136620118133075 
904	 0.136941196325591 
905	 0.137283018218003 
906	 0.137641046781331 
907	 0.138051609665955 
908	 0.138544912700963 
909	 0.1390450764139 
910	 0.139465641768327 
911	 0.139862149535791 
912	 0.140355579314355 
913	 0.140819660200064 
914	 0.141322681740065 
915	 0.141842906484623 
916	 0.142286808252608 
917	 0.142782545940996 
918	 0.143293052095542 
919	 0.143797382879986 
920	 0.144319400224678 
921	 0.144929721475759 
922	 0.145564259093627 
923	 0.146168037482458 
924	 0.146739366324249 
925	 0.147260156862909 
926	 0.147846858415842 
927	 0.148512644806751 
928	 0.14903728547171 
929	 0.149724016900909 
930	 0.150436808591527 
931	 0.151047696347048 
932	 0.151714504216339 
933	 0.152408163802762 
934	 0.153125447502056 
935	 0.153861345618875 
936	 0.154595996181698 
937	 0.155305317451879 
938	 0.156043922622558 
939	 0.156854910532398 
940	 0.157648050546507 
941	 0.1584875485719 
942	 0.159370865751269 
943	 0.160251794370176 
944	 0.161029032759335 
945	 0.161860096123218 
946	 0.162744655039246 
947	 0.163612019998129 
948	 0.164466166197637 
949	 0.165288039936755 
950	 0.166138221441676 
951	 0.167104556003009 
952	 0.168204672294115 
953	 0.16920029907556 
954	 0.170088613531995 
955	 0.171009025781987 
956	 0.172000313335233 
957	 0.173022855160857 
958	 0.174001559222259 
959	 0.174904991420904 
960	 0.176016467712955 
961	 0.177207342445161 
962	 0.178348869961037 
963	 0.179371544200141 
964	 0.180399760326466 
965	 0.181493864644435 
966	 0.182602973935793 
967	 0.18363428379071 
968	 0.184695414509954 
969	 0.185817894930034 
970	 0.186977376223664 
971	 0.188124558975076 
972	 0.189302577855229 
973	 0.190509152690347 
974	 0.191711699919907 
975	 0.192883694020668 
976	 0.194135800555693 
977	 0.195370672759045 
978	 0.196533582909485 
979	 0.197654981877997 
980	 0.198983560042905 
981	 0.200294046995551 
982	 0.201511514798671 
983	 0.202700835579196 
984	 0.203972765629502 
985	 0.205331758141226 
986	 0.206643002802323 
987	 0.207785598447668 
988	 0.209076342890388 
989	 0.210277332760783 
990	 0.211430574870981 
991	 0.212698925519232 
992	 0.214027106710329 
993	 0.215199733382862 
994	 0.216490216497657 
995	 0.218115747836226 
996	 0.219165199382769 
997	 0.220355070196974 
998	 0.221640125920592 
999	 0.222781037894788 
1000	 0.2240431877995 
1001	 0.221084793326251 
1002	 0.222161215431859 
1003	 0.223310256446343 
1004	 0.224484879957011 
1005	 0.225676440200793 
1006	 0.226834731498681 
1007	 0.228037759678913 
1008	 0.229184322807302 
1009	 0.23026108624452 
1010	 0.23138242676308 
1011	 0.232491927243573 
1012	 0.233637804939265 
1013	 0.234791694720543 
1014	 0.235863394127072 
1015	 0.237000162712212 
1016	 0.238158042738148 
1017	 0.239254658051547 
1018	 0.240310870437605 
1019	 0.241396964562852 
1020	 0.242442170786517 
1021	 0.243433110956493 
1022	 0.244467132173999 
1023	 0.24551874635275 
1024	 0.246563859867406 
1025	 0.247624057659455 
1026	 0.248614342869904 
1027	 0.249546376545754 
1028	 0.250465079267974 
1029	 0.251358005376877 
1030	 0.252292211128653 
1031	 0.253216264935055 
1032	 0.254168202673018 
1033	 0.25511014901365 
1034	 0.256031260593669 
1035	 0.256847419082395 
1036	 0.257689944774083 
1037	 0.258618851174408 
1038	 0.259521922871438 
1039	 0.260477197651856 
1040	 0.261425934852786 
1041	 0.262259598228545 
1042	 0.263125639489343 
1043	 0.264010439311564 
1044	 0.264852571051282 
1045	 0.265678293257323 
1046	 0.266530626062961 
1047	 0.26736704416112 
1048	 0.268160042747865 
1049	 0.268953484442403 
1050	 0.269785225890365 
1051	 0.27061490597913 
1052	 0.271432338032891 
1053	 0.272264452228547 
1054	 0.273107261921551 
1055	 0.273891298992352 
1056	 0.274690592730733 
1057	 0.275488660117964 
1058	 0.276271864306298 
1059	 0.277059959437621 
1060	 0.277866934924742 
1061	 0.278647363975026 
1062	 0.27940132477577 
1063	 0.280184264323103 
1064	 0.28091135080802 
1065	 0.281617835965352 
1066	 0.282291080663642 
1067	 0.282956905813826 
1068	 0.283703912082292 
1069	 0.284467803639281 
1070	 0.285191376559665 
1071	 0.285932948714889 
1072	 0.286661439029075 
1073	 0.28733444478656 
1074	 0.288029511996163 
1075	 0.288761410324885 
1076	 0.289446672371573 
1077	 0.29007462550658 
1078	 0.290681442950136 
1079	 0.291303825941158 
1080	 0.292005487192893 
1081	 0.292717585155684 
1082	 0.293401719850023 
1083	 0.29408003758946 
1084	 0.294729492478272 
1085	 0.295373886463366 
1086	 0.296008768157384 
1087	 0.296658312849152 
1088	 0.297291945712731 
1089	 0.297935268951042 
1090	 0.298623452728341 
1091	 0.299329082689507 
1092	 0.299996632836405 
1093	 0.300615219732613 
1094	 0.301200405488967 
1095	 0.30180965362755 
1096	 0.302446011995289 
1097	 0.303120987013053 
1098	 0.303809048810737 
1099	 0.304532900209761 
1100	 0.305230177710123 
1101	 0.305958849681291 
1102	 0.306641968837457 
1103	 0.307288965071553 
1104	 0.307963820124347 
1105	 0.308613335415853 
1106	 0.30926695050668 
1107	 0.309963595427682 
1108	 0.310678301698439 
1109	 0.311397024984128 
1110	 0.312122288986259 
1111	 0.312855008753398 
1112	 0.313605908438459 
1113	 0.314323001933289 
1114	 0.315015434192271 
1115	 0.315751683421386 
1116	 0.316496893888266 
1117	 0.317237541123902 
1118	 0.318009195207319 
1119	 0.318767531878537 
1120	 0.319495986397243 
1121	 0.320229998516668 
1122	 0.320978243291405 
1123	 0.3216966501191 
1124	 0.322409532133982 
1125	 0.323097909425522 
1126	 0.32381038500403 
1127	 0.324516807664025 
1128	 0.325250981307325 
1129	 0.326022570104006 
1130	 0.326749370595042 
1131	 0.327470711738244 
1132	 0.328186159003071 
1133	 0.328887615529461 
1134	 0.32957144831346 
1135	 0.330240163918544 
1136	 0.330906628319943 
1137	 0.331586015051009 
1138	 0.332264263398274 
1139	 0.332953596514995 
1140	 0.333686221567609 
1141	 0.334376742772409 
1142	 0.335051009082831 
1143	 0.335713701964656 
1144	 0.336374351688126 
1145	 0.337005779816538 
1146	 0.337606390032017 
1147	 0.338213458932204 
1148	 0.33879558942281 
1149	 0.339391650143913 
1150	 0.339990221000831 
1151	 0.34060162116154 
1152	 0.341206522902597 
1153	 0.341800322451395 
1154	 0.342367790071422 
1155	 0.34290772769824 
1156	 0.343460166631774 
1157	 0.343998574956363 
1158	 0.344541776864891 
1159	 0.34509926362253 
1160	 0.34563962367401 
1161	 0.346173215022727 
1162	 0.346695663438076 
1163	 0.347210920238983 
1164	 0.347714260969895 
1165	 0.348199376411673 
1166	 0.348689487417791 
1167	 0.349166142748273 
1168	 0.349666919692002 
1169	 0.350132528124697 
1170	 0.350585595238574 
1171	 0.351034893629116 
1172	 0.351449548486538 
1173	 0.351905563868365 
1174	 0.352401573193895 
1175	 0.352850741347856 
1176	 0.353302692471841 
1177	 0.353734399167546 
1178	 0.354117071801543 
1179	 0.35452387309827 
1180	 0.354954043166701 
1181	 0.355358197019262 
1182	 0.355757633239022 
1183	 0.356147235578757 
1184	 0.356512238126479 
1185	 0.356843234593082 
1186	 0.357199837582944 
1187	 0.357548994054262 
1188	 0.357907361909788 
1189	 0.358290777887295 
1190	 0.358640683519074 
1191	 0.358981292084768 
1192	 0.359308396472242 
1193	 0.359603350066693 
1194	 0.359919059230185 
1195	 0.360246263224938 
1196	 0.360556075052217 
1197	 0.360870512709855 
1198	 0.361172464919958 
1199	 0.361462784399965 
1200	 0.36172735368502 
1201	 0.362014197068617 
1202	 0.362313274337557 
1203	 0.362585779138439 
1204	 0.362854688040001 
1205	 0.363114186945703 
1206	 0.363356440788729 
1207	 0.363593736269809 
1208	 0.363817881429983 
1209	 0.364056655846035 
1210	 0.364296595941872 
1211	 0.364527655708533 
1212	 0.36478283850593 
1213	 0.365006497705221 
1214	 0.36518657466959 
1215	 0.365387137023492 
1216	 0.365588829632896 
1217	 0.365786092457167 
1218	 0.365983391576377 
1219	 0.366190659356875 
1220	 0.366389831985145 
1221	 0.366585401313254 
1222	 0.366769646166116 
1223	 0.366946869153814 
1224	 0.367130465328494 
1225	 0.367310966382736 
1226	 0.367481419274267 
1227	 0.367651199468881 
1228	 0.367823466656383 
1229	 0.367980481277695 
1230	 0.36814569736676 
1231	 0.368333569225665 
1232	 0.368502954023339 
1233	 0.36866429592879 
1234	 0.368814143610212 
1235	 0.368970956890499 
1236	 0.369128375743686 
1237	 0.369270783639017 
1238	 0.369410322516614 
1239	 0.369545177443789 
1240	 0.369660728233714 
1241	 0.369786233607702 
1242	 0.369926511527047 
1243	 0.370046443539266 
1244	 0.370143852940262 
1245	 0.37026088527674 
1246	 0.370386422514741 
1247	 0.370498424852968 
1248	 0.37060948809054 
1249	 0.37072871728982 
1250	 0.370836262215016 
1251	 0.370936251440997 
1252	 0.371042472213149 
1253	 0.371161362552507 
1254	 0.371268073907223 
1255	 0.371365581821028 
1256	 0.371464874824811 
1257	 0.371563643503036 
1258	 0.371661366509886 
1259	 0.371752286387784 
1260	 0.371850608097105 
1261	 0.371948509726201 
1262	 0.372054670735001 
1263	 0.372182361601743 
1264	 0.372287170675039 
1265	 0.372382040197602 
1266	 0.372481607595649 
1267	 0.372573512484514 
1268	 0.372654785485334 
1269	 0.372743864317577 
1270	 0.372847080846338 
1271	 0.37292348855289 
1272	 0.372975640313963 
1273	 0.373060360436951 
1274	 0.373139935913583 
1275	 0.373244473393881 
1276	 0.373382647966783 
1277	 0.373503286154735 
1278	 0.373634652938733 
1279	 0.373749866152914 
1280	 0.373852240292985 
1281	 0.373962099475365 
1282	 0.374068793875374 
1283	 0.374172109026561 
1284	 0.374283598102031 
1285	 0.374386942822423 
1286	 0.374460852031229 
1287	 0.374539767670073 
1288	 0.374600847370676 
1289	 0.374639873995076 
1290	 0.374687553769575 
1291	 0.374723484313226 
1292	 0.374775406580746 
1293	 0.374842358217459 
1294	 0.374893296294364 
1295	 0.374958294706034 
1296	 0.374988600347477 
1297	 0.37499859071666 
1298	 0.374994066701283 
1299	 0.374960486883933 
1300	 0.374931006512138 
1301	 0.374888544003096 
1302	 0.374846970142597 
1303	 0.374804808327956 
1304	 0.374754365419831 
1305	 0.374706277074643 
1306	 0.374665072927084 
1307	 0.374631902714748 
1308	 0.374616467417961 
1309	 0.374569194025103 
1310	 0.374514130206908 
1311	 0.374455063102328 
1312	 0.374373626183029 
1313	 0.374300836665132 
1314	 0.37421582135653 
1315	 0.374166381221818 
1316	 0.374131633641039 
1317	 0.37409815683248 
1318	 0.374100753126018 
1319	 0.374080720408788 
1320	 0.37402725626337 
1321	 0.374005971015732 
1322	 0.373997064116289 
1323	 0.37399979943741 
1324	 0.373998089836523 
1325	 0.374017305202568 
1326	 0.374032890471948 
1327	 0.374057907976765 
1328	 0.374097856421821 
1329	 0.374153011447447 
1330	 0.374202596289314 
1331	 0.374239053538925 
1332	 0.374307484145915 
1333	 0.374403087488059 
1334	 0.374473321899185 
1335	 0.37454756711647 
1336	 0.374630768320548 
1337	 0.374689357599897 
1338	 0.374782077717115 
1339	 0.374906700648386 
1340	 0.375025517724615 
1341	 0.375158337508494 
1342	 0.375282754567817 
1343	 0.375411813305743 
1344	 0.375533881888172 
1345	 0.375644333193843 
1346	 0.375742852158145 
1347	 0.37584528197188 
1348	 0.375957870506679 
1349	 0.37606207347221 
1350	 0.376181552741578 
1351	 0.376300712866675 
1352	 0.376418660758396 
1353	 0.376539287888358 
1354	 0.376666809555473 
1355	 0.376796738202281 
1356	 0.376942857769789 
1357	 0.377055830983421 
1358	 0.377145431839809 
1359	 0.377258782598042 
1360	 0.377360272367088 
1361	 0.377465889233922 
1362	 0.377614729201041 
1363	 0.377722843663266 
1364	 0.377791871898572 
1365	 0.377879423216443 
1366	 0.377972598200744 
1367	 0.378032986631553 
1368	 0.378126478654328 
1369	 0.378213013388041 
1370	 0.378269697410954 
1371	 0.378327828264665 
1372	 0.378384571207531 
1373	 0.378432120419586 
1374	 0.378476300801517 
1375	 0.37853402860249 
1376	 0.378560652782616 
1377	 0.378566036656923 
1378	 0.378566850173968 
1379	 0.378555438515926 
1380	 0.378536098944587 
1381	 0.378503459965288 
1382	 0.378471768908094 
1383	 0.37843866856672 
1384	 0.378386646655826 
1385	 0.378333184891571 
1386	 0.37826384781352 
1387	 0.378179477861777 
1388	 0.378083047377725 
1389	 0.377987612915897 
1390	 0.377845988020651 
1391	 0.377707983614229 
1392	 0.37755901858571 
1393	 0.377383523095176 
1394	 0.377219879057947 
1395	 0.377038071022762 
1396	 0.376821030400536 
1397	 0.376603184062398 
1398	 0.376368072162759 
1399	 0.376139006617798 
1400	 0.375903396390945 
1401	 0.375667692640505 
1402	 0.375447638653144 
1403	 0.375200214341157 
1404	 0.374926785156829 
1405	 0.374664454029037 
1406	 0.374383243900333 
1407	 0.374119063332518 
1408	 0.373867354795818 
1409	 0.373617689498117 
1410	 0.373365737555609 
1411	 0.373133241870858 
1412	 0.372897694622912 
1413	 0.372696469584518 
1414	 0.372529816336896 
1415	 0.37237659378587 
1416	 0.372259814888829 
1417	 0.372154166155485 
1418	 0.372045891124332 
1419	 0.371956395456018 
1420	 0.371874391366426 
1421	 0.371792742740514 
1422	 0.371726752105512 
1423	 0.371650750800334 
1424	 0.371557140746434 
1425	 0.371437857122681 
1426	 0.371358782700811 
1427	 0.371277665678327 
1428	 0.371211308797584 
1429	 0.371181083315484 
1430	 0.371134463112213 
1431	 0.371071607199833 
1432	 0.371029490069653 
1433	 0.371002534370196 
1434	 0.370972251493394 
1435	 0.37094151729998 
1436	 0.370929992541489 
1437	 0.370937581337148 
1438	 0.370935404768804 
1439	 0.370941898041515 
1440	 0.37094418837793 
1441	 0.37093927338981 
1442	 0.37091238146466 
1443	 0.370914142654608 
1444	 0.370921232347886 
1445	 0.370928109589351 
1446	 0.37095212124872 
1447	 0.370952176847602 
1448	 0.370946509135487 
1449	 0.37095544602237 
1450	 0.370968345326765 
1451	 0.370986143823138 
1452	 0.371023942344214 
1453	 0.37104786864425 
1454	 0.371063492195185 
1455	 0.371087550214689 
1456	 0.371112853566197 
1457	 0.371137316506583 
1458	 0.371162414714633 
1459	 0.371187998942805 
1460	 0.371212426960535 
1461	 0.371245940783208 
1462	 0.371277924305549 
1463	 0.371326738539291 
1464	 0.371390081004667 
1465	 0.371450732238564 
1466	 0.371527737843198 
1467	 0.371593638827016 
1468	 0.371649123525467 
1469	 0.371711412091344 
1470	 0.371776129696223 
1471	 0.371834399917683 
1472	 0.371898247581013 
1473	 0.371993022770854 
1474	 0.372092665560027 
1475	 0.372188084864904 
1476	 0.372294019237302 
1477	 0.372390847425957 
1478	 0.372463843628045 
1479	 0.372559500016637 
1480	 0.372663140632691 
1481	 0.37274687792937 
1482	 0.372842512477557 
1483	 0.372953421929812 
1484	 0.373042802057805 
1485	 0.373119524406052 
1486	 0.373211964572192 
1487	 0.3732948779141 
1488	 0.373398880724979 
1489	 0.373518112803483 
1490	 0.373640276419079 
1491	 0.373768665174618 
1492	 0.373908079433256 
1493	 0.374069345115259 
1494	 0.374210435167406 
1495	 0.374365211564151 
1496	 0.374493039340581 
1497	 0.374596561161017 
1498	 0.374701776975584 
1499	 0.374786754063142 
1500	 0.37487906065578 
1501	 0.374973926958803 
1502	 0.375059182710572 
1503	 0.375131956020972 
1504	 0.375225070090579 
1505	 0.37531965017082 
1506	 0.375402469325217 
1507	 0.375489491569508 
1508	 0.375573305809627 
1509	 0.375625006707967 
1510	 0.375681376741705 
1511	 0.375746148097534 
1512	 0.375815274606206 
1513	 0.375907304709826 
1514	 0.37600443794779 
1515	 0.376095185178088 
1516	 0.376163427041215 
1517	 0.376226279552243 
1518	 0.376268504482818 
1519	 0.376322915404563 
1520	 0.376371443904274 
1521	 0.376434938155412 
1522	 0.376507139738975 
1523	 0.376579437706588 
1524	 0.376669122267045 
1525	 0.376729283488292 
1526	 0.376773125348731 
1527	 0.376823861043624 
1528	 0.376857952340545 
1529	 0.3769080179366 
1530	 0.376966042050616 
1531	 0.377027013239676 
1532	 0.377087820775557 
1533	 0.377161727000895 
1534	 0.377256948214591 
1535	 0.377336230099528 
1536	 0.377425770558086 
1537	 0.377495690403955 
1538	 0.377539730888969 
1539	 0.37759530745633 
1540	 0.377639223044555 
1541	 0.377696178677344 
1542	 0.377773516628788 
1543	 0.377838718310055 
1544	 0.377909509217005 
1545	 0.377964259550339 
1546	 0.378001426336239 
1547	 0.378040486068601 
1548	 0.378065122846025 
1549	 0.378111200244806 
1550	 0.378181097118163 
1551	 0.378230990917315 
1552	 0.378279473302206 
1553	 0.378324669632501 
1554	 0.378359429128803 
1555	 0.378400278121128 
1556	 0.378448473939009 
1557	 0.37850300960067 
1558	 0.378553046855344 
1559	 0.378599165939967 
1560	 0.37864557935127 
1561	 0.37869281906597 
1562	 0.378737390986379 
1563	 0.378775695027608 
1564	 0.378830387605498 
1565	 0.378899107259205 
1566	 0.378945775233984 
1567	 0.378987744611708 
1568	 0.37903289862811 
1569	 0.379066419406547 
1570	 0.379106284902824 
1571	 0.379157360155411 
1572	 0.379197915964084 
1573	 0.379222960087324 
1574	 0.379266116508478 
1575	 0.379323922164379 
1576	 0.379371358361359 
1577	 0.379417867493371 
1578	 0.379463759808568 
1579	 0.379512150354018 
1580	 0.379544969975664 
1581	 0.379563022189893 
1582	 0.379601324865584 
1583	 0.379625623023855 
1584	 0.379674998894221 
1585	 0.379761755708449 
1586	 0.379828137293786 
1587	 0.3799037959469 
1588	 0.379958795420018 
1589	 0.380001296675157 
1590	 0.380039434158535 
1591	 0.380054565648837 
1592	 0.380082732812669 
1593	 0.380103249354791 
1594	 0.380142157195636 
1595	 0.380195780415488 
1596	 0.380251418008986 
1597	 0.380333641351919 
1598	 0.380391284078936 
1599	 0.380448015311106 
1600	 0.380486374384886 
1601	 0.380492134426788 
1602	 0.380511329723 
1603	 0.380511972900875 
1604	 0.380534575459524 
1605	 0.380585630747654 
1606	 0.380623669207027 
1607	 0.380674930670804 
1608	 0.380706372707933 
1609	 0.380733979143831 
1610	 0.380756397233922 
1611	 0.380782055162362 
1612	 0.380844357389822 
1613	 0.380873632502934 
1614	 0.380902748960779 
1615	 0.380952893597946 
1616	 0.380960533844372 
1617	 0.38098847815317 
1618	 0.381030921330857 
1619	 0.381050344021713 
1620	 0.381070997761439 
1621	 0.381080280273275 
1622	 0.381084299454134 
1623	 0.38109109414423 
1624	 0.38108016223847 
1625	 0.38110120799066 
1626	 0.381141725575381 
1627	 0.381173787590999 
1628	 0.381207028069472 
1629	 0.381265866367455 
1630	 0.381334757787349 
1631	 0.38140253248151 
1632	 0.381499237172397 
1633	 0.381568314441531 
1634	 0.381623358851895 
1635	 0.381673555004589 
1636	 0.381728656633675 
1637	 0.381748688109059 
1638	 0.381737916466845 
1639	 0.381743765360261 
1640	 0.381724195908708 
1641	 0.38174058870384 
1642	 0.381781195006575 
1643	 0.381813823809419 
1644	 0.381864720572947 
1645	 0.381890738998437 
1646	 0.381899741096854 
1647	 0.381927654235475 
1648	 0.381948877173204 
1649	 0.381982461735371 
1650	 0.382031919603863 
1651	 0.382080981484085 
1652	 0.382142172065071 
1653	 0.38217926177051 
1654	 0.382219399797526 
1655	 0.38223881005511 
1656	 0.382216148060117 
1657	 0.382233747501637 
1658	 0.382269593725671 
1659	 0.382288497103578 
1660	 0.382316160185189 
1661	 0.382336832836581 
1662	 0.382341010286956 
1663	 0.382352103515673 
1664	 0.382371546522046 
1665	 0.382385680036924 
1666	 0.382396096653792 
1667	 0.382400432115103 
1668	 0.382394777641333 
1669	 0.382408291687915 
1670	 0.382419100527034 
1671	 0.382442557305785 
1672	 0.382481681234247 
1673	 0.382531085969549 
1674	 0.382599979937544 
1675	 0.382644786303774 
1676	 0.382691084559923 
1677	 0.382736727846385 
1678	 0.382765871598387 
1679	 0.382797641594925 
1680	 0.382846387637499 
1681	 0.382873747423955 
1682	 0.382877142366753 
1683	 0.382889812543004 
1684	 0.382899725681979 
1685	 0.382912461433841 
1686	 0.382918646151136 
1687	 0.3829413741879 
1688	 0.38298228461304 
1689	 0.383004793362789 
1690	 0.383026008894857 
1691	 0.383050692658544 
1692	 0.383064480877564 
1693	 0.383083871417722 
1694	 0.383120175086714 
1695	 0.383137117497086 
1696	 0.383135131731009 
1697	 0.383147248103496 
1698	 0.38315164764461 
1699	 0.383176753277242 
1700	 0.38322995981197 
1701	 0.383254669066824 
1702	 0.383276905366152 
1703	 0.383295551103644 
1704	 0.383293016379188 
1705	 0.383302799399611 
1706	 0.383310269241823 
1707	 0.383340240948598 
1708	 0.383380867378817 
1709	 0.383423214741992 
1710	 0.383510259090664 
1711	 0.383535522148075 
1712	 0.383515939425358 
1713	 0.383529138953422 
1714	 0.383522766743462 
1715	 0.383531527118377 
1716	 0.383576887971738 
1717	 0.383588452663923 
1718	 0.383575279026948 
1719	 0.383577718021386 
1720	 0.383591450862676 
1721	 0.383576329388514 
1722	 0.383540326890055 
1723	 0.383525853055211 
1724	 0.383493150086719 
1725	 0.383486893092238 
1726	 0.383516046910179 
1727	 0.383527610922891 
1728	 0.383541491234579 
1729	 0.383540161096921 
1730	 0.383534033766507 
1731	 0.383522343740063 
1732	 0.383500401655953 
1733	 0.383477798894515 
1734	 0.383458375075022 
1735	 0.383418938106332 
1736	 0.383363447929838 
1737	 0.383304504029636 
1738	 0.383231619989289 
1739	 0.383160627380125 
1740	 0.383082799889025 
1741	 0.383016916480974 
1742	 0.382946000261546 
1743	 0.382901005764881 
1744	 0.382867862025464 
1745	 0.382853062266887 
1746	 0.382865252794179 
1747	 0.382880516693712 
1748	 0.382884892124739 
1749	 0.382891846266932 
1750	 0.382859056538998 
1751	 0.382771803362042 
1752	 0.382684219293937 
1753	 0.382591713268517 
1754	 0.382514751808193 
1755	 0.382473449368429 
1756	 0.382430961445938 
1757	 0.382399648752811 
1758	 0.382364891027945 
1759	 0.382345601312917 
1760	 0.382375522418003 
1761	 0.382386805468573 
1762	 0.382369563655638 
1763	 0.382370004637652 
1764	 0.382334176375905 
1765	 0.382273992771209 
1766	 0.382261015144354 
1767	 0.382225781758196 
1768	 0.382185119548233 
1769	 0.382181325670528 
1770	 0.382169728010794 
1771	 0.382175525169115 
1772	 0.38218273406973 
1773	 0.382182782549666 
1774	 0.382176521929683 
1775	 0.382160292344104 
1776	 0.382167524992079 
1777	 0.382169980531224 
1778	 0.382149124119446 
1779	 0.382122139424508 
1780	 0.382078479908636 
1781	 0.382019411976663 
1782	 0.381983915028885 
1783	 0.381993719281169 
1784	 0.382010667880907 
1785	 0.382095415560858 
1786	 0.382122345681702 
1787	 0.382107012973024 
1788	 0.382099584721568 
1789	 0.382065740634541 
1790	 0.382041529495331 
1791	 0.382028350062865 
1792	 0.382022050814624 
1793	 0.382008073930864 
1794	 0.382011340136352 
1795	 0.382036635873784 
1796	 0.382056526908725 
1797	 0.382081113509165 
1798	 0.382113463858996 
1799	 0.382156726398764 
1800	 0.382185535973249 
1801	 0.379203363325607 
1802	 0.379241377478723 
1803	 0.379304864822281 
1804	 0.379319127172914 
1805	 0.379361684785482 
1806	 0.379422507412077 
1807	 0.3794395268629 
1808	 0.379454412837838 
1809	 0.379463313853144 
1810	 0.379471015632735 
1811	 0.379464444085641 
1812	 0.379462873930237 
1813	 0.379433531705268 
1814	 0.37941576467955 
1815	 0.379400605772102 
1816	 0.379365475346784 
1817	 0.379372631520508 
1818	 0.379437209471376 
1819	 0.37945503451828 
1820	 0.379464636525573 
1821	 0.379486151860268 
1822	 0.379469865721742 
1823	 0.379448204239071 
1824	 0.379439775454591 
1825	 0.379417834350486 
1826	 0.379462967053299 
1827	 0.379521477852297 
1828	 0.379543547524668 
1829	 0.379586777826678 
1830	 0.379602991560745 
1831	 0.379589688303001 
1832	 0.379529373075453 
1833	 0.379517328980067 
1834	 0.379499349820132 
1835	 0.379473318058554 
1836	 0.379486549398993 
1837	 0.379516285528941 
1838	 0.379529053929288 
1839	 0.379529004699004 
1840	 0.379530233198575 
1841	 0.379517308652405 
1842	 0.379483627364412 
1843	 0.379445871166775 
1844	 0.379414825851087 
1845	 0.379395596267573 
1846	 0.379362853440882 
1847	 0.379321266381613 
1848	 0.379280075250976 
1849	 0.379221453110712 
1850	 0.379168061262751 
1851	 0.379105823780212 
1852	 0.37906954127459 
1853	 0.379032655173373 
1854	 0.378973644896778 
1855	 0.378951108878897 
1856	 0.378941343247515 
1857	 0.378905224505602 
1858	 0.378871512330247 
1859	 0.378824792261339 
1860	 0.378745615751469 
1861	 0.378624837232421 
1862	 0.378491988726155 
1863	 0.378356087189586 
1864	 0.378191984332585 
1865	 0.37800263915804 
1866	 0.377784608007384 
1867	 0.377554051921379 
1868	 0.377300684199193 
1869	 0.377041671621978 
1870	 0.376816556026845 
1871	 0.376582787937386 
1872	 0.376351127687158 
1873	 0.37613943535456 
1874	 0.375923211615204 
1875	 0.375644714134165 
1876	 0.375349187198051 
1877	 0.375014023653167 
1878	 0.37460553120501 
1879	 0.374146924748771 
1880	 0.373660195149886 
1881	 0.373140948952059 
1882	 0.372565685264791 
1883	 0.371947853380865 
1884	 0.371285785491877 
1885	 0.370580999029795 
1886	 0.369790312746819 
1887	 0.368960863971708 
1888	 0.368104799935481 
1889	 0.367202888490624 
1890	 0.366282747328593 
1891	 0.365324378013454 
1892	 0.364325549845112 
1893	 0.363302818101887 
1894	 0.362249012011396 
1895	 0.361170082234696 
1896	 0.360024642350525 
1897	 0.358883273271692 
1898	 0.357727647018818 
1899	 0.356544964460278 
1900	 0.355395340686302 
1901	 0.354247504326158 
1902	 0.353105186820696 
1903	 0.351953550367506 
1904	 0.350828278041235 
1905	 0.349700504624774 
1906	 0.34863301680569 
1907	 0.347577722383108 
1908	 0.34657378826172 
1909	 0.345646097491217 
1910	 0.344763017037936 
1911	 0.343956424187683 
1912	 0.343199382529767 
1913	 0.342452153048402 
1914	 0.341729630233811 
1915	 0.34104930787176 
1916	 0.340390207709606 
1917	 0.339766424612002 
1918	 0.339198227363339 
1919	 0.338665586533858 
1920	 0.338197284239104 
1921	 0.33777682930239 
1922	 0.337404340720961 
1923	 0.337062712928867 
1924	 0.336740718558963 
1925	 0.336433688116451 
1926	 0.336167819384961 
1927	 0.335929049665301 
1928	 0.335730120803584 
1929	 0.335562337020192 
1930	 0.335428543942459 
1931	 0.335331093503496 
1932	 0.335290913419327 
1933	 0.335287586332047 
1934	 0.335305280488527 
1935	 0.335343952358565 
1936	 0.335415655278896 
1937	 0.335486556927136 
1938	 0.33556841652238 
1939	 0.335677834512166 
1940	 0.335803966852346 
1941	 0.335947169024943 
1942	 0.336113299980709 
1943	 0.336296521074081 
1944	 0.336478429263294 
1945	 0.336654686361102 
1946	 0.336838627757587 
1947	 0.337014592907777 
1948	 0.337215830950425 
1949	 0.33743768024527 
1950	 0.337657225512663 
1951	 0.337893734520678 
1952	 0.338124671060662 
1953	 0.338350678212916 
1954	 0.338589185009586 
1955	 0.3388342792828 
1956	 0.339103276178632 
1957	 0.339372011840695 
1958	 0.339648959353577 
1959	 0.339925793532447 
1960	 0.340211801235486 
1961	 0.340497721480551 
1962	 0.340779726321735 
1963	 0.341072333787569 
1964	 0.341369219756914 
1965	 0.341668323933428 
1966	 0.341981954444109 
1967	 0.34234056201263 
1968	 0.342698533373829 
1969	 0.343090529399261 
1970	 0.343454272575183 
1971	 0.343823327883273 
1972	 0.344178877323663 
1973	 0.344506873797202 
1974	 0.344858468307672 
1975	 0.34522644267546 
1976	 0.345572991498852 
1977	 0.345932013313792 
1978	 0.346300876607207 
1979	 0.346648528272876 
1980	 0.347011210726972 
1981	 0.347386274659282 
1982	 0.347776269135415 
1983	 0.348163461422144 
1984	 0.348560522368918 
1985	 0.348958172712372 
1986	 0.349368928945194 
1987	 0.349757474940017 
1988	 0.350141685893816 
1989	 0.350521819579524 
1990	 0.350888521215131 
1991	 0.351257469428862 
1992	 0.3516073758372 
1993	 0.351944107420359 
1994	 0.352294717792884 
1995	 0.352619291141964 
1996	 0.352976235409724 
1997	 0.353378808840409 
1998	 0.353749909283743 
1999	 0.354106469606934 
2000	 0.354476015293359 
2001	 0.354838537764042 
2002	 0.355204453121065 
2003	 0.355590008094992 
2004	 0.355987257702854 
2005	 0.356367045655349 
2006	 0.35674192061551 
2007	 0.357116014706012 
2008	 0.357489264108222 
2009	 0.357846354726206 
2010	 0.358197119515352 
2011	 0.358544400427086 
2012	 0.358867242695992 
2013	 0.359206889875403 
2014	 0.359546650253398 
2015	 0.359891374506464 
2016	 0.3602812313187 
2017	 0.360679305171987 
2018	 0.361050792058487 
2019	 0.361434240599317 
2020	 0.361803094285943 
2021	 0.362148156741793 
2022	 0.362486063665374 
2023	 0.362831649044551 
2024	 0.363161935116148 
2025	 0.363454186691023 
2026	 0.363762685462038 
2027	 0.364078894968654 
2028	 0.364391162475059 
2029	 0.364701662057128 
2030	 0.365012420876815 
2031	 0.365313841746436 
2032	 0.36561260854723 
2033	 0.365907380764053 
2034	 0.366188703903362 
2035	 0.366481624418382 
2036	 0.36677518779386 
2037	 0.367070838855992 
2038	 0.367404952442828 
2039	 0.367682587113549 
2040	 0.367927737057371 
2041	 0.36817154591223 
2042	 0.36840206282189 
2043	 0.368597903931924 
2044	 0.368819118624975 
2045	 0.369062765797045 
2046	 0.369285930917164 
2047	 0.369488494454097 
2048	 0.369712935755125 
2049	 0.369952209113588 
2050	 0.370170672559642 
2051	 0.370393781573898 
2052	 0.370606398677688 
2053	 0.370786510197359 
2054	 0.370990551401224 
2055	 0.371205742987584 
2056	 0.371419827043731 
2057	 0.371637631486673 
2058	 0.371869009028481 
2059	 0.372085186029347 
2060	 0.372295146320176 
2061	 0.37250579588061 
2062	 0.372719332935593 
2063	 0.372918735318284 
2064	 0.373110233012151 
2065	 0.373300628723996 
2066	 0.373478103427911 
2067	 0.373659557006755 
2068	 0.373847757456943 
2069	 0.374018189676027 
2070	 0.374210825304423 
2071	 0.374402394916088 
2072	 0.374611165269518 
2073	 0.37484805049084 
2074	 0.375058962291584 
2075	 0.375265163006927 
2076	 0.375473710610506 
2077	 0.375688173932424 
2078	 0.375875879353286 
2079	 0.376040504854979 
2080	 0.376227409206071 
2081	 0.376401393039212 
2082	 0.376581343596893 
2083	 0.376789849547372 
2084	 0.376979347937691 
2085	 0.377184015555587 
2086	 0.377386026560132 
2087	 0.377582796768826 
2088	 0.377802056896704 
2089	 0.37798752093617 
2090	 0.378141206353236 
2091	 0.378308521989008 
2092	 0.378469488645926 
2093	 0.378632545989392 
2094	 0.378783963272769 
2095	 0.378956717359808 
2096	 0.379146658617967 
2097	 0.379326203259063 
2098	 0.379505586180608 
2099	 0.379698942653487 
2100	 0.37989748129531 
2101	 0.380093555652797 
2102	 0.380292087426664 
2103	 0.380507353643919 
2104	 0.380715306469745 
2105	 0.380894693083987 
2106	 0.381119860861539 
2107	 0.381371492930152 
2108	 0.381626768745208 
2109	 0.38192768634212 
2110	 0.382190941601536 
2111	 0.382438147971929 
2112	 0.382689290006678 
2113	 0.382925563499096 
2114	 0.383157368769225 
2115	 0.383406353891243 
2116	 0.383675376177525 
2117	 0.383918699183556 
2118	 0.384165810001787 
2119	 0.384387689757579 
2120	 0.384590834445135 
2121	 0.384786798107283 
2122	 0.38496691693067 
2123	 0.385142894263349 
2124	 0.38531202051694 
2125	 0.385468857602863 
2126	 0.385601648438496 
2127	 0.385750597434685 
2128	 0.385909218320703 
2129	 0.38604800607454 
2130	 0.386198980008076 
2131	 0.386333777435736 
2132	 0.386420326972295 
2133	 0.386456840335436 
2134	 0.386518057689442 
2135	 0.386563597013818 
2136	 0.38659551943194 
2137	 0.386630373029643 
2138	 0.386648907237815 
2139	 0.386640819149917 
2140	 0.386627028568784 
2141	 0.38661829114846 
2142	 0.386586662474225 
2143	 0.386528631104043 
2144	 0.386464328046239 
2145	 0.386409180566191 
2146	 0.386311440978752 
2147	 0.386178523494195 
2148	 0.386043247817595 
2149	 0.38587301426837 
2150	 0.385652282474846 
2151	 0.385456524182575 
2152	 0.385237081561503 
2153	 0.385054132145755 
2154	 0.384904777521189 
2155	 0.384717686113195 
2156	 0.384543357946252 
2157	 0.384339664866966 
2158	 0.384080865922485 
2159	 0.383856045029805 
2160	 0.383655050084166 
2161	 0.383423892868325 
2162	 0.383186259952903 
2163	 0.382946516088748 
2164	 0.382692834400925 
2165	 0.38242631349562 
2166	 0.382152475428536 
2167	 0.381871433169546 
2168	 0.381601555399784 
2169	 0.381317014733059 
2170	 0.381047613159802 
2171	 0.380803310467044 
2172	 0.380541683967345 
2173	 0.380259314801074 
2174	 0.380002711947269 
2175	 0.379762769812822 
2176	 0.379512959152939 
2177	 0.37927908250868 
2178	 0.379028013402262 
2179	 0.378763552814823 
2180	 0.378495730766418 
2181	 0.378216079532467 
2182	 0.377941009062976 
2183	 0.377649418345994 
2184	 0.377367635322667 
2185	 0.377129903718132 
2186	 0.376915735843033 
2187	 0.376709400526073 
2188	 0.376554558060767 
2189	 0.376358184454414 
2190	 0.376158245810273 
2191	 0.375936640096678 
2192	 0.375671587838128 
2193	 0.375458045945952 
2194	 0.375239417384 
2195	 0.375051772967573 
2196	 0.374919850788072 
2197	 0.374770021537782 
2198	 0.374607399291515 
2199	 0.37447444239696 
2200	 0.374388798397688 
2201	 0.374265204213093 
2202	 0.374139518601108 
2203	 0.37400026872792 
2204	 0.373881484614835 
2205	 0.373724234322307 
2206	 0.373638729419928 
2207	 0.373612541270667 
2208	 0.373564276732787 
2209	 0.373522990958674 
2210	 0.373499077403153 
2211	 0.373482926022244 
2212	 0.373480807270347 
2213	 0.3735066194633 
2214	 0.37352870980216 
2215	 0.373559671021363 
2216	 0.373585818766912 
2217	 0.373626971445385 
2218	 0.373645429117613 
2219	 0.373631249225445 
2220	 0.373648665241158 
2221	 0.373675220379654 
2222	 0.373702690892107 
2223	 0.373743784829075 
2224	 0.373758353337852 
2225	 0.373749515145891 
2226	 0.373706800828295 
2227	 0.373671278363027 
2228	 0.373622270724571 
2229	 0.373569451945797 
2230	 0.37351211097568 
2231	 0.373435301862322 
2232	 0.373323199390901 
2233	 0.373262020275508 
2234	 0.373203733680223 
2235	 0.373164059089186 
2236	 0.373180090321939 
2237	 0.373158189988895 
2238	 0.373115500934725 
2239	 0.373083905973755 
2240	 0.373044626105022 
2241	 0.37301921356555 
2242	 0.373002288395709 
2243	 0.372989107339903 
2244	 0.372988953295262 
2245	 0.372975724233452 
2246	 0.372962839626453 
2247	 0.373014577522076 
2248	 0.37305354941999 
2249	 0.373114111694168 
2250	 0.373160601301719 
2251	 0.373215763371312 
2252	 0.373259806980232 
2253	 0.373300112818234 
2254	 0.373327941285048 
2255	 0.37336144785422 
2256	 0.373353408686787 
2257	 0.373311603261658 
2258	 0.373282640846689 
2259	 0.373219505035008 
2260	 0.37318454122029 
2261	 0.373157983091872 
2262	 0.373144693913216 
2263	 0.373145053199875 
2264	 0.373155913027131 
2265	 0.373167609692225 
2266	 0.373211019666708 
2267	 0.373304938901068 
2268	 0.373359123309838 
2269	 0.37340247601139 
2270	 0.373480455405921 
2271	 0.373517037683509 
2272	 0.373516642216495 
2273	 0.373532430369368 
2274	 0.373532186519848 
2275	 0.37355665679695 
2276	 0.373583427570921 
2277	 0.373611063765445 
2278	 0.373667159419855 
2279	 0.373688974669707 
2280	 0.373654122300833 
2281	 0.373697641003218 
2282	 0.37378471498763 
2283	 0.373849381951407 
2284	 0.373961651164153 
2285	 0.374027600068066 
2286	 0.374044404322321 
2287	 0.37408412235664 
2288	 0.374124723517001 
2289	 0.374165243428538 
2290	 0.374193052564845 
2291	 0.37423958860642 
2292	 0.374306651874698 
2293	 0.374370979135958 
2294	 0.374459171911344 
2295	 0.374529551990053 
2296	 0.374605770108662 
2297	 0.374626593496805 
2298	 0.374649955957101 
2299	 0.374690219539152 
2300	 0.37475417518663 
2301	 0.374782565544191 
2302	 0.374836147773364 
2303	 0.374877695160922 
2304	 0.374871128969206 
2305	 0.374909745460863 
2306	 0.374917002632258 
2307	 0.374905380069813 
2308	 0.37490830352254 
2309	 0.374898664003708 
2310	 0.37490527069304 
2311	 0.374929053705324 
2312	 0.3749464106097 
2313	 0.374982054454633 
2314	 0.374988407555722 
2315	 0.374959598099982 
2316	 0.374973213167955 
2317	 0.374993882935215 
2318	 0.375012392277673 
2319	 0.375055080879981 
2320	 0.375093690550576 
2321	 0.375120819381461 
2322	 0.375164516945133 
2323	 0.375269999346909 
2324	 0.375293791657101 
2325	 0.375274057733686 
2326	 0.375230794732346 
2327	 0.375094527237546 
2328	 0.375010714689849 
2329	 0.375027953958266 
2330	 0.375101069582174 
2331	 0.375186042412067 
2332	 0.37531591256012 
2333	 0.375353592863458 
2334	 0.375332882408224 
2335	 0.375387298590724 
2336	 0.375404115799483 
2337	 0.375436525115905 
2338	 0.375521011296351 
2339	 0.375537935197786 
2340	 0.375524755884823 
2341	 0.375520461189923 
2342	 0.375429247862516 
2343	 0.375337920379962 
2344	 0.37527074340353 
2345	 0.375202127289369 
2346	 0.375127983371578 
2347	 0.37508215797004 
2348	 0.375077152518029 
2349	 0.375009296504565 
2350	 0.374931173418706 
2351	 0.374836086154008 
2352	 0.37470295855443 
2353	 0.374538090589581 
2354	 0.374346593394983 
2355	 0.374162445017852 
2356	 0.373900925380685 
2357	 0.373746387805534 
2358	 0.373672114972632 
2359	 0.373576075844665 
2360	 0.373503504087448 
2361	 0.373464022130426 
2362	 0.373495495393717 
2363	 0.373402562692633 
2364	 0.373261634524702 
2365	 0.373147204246538 
2366	 0.372973476312596 
2367	 0.372789972689579 
2368	 0.372640148233262 
2369	 0.372451041630492 
2370	 0.372199133731189 
2371	 0.37193965097612 
2372	 0.371716488287519 
2373	 0.371521215104945 
2374	 0.371237754576509 
2375	 0.370922666931055 
2376	 0.37062308661489 
2377	 0.370344090261089 
2378	 0.370202905095739 
2379	 0.370067829692464 
2380	 0.369767894208837 
2381	 0.369520721430166 
2382	 0.369299412683597 
2383	 0.369024989416413 
2384	 0.368954478195413 
2385	 0.368906108298715 
2386	 0.368678693468236 
2387	 0.368506207254635 
2388	 0.368365811796482 
2389	 0.368148315445957 
2390	 0.367962147383779 
2391	 0.367722401064637 
2392	 0.367407202552281 
2393	 0.367136157458954 
2394	 0.366941274204009 
2395	 0.366779870320296 
2396	 0.366596555030596 
2397	 0.366411174424407 
2398	 0.366200206941119 
2399	 0.365985941341476 
2400	 0.365737136779652 
2401	 0.365512121823647 
2402	 0.365278120063292 
2403	 0.364942281438682 
2404	 0.364697587717752 
2405	 0.364372045837582 
2406	 0.363938978025862 
2407	 0.36363686973157 
2408	 0.363277642660322 
2409	 0.362922700130802 
2410	 0.362713249503904 
2411	 0.362476854068262 
2412	 0.362205649267604 
2413	 0.362030980023186 
2414	 0.361846263888156 
2415	 0.361572444617736 
2416	 0.361322725911401 
2417	 0.361090133430368 
2418	 0.360819065584053 
2419	 0.360499732509164 
2420	 0.360250433038919 
2421	 0.36007248329437 
2422	 0.359813212910585 
2423	 0.359553354023767 
2424	 0.359267237425873 
2425	 0.358902077681385 
2426	 0.3585003270051 
2427	 0.358073347062725 
2428	 0.357653091069352 
2429	 0.357134629239452 
2430	 0.356797818228862 
2431	 0.35659617514857 
2432	 0.356338406403976 
2433	 0.356155538933483 
2434	 0.355855001682862 
2435	 0.355459321402571 
2436	 0.35516031589259 
2437	 0.354861389358238 
2438	 0.354606391690771 
2439	 0.354490043323467 
2440	 0.354152434632774 
2441	 0.353672731999215 
2442	 0.353313178559827 
2443	 0.352831026404333 
2444	 0.352556616742591 
2445	 0.352514757913918 
2446	 0.352224760524922 
2447	 0.35195298425309 
2448	 0.35163317555804 
2449	 0.351111894839045 
2450	 0.350746976073853 
2451	 0.350427604455365 
2452	 0.350146171942498 
2453	 0.349971663493221 
2454	 0.349685267338943 
2455	 0.349354303722933 
2456	 0.349120651569294 
2457	 0.348867802634368 
2458	 0.348614072557568 
2459	 0.348556393878976 
2460	 0.348237053726892 
2461	 0.347645097738423 
2462	 0.347252731119257 
2463	 0.346884169652354 
2464	 0.346468030424468 
2465	 0.346087130870347 
2466	 0.3457911230352 
2467	 0.345418297412522 
2468	 0.345142405322433 
2469	 0.345160644795549 
2470	 0.344742651600643 
2471	 0.344333136657543 
2472	 0.344158966419841 
2473	 0.343753749528717 
2474	 0.343338699649796 
2475	 0.343122300375833 
2476	 0.34277161333013 
2477	 0.342473279138079 
2478	 0.342355229953438 
2479	 0.342166688438056 
2480	 0.341885939456053 
2481	 0.34166141591437 
2482	 0.341521519429174 
2483	 0.341280234011703 
2484	 0.340992872069264 
2485	 0.340677384267635 
2486	 0.340155635698735 
2487	 0.339799634673736 
2488	 0.339539634022785 
2489	 0.339109274161611 
2490	 0.338848515550421 
2491	 0.338519228991587 
2492	 0.338173817534896 
2493	 0.338004123222433 
2494	 0.337713461672494 
2495	 0.33752407292377 
2496	 0.337488524290819 
2497	 0.337399416896054 
2498	 0.337252701023979 
2499	 0.337174853092669 
2500	 0.337000456540034 
