Wavelength	MM1000014.asd
350	 4.21457192881975E-02 
351	 5.48268857563231E-02 
352	 5.51923107344559E-02 
353	 4.13219300606421E-02 
354	 4.53324751845029E-02 
355	 4.50679090043098E-02 
356	 0.042875192616472 
357	 4.51944175504351E-02 
358	 5.04841021641999E-02 
359	 5.10867873973256E-02 
360	 4.72761885365655E-02 
361	 4.44018530288437E-02 
362	 4.16489049809123E-02 
363	 4.10962812035338E-02 
364	 4.32622873744861E-02 
365	 4.61353094282321E-02 
366	 4.50336653327783E-02 
367	 4.30336076475385E-02 
368	 4.38160321590516E-02 
369	 4.39850492073382E-02 
370	 4.50996851613152E-02 
371	 4.67233528214469E-02 
372	 4.71368417185279E-02 
373	 4.79604738819793E-02 
374	 4.68972700329746E-02 
375	 4.46176811228829E-02 
376	 0.048058832845695 
377	 4.54258554625885E-02 
378	 4.35888511139425E-02 
379	 5.00594993379277E-02 
380	 5.10147497176134E-02 
381	 4.70936289375808E-02 
382	 4.41071729279611E-02 
383	 4.98479698408924E-02 
384	 5.12654767579604E-02 
385	 5.05022064511285E-02 
386	 5.01465865316727E-02 
387	 4.89152047485707E-02 
388	 5.06056954811683E-02 
389	 0.052933489593118 
390	 5.25487315564796E-02 
391	 0.051199618743027 
392	 4.95412091356298E-02 
393	 0.049100764822284 
394	 5.17952384867257E-02 
395	 5.42053514755362E-02 
396	 0.054737965569694 
397	 5.37515170599643E-02 
398	 5.49702798207249E-02 
399	 5.49307278245248E-02 
400	 5.47211939515881E-02 
401	 5.61515779034797E-02 
402	 5.53015470757789E-02 
403	 5.45935502683358E-02 
404	 5.50164259740813E-02 
405	 5.57115669902205E-02 
406	 0.05682116253932 
407	 0.056907299775756 
408	 5.54886730592441E-02 
409	 5.49650179579302E-02 
410	 5.50770465387514E-02 
411	 5.58973127469619E-02 
412	 5.73489383364444E-02 
413	 5.76781436633952E-02 
414	 5.73172212362084E-02 
415	 5.69573680772366E-02 
416	 5.73253249939466E-02 
417	 5.71521138808185E-02 
418	 5.72233763857881E-02 
419	 5.80986398496596E-02 
420	 5.79298043064827E-02 
421	 5.71392728765294E-02 
422	 5.68572262391692E-02 
423	 5.82552003358448E-02 
424	 5.80844909034004E-02 
425	 5.78385597318469E-02 
426	 0.058244037441358 
427	 5.73994560291574E-02 
428	 5.75257521907993E-02 
429	 5.77553566301005E-02 
430	 5.68474583038896E-02 
431	 5.68941210481891E-02 
432	 5.71646876884492E-02 
433	 5.72000137536739E-02 
434	 5.69696512020896E-02 
435	 0.057292247429189 
436	 5.74696420441863E-02 
437	 5.69707722381246E-02 
438	 5.63460580683218E-02 
439	 5.65463664356875E-02 
440	 5.71735386648643E-02 
441	 5.72301023742546E-02 
442	 5.70131228218977E-02 
443	 5.71896457638384E-02 
444	 5.76515092955485E-02 
445	 5.70711157232524E-02 
446	 0.05686964330244 
447	 5.70731816994537E-02 
448	 5.72916449333628E-02 
449	 5.72064903364256E-02 
450	 5.73028211872162E-02 
451	 5.75239678311952E-02 
452	 5.73736533758047E-02 
453	 5.73910898902824E-02 
454	 5.72579288529476E-02 
455	 5.69204651226828E-02 
456	 5.74083832765718E-02 
457	 5.74714339478118E-02 
458	 5.71953116371271E-02 
459	 0.057211972558517 
460	 5.72393161952759E-02 
461	 5.73061121511217E-02 
462	 5.73928168291723E-02 
463	 5.73810063708824E-02 
464	 5.73317825501529E-02 
465	 5.74003017211402E-02 
466	 5.76220949657358E-02 
467	 5.74534477454866E-02 
468	 5.73839469044808E-02 
469	 5.73984302004194E-02 
470	 5.71068293950769E-02 
471	 5.72576269643103E-02 
472	 5.73194245738566E-02 
473	 5.70086592793837E-02 
474	 5.71450684604074E-02 
475	 0.057203183819853 
476	 5.72081913409877E-02 
477	 5.73492474067658E-02 
478	 5.72205651156174E-02 
479	 5.70065755017871E-02 
480	 5.69163960059855E-02 
481	 5.71230856757283E-02 
482	 5.72493582789204E-02 
483	 5.72788567428223E-02 
484	 5.73016259989571E-02 
485	 5.74049117771784E-02 
486	 5.72783441586827E-02 
487	 5.69756316481026E-02 
488	 5.68553919834813E-02 
489	 5.70202827959027E-02 
490	 5.71021911836919E-02 
491	 5.69385188534209E-02 
492	 5.71073980272487E-02 
493	 5.70174568658284E-02 
494	 5.68795038758397E-02 
495	 5.71704115287307E-02 
496	 5.73399652929225E-02 
497	 5.72208662651202E-02 
498	 5.69454257220989E-02 
499	 5.70179645205039E-02 
500	 5.71394812669533E-02 
501	 5.71744567082501E-02 
502	 5.70955080652317E-02 
503	 0.057158499776996 
504	 5.70887741117519E-02 
505	 5.69522125997874E-02 
506	 5.71115743498297E-02 
507	 5.71343331504001E-02 
508	 5.71548160321362E-02 
509	 5.72958989672545E-02 
510	 5.73639520667692E-02 
511	 5.73435021613072E-02 
512	 5.72488320829249E-02 
513	 5.71309048843035E-02 
514	 0.05715868564269 
515	 5.71610679872838E-02 
516	 5.71121605865452E-02 
517	 5.73213915490499E-02 
518	 5.73240042976055E-02 
519	 5.71917547411573E-02 
520	 5.71556918040968E-02 
521	 5.72559997557904E-02 
522	 5.73654350878801E-02 
523	 5.74177188391628E-02 
524	 5.74232202467713E-02 
525	 5.74341335788619E-02 
526	 5.74946052884717E-02 
527	 5.75832217166172E-02 
528	 5.74811787815572E-02 
529	 5.73859601780515E-02 
530	 5.74147924828984E-02 
531	 5.75970303296931E-02 
532	 0.05761966206268 
533	 5.76612861704559E-02 
534	 0.057807474916146 
535	 5.77894450280267E-02 
536	 5.77962564898777E-02 
537	 5.78957311855004E-02 
538	 5.80708480914422E-02 
539	 5.80771802202533E-02 
540	 5.80536020197636E-02 
541	 5.81009536149895E-02 
542	 5.82293170520566E-02 
543	 5.83050553945786E-02 
544	 5.83799012898954E-02 
545	 0.058517002074285 
546	 5.86079358454738E-02 
547	 5.86419580364331E-02 
548	 5.86987458410848E-02 
549	 5.89154211098012E-02 
550	 5.90676683403999E-02 
551	 5.91291216426835E-02 
552	 5.91578798719935E-02 
553	 5.93274642370125E-02 
554	 5.94904821981367E-02 
555	 5.96436783695538E-02 
556	 5.98526608796323E-02 
557	 6.00826685743455E-02 
558	 6.03046182980734E-02 
559	 6.05364535116896E-02 
560	 6.08882807753551E-02 
561	 6.11300114267723E-02 
562	 6.13424924221321E-02 
563	 6.16722075400035E-02 
564	 6.19828766383861E-02 
565	 6.22456223975767E-02 
566	 6.24941890019034E-02 
567	 0.062822892784484 
568	 6.32547256747209E-02 
569	 0.063716315706566 
570	 6.41617640772091E-02 
571	 6.47309377303026E-02 
572	 6.53267761512225E-02 
573	 6.59019260047061E-02 
574	 0.066452857243292 
575	 6.70485929561575E-02 
576	 6.76502417979144E-02 
577	 6.82296399100687E-02 
578	 6.88198384947789E-02 
579	 6.94060413594522E-02 
580	 7.00408053587672E-02 
581	 7.07890776428423E-02 
582	 7.15836785531621E-02 
583	 7.23907675704921E-02 
584	 7.32108426285453E-02 
585	 7.40909543261132E-02 
586	 7.50065038225333E-02 
587	 7.59114857285807E-02 
588	 0.076782710466907 
589	 7.77237485991334E-02 
590	 7.86880177963407E-02 
591	 7.96855855004915E-02 
592	 8.07783353328927E-02 
593	 8.17982796023503E-02 
594	 8.28639932458746E-02 
595	 8.40246584275477E-02 
596	 8.49893016111927E-02 
597	 0.085940776343938 
598	 8.68568412036743E-02 
599	 8.76439313307813E-02 
600	 8.85663710967069E-02 
601	 8.95152026536608E-02 
602	 9.03930853705893E-02 
603	 9.12018701061613E-02 
604	 9.20962626436082E-02 
605	 9.30008348978185E-02 
606	 9.37914895671399E-02 
607	 9.45882020051408E-02 
608	 9.54099380779598E-02 
609	 9.62450014518406E-02 
610	 9.70536098296461E-02 
611	 9.77318956315876E-02 
612	 9.83445753378987E-02 
613	 0.09896049422463 
614	 9.95119061552392E-02 
615	 0.100018111515064 
616	 0.100521959868873 
617	 0.101070776137964 
618	 0.101601641908435 
619	 0.102044669442155 
620	 0.102401872721029 
621	 0.102823317374788 
622	 0.103252807522469 
623	 0.103630359044876 
624	 0.103921924293843 
625	 0.104298498863707 
626	 0.104681717905854 
627	 0.105019541218169 
628	 0.105322195795684 
629	 0.105597990171917 
630	 0.105885872205025 
631	 0.106209028021642 
632	 0.106504760054182 
633	 0.106755184987843 
634	 0.106982863632493 
635	 0.107242976227388 
636	 0.107557430142711 
637	 0.10785675456275 
638	 0.108104412550706 
639	 0.108385790160683 
640	 0.108661344090599 
641	 0.108945732169613 
642	 0.109265062007778 
643	 0.109550506513969 
644	 0.10982030269263 
645	 0.110096289408303 
646	 0.110392739378301 
647	 0.110668102495148 
648	 0.110957250300086 
649	 0.111299067324179 
650	 0.111652238232793 
651	 0.112005372315839 
652	 0.112339320541907 
653	 0.112634647097977 
654	 0.112984480673802 
655	 0.113338092282929 
656	 0.113665949884241 
657	 0.11406084749881 
658	 0.114464258145182 
659	 0.114871798375105 
660	 0.115293774555444 
661	 0.115654262150129 
662	 0.116056550345666 
663	 0.116525445746041 
664	 0.116949605321773 
665	 0.117344081329359 
666	 0.117770902137935 
667	 0.118280227576917 
668	 0.118813898609898 
669	 0.119283533198237 
670	 0.119734308572373 
671	 0.120310443508052 
672	 0.12090609499162 
673	 0.12144523804099 
674	 0.121923158534969 
675	 0.122489866189471 
676	 0.12305984531187 
677	 0.123625598478206 
678	 0.124212593197777 
679	 0.12483731681737 
680	 0.125461350481529 
681	 0.126072662779573 
682	 0.126699079962567 
683	 0.127373068992142 
684	 0.128036030177628 
685	 0.128657790894911 
686	 0.129407870546736 
687	 0.130127006071714 
688	 0.130814052807102 
689	 0.13157050898715 
690	 0.132264751028941 
691	 0.132981345909359 
692	 0.133770245662629 
693	 0.134558627678315 
694	 0.135315101945585 
695	 0.136078709359242 
696	 0.136898634624101 
697	 0.137707077986529 
698	 0.13849866368438 
699	 0.139286342681821 
700	 0.140098770629461 
701	 0.140953437082377 
702	 0.141826574551396 
703	 0.142684269553653 
704	 0.143490266370121 
705	 0.144289319650886 
706	 0.145124761794093 
707	 0.146021844199333 
708	 0.146888988305627 
709	 0.147726360859229 
710	 0.148556415198726 
711	 0.149420737202875 
712	 0.15021567735281 
713	 0.151003725946098 
714	 0.151856287772378 
715	 0.152685910968062 
716	 0.153489701737779 
717	 0.154290505890944 
718	 0.155120556614157 
719	 0.155906108665902 
720	 0.156639150384447 
721	 0.157346922094092 
722	 0.15810930898678 
723	 0.158817779242794 
724	 0.159507395825422 
725	 0.160229424713995 
726	 0.160848824325002 
727	 0.161438499408355 
728	 0.162017994812962 
729	 0.162550824489188 
730	 0.163124037518135 
731	 0.163654631801488 
732	 0.164093699643108 
733	 0.16454708482734 
734	 0.164984708213275 
735	 0.165387744397024 
736	 0.165737553495395 
737	 0.166001724800281 
738	 0.166269165600109 
739	 0.166545381261694 
740	 0.166738202461661 
741	 0.166909334695996 
742	 0.167049274100086 
743	 0.167152903522499 
744	 0.167274762778835 
745	 0.16731198952806 
746	 0.167300897138705 
747	 0.167322670043819 
748	 0.167260451552856 
749	 0.167136001211651 
750	 0.166999684678805 
751	 0.166917114386347 
752	 0.166705028044787 
753	 0.166447336897395 
754	 0.166234628720608 
755	 0.165987122624129 
756	 0.165700368143977 
757	 0.165398589030934 
758	 0.165104112260852 
759	 0.164692662025113 
760	 0.164296958976364 
761	 0.163953760175479 
762	 0.163552101816056 
763	 0.163091696465523 
764	 0.162616728752529 
765	 0.162162990109817 
766	 0.161704725915106 
767	 0.161225002233293 
768	 0.160709234246434 
769	 0.160154010067847 
770	 0.159612707169378 
771	 0.159082364144507 
772	 0.158552974163641 
773	 0.158013783730183 
774	 0.157443976079129 
775	 0.156860574973616 
776	 0.156287280661557 
777	 0.155745678888503 
778	 0.155163479750714 
779	 0.154571704174619 
780	 0.154033880091777 
781	 0.153495412755479 
782	 0.152909522593784 
783	 0.152288383855779 
784	 0.151705544145459 
785	 0.151178336155445 
786	 0.150639604266541 
787	 0.150050031586842 
788	 0.149467966315412 
789	 0.148960519568364 
790	 0.148452621540874 
791	 0.147855380706321 
792	 0.147331208769373 
793	 0.146784786103971 
794	 0.146217514579397 
795	 0.145716350094978 
796	 0.145194873058115 
797	 0.144667932154886 
798	 0.144155619982823 
799	 0.14365772061899 
800	 0.143179598876511 
801	 0.142712093700117 
802	 0.142238519515393 
803	 0.141728503317289 
804	 0.141270822212713 
805	 0.140846194813813 
806	 0.14037737109836 
807	 0.139927830344478 
808	 0.139504055919478 
809	 0.139086519138957 
810	 0.138631326712428 
811	 0.13822056947357 
812	 0.137813013395471 
813	 0.137386732353292 
814	 0.137053779980671 
815	 0.136714717449139 
816	 0.13634224013477 
817	 0.135951968643063 
818	 0.135604271050963 
819	 0.135287783300679 
820	 0.134974637861109 
821	 0.134632406527846 
822	 0.134296393075003 
823	 0.13397723969457 
824	 0.133676572434417 
825	 0.133387541732586 
826	 0.133137693717863 
827	 0.132872453677337 
828	 0.13256033237652 
829	 0.132312175712681 
830	 0.132072300097974 
831	 0.131853467080631 
832	 0.131680386823071 
833	 0.131440865852482 
834	 0.131222662288994 
835	 0.13101854744557 
836	 0.130738445421705 
837	 0.130604460243354 
838	 0.130496793013581 
839	 0.130317098426209 
840	 0.130101799527507 
841	 0.129910537164694 
842	 0.129792420027873 
843	 0.129742491784001 
844	 0.129618188751698 
845	 0.129472719144946 
846	 0.129350731807141 
847	 0.12927415875605 
848	 0.129156335179821 
849	 0.129055150335767 
850	 0.128979570616153 
851	 0.128892397397492 
852	 0.128812148005828 
853	 0.12876693128885 
854	 0.128762555624552 
855	 0.128771058629074 
856	 0.128736055184739 
857	 0.128691142083714 
858	 0.128673879747331 
859	 0.128668384121757 
860	 0.128701755387986 
861	 0.128722549255259 
862	 0.128690010409535 
863	 0.128729890019536 
864	 0.128801191100233 
865	 0.12886887879664 
866	 0.128910244469582 
867	 0.128933999929878 
868	 0.129003311191408 
869	 0.129123226051342 
870	 0.129234870325847 
871	 0.129321249070595 
872	 0.129379492463009 
873	 0.129437994776203 
874	 0.129564424701108 
875	 0.129670330996747 
876	 0.129788671158187 
877	 0.129951505282196 
878	 0.130106198515259 
879	 0.130287578559361 
880	 0.130482128701525 
881	 0.130663153314809 
882	 0.1308190141287 
883	 0.131025298948381 
884	 0.131261853985725 
885	 0.131462221006846 
886	 0.131645184460767 
887	 0.131877419282904 
888	 0.13214934223626 
889	 0.132388743409201 
890	 0.13261863272003 
891	 0.13285568258178 
892	 0.133132006643672 
893	 0.133485841272523 
894	 0.13370045518948 
895	 0.133976721702329 
896	 0.134386151607156 
897	 0.134624371741321 
898	 0.134947700415832 
899	 0.135316957061207 
900	 0.135657337086115 
901	 0.136002125431887 
902	 0.136435851472776 
903	 0.136847950713628 
904	 0.137132281625571 
905	 0.137458579067393 
906	 0.137862257721806 
907	 0.13830819588293 
908	 0.138742405348919 
909	 0.139225873804454 
910	 0.139672441992847 
911	 0.140091804160755 
912	 0.140552942861477 
913	 0.141030457828988 
914	 0.141503347498754 
915	 0.141992615040219 
916	 0.142538716166008 
917	 0.142995255777141 
918	 0.143458037537538 
919	 0.143993350622438 
920	 0.144583851418513 
921	 0.145109602837048 
922	 0.145659976683133 
923	 0.146285666265646 
924	 0.146924844807943 
925	 0.147499462769469 
926	 0.148079573902085 
927	 0.14870149468478 
928	 0.149275588128945 
929	 0.149965547919691 
930	 0.150667272476806 
931	 0.151291341324753 
932	 0.151944255937025 
933	 0.152662876932966 
934	 0.153421879916103 
935	 0.154168018402959 
936	 0.154829290831795 
937	 0.155569792030875 
938	 0.156348417179971 
939	 0.157101928357701 
940	 0.157959738561642 
941	 0.158790524363656 
942	 0.159582739809168 
943	 0.160388562769406 
944	 0.161289727345134 
945	 0.162193809295072 
946	 0.163047165454052 
947	 0.163836107886263 
948	 0.164596264340693 
949	 0.165524806915727 
950	 0.166501221759401 
951	 0.167336860373581 
952	 0.168377782397163 
953	 0.16943692867092 
954	 0.170395128551394 
955	 0.171249256026232 
956	 0.17226460555719 
957	 0.173325006013121 
958	 0.174347430312482 
959	 0.175320297686773 
960	 0.176414073665405 
961	 0.177519070307456 
962	 0.178594236767462 
963	 0.179652788166221 
964	 0.180643744401034 
965	 0.181802818053993 
966	 0.183017386810498 
967	 0.184016741878998 
968	 0.185138126675681 
969	 0.186317542203882 
970	 0.187446000769368 
971	 0.188470717588744 
972	 0.189741410219214 
973	 0.190926977906869 
974	 0.19204688533171 
975	 0.193333759866809 
976	 0.194586333238564 
977	 0.195776039108376 
978	 0.196918299915983 
979	 0.198072332324767 
980	 0.199379005083865 
981	 0.200728814055805 
982	 0.202025839087448 
983	 0.20323471105174 
984	 0.204485870143456 
985	 0.205785777769521 
986	 0.207052813723541 
987	 0.208226878599707 
988	 0.209590393538954 
989	 0.210826701654516 
990	 0.21197864298768 
991	 0.213236767233071 
992	 0.214459442425129 
993	 0.215668131470693 
994	 0.216972649033066 
995	 0.218396763672431 
996	 0.219489503240073 
997	 0.220855384705255 
998	 0.222246959882065 
999	 0.223342002493752 
1000	 0.224863967621381 
1001	 0.221660355072546 
1002	 0.222848135261359 
1003	 0.22401535900605 
1004	 0.225193308807646 
1005	 0.226395894429229 
1006	 0.227529929108718 
1007	 0.228615368355361 
1008	 0.22972454598307 
1009	 0.230876311625685 
1010	 0.232038355935202 
1011	 0.233207021052109 
1012	 0.234392018599288 
1013	 0.235508619198235 
1014	 0.236534399061513 
1015	 0.237591808952409 
1016	 0.238671082630746 
1017	 0.239735102070808 
1018	 0.240755392385535 
1019	 0.241853680645606 
1020	 0.242989093069055 
1021	 0.244027705466005 
1022	 0.245067486641568 
1023	 0.246097875462136 
1024	 0.247045578953461 
1025	 0.248023312349025 
1026	 0.249013781731279 
1027	 0.249982055299699 
1028	 0.25097783574399 
1029	 0.251929014564087 
1030	 0.252888432630401 
1031	 0.253832134219236 
1032	 0.25475285092179 
1033	 0.255640702641994 
1034	 0.256630365453579 
1035	 0.257565837491952 
1036	 0.258462007519516 
1037	 0.259363302857067 
1038	 0.260204640095549 
1039	 0.261105513240745 
1040	 0.261996524191851 
1041	 0.262863987320734 
1042	 0.263749623603748 
1043	 0.264569904011208 
1044	 0.265399776407235 
1045	 0.266209351657152 
1046	 0.267103100941309 
1047	 0.267989153379125 
1048	 0.268802884799715 
1049	 0.269668521723246 
1050	 0.270543424234762 
1051	 0.271366565980523 
1052	 0.272213567335479 
1053	 0.273029938495783 
1054	 0.273797974545512 
1055	 0.27452578570687 
1056	 0.275285775480961 
1057	 0.276085647245882 
1058	 0.276950458527469 
1059	 0.277740899393782 
1060	 0.278538910055603 
1061	 0.279303826755627 
1062	 0.280006699617795 
1063	 0.280742490361035 
1064	 0.281526134261452 
1065	 0.282305317616753 
1066	 0.283033052904083 
1067	 0.283726755271483 
1068	 0.284429295928674 
1069	 0.285125014694 
1070	 0.285829455987714 
1071	 0.28656767790921 
1072	 0.287295826808703 
1073	 0.288004162649061 
1074	 0.288702914205721 
1075	 0.289388798185872 
1076	 0.290123145847511 
1077	 0.290801185742622 
1078	 0.291462659397063 
1079	 0.292194379774271 
1080	 0.29285424315437 
1081	 0.293478281491586 
1082	 0.294151647692025 
1083	 0.294802031308293 
1084	 0.295402574944371 
1085	 0.296052291395282 
1086	 0.296742237144188 
1087	 0.297402170001325 
1088	 0.298053356727274 
1089	 0.298720336017989 
1090	 0.299382186495629 
1091	 0.300003133526633 
1092	 0.300648661530161 
1093	 0.301299036761607 
1094	 0.301945229068607 
1095	 0.302614028125328 
1096	 0.303247469667833 
1097	 0.30387412660438 
1098	 0.30451323738342 
1099	 0.305111962245299 
1100	 0.305774877704796 
1101	 0.306477819030267 
1102	 0.307188698890202 
1103	 0.30794101669083 
1104	 0.308693295864631 
1105	 0.309373469463318 
1106	 0.310079984073599 
1107	 0.310767706442932 
1108	 0.311435610901493 
1109	 0.312155103309416 
1110	 0.312861488958408 
1111	 0.313577108866301 
1112	 0.314297008033692 
1113	 0.315014822226168 
1114	 0.315735321652812 
1115	 0.316471994086032 
1116	 0.317207733219484 
1117	 0.317948586307938 
1118	 0.318715048763794 
1119	 0.319458536063858 
1120	 0.320201270298571 
1121	 0.320951997861389 
1122	 0.321660778860289 
1123	 0.322376256413146 
1124	 0.323105313128984 
1125	 0.323832158603918 
1126	 0.324547441260593 
1127	 0.325262758538076 
1128	 0.325994018782463 
1129	 0.326703071666918 
1130	 0.327440812526195 
1131	 0.328262319170181 
1132	 0.328998959889351 
1133	 0.329693467886766 
1134	 0.330387246446934 
1135	 0.331049148268469 
1136	 0.33167497315089 
1137	 0.332351145308273 
1138	 0.33302358855812 
1139	 0.333717338538224 
1140	 0.334450364740859 
1141	 0.335131701841832 
1142	 0.335807743818077 
1143	 0.336472402753711 
1144	 0.337102634097277 
1145	 0.337738727699851 
1146	 0.33837911082746 
1147	 0.339010395937623 
1148	 0.339640376829272 
1149	 0.340252493036891 
1150	 0.340857123607487 
1151	 0.341461133499657 
1152	 0.342015594401088 
1153	 0.342534203398262 
1154	 0.343072059238485 
1155	 0.343578084034443 
1156	 0.344118986767023 
1157	 0.344685242539193 
1158	 0.345240046353805 
1159	 0.34581484265215 
1160	 0.346361859062551 
1161	 0.346903333340012 
1162	 0.347425246482847 
1163	 0.347920748628521 
1164	 0.348419236776118 
1165	 0.348896345907111 
1166	 0.349398848386392 
1167	 0.349901584592393 
1168	 0.350384654437427 
1169	 0.350858493049286 
1170	 0.351323572279377 
1171	 0.351786472704032 
1172	 0.352237142213524 
1173	 0.352686961958565 
1174	 0.353139481792967 
1175	 0.353584852675171 
1176	 0.354030496061033 
1177	 0.354455612797057 
1178	 0.354868837175506 
1179	 0.355278343654289 
1180	 0.355680766294591 
1181	 0.356067644001005 
1182	 0.356433899516658 
1183	 0.35681207491966 
1184	 0.357194190912762 
1185	 0.357569431085584 
1186	 0.357938353096368 
1187	 0.358327424280173 
1188	 0.358683627129155 
1189	 0.359012548571632 
1190	 0.35934492629202 
1191	 0.359666782812874 
1192	 0.359992259993949 
1193	 0.360307580271104 
1194	 0.36063006705548 
1195	 0.360975944638403 
1196	 0.361291257202048 
1197	 0.361588686854337 
1198	 0.361887438415875 
1199	 0.362177969992945 
1200	 0.362450869207311 
1201	 0.362725617790632 
1202	 0.363008400853711 
1203	 0.363268633838779 
1204	 0.363501195270683 
1205	 0.363756546840381 
1206	 0.364022585783785 
1207	 0.364268127404495 
1208	 0.364507714972767 
1209	 0.364753408279805 
1210	 0.364989990231766 
1211	 0.365223029741365 
1212	 0.365473914217152 
1213	 0.365704397164937 
1214	 0.365902291253559 
1215	 0.366116015530512 
1216	 0.366332250888666 
1217	 0.366552892008882 
1218	 0.366761116847025 
1219	 0.366975310125794 
1220	 0.367173559769676 
1221	 0.367357980317727 
1222	 0.367538624671359 
1223	 0.367708764108354 
1224	 0.367885389308093 
1225	 0.368046989915543 
1226	 0.368227797110447 
1227	 0.368446603015763 
1228	 0.36862290952581 
1229	 0.368783651426198 
1230	 0.368943826674746 
1231	 0.369063790457896 
1232	 0.369205352807013 
1233	 0.369356498385661 
1234	 0.369526809606251 
1235	 0.36968386041926 
1236	 0.36985270340478 
1237	 0.369994100211804 
1238	 0.370116232817611 
1239	 0.370249897850544 
1240	 0.370366562584892 
1241	 0.370501701441561 
1242	 0.37066431660041 
1243	 0.370800584105713 
1244	 0.370939680348878 
1245	 0.371058448467997 
1246	 0.371144505672967 
1247	 0.37124410601113 
1248	 0.371332615708106 
1249	 0.371430279877016 
1250	 0.371542433261524 
1251	 0.371661040687132 
1252	 0.371779164181099 
1253	 0.37190503983017 
1254	 0.372025119749649 
1255	 0.37215479022082 
1256	 0.372260493534559 
1257	 0.372352562730885 
1258	 0.372448301566302 
1259	 0.372517572520568 
1260	 0.372614464895205 
1261	 0.372739953857738 
1262	 0.372841138167586 
1263	 0.372948715015006 
1264	 0.373041578751602 
1265	 0.373101051300144 
1266	 0.373181013756289 
1267	 0.37327717634907 
1268	 0.373346167967401 
1269	 0.373441894617028 
1270	 0.373557931892311 
1271	 0.37365490855662 
1272	 0.373751590649494 
1273	 0.373850980067762 
1274	 0.373942208063896 
1275	 0.37403646218159 
1276	 0.374128183416286 
1277	 0.374236971974902 
1278	 0.374350410667049 
1279	 0.374469133653033 
1280	 0.374622866436964 
1281	 0.374741607268997 
1282	 0.374838666385508 
1283	 0.374939928401611 
1284	 0.375039324295525 
1285	 0.375113270660046 
1286	 0.375197390707329 
1287	 0.375297746493672 
1288	 0.375365927249095 
1289	 0.3754218288307 
1290	 0.375469950475319 
1291	 0.375496498128435 
1292	 0.375528310895954 
1293	 0.375557679051611 
1294	 0.375580764715227 
1295	 0.375597157231387 
1296	 0.375611891640311 
1297	 0.375633656616285 
1298	 0.375630557853535 
1299	 0.375604283871065 
1300	 0.375590616533237 
1301	 0.375566901883783 
1302	 0.375541708156391 
1303	 0.375529790657173 
1304	 0.375508321752278 
1305	 0.375452625964399 
1306	 0.375398159815995 
1307	 0.375358694694845 
1308	 0.37531836649711 
1309	 0.37527201743472 
1310	 0.375242128465935 
1311	 0.375189505329499 
1312	 0.375107680189653 
1313	 0.375048455694703 
1314	 0.37498696649518 
1315	 0.374942644319046 
1316	 0.374922472816048 
1317	 0.374883355397567 
1318	 0.374831266784376 
1319	 0.374803296485835 
1320	 0.374772937200393 
1321	 0.374753414423266 
1322	 0.374749814497092 
1323	 0.374774041728496 
1324	 0.374761100616238 
1325	 0.374766870678292 
1326	 0.374782049847338 
1327	 0.37478226694088 
1328	 0.374804106102106 
1329	 0.374830203849881 
1330	 0.37488031811498 
1331	 0.374947743181146 
1332	 0.375024357454636 
1333	 0.375135193995618 
1334	 0.375213306742592 
1335	 0.375275289866893 
1336	 0.375357951562098 
1337	 0.375427912933728 
1338	 0.375522104752188 
1339	 0.375637237343346 
1340	 0.375760235903279 
1341	 0.375908788766489 
1342	 0.376032644542879 
1343	 0.376151839620748 
1344	 0.376287221587795 
1345	 0.376386295441266 
1346	 0.376464126304479 
1347	 0.376556165538123 
1348	 0.376654973822664 
1349	 0.37676230597316 
1350	 0.376893483715619 
1351	 0.377016667238228 
1352	 0.377151581505581 
1353	 0.37727585696624 
1354	 0.37739023100453 
1355	 0.377517560268958 
1356	 0.377660189937387 
1357	 0.377779662132391 
1358	 0.377881940144488 
1359	 0.37800860699639 
1360	 0.378148705092196 
1361	 0.37825888658864 
1362	 0.378380315063161 
1363	 0.378482144759908 
1364	 0.378538118102331 
1365	 0.378616379454892 
1366	 0.378706838619875 
1367	 0.378786128226285 
1368	 0.378872953329519 
1369	 0.378952943130679 
1370	 0.379031586280775 
1371	 0.379107336013429 
1372	 0.379169321496433 
1373	 0.379207211670031 
1374	 0.379237897399218 
1375	 0.37925478658707 
1376	 0.379262368638751 
1377	 0.379251756161489 
1378	 0.379251217542062 
1379	 0.379252861447477 
1380	 0.379235257639906 
1381	 0.379214707405722 
1382	 0.379185641615161 
1383	 0.37913031559859 
1384	 0.379085770645313 
1385	 0.379059358790937 
1386	 0.37900563665178 
1387	 0.378947536855715 
1388	 0.378867547143032 
1389	 0.378771356226695 
1390	 0.378653213081711 
1391	 0.378514261614883 
1392	 0.378357989958791 
1393	 0.378170658139277 
1394	 0.377968801145421 
1395	 0.377755528594929 
1396	 0.37753711397277 
1397	 0.377315798368588 
1398	 0.377089388189986 
1399	 0.376853681123264 
1400	 0.376611038091474 
1401	 0.376370670822151 
1402	 0.376131268035449 
1403	 0.375880599020069 
1404	 0.375616133991945 
1405	 0.375363069446132 
1406	 0.375107024295577 
1407	 0.374847911197592 
1408	 0.374597923103131 
1409	 0.374344115324505 
1410	 0.374061558346249 
1411	 0.373820803167128 
1412	 0.37359541498392 
1413	 0.373386470127336 
1414	 0.373216317754248 
1415	 0.373055353087933 
1416	 0.372922236130287 
1417	 0.37282027302745 
1418	 0.372738474942391 
1419	 0.3726642943559 
1420	 0.372577065479494 
1421	 0.372480461682828 
1422	 0.372391232294725 
1423	 0.3723146168509 
1424	 0.372230780429663 
1425	 0.372159188738564 
1426	 0.372084604912217 
1427	 0.371993037948967 
1428	 0.371919105088121 
1429	 0.371857152874854 
1430	 0.371801797675595 
1431	 0.371745630961518 
1432	 0.371708605171699 
1433	 0.371696517800111 
1434	 0.371672529614047 
1435	 0.371647939491851 
1436	 0.371636597431466 
1437	 0.371628104431819 
1438	 0.371620488192965 
1439	 0.371627101232411 
1440	 0.371629131423505 
1441	 0.371622377956026 
1442	 0.37162366311532 
1443	 0.371615376322788 
1444	 0.37161870024641 
1445	 0.371623931760095 
1446	 0.371627748504626 
1447	 0.371643540878606 
1448	 0.371653539871477 
1449	 0.371661708894142 
1450	 0.371672917571351 
1451	 0.371692131591411 
1452	 0.371716023088758 
1453	 0.371747835228439 
1454	 0.371797243400532 
1455	 0.371823192558514 
1456	 0.37184374236835 
1457	 0.371863783017869 
1458	 0.371865693835157 
1459	 0.371881232041884 
1460	 0.371900488689291 
1461	 0.371931573095862 
1462	 0.371970382843689 
1463	 0.372016109814553 
1464	 0.372075787361347 
1465	 0.372127808368168 
1466	 0.372176916074463 
1467	 0.372231261170122 
1468	 0.372292746974548 
1469	 0.372355395920383 
1470	 0.372421127085534 
1471	 0.372479164423825 
1472	 0.37256639592271 
1473	 0.372645687174221 
1474	 0.372736570328908 
1475	 0.372850747060308 
1476	 0.372943094293867 
1477	 0.373020190723128 
1478	 0.373104924213642 
1479	 0.373197344349788 
1480	 0.373298701696197 
1481	 0.373407282531736 
1482	 0.373506544004328 
1483	 0.373609409950421 
1484	 0.373700805456409 
1485	 0.373776703455962 
1486	 0.373869660546248 
1487	 0.373963928633606 
1488	 0.374061644061892 
1489	 0.374157443061781 
1490	 0.374275087371942 
1491	 0.374410074886125 
1492	 0.374537391801655 
1493	 0.374683269112808 
1494	 0.374819324884279 
1495	 0.374936844462598 
1496	 0.375069257069358 
1497	 0.375229085164353 
1498	 0.375353109412679 
1499	 0.375464435433128 
1500	 0.375571228670299 
1501	 0.375654251322113 
1502	 0.375736625424722 
1503	 0.375816183279637 
1504	 0.375893225941753 
1505	 0.375973266236712 
1506	 0.376046873723648 
1507	 0.37611881658317 
1508	 0.376209627782461 
1509	 0.376285121035785 
1510	 0.376348691550195 
1511	 0.37643749615 
1512	 0.376526903136031 
1513	 0.376617570684001 
1514	 0.376719044427952 
1515	 0.376796013289923 
1516	 0.37686408532884 
1517	 0.376930328974598 
1518	 0.376980472590543 
1519	 0.377042338559703 
1520	 0.377113452072977 
1521	 0.377165152665196 
1522	 0.377206398229472 
1523	 0.377259451914534 
1524	 0.377302170297383 
1525	 0.377361623962638 
1526	 0.377442316125824 
1527	 0.377505778666265 
1528	 0.377568086515396 
1529	 0.377623966611972 
1530	 0.377669749958807 
1531	 0.377721730100758 
1532	 0.377761944253745 
1533	 0.377823956780447 
1534	 0.37790173826101 
1535	 0.377974881268135 
1536	 0.378066785654299 
1537	 0.378143419527924 
1538	 0.378212861499545 
1539	 0.378275823879346 
1540	 0.378325848299635 
1541	 0.378380904189437 
1542	 0.37844169016335 
1543	 0.378488024003058 
1544	 0.378523930503819 
1545	 0.378567342274673 
1546	 0.378604965441776 
1547	 0.37863329328209 
1548	 0.378694704839657 
1549	 0.378751812503691 
1550	 0.378809574849845 
1551	 0.378880701199323 
1552	 0.378947690330861 
1553	 0.379023047011287 
1554	 0.379081985232727 
1555	 0.379139314762171 
1556	 0.379185302263636 
1557	 0.379209130996553 
1558	 0.379255754057416 
1559	 0.379294800092077 
1560	 0.379340682502339 
1561	 0.379397655157955 
1562	 0.379437473290579 
1563	 0.379468276962522 
1564	 0.379514324862058 
1565	 0.379550956111781 
1566	 0.379604225165781 
1567	 0.379684669447107 
1568	 0.379737463523058 
1569	 0.37978397811464 
1570	 0.379827324547447 
1571	 0.379861203853393 
1572	 0.379891092915564 
1573	 0.379913348615539 
1574	 0.379941943073009 
1575	 0.379959958280706 
1576	 0.379995063621715 
1577	 0.380043315003501 
1578	 0.380093050572102 
1579	 0.380161531120859 
1580	 0.380206622651514 
1581	 0.38023476215746 
1582	 0.380279180259973 
1583	 0.380308637644189 
1584	 0.380362163998783 
1585	 0.380448094335482 
1586	 0.380518028613771 
1587	 0.380603248192089 
1588	 0.380660592036811 
1589	 0.380693844003368 
1590	 0.380735423205759 
1591	 0.380757302667898 
1592	 0.380794451301364 
1593	 0.380844570940788 
1594	 0.380893491680086 
1595	 0.380955597454304 
1596	 0.381001784274198 
1597	 0.381046650508846 
1598	 0.381080362982743 
1599	 0.38109135821138 
1600	 0.38110952532897 
1601	 0.381128956531226 
1602	 0.381143612022689 
1603	 0.381140103805928 
1604	 0.381164027383118 
1605	 0.381204670669739 
1606	 0.381241027375573 
1607	 0.381301343316679 
1608	 0.381348664053488 
1609	 0.381384744969934 
1610	 0.381414396367756 
1611	 0.381449314169917 
1612	 0.381502584973942 
1613	 0.381541276599735 
1614	 0.381567280318756 
1615	 0.381600490332024 
1616	 0.381629327415045 
1617	 0.38166380403871 
1618	 0.381686673846673 
1619	 0.38169246353234 
1620	 0.381702515347918 
1621	 0.381718733523336 
1622	 0.381738688007612 
1623	 0.38175222105366 
1624	 0.381769302857195 
1625	 0.381782189516033 
1626	 0.381775983909474 
1627	 0.381811539087231 
1628	 0.381860123758576 
1629	 0.381926204688966 
1630	 0.382028702221509 
1631	 0.382104128679491 
1632	 0.382185890381321 
1633	 0.382248856666296 
1634	 0.382300808946295 
1635	 0.382342250842395 
1636	 0.382373778404255 
1637	 0.382395818357429 
1638	 0.382399332698199 
1639	 0.382415663022676 
1640	 0.382420954270226 
1641	 0.382448689719544 
1642	 0.382496357154484 
1643	 0.382526284983927 
1644	 0.382560540037072 
1645	 0.382591449330277 
1646	 0.382609293572404 
1647	 0.382636852166441 
1648	 0.382672527061117 
1649	 0.382704078343504 
1650	 0.382737105350973 
1651	 0.382762427651673 
1652	 0.38278411503244 
1653	 0.382807573942938 
1654	 0.382819118269325 
1655	 0.382848407852841 
1656	 0.382896152991165 
1657	 0.382924485858925 
1658	 0.382956369404889 
1659	 0.382973668925682 
1660	 0.382962398021106 
1661	 0.382981014270604 
1662	 0.383015277132436 
1663	 0.383032582988026 
1664	 0.383057243394733 
1665	 0.383072988062517 
1666	 0.383059079752575 
1667	 0.383080309940651 
1668	 0.383119401310888 
1669	 0.383159877909114 
1670	 0.383230471854342 
1671	 0.383263222787115 
1672	 0.383267366867901 
1673	 0.3833040420621 
1674	 0.383339782617834 
1675	 0.383375943370182 
1676	 0.383443939045715 
1677	 0.383481676101753 
1678	 0.383484914112092 
1679	 0.383514967585792 
1680	 0.383561446174843 
1681	 0.383588572757377 
1682	 0.383617392120193 
1683	 0.383635550583007 
1684	 0.383623479047035 
1685	 0.383642722652611 
1686	 0.383684346981606 
1687	 0.383704558086372 
1688	 0.383725873134923 
1689	 0.383748679383943 
1690	 0.383758023981337 
1691	 0.383773664811701 
1692	 0.383807169859531 
1693	 0.383816416260471 
1694	 0.383798836687263 
1695	 0.383808729284542 
1696	 0.383822251292544 
1697	 0.383841015537358 
1698	 0.383879763563603 
1699	 0.383906275906101 
1700	 0.38392777509006 
1701	 0.383947545332087 
1702	 0.383962904677685 
1703	 0.383985615329569 
1704	 0.384009071123641 
1705	 0.384031094895518 
1706	 0.3840559263737 
1707	 0.384085918478402 
1708	 0.384115577125644 
1709	 0.38414646625888 
1710	 0.384188575811978 
1711	 0.384215826157988 
1712	 0.384231328294365 
1713	 0.384255801001586 
1714	 0.384292921865604 
1715	 0.384299921323244 
1716	 0.384289878531197 
1717	 0.384286811510489 
1718	 0.384271921011348 
1719	 0.384249827952748 
1720	 0.384223133491344 
1721	 0.384213808945426 
1722	 0.384196854269117 
1723	 0.384185752018331 
1724	 0.384207742217369 
1725	 0.384193129489748 
1726	 0.384136310704263 
1727	 0.384125916431569 
1728	 0.384133242313635 
1729	 0.384128296025749 
1730	 0.384148880200908 
1731	 0.384140143351605 
1732	 0.384104729241614 
1733	 0.384086044309069 
1734	 0.384074843174141 
1735	 0.384034173563126 
1736	 0.38398161259235 
1737	 0.383928798416734 
1738	 0.383854447582092 
1739	 0.38379859053908 
1740	 0.383748505554056 
1741	 0.383704448414513 
1742	 0.383657803690811 
1743	 0.383628807358703 
1744	 0.383619075466467 
1745	 0.383607451433143 
1746	 0.383603574557006 
1747	 0.383597516655439 
1748	 0.383589826643847 
1749	 0.3835515994845 
1750	 0.383507964045861 
1751	 0.383445145020969 
1752	 0.383361282257077 
1753	 0.38326978463215 
1754	 0.383185205280231 
1755	 0.383112899480278 
1756	 0.383051820633087 
1757	 0.383026590116528 
1758	 0.383026456886333 
1759	 0.38302745694311 
1760	 0.383037083926177 
1761	 0.383049155181872 
1762	 0.383052515533951 
1763	 0.383077541344388 
1764	 0.383080482282161 
1765	 0.383045857617114 
1766	 0.383024632312841 
1767	 0.38299582166363 
1768	 0.382973156412358 
1769	 0.382964979750582 
1770	 0.382928082232902 
1771	 0.382893913990392 
1772	 0.382889592938298 
1773	 0.382886580694715 
1774	 0.382914588021099 
1775	 0.382968102408711 
1776	 0.382957713781506 
1777	 0.382924387719168 
1778	 0.382904130013348 
1779	 0.382832097677439 
1780	 0.382775007818005 
1781	 0.38275450647554 
1782	 0.38273141457588 
1783	 0.382757772014979 
1784	 0.38277275972124 
1785	 0.382819833681059 
1786	 0.38282836735386 
1787	 0.382812466496769 
1788	 0.382798937616754 
1789	 0.382757462865865 
1790	 0.38272413247259 
1791	 0.382682734198564 
1792	 0.382659968478697 
1793	 0.382645615009855 
1794	 0.382643274813025 
1795	 0.382654232048401 
1796	 0.382683982850511 
1797	 0.382737757119268 
1798	 0.382769081215174 
1799	 0.382814989716642 
1800	 0.3828547018964 
1801	 0.379849066223975 
1802	 0.379867948800144 
1803	 0.379924573384134 
1804	 0.379949596514139 
1805	 0.379944225558923 
1806	 0.379980506016717 
1807	 0.380022580158314 
1808	 0.380040561606575 
1809	 0.380043965576012 
1810	 0.380063008496945 
1811	 0.380086256956295 
1812	 0.380080206134327 
1813	 0.380087991797029 
1814	 0.380093603896279 
1815	 0.380088160250466 
1816	 0.380070268146175 
1817	 0.380050228399539 
1818	 0.38001636706589 
1819	 0.380014412331546 
1820	 0.380014196948558 
1821	 0.380025759643915 
1822	 0.380062749046089 
1823	 0.380082192387794 
1824	 0.380077969218828 
1825	 0.3800646303557 
1826	 0.380070841475226 
1827	 0.380094720080644 
1828	 0.380110453129577 
1829	 0.380155194441669 
1830	 0.380154192495892 
1831	 0.380128669331498 
1832	 0.380094180628769 
1833	 0.380048359475155 
1834	 0.380033148951681 
1835	 0.380049004058778 
1836	 0.380064467674157 
1837	 0.380119950980385 
1838	 0.380147908244176 
1839	 0.380157427964575 
1840	 0.380150853852179 
1841	 0.380167073027186 
1842	 0.380160745730676 
1843	 0.380141070949786 
1844	 0.380148054641741 
1845	 0.380118946142134 
1846	 0.380016324895085 
1847	 0.379940435280579 
1848	 0.379877131744938 
1849	 0.379804434033317 
1850	 0.37975092572274 
1851	 0.379726826590787 
1852	 0.379708018634197 
1853	 0.379681852348007 
1854	 0.379636603004489 
1855	 0.379611784812676 
1856	 0.379585889204937 
1857	 0.37953066199282 
1858	 0.37948942192665 
1859	 0.379448708338286 
1860	 0.379377229845699 
1861	 0.379282556799055 
1862	 0.379179498705908 
1863	 0.379042252503391 
1864	 0.378845732624848 
1865	 0.37863000133281 
1866	 0.378374166925519 
1867	 0.378124108139373 
1868	 0.377871081808049 
1869	 0.377626833520019 
1870	 0.377430824402874 
1871	 0.377218339751512 
1872	 0.377000923905252 
1873	 0.376830615422332 
1874	 0.376641413963999 
1875	 0.376380137888269 
1876	 0.376108805181793 
1877	 0.375765485372648 
1878	 0.375368218164415 
1879	 0.374930316156059 
1880	 0.374439781447524 
1881	 0.37391415584158 
1882	 0.373321536057019 
1883	 0.372662782245635 
1884	 0.371953767405435 
1885	 0.37122650065591 
1886	 0.37041474486111 
1887	 0.369572674151149 
1888	 0.368696861115232 
1889	 0.367778528147821 
1890	 0.366859672644604 
1891	 0.365913442165069 
1892	 0.364970143751932 
1893	 0.363967542697755 
1894	 0.362932407913898 
1895	 0.36184225518834 
1896	 0.360691615982123 
1897	 0.359524767025639 
1898	 0.358345534065621 
1899	 0.357163742969868 
1900	 0.356008790606759 
1901	 0.354843788605769 
1902	 0.353693572929546 
1903	 0.352539341973621 
1904	 0.351420440254076 
1905	 0.350310654266457 
1906	 0.349252397130621 
1907	 0.348199987458306 
1908	 0.347186572396563 
1909	 0.346243966467086 
1910	 0.345313075040325 
1911	 0.344451910442869 
1912	 0.343672460342592 
1913	 0.342907099543276 
1914	 0.342162266227675 
1915	 0.341485097835773 
1916	 0.340866978629379 
1917	 0.34025809855016 
1918	 0.339707300373335 
1919	 0.33919065257357 
1920	 0.338708029420167 
1921	 0.338263289155129 
1922	 0.337862317849301 
1923	 0.337486777514771 
1924	 0.337152209268427 
1925	 0.336852480081761 
1926	 0.336594525352264 
1927	 0.336372297807495 
1928	 0.336197831451301 
1929	 0.336054240738838 
1930	 0.335924111350935 
1931	 0.335826295552649 
1932	 0.33575962006247 
1933	 0.335726975435363 
1934	 0.335731871595605 
1935	 0.335759882692022 
1936	 0.335824307208553 
1937	 0.33590164153698 
1938	 0.336009778392452 
1939	 0.336127989919706 
1940	 0.336270389913161 
1941	 0.336406841254563 
1942	 0.336573341205303 
1943	 0.336763261688981 
1944	 0.336948813729993 
1945	 0.337149524721569 
1946	 0.337340721503464 
1947	 0.33752190669513 
1948	 0.337712258250347 
1949	 0.337894686713514 
1950	 0.338102874252614 
1951	 0.338327076794833 
1952	 0.338559387005736 
1953	 0.338797269335005 
1954	 0.33904407545244 
1955	 0.33929022741009 
1956	 0.339528254747545 
1957	 0.339792651149802 
1958	 0.340080123165389 
1959	 0.340356333991155 
1960	 0.340642437425471 
1961	 0.34093058622268 
1962	 0.341199947067077 
1963	 0.341499240458535 
1964	 0.341824696237808 
1965	 0.342145823747565 
1966	 0.342470998147243 
1967	 0.342815795051748 
1968	 0.343172440149859 
1969	 0.343549160321888 
1970	 0.343904669998734 
1971	 0.344272207535627 
1972	 0.344632127678608 
1973	 0.344966415461889 
1974	 0.345318704087054 
1975	 0.345691788544306 
1976	 0.346046039905213 
1977	 0.346408893540038 
1978	 0.34676961817667 
1979	 0.347143761991169 
1980	 0.347524203934514 
1981	 0.347897854857414 
1982	 0.348262317666834 
1983	 0.348649276138598 
1984	 0.349052256955321 
1985	 0.349440326866354 
1986	 0.349845109302181 
1987	 0.350234268343877 
1988	 0.350607253748598 
1989	 0.350970450630818 
1990	 0.351355283776737 
1991	 0.351712324105959 
1992	 0.3520648661958 
1993	 0.35240073236892 
1994	 0.352754592130839 
1995	 0.3530898914932 
1996	 0.353461739165333 
1997	 0.353875832589776 
1998	 0.354257747129884 
1999	 0.354648726713038 
2000	 0.355027244031827 
2001	 0.355375732428334 
2002	 0.355734281729622 
2003	 0.356121554762915 
2004	 0.356510001667294 
2005	 0.35689230721967 
2006	 0.357294338995904 
2007	 0.357667224831423 
2008	 0.358023202054175 
2009	 0.358370025197367 
2010	 0.358688911327197 
2011	 0.359032416503188 
2012	 0.359377743454532 
2013	 0.359723897790856 
2014	 0.360073529348415 
2015	 0.360436857724136 
2016	 0.360811547090475 
2017	 0.361189768022986 
2018	 0.361561785231402 
2019	 0.361954844409964 
2020	 0.362323121623591 
2021	 0.362670338754886 
2022	 0.363018059069613 
2023	 0.363366207002637 
2024	 0.363709360258635 
2025	 0.364042080366209 
2026	 0.364372541943429 
2027	 0.364720432449163 
2028	 0.365026393664463 
2029	 0.365328267768118 
2030	 0.365610006772473 
2031	 0.365910429112546 
2032	 0.366205172663448 
2033	 0.366499391712984 
2034	 0.366803328269247 
2035	 0.36709970095358 
2036	 0.367386752023147 
2037	 0.367669330814496 
2038	 0.36796893466215 
2039	 0.368239340413157 
2040	 0.368474444850439 
2041	 0.368725937370999 
2042	 0.368985675394845 
2043	 0.36920944272429 
2044	 0.369448051028007 
2045	 0.369706416055626 
2046	 0.36992732135255 
2047	 0.370113700244138 
2048	 0.370328011106276 
2049	 0.370526051943839 
2050	 0.370749284782612 
2051	 0.371011103743027 
2052	 0.37124806608087 
2053	 0.371497797210542 
2054	 0.371720362695267 
2055	 0.371920825406306 
2056	 0.372106885035164 
2057	 0.372302769813534 
2058	 0.372476608532767 
2059	 0.37268133297904 
2060	 0.372913557298667 
2061	 0.373123328453367 
2062	 0.373339467316891 
2063	 0.373541368495211 
2064	 0.373719847624032 
2065	 0.373912216103255 
2066	 0.374106417806629 
2067	 0.374302201573654 
2068	 0.374506261138749 
2069	 0.374700364770932 
2070	 0.374904039737145 
2071	 0.375110135402088 
2072	 0.37531510060756 
2073	 0.375524208941333 
2074	 0.375734070506782 
2075	 0.375942742613177 
2076	 0.376149269482914 
2077	 0.376360202541877 
2078	 0.376567248006423 
2079	 0.376785443794399 
2080	 0.376979772203737 
2081	 0.377150977309922 
2082	 0.377331463200254 
2083	 0.377526843717829 
2084	 0.377660501130695 
2085	 0.377835279714292 
2086	 0.37803061020709 
2087	 0.37821059608988 
2088	 0.378395811567662 
2089	 0.378557647063511 
2090	 0.378699841389194 
2091	 0.378855727664264 
2092	 0.378988186810365 
2093	 0.379149189934647 
2094	 0.379339093891296 
2095	 0.379518403698665 
2096	 0.379698996417645 
2097	 0.379885257135719 
2098	 0.38007126015156 
2099	 0.3802659948913 
2100	 0.380454273093591 
2101	 0.380641867044819 
2102	 0.380841146603212 
2103	 0.381042045924544 
2104	 0.381242038811023 
2105	 0.381443160882147 
2106	 0.381666308890976 
2107	 0.38188956855422 
2108	 0.38212895388395 
2109	 0.382391605470131 
2110	 0.382661904294029 
2111	 0.3829620718215 
2112	 0.383233598987211 
2113	 0.383499967356453 
2114	 0.383775456130841 
2115	 0.384030264860542 
2116	 0.384250831768409 
2117	 0.384502517882959 
2118	 0.384774847233692 
2119	 0.385016674569188 
2120	 0.385263697294868 
2121	 0.385478402324172 
2122	 0.385660508068574 
2123	 0.385846795630127 
2124	 0.386026656083565 
2125	 0.386185292344525 
2126	 0.386315532091429 
2127	 0.386465081451754 
2128	 0.386613892063722 
2129	 0.386749839311845 
2130	 0.386910092412255 
2131	 0.387040004429456 
2132	 0.38714252014091 
2133	 0.387210031433674 
2134	 0.387278516602218 
2135	 0.387329268514534 
2136	 0.387370803235648 
2137	 0.38739758538164 
2138	 0.387421346372668 
2139	 0.387450031615057 
2140	 0.38743883430374 
2141	 0.387395149652723 
2142	 0.387363084049784 
2143	 0.387323961158206 
2144	 0.387254385897397 
2145	 0.387186778057623 
2146	 0.387094101888755 
2147	 0.386958019262087 
2148	 0.386808510340864 
2149	 0.386658385260901 
2150	 0.38651076258134 
2151	 0.386334255365036 
2152	 0.386138565927791 
2153	 0.38593316210916 
2154	 0.385701465388878 
2155	 0.385479392810943 
2156	 0.385257257686419 
2157	 0.385021170306263 
2158	 0.384758729731216 
2159	 0.384528598700793 
2160	 0.384303636001716 
2161	 0.384079622659051 
2162	 0.383903935879955 
2163	 0.383687635530281 
2164	 0.383448708749969 
2165	 0.38319912796168 
2166	 0.382928947319826 
2167	 0.382620315346289 
2168	 0.382347663648423 
2169	 0.382071768475357 
2170	 0.381804372908946 
2171	 0.381559508959058 
2172	 0.381300768747622 
2173	 0.381027847937412 
2174	 0.380770428826011 
2175	 0.380530974951853 
2176	 0.380272489537285 
2177	 0.380015626944046 
2178	 0.379747110110562 
2179	 0.379447346099916 
2180	 0.379169689539251 
2181	 0.3788917164689 
2182	 0.378627255172477 
2183	 0.378373413202505 
2184	 0.378134039285611 
2185	 0.377905301618926 
2186	 0.377693027522425 
2187	 0.377473129237014 
2188	 0.377273205340694 
2189	 0.377044810693349 
2190	 0.376783870800299 
2191	 0.376563823545555 
2192	 0.376350422346409 
2193	 0.376140266424804 
2194	 0.375953294080867 
2195	 0.375765572737958 
2196	 0.37557370236376 
2197	 0.375389665060479 
2198	 0.375219556493633 
2199	 0.375051553966153 
2200	 0.374856781968029 
2201	 0.374706678369822 
2202	 0.374585655007269 
2203	 0.374480682173562 
2204	 0.374392656178457 
2205	 0.374339290892945 
2206	 0.374288570565032 
2207	 0.374240774491815 
2208	 0.374222509095086 
2209	 0.374235686466367 
2210	 0.374241680916933 
2211	 0.37427153279982 
2212	 0.374285118067562 
2213	 0.374296203916251 
2214	 0.374307108714877 
2215	 0.374306704867576 
2216	 0.374317815638174 
2217	 0.374339038056209 
2218	 0.374353342565526 
2219	 0.37437891869392 
2220	 0.374389027270067 
2221	 0.374380634669412 
2222	 0.374379490927461 
2223	 0.374384187131042 
2224	 0.374372951165891 
2225	 0.37438206107978 
2226	 0.374417743863859 
2227	 0.374409295319256 
2228	 0.374405498022591 
2229	 0.374348886186086 
2230	 0.374221089791257 
2231	 0.374158508007369 
2232	 0.374086154596531 
2233	 0.374040720812371 
2234	 0.374054346823868 
2235	 0.374023773319413 
2236	 0.37396194068956 
2237	 0.373930265385504 
2238	 0.373921927427069 
2239	 0.373882843421704 
2240	 0.373830397065696 
2241	 0.373797777139586 
2242	 0.373745949087915 
2243	 0.37370633227738 
2244	 0.373697977863076 
2245	 0.373683068083458 
2246	 0.373634634953527 
2247	 0.373642165168298 
2248	 0.373669458546766 
2249	 0.373722475736757 
2250	 0.373791224350261 
2251	 0.373915017426491 
2252	 0.373972110768364 
2253	 0.374021816015561 
2254	 0.374053374218718 
2255	 0.374044571106886 
2256	 0.374052088621287 
2257	 0.374085074123801 
2258	 0.374053889639837 
2259	 0.373965061216025 
2260	 0.373915173769935 
2261	 0.373809900819617 
2262	 0.3737824474033 
2263	 0.373826496995142 
2264	 0.373855944184264 
2265	 0.373916578333445 
2266	 0.373972539551023 
2267	 0.374050740271417 
2268	 0.374096855999405 
2269	 0.374129503160136 
2270	 0.374155926194686 
2271	 0.374146411628456 
2272	 0.374157410373609 
2273	 0.37423308880712 
2274	 0.374269937709328 
2275	 0.374308610274996 
2276	 0.374376545090503 
2277	 0.374383969858992 
2278	 0.374343757729723 
2279	 0.374333561252828 
2280	 0.374280233731542 
2281	 0.374291262704953 
2282	 0.374337615923737 
2283	 0.374391845907835 
2284	 0.374497444923467 
2285	 0.374574818160031 
2286	 0.374656939996123 
2287	 0.374722161511345 
2288	 0.374771132334864 
2289	 0.374815622743525 
2290	 0.374829357448331 
2291	 0.374878685189355 
2292	 0.374934483106414 
2293	 0.375015953639355 
2294	 0.375162029973705 
2295	 0.375258095333077 
2296	 0.375349506074126 
2297	 0.375414003713761 
2298	 0.375456148661279 
2299	 0.37546605378849 
2300	 0.375451130728443 
2301	 0.375452253289413 
2302	 0.375507707264071 
2303	 0.37553274255992 
2304	 0.375571860547628 
2305	 0.375645609424141 
2306	 0.375659108774795 
2307	 0.375624572005087 
2308	 0.375593641138808 
2309	 0.37551547685152 
2310	 0.375500952316677 
2311	 0.375487473734382 
2312	 0.375518652513933 
2313	 0.375639974754801 
2314	 0.375691608863812 
2315	 0.375766274653931 
2316	 0.375763375508341 
2317	 0.375654737864973 
2318	 0.375617511019769 
2319	 0.37553512841313 
2320	 0.375516443091908 
2321	 0.375606495376145 
2322	 0.37563710158356 
2323	 0.375659842938441 
2324	 0.375687948588394 
2325	 0.375712842166623 
2326	 0.375707579090669 
2327	 0.375694394907741 
2328	 0.375666412911746 
2329	 0.375612101887767 
2330	 0.375587500922395 
2331	 0.375629606731207 
2332	 0.375681834152569 
2333	 0.375728542189285 
2334	 0.375741095208133 
2335	 0.375753816091027 
2336	 0.375816716738619 
2337	 0.375879891596076 
2338	 0.375975761110916 
2339	 0.37606702562129 
2340	 0.376092439102926 
2341	 0.376085817834286 
2342	 0.376015634564956 
2343	 0.375896012422343 
2344	 0.375737432416247 
2345	 0.375643544252115 
2346	 0.375573934741858 
2347	 0.37551965494451 
2348	 0.375509660199918 
2349	 0.375478992347685 
2350	 0.375472464093672 
2351	 0.375398156404581 
2352	 0.375304139319866 
2353	 0.375187608439117 
2354	 0.374991005806984 
2355	 0.374820325413231 
2356	 0.374651418331358 
2357	 0.374506885827171 
2358	 0.37432891276963 
2359	 0.37423751941306 
2360	 0.374244029911985 
2361	 0.374179781801177 
2362	 0.374152363549403 
2363	 0.374073401318572 
2364	 0.37391847198223 
2365	 0.373790518813375 
2366	 0.373685147782142 
2367	 0.373546787480913 
2368	 0.373380505382028 
2369	 0.373205245498345 
2370	 0.373034237878678 
2371	 0.372780476650158 
2372	 0.372496194501609 
2373	 0.372241708433699 
2374	 0.371928047207769 
2375	 0.371645543937847 
2376	 0.37144703275081 
2377	 0.37116987084602 
2378	 0.370895907118253 
2379	 0.370674989795157 
2380	 0.370426727374667 
2381	 0.37028120787548 
2382	 0.37016452337834 
2383	 0.36998067079847 
2384	 0.369785172112911 
2385	 0.369568847022025 
2386	 0.369301499888365 
2387	 0.369079899377943 
2388	 0.368920924627776 
2389	 0.368693935657447 
2390	 0.36849410636669 
2391	 0.368253417816655 
2392	 0.367955637666777 
2393	 0.367784394020841 
2394	 0.367574738618198 
2395	 0.367346900651257 
2396	 0.367156127170892 
2397	 0.366811265972481 
2398	 0.366468079222239 
2399	 0.366241219252485 
2400	 0.36599761189216 
2401	 0.365786718894048 
2402	 0.365614443794164 
2403	 0.365342787254747 
2404	 0.364965275860141 
2405	 0.364566337422426 
2406	 0.364242271089966 
2407	 0.363938214669159 
2408	 0.363679377787695 
2409	 0.363523218226752 
2410	 0.363241944561 
2411	 0.362961397122051 
2412	 0.362731353943084 
2413	 0.362479275520172 
2414	 0.362297476496686 
2415	 0.362043804895635 
2416	 0.361763435019528 
2417	 0.361396527081953 
2418	 0.361120908856821 
2419	 0.360872555797733 
2420	 0.360632520198294 
2421	 0.36051920476758 
2422	 0.360261731993732 
2423	 0.359875001611104 
2424	 0.359560408053306 
2425	 0.35921270928378 
2426	 0.35886881664111 
2427	 0.358612117557495 
2428	 0.358233252346371 
2429	 0.357681317282163 
2430	 0.357284791647675 
2431	 0.356908953012904 
2432	 0.356616330768373 
2433	 0.356547623554103 
2434	 0.356326014308619 
2435	 0.355977865693201 
2436	 0.355727532006426 
2437	 0.355489266394275 
2438	 0.35515681133182 
2439	 0.354855531432721 
2440	 0.354564917428787 
2441	 0.354187892960136 
2442	 0.35385111580554 
2443	 0.353616169040956 
2444	 0.353332816654832 
2445	 0.352963807553647 
2446	 0.352582569085094 
2447	 0.352195244139556 
2448	 0.351856624522329 
2449	 0.351519050158033 
2450	 0.35120188145792 
2451	 0.350944074550503 
2452	 0.350661175955543 
2453	 0.35032601776588 
2454	 0.350044973185183 
2455	 0.349854672177779 
2456	 0.349609197557668 
2457	 0.349286139441425 
2458	 0.348982231708931 
2459	 0.348771732581911 
2460	 0.348444605276903 
2461	 0.348064452115745 
2462	 0.347712402021944 
2463	 0.347226967703185 
2464	 0.346803774555251 
2465	 0.346410607904018 
2466	 0.346104304588213 
2467	 0.345853276101645 
2468	 0.345610264520604 
2469	 0.345475748189047 
2470	 0.34525791397968 
2471	 0.345029767071569 
2472	 0.344769672347674 
2473	 0.344359230554004 
2474	 0.343836809303598 
2475	 0.343665917401164 
2476	 0.343509391907251 
2477	 0.343162449931879 
2478	 0.342934013637967 
2479	 0.342521318358161 
2480	 0.342222109478276 
2481	 0.342189116540625 
2482	 0.341934213486563 
2483	 0.341667272493635 
2484	 0.341379106854815 
2485	 0.340900293067167 
2486	 0.340672831278622 
2487	 0.340562112933286 
2488	 0.340155876090641 
2489	 0.33980810385621 
2490	 0.339469500032084 
2491	 0.338850286842447 
2492	 0.338540474593697 
2493	 0.338461609987961 
2494	 0.338198034276565 
2495	 0.338034967471824 
2496	 0.337855372090535 
2497	 0.337509500526938 
2498	 0.337336832140844 
2499	 0.337299796157143 
2500	 0.336975132065372 
