Wavelength	MM100008.asd
350	 3.35238270824009E-02 
351	 3.14097089171002E-02 
352	 2.99248955250336E-02 
353	 3.00883229422021E-02 
354	 2.43248512851322E-02 
355	 2.53001256152926E-02 
356	 2.59322460700516E-02 
357	 2.04877507170811E-02 
358	 2.88044531349909E-02 
359	 3.11830512425534E-02 
360	 2.74406981039799E-02 
361	 2.94156553574881E-02 
362	 2.81599566714241E-02 
363	 0.028495878570502 
364	 3.09775727799056E-02 
365	 2.67466157606285E-02 
366	 2.58581523650013E-02 
367	 2.68922577843146E-02 
368	 2.67677870665688E-02 
369	 2.91870158257047E-02 
370	 3.10134623330394E-02 
371	 3.17121067453119E-02 
372	 3.25360660041348E-02 
373	 3.24451022307339E-02 
374	 3.04644136639429E-02 
375	 2.79209584576249E-02 
376	 3.01813633039361E-02 
377	 3.00255738783329E-02 
378	 3.04747745216301E-02 
379	 3.47731699132194E-02 
380	 3.36048230591005E-02 
381	 3.34062454602766E-02 
382	 3.51732505729251E-02 
383	 3.55131555554717E-02 
384	 3.50987683508886E-02 
385	 0.034384276085444 
386	 3.41231128038963E-02 
387	 3.58238587714487E-02 
388	 3.61791569033813E-02 
389	 3.62141439250645E-02 
390	 3.76144006129531E-02 
391	 3.79403234734903E-02 
392	 3.86325712132198E-02 
393	 4.01345994714502E-02 
394	 4.17883455935167E-02 
395	 4.13769415196743E-02 
396	 4.13980960550704E-02 
397	 4.28299973418789E-02 
398	 4.14989582532056E-02 
399	 4.16009830830927E-02 
400	 4.34005079787594E-02 
401	 4.53553486582448E-02 
402	 4.48001677668699E-02 
403	 4.45582113615719E-02 
404	 4.53157682888836E-02 
405	 4.53285680498475E-02 
406	 4.65497059876302E-02 
407	 4.76902532031754E-02 
408	 4.75310397164738E-02 
409	 4.64220427287507E-02 
410	 4.59689412028598E-02 
411	 4.66362853846159E-02 
412	 4.81004551597812E-02 
413	 4.93613154311449E-02 
414	 4.93622688958605E-02 
415	 4.85062650058333E-02 
416	 4.89414379875632E-02 
417	 4.93272556102021E-02 
418	 4.95989124034454E-02 
419	 0.049817496226668 
420	 4.93821664858498E-02 
421	 4.90166138589434E-02 
422	 4.92177504279667E-02 
423	 5.01481958110288E-02 
424	 5.03891051145117E-02 
425	 0.050025857735778 
426	 4.95248056026023E-02 
427	 4.96490710275761E-02 
428	 4.95929070860262E-02 
429	 4.93548200787562E-02 
430	 4.91664949490411E-02 
431	 4.90529806439541E-02 
432	 4.87937987881845E-02 
433	 4.85868332716162E-02 
434	 4.89891764541885E-02 
435	 4.90715779120484E-02 
436	 4.88759485377818E-02 
437	 4.86301859398674E-02 
438	 4.84469009862964E-02 
439	 4.86720848830828E-02 
440	 4.89815903897014E-02 
441	 4.88428646692209E-02 
442	 4.90368060970616E-02 
443	 4.93395983193674E-02 
444	 4.95209441400734E-02 
445	 4.94845201530146E-02 
446	 4.95442727021145E-02 
447	 4.97980303076254E-02 
448	 5.01684883661113E-02 
449	 5.01618778296429E-02 
450	 5.02681112223962E-02 
451	 5.05774268148878E-02 
452	 0.05081890816147 
453	 5.10472075036732E-02 
454	 5.10841665866055E-02 
455	 5.09687190329573E-02 
456	 5.13974230796909E-02 
457	 5.14905784157806E-02 
458	 5.13980339375291E-02 
459	 5.16505791206269E-02 
460	 5.18415412912727E-02 
461	 5.16939572509107E-02 
462	 0.051429118251987 
463	 5.19412101549924E-02 
464	 5.21930107737938E-02 
465	 5.21527911945925E-02 
466	 5.20928043269281E-02 
467	 0.052287456088995 
468	 5.23847962277645E-02 
469	 5.22758520045051E-02 
470	 5.20888195488596E-02 
471	 5.22395175853234E-02 
472	 5.23804843225539E-02 
473	 5.22761019137468E-02 
474	 5.22613604651468E-02 
475	 5.22795223483968E-02 
476	 5.23121365450251E-02 
477	 0.052348768259872 
478	 5.23791310698129E-02 
479	 0.052441983368108 
480	 5.25229406149595E-02 
481	 5.25327698624349E-02 
482	 5.24113304513743E-02 
483	 5.22915906252739E-02 
484	 5.23208431627331E-02 
485	 5.24881851092567E-02 
486	 5.25235799599323E-02 
487	 5.24648879388096E-02 
488	 5.25917898782218E-02 
489	 5.26842187272666E-02 
490	 5.26970141427361E-02 
491	 5.26528120051144E-02 
492	 5.26605784496055E-02 
493	 0.052645464862555 
494	 5.26231492323713E-02 
495	 5.26522825592768E-02 
496	 5.27966604570958E-02 
497	 5.28410165764328E-02 
498	 0.052747941851805 
499	 5.27732277414478E-02 
500	 5.28750379497115E-02 
501	 5.29347354455845E-02 
502	 5.28625387809815E-02 
503	 5.28001863683369E-02 
504	 5.28563819513639E-02 
505	 5.29881703785601E-02 
506	 5.30260714071146E-02 
507	 5.30969902454945E-02 
508	 5.31073569219183E-02 
509	 5.30338819743867E-02 
510	 5.31704826479649E-02 
511	 5.31414464570341E-02 
512	 5.30205524400804E-02 
513	 5.30928518846806E-02 
514	 5.31959005788519E-02 
515	 5.32788482623837E-02 
516	 5.33250196532506E-02 
517	 0.053351007801251 
518	 5.33741265541601E-02 
519	 5.33938470278144E-02 
520	 5.34059382476501E-02 
521	 5.34260670744086E-02 
522	 5.34404584798142E-02 
523	 5.34369546039688E-02 
524	 5.34082849299017E-02 
525	 5.34808876495627E-02 
526	 5.35306988768775E-02 
527	 5.34776178801554E-02 
528	 5.35713593785273E-02 
529	 5.36079528125422E-02 
530	 5.36231194010868E-02 
531	 5.37889933607904E-02 
532	 5.38946651530982E-02 
533	 5.39812959933811E-02 
534	 5.40771259895192E-02 
535	 5.40934169321303E-02 
536	 5.41778917631672E-02 
537	 5.42855738119303E-02 
538	 5.43199317177599E-02 
539	 5.44011407723082E-02 
540	 5.44893726418204E-02 
541	 5.45775537697697E-02 
542	 5.47193738660631E-02 
543	 5.48449028659696E-02 
544	 5.49631423090449E-02 
545	 5.50963515322511E-02 
546	 5.52235268535065E-02 
547	 5.53753398232999E-02 
548	 5.55461621893256E-02 
549	 5.57012725813357E-02 
550	 5.58758082124667E-02 
551	 5.60496818111981E-02 
552	 5.62307218277738E-02 
553	 5.65404641566818E-02 
554	 5.67791461197879E-02 
555	 5.69756781026852E-02 
556	 5.72641279862916E-02 
557	 5.75261715678903E-02 
558	 5.78388729619757E-02 
559	 5.82354625338939E-02 
560	 5.86432933331233E-02 
561	 5.90015740299981E-02 
562	 5.93758158929749E-02 
563	 5.98491394155137E-02 
564	 6.03232397356071E-02 
565	 6.07932861640135E-02 
566	 6.12793481086883E-02 
567	 6.18236124786313E-02 
568	 0.062507311606474 
569	 6.31850295336957E-02 
570	 6.37470922750483E-02 
571	 6.43814347298681E-02 
572	 6.51299218843341E-02 
573	 6.59547828245115E-02 
574	 6.67554641530034E-02 
575	 6.74394138796866E-02 
576	 6.82098309458524E-02 
577	 6.91564420599119E-02 
578	 7.00189797605368E-02 
579	 7.09162105628805E-02 
580	 7.18858287417988E-02 
581	 7.29269641650926E-02 
582	 7.39801430230043E-02 
583	 7.50735534970454E-02 
584	 7.61907732687406E-02 
585	 7.72429118204025E-02 
586	 0.078346231607196 
587	 7.94801170773066E-02 
588	 8.06008398100966E-02 
589	 8.17564525553721E-02 
590	 8.29513758384322E-02 
591	 0.084157571201316 
592	 8.53250396291974E-02 
593	 8.64927159760082E-02 
594	 8.76485543744951E-02 
595	 8.87906508802476E-02 
596	 8.99799335570843E-02 
597	 9.11533855781445E-02 
598	 9.23132415553635E-02 
599	 9.34901663519036E-02 
600	 9.45872923850914E-02 
601	 9.56449320047288E-02 
602	 9.66892274686836E-02 
603	 9.76975372662872E-02 
604	 0.098643816409847 
605	 9.95690938564447E-02 
606	 0.100522917716218 
607	 0.101455471268914 
608	 0.102341571795854 
609	 0.103186978346654 
610	 0.10403161675693 
611	 0.104843975402071 
612	 0.105620729786656 
613	 0.106353200838835 
614	 0.107000239724745 
615	 0.107615321366768 
616	 0.108212027208626 
617	 0.108774824693639 
618	 0.109338565474114 
619	 0.109851752228517 
620	 0.110301914520327 
621	 0.110785923403159 
622	 0.111242921126555 
623	 0.111671592182863 
624	 0.112089845545043 
625	 0.112480161767411 
626	 0.112870855133478 
627	 0.11325198460122 
628	 0.113558386016895 
629	 0.113938332392198 
630	 0.11431604521717 
631	 0.1146097936085 
632	 0.114974890306706 
633	 0.115293901453115 
634	 0.115577421077879 
635	 0.115936937454779 
636	 0.116265495915009 
637	 0.116604285082182 
638	 0.116969929387946 
639	 0.117250961340568 
640	 0.11754978005498 
641	 0.117881804588386 
642	 0.118219616065747 
643	 0.118544808230333 
644	 0.118863827342141 
645	 0.119194409627151 
646	 0.11956711003713 
647	 0.119910596871606 
648	 0.120248406667117 
649	 0.120616891279763 
650	 0.120975670189057 
651	 0.121350070487902 
652	 0.121739147430831 
653	 0.122120536276738 
654	 0.122540907390919 
655	 0.122919517985248 
656	 0.1232347769541 
657	 0.123666533862471 
658	 0.124125745119749 
659	 0.124578983236003 
660	 0.125017416978919 
661	 0.125434695380001 
662	 0.125903558695222 
663	 0.126437734256564 
664	 0.126957496819223 
665	 0.127450518690248 
666	 0.127924457224606 
667	 0.128395940561127 
668	 0.128862862031228 
669	 0.129394652200651 
670	 0.129977741410986 
671	 0.130529073973236 
672	 0.131071174697532 
673	 0.131673560224481 
674	 0.13234567259649 
675	 0.13293862261551 
676	 0.133514389670512 
677	 0.134099055144986 
678	 0.134705960266669 
679	 0.135345051306232 
680	 0.136001563758735 
681	 0.136675806507876 
682	 0.137393227241786 
683	 0.138064442068489 
684	 0.138715595197072 
685	 0.139402702880794 
686	 0.140171240162853 
687	 0.140923779000641 
688	 0.141657526921575 
689	 0.142432720277275 
690	 0.143181438617188 
691	 0.143883255787305 
692	 0.144587134274815 
693	 0.145483634681443 
694	 0.146265509473509 
695	 0.147004581091182 
696	 0.147856846185637 
697	 0.148594995312615 
698	 0.149390798658368 
699	 0.150270750264388 
700	 0.151088576723304 
701	 0.151919281998243 
702	 0.152743214143666 
703	 0.153547866610592 
704	 0.154395868081134 
705	 0.155223166239783 
706	 0.156043800197251 
707	 0.156899827732338 
708	 0.157705948366538 
709	 0.158512036647407 
710	 0.159346656623498 
711	 0.160189458664219 
712	 0.160992602147424 
713	 0.161765815516044 
714	 0.162543430792653 
715	 0.163377011485753 
716	 0.164198742000279 
717	 0.164973102431934 
718	 0.165696623740413 
719	 0.166428032336534 
720	 0.16714457069785 
721	 0.167826442289256 
722	 0.168479730982389 
723	 0.169161525830012 
724	 0.169856632208913 
725	 0.170518303437687 
726	 0.171090346879834 
727	 0.171632320827869 
728	 0.172179937828173 
729	 0.172735762293851 
730	 0.173256701603167 
731	 0.173719997322972 
732	 0.174134777517063 
733	 0.174578592400134 
734	 0.17496487038513 
735	 0.17529762318421 
736	 0.175617286750124 
737	 0.175937474884007 
738	 0.176207625429436 
739	 0.176423860854314 
740	 0.17663715901935 
741	 0.176832072418621 
742	 0.176997243202734 
743	 0.17711921631502 
744	 0.177175904903839 
745	 0.177199636532117 
746	 0.177230010149979 
747	 0.177283939441447 
748	 0.177208870760466 
749	 0.177106975670888 
750	 0.177022945696993 
751	 0.176904131011563 
752	 0.176750716292679 
753	 0.176577373516491 
754	 0.176392379727446 
755	 0.176172094493288 
756	 0.175929394960736 
757	 0.17566234222714 
758	 0.175362605305038 
759	 0.175026541172953 
760	 0.174691281520051 
761	 0.174364735484879 
762	 0.174013759717609 
763	 0.173644472409883 
764	 0.17324063659439 
765	 0.172800459273783 
766	 0.172371523888873 
767	 0.171947193836977 
768	 0.171513518180736 
769	 0.171055160030473 
770	 0.170590274112071 
771	 0.170091521393844 
772	 0.169566144713501 
773	 0.169065567701008 
774	 0.168610315460426 
775	 0.168128246466934 
776	 0.167577546812034 
777	 0.167058037641211 
778	 0.166530216293971 
779	 0.165984829511194 
780	 0.165430050640927 
781	 0.164894298143798 
782	 0.1643906016908 
783	 0.163883222751377 
784	 0.163297221762994 
785	 0.16278228106312 
786	 0.162272591099632 
787	 0.161716309715165 
788	 0.161197729593133 
789	 0.160668676431335 
790	 0.160138541005171 
791	 0.159625964328614 
792	 0.159086233944623 
793	 0.158547154850198 
794	 0.158027354676231 
795	 0.157533463926184 
796	 0.157058934600086 
797	 0.156575113382396 
798	 0.156058951666567 
799	 0.155498886586501 
800	 0.154988719871714 
801	 0.154548545191367 
802	 0.154137691189722 
803	 0.153588958099412 
804	 0.153102741850225 
805	 0.152700488550504 
806	 0.152286098969469 
807	 0.151858402320627 
808	 0.151394727425334 
809	 0.150913248322029 
810	 0.15048072157395 
811	 0.150107625078131 
812	 0.149731340233047 
813	 0.149316310553791 
814	 0.148953849204315 
815	 0.14855173351192 
816	 0.148133599736638 
817	 0.14776733484199 
818	 0.147478946519696 
819	 0.147152764312193 
820	 0.146773113971909 
821	 0.146416421932892 
822	 0.146082143079628 
823	 0.145762302212418 
824	 0.145447522749274 
825	 0.145131758725838 
826	 0.144809178306907 
827	 0.144536361364025 
828	 0.144331850223819 
829	 0.144046078870449 
830	 0.143721384380739 
831	 0.143424256895501 
832	 0.143211486785313 
833	 0.143005050734416 
834	 0.142793242999744 
835	 0.142582649604459 
836	 0.142390263902382 
837	 0.142184512460682 
838	 0.141976607140487 
839	 0.141785224170649 
840	 0.141629720564443 
841	 0.141465234263436 
842	 0.141265339553718 
843	 0.141043478464829 
844	 0.14090892220305 
845	 0.140829266645992 
846	 0.140738650120126 
847	 0.140583478123956 
848	 0.140469392951801 
849	 0.140384109223209 
850	 0.140306171003427 
851	 0.140214999995201 
852	 0.140119939379713 
853	 0.140044308534175 
854	 0.139994706588972 
855	 0.139951201591227 
856	 0.139947470885719 
857	 0.139942942549683 
858	 0.139903165842176 
859	 0.139850529894674 
860	 0.139817447977439 
861	 0.139800942043512 
862	 0.139791266914118 
863	 0.139821738549973 
864	 0.139822891529558 
865	 0.139824880060249 
866	 0.139902779376655 
867	 0.139968173687278 
868	 0.14004694412882 
869	 0.140128399359233 
870	 0.140161798544054 
871	 0.140199009757878 
872	 0.140272670243606 
873	 0.14038937463643 
874	 0.140520528145665 
875	 0.14067727042513 
876	 0.140804912350805 
877	 0.140887219698367 
878	 0.141045109844415 
879	 0.141217569964532 
880	 0.141363926215485 
881	 0.141484852894343 
882	 0.141723735125738 
883	 0.141914769569746 
884	 0.142045407563604 
885	 0.142200617223525 
886	 0.142444075182732 
887	 0.14269844673578 
888	 0.142922207612256 
889	 0.143123339399282 
890	 0.143358522690766 
891	 0.143606485946851 
892	 0.143877921128075 
893	 0.144225150150908 
894	 0.144442503720826 
895	 0.144702279240677 
896	 0.145085006731023 
897	 0.145374349514636 
898	 0.145693198980744 
899	 0.145989239596532 
900	 0.146228272869768 
901	 0.14653159618201 
902	 0.14689430663978 
903	 0.147285925988693 
904	 0.14767312033621 
905	 0.148061728127974 
906	 0.14849645699804 
907	 0.148945633052479 
908	 0.149349337265533 
909	 0.149711174870942 
910	 0.150077352923632 
911	 0.150501855743375 
912	 0.151006635644158 
913	 0.151413112457632 
914	 0.151809544375756 
915	 0.152270503615768 
916	 0.152814013447899 
917	 0.153265292945513 
918	 0.153771940535894 
919	 0.15437422527116 
920	 0.154940584110981 
921	 0.15545427259531 
922	 0.155985862951974 
923	 0.156555247524381 
924	 0.157088146967045 
925	 0.157662745717362 
926	 0.158253511588079 
927	 0.158834578499131 
928	 0.159419069392353 
929	 0.160035320671484 
930	 0.160685782485771 
931	 0.161350506367711 
932	 0.161986469742492 
933	 0.16261874205176 
934	 0.163229722544587 
935	 0.163831976746646 
936	 0.164552880455341 
937	 0.165281242219191 
938	 0.165992034717603 
939	 0.166696317315296 
940	 0.167418167886308 
941	 0.168158818900593 
942	 0.168952528584451 
943	 0.169805005750761 
944	 0.170574630647237 
945	 0.171300783985265 
946	 0.172036208241784 
947	 0.172824570253155 
948	 0.173659842130734 
949	 0.174450223411617 
950	 0.175230415277372 
951	 0.176082292786396 
952	 0.176958120891065 
953	 0.177789138624726 
954	 0.178599083054661 
955	 0.179462084961971 
956	 0.180419111910866 
957	 0.181293863326063 
958	 0.182064070470912 
959	 0.182836083006997 
960	 0.183761044657278 
961	 0.18469953320877 
962	 0.185652485747171 
963	 0.186679223059508 
964	 0.187544105462072 
965	 0.188467923074684 
966	 0.189477807190511 
967	 0.190457870501821 
968	 0.191416069143621 
969	 0.192336995066966 
970	 0.193295910082649 
971	 0.194370195365827 
972	 0.195315879254509 
973	 0.196240993159126 
974	 0.197177576006527 
975	 0.198117024170079 
976	 0.199244443481335 
977	 0.200246111732105 
978	 0.201166911722052 
979	 0.202237409603817 
980	 0.203188847909047 
981	 0.204071516273406 
982	 0.205005908255836 
983	 0.206083277330783 
984	 0.207098406380877 
985	 0.208056904734467 
986	 0.208987847079933 
987	 0.20993364471273 
988	 0.210957124667694 
989	 0.211978699098584 
990	 0.212977240986399 
991	 0.213963708401277 
992	 0.2149311942513 
993	 0.215808725290667 
994	 0.216714778617247 
995	 0.217755424022052 
996	 0.218621903747248 
997	 0.219674862634578 
998	 0.22071454668209 
999	 0.221512632397213 
1000	 0.222581156833279 
1001	 0.226277933470205 
1002	 0.227143487892497 
1003	 0.228046423282076 
1004	 0.228958699337945 
1005	 0.229933760455909 
1006	 0.230812363944598 
1007	 0.231670579188479 
1008	 0.232511828386259 
1009	 0.233262514269082 
1010	 0.234032095560564 
1011	 0.234812293130982 
1012	 0.235524955367778 
1013	 0.236295503817564 
1014	 0.23709674907147 
1015	 0.237824265389797 
1016	 0.238620462756308 
1017	 0.239398010772058 
1018	 0.240168963044913 
1019	 0.240821862910128 
1020	 0.241541215883511 
1021	 0.242242741370984 
1022	 0.242869386713187 
1023	 0.243517964557144 
1024	 0.244186199237071 
1025	 0.24482914456184 
1026	 0.245382554378923 
1027	 0.245952613693804 
1028	 0.24655677119567 
1029	 0.24709337273672 
1030	 0.247679968618138 
1031	 0.248282450269062 
1032	 0.248915567672836 
1033	 0.249481886989678 
1034	 0.25011292964986 
1035	 0.250738235020021 
1036	 0.251266056187207 
1037	 0.251807543580685 
1038	 0.252329930320729 
1039	 0.252824384829244 
1040	 0.253370598622529 
1041	 0.253912470186084 
1042	 0.254433748638337 
1043	 0.254974194643518 
1044	 0.25551522603906 
1045	 0.256054785465357 
1046	 0.256604242266411 
1047	 0.257188762704354 
1048	 0.257739250849094 
1049	 0.258217850978267 
1050	 0.258698229439908 
1051	 0.259181811792379 
1052	 0.259660962491825 
1053	 0.260223289555692 
1054	 0.260823419178459 
1055	 0.261338947763931 
1056	 0.261836032508466 
1057	 0.262320359394931 
1058	 0.262732444355862 
1059	 0.263198880425379 
1060	 0.263698490658732 
1061	 0.264163732869225 
1062	 0.26462388402756 
1063	 0.265112012968792 
1064	 0.265580592474646 
1065	 0.266009442316041 
1066	 0.266414967187329 
1067	 0.2667706521646 
1068	 0.267106631480033 
1069	 0.267493970655968 
1070	 0.267890652831795 
1071	 0.268334787749262 
1072	 0.26875940718772 
1073	 0.269200394078977 
1074	 0.26958458350203 
1075	 0.269944596881613 
1076	 0.270293714511812 
1077	 0.270622117496955 
1078	 0.270945898016901 
1079	 0.271305451645203 
1080	 0.271659818223204 
1081	 0.271982690756777 
1082	 0.272318603678805 
1083	 0.272624161472977 
1084	 0.272900344096299 
1085	 0.273188640029903 
1086	 0.273441445505729 
1087	 0.273737388387307 
1088	 0.274067383656841 
1089	 0.274373561757341 
1090	 0.274674051591281 
1091	 0.274995771507705 
1092	 0.275268025650585 
1093	 0.275559384987921 
1094	 0.275873342721222 
1095	 0.276141246895423 
1096	 0.276421054093259 
1097	 0.276730052425257 
1098	 0.277030600570007 
1099	 0.277336070187386 
1100	 0.277639711677116 
1101	 0.277949327405992 
1102	 0.27824772336026 
1103	 0.278537577335929 
1104	 0.278829085949494 
1105	 0.279136730728162 
1106	 0.279446542825902 
1107	 0.279726979425872 
1108	 0.280018774390391 
1109	 0.280288554131659 
1110	 0.280532336457065 
1111	 0.280817501668125 
1112	 0.281107171674958 
1113	 0.281431315238965 
1114	 0.281816058663577 
1115	 0.282146107721611 
1116	 0.282477590174754 
1117	 0.282800543394522 
1118	 0.283093352372606 
1119	 0.283386074521687 
1120	 0.2837128998982 
1121	 0.284016171226649 
1122	 0.28429850986711 
1123	 0.284597594096414 
1124	 0.284912453109453 
1125	 0.285244679446738 
1126	 0.285550993247132 
1127	 0.285860960893178 
1128	 0.28615813003429 
1129	 0.286427616278212 
1130	 0.286714708453586 
1131	 0.287020747251454 
1132	 0.287315021634703 
1133	 0.287606396482237 
1134	 0.28787922811235 
1135	 0.288138105051234 
1136	 0.288404181005523 
1137	 0.288641707472558 
1138	 0.288873707086748 
1139	 0.28913426862236 
1140	 0.289415259461213 
1141	 0.289667526480143 
1142	 0.289939005593908 
1143	 0.290176294019908 
1144	 0.290372780470265 
1145	 0.29058246632677 
1146	 0.290791097600809 
1147	 0.290993545265265 
1148	 0.291187855145005 
1149	 0.291384134430411 
1150	 0.291573730256909 
1151	 0.291766803197461 
1152	 0.291965644787862 
1153	 0.292174557262411 
1154	 0.29237777683218 
1155	 0.292594612746484 
1156	 0.292781116795492 
1157	 0.292962658131713 
1158	 0.293122429911415 
1159	 0.293240009444959 
1160	 0.293396456763896 
1161	 0.293552294061446 
1162	 0.293717542256509 
1163	 0.293922222317868 
1164	 0.294094479118482 
1165	 0.294250052146677 
1166	 0.29440430035439 
1167	 0.294557809570442 
1168	 0.294721053553087 
1169	 0.294881020909689 
1170	 0.295061697925508 
1171	 0.295206932799847 
1172	 0.295330464470703 
1173	 0.295462228280473 
1174	 0.295578180325746 
1175	 0.295704234495108 
1176	 0.295840997454895 
1177	 0.295968428272378 
1178	 0.296094227801989 
1179	 0.296216144406726 
1180	 0.296338101371725 
1181	 0.296451292745934 
1182	 0.296560327309036 
1183	 0.296655665355827 
1184	 0.296763375429456 
1185	 0.296873209427737 
1186	 0.296973221429306 
1187	 0.297064517369042 
1188	 0.297177531629977 
1189	 0.297294664416331 
1190	 0.297406046657238 
1191	 0.297546411289178 
1192	 0.297654673003774 
1193	 0.297730687096886 
1194	 0.29782117854938 
1195	 0.297905720276179 
1196	 0.297995578636168 
1197	 0.298095787654133 
1198	 0.298187405873334 
1199	 0.298276283495707 
1200	 0.298364316355611 
1201	 0.298448535786717 
1202	 0.298525034592347 
1203	 0.298608557656979 
1204	 0.298688668672184 
1205	 0.298779836259405 
1206	 0.298879575800681 
1207	 0.298975502659624 
1208	 0.299083549947748 
1209	 0.299177238822282 
1210	 0.299264162728245 
1211	 0.299347495784737 
1212	 0.299421756394278 
1213	 0.299496938162792 
1214	 0.299575857784683 
1215	 0.299643787793264 
1216	 0.299705723971422 
1217	 0.299757586529552 
1218	 0.299823314986984 
1219	 0.299878835890631 
1220	 0.299957327169503 
1221	 0.3000616886522 
1222	 0.300147032593796 
1223	 0.300239202891848 
1224	 0.300317781535816 
1225	 0.300382073233709 
1226	 0.300450277599101 
1227	 0.300523844751271 
1228	 0.300580936010379 
1229	 0.300621064793611 
1230	 0.300672161588948 
1231	 0.300726790011547 
1232	 0.300766831623257 
1233	 0.300802583937115 
1234	 0.300839294573401 
1235	 0.300880326104625 
1236	 0.300902702246024 
1237	 0.300949082608215 
1238	 0.301021911148945 
1239	 0.30107602019131 
1240	 0.301129629439485 
1241	 0.301178219550751 
1242	 0.301226934133649 
1243	 0.301264161706674 
1244	 0.301284029029243 
1245	 0.301317037887403 
1246	 0.301340684450185 
1247	 0.30137868062581 
1248	 0.30142606298295 
1249	 0.301489462257696 
1250	 0.301558956962054 
1251	 0.301610923521501 
1252	 0.301643867685981 
1253	 0.301661079314262 
1254	 0.301681106040551 
1255	 0.301672363049034 
1256	 0.301694735728993 
1257	 0.30174213199161 
1258	 0.301766773386037 
1259	 0.301788749012599 
1260	 0.301812717997316 
1261	 0.301833960131754 
1262	 0.301844038331187 
1263	 0.301853561085158 
1264	 0.301858465014304 
1265	 0.301844805291183 
1266	 0.30183747496637 
1267	 0.301824964806109 
1268	 0.301822998619353 
1269	 0.301840458823917 
1270	 0.301861770621811 
1271	 0.301896847485648 
1272	 0.301965600702216 
1273	 0.30201140852896 
1274	 0.302044027436393 
1275	 0.30210037445568 
1276	 0.302146748269411 
1277	 0.30223267097488 
1278	 0.30236112102705 
1279	 0.302471609048951 
1280	 0.302609100053028 
1281	 0.302723131418187 
1282	 0.302824029839973 
1283	 0.302918563490045 
1284	 0.30300315865961 
1285	 0.303084941799681 
1286	 0.303160895232855 
1287	 0.303232611677834 
1288	 0.303289992781887 
1289	 0.30334466156182 
1290	 0.303377095033483 
1291	 0.30338346462745 
1292	 0.303402043465475 
1293	 0.303422825639874 
1294	 0.303419946251578 
1295	 0.303406018278993 
1296	 0.303389279177874 
1297	 0.303354933566181 
1298	 0.303318216461296 
1299	 0.303291119871687 
1300	 0.30324384923958 
1301	 0.303175785276437 
1302	 0.303099992854323 
1303	 0.303019388325539 
1304	 0.302925443571209 
1305	 0.302801745981763 
1306	 0.302681801142068 
1307	 0.302536229875589 
1308	 0.302377404894907 
1309	 0.302242727803452 
1310	 0.30210948847847 
1311	 0.301991334648426 
1312	 0.301901509652597 
1313	 0.301782764896585 
1314	 0.301656847414756 
1315	 0.301532823189849 
1316	 0.301384713162257 
1317	 0.30127117437787 
1318	 0.301183584457898 
1319	 0.301082331610787 
1320	 0.300994500691194 
1321	 0.300900520228301 
1322	 0.300788051841368 
1323	 0.300690017886195 
1324	 0.300629677884839 
1325	 0.300558470391781 
1326	 0.300491516321113 
1327	 0.300434704791814 
1328	 0.300352866121251 
1329	 0.300259939215265 
1330	 0.300177605068775 
1331	 0.300086131755737 
1332	 0.300023196676069 
1333	 0.299975014083762 
1334	 0.299929052081518 
1335	 0.299902993639967 
1336	 0.299872737175695 
1337	 0.299836857725753 
1338	 0.299811159070011 
1339	 0.299798440823122 
1340	 0.299781035878009 
1341	 0.299771775890666 
1342	 0.299751438411239 
1343	 0.299727879806562 
1344	 0.299694094323166 
1345	 0.299664544042335 
1346	 0.299648671852935 
1347	 0.299631401061242 
1348	 0.299619614985232 
1349	 0.299591605855268 
1350	 0.299549502951721 
1351	 0.299517155172329 
1352	 0.299477527810167 
1353	 0.299454590528249 
1354	 0.299446835053003 
1355	 0.299425165275053 
1356	 0.299404140469999 
1357	 0.299382707770656 
1358	 0.299349869978552 
1359	 0.299327898447875 
1360	 0.299317905535204 
1361	 0.299301862357308 
1362	 0.299292962991699 
1363	 0.299270999478402 
1364	 0.299244275772283 
1365	 0.299210082103091 
1366	 0.2991640176496 
1367	 0.299114528270515 
1368	 0.299072420800709 
1369	 0.299015828550916 
1370	 0.2989521334292 
1371	 0.298869079981497 
1372	 0.298763188207207 
1373	 0.298644579648367 
1374	 0.298499794140921 
1375	 0.298341814934944 
1376	 0.298141781253775 
1377	 0.297920019993133 
1378	 0.297653714236238 
1379	 0.297338802485402 
1380	 0.297014814005193 
1381	 0.296650905735167 
1382	 0.296280868364143 
1383	 0.29591352576954 
1384	 0.295502754574153 
1385	 0.295081836549627 
1386	 0.294613762056166 
1387	 0.2941178812947 
1388	 0.293566442805662 
1389	 0.292978832626831 
1390	 0.292331227311035 
1391	 0.291628658599322 
1392	 0.290877976562427 
1393	 0.290089859728581 
1394	 0.289293756028086 
1395	 0.288452342294731 
1396	 0.287599008870615 
1397	 0.286755373348129 
1398	 0.285886130752655 
1399	 0.285040185763197 
1400	 0.284221810482873 
1401	 0.283375728190882 
1402	 0.282515061870576 
1403	 0.28166882618095 
1404	 0.280796875959812 
1405	 0.279981584954385 
1406	 0.279184971372013 
1407	 0.278424092775074 
1408	 0.277701705340939 
1409	 0.276990958173906 
1410	 0.276300294194438 
1411	 0.275640351379339 
1412	 0.274978654978838 
1413	 0.274391661062153 
1414	 0.273872617251408 
1415	 0.273381821332853 
1416	 0.272955206939906 
1417	 0.272566981834172 
1418	 0.27217527766777 
1419	 0.271805655213824 
1420	 0.271468641352544 
1421	 0.271140858059911 
1422	 0.270846138504062 
1423	 0.270579397452712 
1424	 0.27031522954722 
1425	 0.270073628821051 
1426	 0.269828496880394 
1427	 0.269575348887176 
1428	 0.269358301885239 
1429	 0.269153149064773 
1430	 0.268967783599865 
1431	 0.268831168941172 
1432	 0.26866578481439 
1433	 0.268481181406633 
1434	 0.268332353648557 
1435	 0.268182899015279 
1436	 0.268057242530557 
1437	 0.267968508566006 
1438	 0.267880238114303 
1439	 0.267804691357799 
1440	 0.26773312535188 
1441	 0.267646231730038 
1442	 0.267587259018698 
1443	 0.267530911080378 
1444	 0.267470164122698 
1445	 0.267443432727872 
1446	 0.267417255163669 
1447	 0.267392953479263 
1448	 0.267372947737399 
1449	 0.267350983768955 
1450	 0.267335400129648 
1451	 0.267319906226743 
1452	 0.267295927735498 
1453	 0.267302345586379 
1454	 0.26732248789893 
1455	 0.267349230477131 
1456	 0.267403035166446 
1457	 0.267440051211389 
1458	 0.267467624178527 
1459	 0.267509035606534 
1460	 0.267548060012257 
1461	 0.2676064471831 
1462	 0.267670669698842 
1463	 0.267759363063981 
1464	 0.26787167086655 
1465	 0.267987540930386 
1466	 0.26812156577825 
1467	 0.268263041954897 
1468	 0.268396013359452 
1469	 0.268559820257323 
1470	 0.268748577029656 
1471	 0.268951707910911 
1472	 0.269151382119845 
1473	 0.269392217040247 
1474	 0.269623503255521 
1475	 0.269844302322163 
1476	 0.270089731031887 
1477	 0.270321833985482 
1478	 0.270571892747336 
1479	 0.270836366555423 
1480	 0.271101572666186 
1481	 0.271395240822362 
1482	 0.271669964511905 
1483	 0.271940248635951 
1484	 0.27221258848447 
1485	 0.272479491538727 
1486	 0.272753182936648 
1487	 0.273034997757249 
1488	 0.273307789590825 
1489	 0.273577096791087 
1490	 0.273848656534233 
1491	 0.274124025939298 
1492	 0.274390931298673 
1493	 0.274657467666723 
1494	 0.274916723413652 
1495	 0.275154848742765 
1496	 0.275409632679588 
1497	 0.275676572034053 
1498	 0.275936639920063 
1499	 0.276214141053161 
1500	 0.276465008659778 
1501	 0.276686169373632 
1502	 0.276920284613143 
1503	 0.277152225482812 
1504	 0.277376816644099 
1505	 0.277594943650767 
1506	 0.277826465420905 
1507	 0.278043041282778 
1508	 0.278247097732593 
1509	 0.278479456636015 
1510	 0.278721974144933 
1511	 0.278952589474769 
1512	 0.27918366618183 
1513	 0.279420065701412 
1514	 0.279645447200037 
1515	 0.279876419907828 
1516	 0.280120130450835 
1517	 0.280330607820029 
1518	 0.280524137671431 
1519	 0.280708749744271 
1520	 0.280860369374973 
1521	 0.281040732880027 
1522	 0.281228052192119 
1523	 0.281410098899041 
1524	 0.281605213638566 
1525	 0.281785985693736 
1526	 0.281952607889271 
1527	 0.282124716836148 
1528	 0.282300342267276 
1529	 0.282468047914478 
1530	 0.282624589720968 
1531	 0.28279450755967 
1532	 0.282973721320423 
1533	 0.283136851449695 
1534	 0.283303301690681 
1535	 0.283459340836091 
1536	 0.283593267768967 
1537	 0.283735723855533 
1538	 0.283885206443118 
1539	 0.284025696182959 
1540	 0.284162465760632 
1541	 0.28429745101521 
1542	 0.284419896266299 
1543	 0.284550835250378 
1544	 0.28469359299631 
1545	 0.28481764774722 
1546	 0.284927239802031 
1547	 0.285055637124979 
1548	 0.285163945577365 
1549	 0.285276881495627 
1550	 0.285399486398333 
1551	 0.285512885682637 
1552	 0.285624723323388 
1553	 0.285729606857343 
1554	 0.285852357624206 
1555	 0.285977120808254 
1556	 0.286080720760708 
1557	 0.286191893285807 
1558	 0.286299941639829 
1559	 0.286397058823876 
1560	 0.286511993098521 
1561	 0.286650148890716 
1562	 0.286760979099587 
1563	 0.28686265261681 
1564	 0.286973508875838 
1565	 0.28707421503218 
1566	 0.287189382406277 
1567	 0.28732423364546 
1568	 0.287433321664714 
1569	 0.287536159302396 
1570	 0.287630597600899 
1571	 0.287712379681987 
1572	 0.287793456625085 
1573	 0.287873683177969 
1574	 0.287943242846635 
1575	 0.288000877046262 
1576	 0.288058874081859 
1577	 0.288110983059117 
1578	 0.288161128623769 
1579	 0.288208028434352 
1580	 0.288253655389907 
1581	 0.288286609420883 
1582	 0.288336464708964 
1583	 0.288395831546491 
1584	 0.288453223281261 
1585	 0.288527292220405 
1586	 0.288585886228559 
1587	 0.288626310917289 
1588	 0.288681723618079 
1589	 0.288738556955535 
1590	 0.2887968545704 
1591	 0.288874200984117 
1592	 0.288933243446548 
1593	 0.288975737373205 
1594	 0.289027124720463 
1595	 0.289065512628917 
1596	 0.289121574195099 
1597	 0.289201367631691 
1598	 0.289266389447928 
1599	 0.289336973474014 
1600	 0.289397813219563 
1601	 0.28943678430312 
1602	 0.289488930368876 
1603	 0.289552475738333 
1604	 0.289603062197581 
1605	 0.289643686179397 
1606	 0.289698774022784 
1607	 0.289764413986961 
1608	 0.289811947195024 
1609	 0.289856358518244 
1610	 0.289903434587566 
1611	 0.289927122625671 
1612	 0.289949236963032 
1613	 0.289984185925689 
1614	 0.290002974437939 
1615	 0.290006852581403 
1616	 0.290008323409081 
1617	 0.290023392633045 
1618	 0.290050688849757 
1619	 0.290066977517736 
1620	 0.290083310942722 
1621	 0.290102854653286 
1622	 0.290114032442533 
1623	 0.290128974954161 
1624	 0.290155589025576 
1625	 0.290169848791796 
1626	 0.290168678908112 
1627	 0.290184492006389 
1628	 0.290204574967847 
1629	 0.290233520576725 
1630	 0.290277431607482 
1631	 0.290299151951739 
1632	 0.290318079760297 
1633	 0.290338072841441 
1634	 0.290345570449777 
1635	 0.29035937590672 
1636	 0.290381695881209 
1637	 0.290396251775951 
1638	 0.290401992591557 
1639	 0.290413723863296 
1640	 0.290418971690861 
1641	 0.290451881650817 
1642	 0.290501778040238 
1643	 0.290538678049534 
1644	 0.29059510883325 
1645	 0.290630597769098 
1646	 0.290642032937874 
1647	 0.290669297144053 
1648	 0.290709894762044 
1649	 0.290727249995044 
1650	 0.290737596183642 
1651	 0.290740344897951 
1652	 0.290728968770995 
1653	 0.290713268435685 
1654	 0.290685552175281 
1655	 0.290670610337451 
1656	 0.290650609077147 
1657	 0.290638384580871 
1658	 0.290640100977709 
1659	 0.290634160755233 
1660	 0.290629212778331 
1661	 0.290614443092219 
1662	 0.290596531849783 
1663	 0.290575750105085 
1664	 0.29053929825011 
1665	 0.290518810373356 
1666	 0.290505999188778 
1667	 0.290491882833984 
1668	 0.29048835229346 
1669	 0.290471280014957 
1670	 0.290446879284672 
1671	 0.290424881758483 
1672	 0.290390662063266 
1673	 0.290374394548666 
1674	 0.290363572555784 
1675	 0.290362862081633 
1676	 0.290373277958608 
1677	 0.29038987456367 
1678	 0.290433978742684 
1679	 0.290439676471197 
1680	 0.290431292002273 
1681	 0.290425305566005 
1682	 0.290388084947688 
1683	 0.290378049688934 
1684	 0.290396325025045 
1685	 0.290390548647919 
1686	 0.290375568025531 
1687	 0.290364704458906 
1688	 0.290350591971947 
1689	 0.29032961533312 
1690	 0.290308510905326 
1691	 0.290287699576415 
1692	 0.29026310644611 
1693	 0.290226557677554 
1694	 0.290186136332293 
1695	 0.290145040833063 
1696	 0.290080645326011 
1697	 0.290044293286678 
1698	 0.290030682179346 
1699	 0.290003839659092 
1700	 0.289986218612647 
1701	 0.28995440859909 
1702	 0.289909318934814 
1703	 0.289867898614463 
1704	 0.289824012257188 
1705	 0.289778615592836 
1706	 0.289726082598733 
1707	 0.289685467147463 
1708	 0.289657754995179 
1709	 0.289608147656851 
1710	 0.289550970690468 
1711	 0.289504361818443 
1712	 0.289438266851167 
1713	 0.289398798285234 
1714	 0.289390121435536 
1715	 0.289358638761562 
1716	 0.289332778174866 
1717	 0.289287023053006 
1718	 0.289225212117568 
1719	 0.289167193783221 
1720	 0.289095557444265 
1721	 0.289031484025805 
1722	 0.288971332447401 
1723	 0.288907943435338 
1724	 0.28884483315121 
1725	 0.288779022844672 
1726	 0.288707716766241 
1727	 0.288646035588733 
1728	 0.288595357874386 
1729	 0.288519304969368 
1730	 0.288433670519459 
1731	 0.288357890622814 
1732	 0.288273950089497 
1733	 0.288185347601746 
1734	 0.288114665991284 
1735	 0.288008190401391 
1736	 0.287864677812623 
1737	 0.287742443272168 
1738	 0.287612215692604 
1739	 0.287499882952342 
1740	 0.287407866357199 
1741	 0.287284990685427 
1742	 0.287152592157058 
1743	 0.287042461403591 
1744	 0.286918385651954 
1745	 0.286812629361192 
1746	 0.286740889355854 
1747	 0.286620247230009 
1748	 0.286513002419531 
1749	 0.286417582161992 
1750	 0.286318409356959 
1751	 0.286196216648281 
1752	 0.286078119117679 
1753	 0.285959552278788 
1754	 0.285815077609203 
1755	 0.285724880792032 
1756	 0.285637497661448 
1757	 0.285523446024261 
1758	 0.285438153590787 
1759	 0.285315370146257 
1760	 0.285172647632072 
1761	 0.285059957611952 
1762	 0.284927989060528 
1763	 0.284787627941881 
1764	 0.284675030249218 
1765	 0.284556086464336 
1766	 0.284437054249558 
1767	 0.284347457810596 
1768	 0.284274089227424 
1769	 0.284191538463132 
1770	 0.284097673778591 
1771	 0.284007610036938 
1772	 0.283895046476321 
1773	 0.283768929547214 
1774	 0.283682900890206 
1775	 0.283594586336767 
1776	 0.283506033430546 
1777	 0.283459706828617 
1778	 0.283391731668836 
1779	 0.283328055927811 
1780	 0.283284345433969 
1781	 0.283224183731968 
1782	 0.283174240162266 
1783	 0.283129628847918 
1784	 0.283067876744328 
1785	 0.28296192347478 
1786	 0.282909020277774 
1787	 0.282883879747156 
1788	 0.282852182045 
1789	 0.282874698900188 
1790	 0.282867283824635 
1791	 0.28281748113754 
1792	 0.282781373589409 
1793	 0.282751189191541 
1794	 0.282711603160658 
1795	 0.282673683338604 
1796	 0.282642778388514 
1797	 0.282598279162338 
1798	 0.282560115836163 
1799	 0.282547789809835 
1800	 0.282501503585606 
1801	 0.282036237964289 
1802	 0.282121088345066 
1803	 0.282230114283458 
1804	 0.282380024308897 
1805	 0.282505132851893 
1806	 0.28261539289789 
1807	 0.282741858548028 
1808	 0.282824395162409 
1809	 0.282853344496122 
1810	 0.282907860748225 
1811	 0.282975103201736 
1812	 0.282997144944307 
1813	 0.283028000126937 
1814	 0.283027916114555 
1815	 0.282975071544047 
1816	 0.282943103492625 
1817	 0.28291914122746 
1818	 0.282877592423655 
1819	 0.282863665268354 
1820	 0.282882435270237 
1821	 0.2828799813268 
1822	 0.282859185914328 
1823	 0.2828521549552 
1824	 0.282841450317526 
1825	 0.282805693777925 
1826	 0.28276980429586 
1827	 0.282732580771527 
1828	 0.282681863190391 
1829	 0.282613500113702 
1830	 0.282547693696439 
1831	 0.282482061690044 
1832	 0.282398112549372 
1833	 0.282311786554842 
1834	 0.282232570068927 
1835	 0.282156675990503 
1836	 0.282094122059311 
1837	 0.282014506844855 
1838	 0.281912719771454 
1839	 0.281832795881987 
1840	 0.281769340383076 
1841	 0.281677139138526 
1842	 0.281557517531834 
1843	 0.281451704870767 
1844	 0.281311905668005 
1845	 0.281153070727085 
1846	 0.281025128490591 
1847	 0.28089500067465 
1848	 0.280711262640352 
1849	 0.280509130241191 
1850	 0.280311903035895 
1851	 0.280107444761447 
1852	 0.27987371046481 
1853	 0.279644758224235 
1854	 0.27941313084408 
1855	 0.279153132818222 
1856	 0.278869037399167 
1857	 0.278532956385899 
1858	 0.278163895159781 
1859	 0.277776885327347 
1860	 0.277337367118978 
1861	 0.27685852327598 
1862	 0.276339440728949 
1863	 0.275766392270089 
1864	 0.275121396155074 
1865	 0.27442085386949 
1866	 0.273667289233415 
1867	 0.272880225812417 
1868	 0.272062645456695 
1869	 0.271193167079271 
1870	 0.270290899840557 
1871	 0.269300426685809 
1872	 0.268250058946992 
1873	 0.267128465576684 
1874	 0.265947733986502 
1875	 0.264671739808489 
1876	 0.263327426082655 
1877	 0.26185500212923 
1878	 0.260265225753819 
1879	 0.258582496254978 
1880	 0.256781608535048 
1881	 0.254847756673846 
1882	 0.252867159227382 
1883	 0.250801766938447 
1884	 0.248594657408523 
1885	 0.246355671960851 
1886	 0.244025556378592 
1887	 0.241553288556067 
1888	 0.239043250563304 
1889	 0.236447202475835 
1890	 0.233803266515213 
1891	 0.231200712579334 
1892	 0.228556648190124 
1893	 0.225954613357268 
1894	 0.223370971918974 
1895	 0.220837863270126 
1896	 0.218265694515104 
1897	 0.215758137072202 
1898	 0.213324861420691 
1899	 0.210968329092611 
1900	 0.208727827654962 
1901	 0.206617442740191 
1902	 0.204633263878405 
1903	 0.202796811532838 
1904	 0.201034337868894 
1905	 0.199382791504145 
1906	 0.197851987059483 
1907	 0.196380951053935 
1908	 0.195001525014968 
1909	 0.193773945910272 
1910	 0.192612815493718 
1911	 0.191536269919047 
1912	 0.190564025891972 
1913	 0.189648477740567 
1914	 0.18878710294726 
1915	 0.188014319523357 
1916	 0.18732904378555 
1917	 0.186708525644605 
1918	 0.18615850912287 
1919	 0.185648751091961 
1920	 0.185196972868448 
1921	 0.184815460013399 
1922	 0.18445991541014 
1923	 0.184148700965565 
1924	 0.183887094532635 
1925	 0.183669708793501 
1926	 0.183494588913926 
1927	 0.183363803108051 
1928	 0.183287698491081 
1929	 0.183248904953727 
1930	 0.183228306007509 
1931	 0.183247105943309 
1932	 0.183292003982004 
1933	 0.183356117453673 
1934	 0.183481643093834 
1935	 0.183628062187107 
1936	 0.183805739518748 
1937	 0.184014415990498 
1938	 0.184265346578039 
1939	 0.184520520150305 
1940	 0.184788489707854 
1941	 0.185095287524908 
1942	 0.185420775693709 
1943	 0.185779615019858 
1944	 0.186176061576322 
1945	 0.186584020887706 
1946	 0.187009451513016 
1947	 0.187459851506109 
1948	 0.187917946092444 
1949	 0.188394959906006 
1950	 0.188872554078191 
1951	 0.189367889481447 
1952	 0.189850690631719 
1953	 0.190326342397787 
1954	 0.190839676383641 
1955	 0.191340931228183 
1956	 0.191857417437936 
1957	 0.19238667704677 
1958	 0.192916429542844 
1959	 0.19347448161338 
1960	 0.194062622508867 
1961	 0.194647872837514 
1962	 0.195266326406675 
1963	 0.195870648497796 
1964	 0.196467455115731 
1965	 0.197062239577226 
1966	 0.197676283380224 
1967	 0.198294827531254 
1968	 0.19891891504855 
1969	 0.199561302746483 
1970	 0.200189862169623 
1971	 0.200815384845683 
1972	 0.201445994099648 
1973	 0.202075201015111 
1974	 0.202707361728479 
1975	 0.203349604803998 
1976	 0.203978583409419 
1977	 0.204607038844932 
1978	 0.205247718876339 
1979	 0.205861663442517 
1980	 0.206487011897989 
1981	 0.207116910901927 
1982	 0.207745121383199 
1983	 0.208375859905848 
1984	 0.209018857145787 
1985	 0.209651075432659 
1986	 0.210272734988445 
1987	 0.210902666552524 
1988	 0.211523005156589 
1989	 0.212176952205052 
1990	 0.212824985011345 
1991	 0.213459838068472 
1992	 0.214103630170974 
1993	 0.214760958138879 
1994	 0.215392282934828 
1995	 0.216020916423811 
1996	 0.216633814327069 
1997	 0.217221372864364 
1998	 0.217816322740785 
1999	 0.218394800040549 
2000	 0.218992821286557 
2001	 0.219604511531126 
2002	 0.220202633025597 
2003	 0.220834809293464 
2004	 0.221464326686118 
2005	 0.222059544105778 
2006	 0.222639478504 
2007	 0.223223442816232 
2008	 0.223772466768818 
2009	 0.224341409918797 
2010	 0.224938787211176 
2011	 0.225506392669791 
2012	 0.226064983669499 
2013	 0.22661356729147 
2014	 0.22714444830258 
2015	 0.227667148025258 
2016	 0.228180503609608 
2017	 0.228719359003638 
2018	 0.229264168821327 
2019	 0.229825077572505 
2020	 0.230374312185513 
2021	 0.230949394900132 
2022	 0.231482660377925 
2023	 0.231993915198105 
2024	 0.232501976355231 
2025	 0.232987478119413 
2026	 0.233466428263242 
2027	 0.233931484359406 
2028	 0.234406083540888 
2029	 0.234868047631153 
2030	 0.23531339022577 
2031	 0.235771792554432 
2032	 0.236230228432833 
2033	 0.236691587187265 
2034	 0.237164361553976 
2035	 0.23762256506393 
2036	 0.238071474451121 
2037	 0.238527594273182 
2038	 0.238993760426355 
2039	 0.239432337066206 
2040	 0.239846353731802 
2041	 0.240288615940578 
2042	 0.240704480545635 
2043	 0.241115993897302 
2044	 0.24154059253081 
2045	 0.241995417486378 
2046	 0.24240829853599 
2047	 0.242807066007046 
2048	 0.243199323388369 
2049	 0.243576564118822 
2050	 0.243943957664435 
2051	 0.244294744741334 
2052	 0.244649885727839 
2053	 0.24498429955481 
2054	 0.245334563465148 
2055	 0.245696337913155 
2056	 0.246062930735198 
2057	 0.246419440151697 
2058	 0.246785307822108 
2059	 0.247123536102362 
2060	 0.247432674321826 
2061	 0.247770703472556 
2062	 0.248096668653255 
2063	 0.248445886868575 
2064	 0.248831544671624 
2065	 0.249195897503556 
2066	 0.249565995909801 
2067	 0.249925479536458 
2068	 0.250288887317561 
2069	 0.250622588798128 
2070	 0.250951559187294 
2071	 0.251266809017722 
2072	 0.25158224777243 
2073	 0.2518924049337 
2074	 0.252185873878965 
2075	 0.252454923039253 
2076	 0.252752682446387 
2077	 0.253047475434992 
2078	 0.253345662688058 
2079	 0.253666785350772 
2080	 0.253982874986262 
2081	 0.254286383652424 
2082	 0.254596036296993 
2083	 0.254926812515011 
2084	 0.255246310109365 
2085	 0.255544393223582 
2086	 0.255829477194946 
2087	 0.256110794572737 
2088	 0.256369425746226 
2089	 0.256642121279969 
2090	 0.25691943521485 
2091	 0.257188137059189 
2092	 0.257445562031127 
2093	 0.257720449616875 
2094	 0.258008163203662 
2095	 0.258281710431149 
2096	 0.258566376207315 
2097	 0.258835243048795 
2098	 0.259085632148059 
2099	 0.259328706648011 
2100	 0.25957587294868 
2101	 0.259819255289609 
2102	 0.26007146071337 
2103	 0.260321236027736 
2104	 0.260580722519718 
2105	 0.260848061773395 
2106	 0.26111855477984 
2107	 0.261392292999185 
2108	 0.261673414023719 
2109	 0.261968837784882 
2110	 0.262256279992904 
2111	 0.262559010370982 
2112	 0.262838466939275 
2113	 0.263098586598735 
2114	 0.263359000880924 
2115	 0.263621092088526 
2116	 0.263864787792208 
2117	 0.264132674745125 
2118	 0.264422527573294 
2119	 0.264690458211027 
2120	 0.264951946521384 
2121	 0.265224825579161 
2122	 0.26550035141017 
2123	 0.26576298106076 
2124	 0.266056479823795 
2125	 0.266294783888417 
2126	 0.266489588581551 
2127	 0.266685661041777 
2128	 0.266847689333957 
2129	 0.267012510399597 
2130	 0.26716815181788 
2131	 0.267336287259087 
2132	 0.267482337241598 
2133	 0.26761847057686 
2134	 0.267745475906729 
2135	 0.2678657767541 
2136	 0.267968463051201 
2137	 0.268063733383086 
2138	 0.268137684759886 
2139	 0.268191177307501 
2140	 0.268232537038371 
2141	 0.268246440139206 
2142	 0.268267236866172 
2143	 0.268279545099158 
2144	 0.268290284284944 
2145	 0.268297164811433 
2146	 0.268304710318673 
2147	 0.268324526334878 
2148	 0.268315193032095 
2149	 0.268303306491199 
2150	 0.268296677710935 
2151	 0.268258058463897 
2152	 0.268197422472452 
2153	 0.268125205141072 
2154	 0.26802983770747 
2155	 0.267932902927797 
2156	 0.267814350207312 
2157	 0.267708185088809 
2158	 0.267615207670321 
2159	 0.267494671017305 
2160	 0.267375808903276 
2161	 0.267230697039925 
2162	 0.267020198356544 
2163	 0.266858285507719 
2164	 0.266709204326836 
2165	 0.266569027220321 
2166	 0.266423394471239 
2167	 0.266306212893254 
2168	 0.266165312969095 
2169	 0.266003073280374 
2170	 0.265849769263379 
2171	 0.265711428390698 
2172	 0.265546016110203 
2173	 0.265358455606588 
2174	 0.265180157291061 
2175	 0.264996466953816 
2176	 0.264809563950968 
2177	 0.264609105031276 
2178	 0.264431574593523 
2179	 0.264253467222999 
2180	 0.264086701654887 
2181	 0.26396478051714 
2182	 0.263811901697048 
2183	 0.26363045112706 
2184	 0.263478944679631 
2185	 0.263297533602269 
2186	 0.263085420017377 
2187	 0.262903504535188 
2188	 0.262709678174499 
2189	 0.262561085549453 
2190	 0.262457918905925 
2191	 0.262323194595227 
2192	 0.262204821010307 
2193	 0.262072091279719 
2194	 0.26190046680616 
2195	 0.261767819098702 
2196	 0.26166762661496 
2197	 0.261548713620153 
2198	 0.261431338080026 
2199	 0.261319590219516 
2200	 0.261185028698033 
2201	 0.261080335794993 
2202	 0.261006874549976 
2203	 0.260927937934173 
2204	 0.260857131745361 
2205	 0.260797803052893 
2206	 0.26074458960647 
2207	 0.260689968195134 
2208	 0.260656743423773 
2209	 0.260634302797047 
2210	 0.26063735939839 
2211	 0.260674000388071 
2212	 0.260688939765621 
2213	 0.26071568161452 
2214	 0.260738651832592 
2215	 0.260742332833096 
2216	 0.260765674030598 
2217	 0.260838438575641 
2218	 0.260851235819224 
2219	 0.260821378738866 
2220	 0.260810108255087 
2221	 0.260765631394419 
2222	 0.260737715984584 
2223	 0.260731679051348 
2224	 0.260753704051931 
2225	 0.260758056026487 
2226	 0.260769167496328 
2227	 0.260749948739649 
2228	 0.260724267532877 
2229	 0.260685572048945 
2230	 0.260609065232857 
2231	 0.260561582925873 
2232	 0.260535414771003 
2233	 0.260475976673833 
2234	 0.26041107361495 
2235	 0.260336832245552 
2236	 0.260219378697196 
2237	 0.260138419796824 
2238	 0.260087285255324 
2239	 0.260012819387044 
2240	 0.259928994691079 
2241	 0.25986224785215 
2242	 0.259801553969362 
2243	 0.25972215723583 
2244	 0.259647371050139 
2245	 0.259576212734841 
2246	 0.259476908160621 
2247	 0.259367310878827 
2248	 0.259261379461977 
2249	 0.259151353826832 
2250	 0.259056086625023 
2251	 0.25896114924099 
2252	 0.258877126094512 
2253	 0.258823674870468 
2254	 0.258733799690098 
2255	 0.258625142434311 
2256	 0.258519619732259 
2257	 0.25838285161963 
2258	 0.258292473012756 
2259	 0.258225134222231 
2260	 0.258157979504337 
2261	 0.258123180126057 
2262	 0.258069233711817 
2263	 0.257983816352509 
2264	 0.257946788026673 
2265	 0.257945981892506 
2266	 0.257923791587098 
2267	 0.257955374043381 
2268	 0.257925052961663 
2269	 0.257852503884588 
2270	 0.257741832210688 
2271	 0.257633153928616 
2272	 0.257565837107802 
2273	 0.25751070671772 
2274	 0.257510342840659 
2275	 0.257498401012208 
2276	 0.257514535431053 
2277	 0.25748731609511 
2278	 0.257458995086381 
2279	 0.257404066689943 
2280	 0.257306587577342 
2281	 0.257241606173517 
2282	 0.257180574504886 
2283	 0.257114644193095 
2284	 0.25705339070716 
2285	 0.256996249109184 
2286	 0.256929261418534 
2287	 0.256871736291498 
2288	 0.256829841829411 
2289	 0.256780255261017 
2290	 0.256733605627029 
2291	 0.25668285627454 
2292	 0.256633478185787 
2293	 0.256572562222205 
2294	 0.256490298287796 
2295	 0.256427331966915 
2296	 0.256353818995758 
2297	 0.256318229541279 
2298	 0.256296980994253 
2299	 0.256237339252387 
2300	 0.256167363116952 
2301	 0.2561041248514 
2302	 0.256045735649971 
2303	 0.256003719905182 
2304	 0.255981446104739 
2305	 0.255966091860223 
2306	 0.255907112089057 
2307	 0.255832816253085 
2308	 0.255725331209059 
2309	 0.255558390497977 
2310	 0.255440084557573 
2311	 0.255333476181292 
2312	 0.255211644208987 
2313	 0.255115082282044 
2314	 0.254970604279215 
2315	 0.254746084323968 
2316	 0.254607217036914 
2317	 0.254505112499436 
2318	 0.254389511231687 
2319	 0.254314351153792 
2320	 0.254215211290071 
2321	 0.254067061522661 
2322	 0.253972607899512 
2323	 0.253943509554185 
2324	 0.253875254797788 
2325	 0.253820855961192 
2326	 0.253717480283322 
2327	 0.253572899980815 
2328	 0.253397927601293 
2329	 0.253228269768588 
2330	 0.253118655199948 
2331	 0.253063393935626 
2332	 0.252978100198695 
2333	 0.252876274533515 
2334	 0.252792849167554 
2335	 0.252649449277584 
2336	 0.252523648958568 
2337	 0.252404052886107 
2338	 0.25227085688814 
2339	 0.252171836473134 
2340	 0.252039182723475 
2341	 0.251904251643532 
2342	 0.251725648036948 
2343	 0.25147683905309 
2344	 0.251279569664117 
2345	 0.251064806222341 
2346	 0.250833013100816 
2347	 0.250608306928327 
2348	 0.250404236913592 
2349	 0.250155949095064 
2350	 0.249874734894992 
2351	 0.249627800178037 
2352	 0.2493775744816 
2353	 0.249110262099928 
2354	 0.24883345291849 
2355	 0.248612043716068 
2356	 0.248411152286672 
2357	 0.248195171554338 
2358	 0.248021803750888 
2359	 0.247801340026333 
2360	 0.24754283924178 
2361	 0.247289822980829 
2362	 0.247059788093521 
2363	 0.246797001895487 
2364	 0.246460610008048 
2365	 0.246175208747338 
2366	 0.245948634609847 
2367	 0.245625803590282 
2368	 0.245258615390308 
2369	 0.244934463679734 
2370	 0.24456450034186 
2371	 0.244181805710689 
2372	 0.243942942308124 
2373	 0.24364371984151 
2374	 0.243312336106575 
2375	 0.243012873201193 
2376	 0.242614095916537 
2377	 0.242271527526946 
2378	 0.241982903387792 
2379	 0.241621894969318 
2380	 0.241304692666333 
2381	 0.241019478973694 
2382	 0.240676190049049 
2383	 0.240347324803441 
2384	 0.240002568135159 
2385	 0.239621687486108 
2386	 0.23927383628713 
2387	 0.238916826818058 
2388	 0.238646642900822 
2389	 0.238382170743573 
2390	 0.238058773455796 
2391	 0.237764001775066 
2392	 0.237347877227942 
2393	 0.236966871930058 
2394	 0.236593988752537 
2395	 0.236138402763206 
2396	 0.235802211991743 
2397	 0.235442160649416 
2398	 0.235136161154137 
2399	 0.234870839510382 
2400	 0.234525917203021 
2401	 0.234212708452561 
2402	 0.233785193084374 
2403	 0.233399936591051 
2404	 0.233100839898566 
2405	 0.232729473256267 
2406	 0.232367860912382 
2407	 0.232003685206762 
2408	 0.231650114968086 
2409	 0.231238736244629 
2410	 0.230859536046315 
2411	 0.230524809979389 
2412	 0.230109613765191 
2413	 0.229758841569656 
2414	 0.229395863309467 
2415	 0.228937230977791 
2416	 0.228512074191246 
2417	 0.2280620183361 
2418	 0.227623292021117 
2419	 0.227204240081854 
2420	 0.226805549390186 
2421	 0.22643644791827 
2422	 0.225971459406643 
2423	 0.225458189338116 
2424	 0.224973781194734 
2425	 0.224365943166335 
2426	 0.223917770678822 
2427	 0.223661681764195 
2428	 0.22328310766471 
2429	 0.222910651165479 
2430	 0.222522985508978 
2431	 0.222025149111842 
2432	 0.221643826540676 
2433	 0.22134165812522 
2434	 0.221021967669462 
2435	 0.220750078154393 
2436	 0.22044572883744 
2437	 0.220179546299289 
2438	 0.21976156038458 
2439	 0.219219398320523 
2440	 0.218757771591579 
2441	 0.218211288777369 
2442	 0.217791550023764 
2443	 0.217587719924388 
2444	 0.217194507196773 
2445	 0.216677257117819 
2446	 0.216206113336131 
2447	 0.215648028072289 
2448	 0.215189182782973 
2449	 0.214834039471434 
2450	 0.214400501794834 
2451	 0.213970643184931 
2452	 0.213508667612317 
2453	 0.213002249994661 
2454	 0.212522164167944 
2455	 0.212043971914378 
2456	 0.211572611573703 
2457	 0.211081807657684 
2458	 0.21069443577825 
2459	 0.210335608155259 
2460	 0.209974078059025 
2461	 0.209710418401671 
2462	 0.209394730067422 
2463	 0.209075906821215 
2464	 0.208695754836059 
2465	 0.20829967479978 
2466	 0.207880048296034 
2467	 0.207395594606803 
2468	 0.206901089020159 
2469	 0.206350194567458 
2470	 0.205762407249234 
2471	 0.205291689902939 
2472	 0.204929228647396 
2473	 0.204535997933339 
2474	 0.204226889665007 
2475	 0.204007720847062 
2476	 0.203550481783052 
2477	 0.20311434570171 
2478	 0.202595256455916 
2479	 0.202013176604649 
2480	 0.201756338996691 
2481	 0.201460747503352 
2482	 0.20114627993528 
2483	 0.20086288002728 
2484	 0.200370729993504 
2485	 0.199745551450265 
2486	 0.199133103928214 
2487	 0.198704232076405 
2488	 0.198397446849171 
2489	 0.198232273747974 
2490	 0.198151863820379 
2491	 0.197838463985255 
2492	 0.197381734456537 
2493	 0.196941785924179 
2494	 0.196548624561985 
2495	 0.1963468582493 
2496	 0.196318434787796 
2497	 0.196352699952649 
2498	 0.196324498840403 
2499	 0.196143981383691 
2500	 0.195821355416785 
