Wavelength	MM1000012.asd
350	 3.67491366036387E-02 
351	 0.045282916572842 
352	 4.73671235225005E-02 
353	 3.93385733209514E-02 
354	 3.40773293917664E-02 
355	 3.88041212425729E-02 
356	 4.39245291401251E-02 
357	 4.17560390162107E-02 
358	 5.02439710379572E-02 
359	 5.06378913435962E-02 
360	 4.41094282949275E-02 
361	 4.42364389436732E-02 
362	 4.40921859706888E-02 
363	 4.46971809970402E-02 
364	 4.52525552414117E-02 
365	 4.02516134737827E-02 
366	 4.10260534827394E-02 
367	 4.53472244663253E-02 
368	 4.77772261294399E-02 
369	 4.63880284606938E-02 
370	 4.62490190874488E-02 
371	 4.73598143075038E-02 
372	 4.64478014888836E-02 
373	 4.68721074060026E-02 
374	 4.69267593943811E-02 
375	 4.61692238633535E-02 
376	 4.75779697866438E-02 
377	 4.63606553166884E-02 
378	 4.66905060459706E-02 
379	 5.21431999061547E-02 
380	 5.28312058923183E-02 
381	 0.050294218437504 
382	 0.048058230060148 
383	 4.99886609424211E-02 
384	 4.82326050157932E-02 
385	 4.68138388223826E-02 
386	 4.84516964450768E-02 
387	 5.03941285119974E-02 
388	 5.02094456515224E-02 
389	 4.97140369507227E-02 
390	 5.11992601107618E-02 
391	 5.18498632440984E-02 
392	 5.13419486732505E-02 
393	 5.11580500943821E-02 
394	 5.37375296727726E-02 
395	 5.32786504954631E-02 
396	 0.052398047721916 
397	 5.30954339671209E-02 
398	 5.28280374822447E-02 
399	 5.40550464939086E-02 
400	 5.55583383593366E-02 
401	 5.53713899762652E-02 
402	 5.55029323853411E-02 
403	 5.46635640148087E-02 
404	 5.38044889442606E-02 
405	 5.60525906623969E-02 
406	 0.05695199296253 
407	 5.70896779550355E-02 
408	 5.72763134355387E-02 
409	 5.59657364324525E-02 
410	 5.51840828705986E-02 
411	 5.53507271904922E-02 
412	 0.055999918786397 
413	 5.65577169711114E-02 
414	 0.057089513324535 
415	 5.76437489385623E-02 
416	 5.81713551027316E-02 
417	 5.77775982093953E-02 
418	 5.76024706816802E-02 
419	 5.84617745832187E-02 
420	 5.84321129004314E-02 
421	 5.81747472783998E-02 
422	 5.78178852391553E-02 
423	 5.72328229535792E-02 
424	 5.78374258195856E-02 
425	 5.80537468794868E-02 
426	 5.73151018641866E-02 
427	 5.75333646860636E-02 
428	 0.057808066634707 
429	 5.76465585211784E-02 
430	 5.70001513862417E-02 
431	 5.74943688415337E-02 
432	 5.72466760812567E-02 
433	 5.64348977611856E-02 
434	 5.72106778041985E-02 
435	 0.056816398371358 
436	 5.65272598925441E-02 
437	 5.72516133200477E-02 
438	 5.68278056022561E-02 
439	 5.66291306022812E-02 
440	 5.69332274867299E-02 
441	 5.73659288529962E-02 
442	 5.70068543501239E-02 
443	 5.68738667423454E-02 
444	 5.72868284181162E-02 
445	 5.72552018093557E-02 
446	 0.057039333726148 
447	 5.68071813622225E-02 
448	 5.67256508838872E-02 
449	 5.69851738552705E-02 
450	 5.72825509653095E-02 
451	 5.74517558825491E-02 
452	 5.74715486895053E-02 
453	 5.74668649320558E-02 
454	 5.73888011911576E-02 
455	 5.72476821584942E-02 
456	 5.72593967072277E-02 
457	 5.74889705487834E-02 
458	 5.76763796542276E-02 
459	 5.74884026688656E-02 
460	 5.72635568943712E-02 
461	 5.72941580832856E-02 
462	 5.74883819536687E-02 
463	 5.72323690575957E-02 
464	 5.72214664942044E-02 
465	 5.72793731355406E-02 
466	 5.71505115416666E-02 
467	 5.72776771875455E-02 
468	 5.74300314356403E-02 
469	 5.74502338311727E-02 
470	 0.057282802228952 
471	 0.057287850451895 
472	 5.73383459782202E-02 
473	 5.73007399181935E-02 
474	 0.057231286709566 
475	 5.71441724396247E-02 
476	 5.70914540056741E-02 
477	 5.71259013476858E-02 
478	 5.72097274596821E-02 
479	 5.72075777564804E-02 
480	 0.057121012307437 
481	 5.71418507137781E-02 
482	 0.057340830400443 
483	 5.75065877625596E-02 
484	 5.74316701636465E-02 
485	 5.72639659160624E-02 
486	 5.70812483824502E-02 
487	 5.69808983469244E-02 
488	 5.70531874170476E-02 
489	 5.69980805681574E-02 
490	 5.70007215109377E-02 
491	 5.71428626720149E-02 
492	 5.70214500606939E-02 
493	 5.70125853185737E-02 
494	 5.70548482180829E-02 
495	 5.69492266239163E-02 
496	 5.71375944553932E-02 
497	 5.72698338184647E-02 
498	 5.72032269229599E-02 
499	 5.72116311910572E-02 
500	 5.71084429205215E-02 
501	 0.057009671899468 
502	 5.70498839365991E-02 
503	 0.057065469939931 
504	 5.70316908630754E-02 
505	 5.69687812253649E-02 
506	 5.69357481978448E-02 
507	 5.70551047438378E-02 
508	 5.71812690440832E-02 
509	 5.71994627110247E-02 
510	 5.72183681641884E-02 
511	 5.72390297643128E-02 
512	 5.72574702862265E-02 
513	 5.72608277230313E-02 
514	 5.71898075958053E-02 
515	 5.71990249008034E-02 
516	 5.73219563395962E-02 
517	 5.73564109071178E-02 
518	 5.73371067941285E-02 
519	 5.72879271453599E-02 
520	 0.057245162615499 
521	 5.72854017416036E-02 
522	 5.73524056329924E-02 
523	 5.73890544424157E-02 
524	 5.73489880625224E-02 
525	 5.73561374616584E-02 
526	 5.73679476968528E-02 
527	 5.73397294412374E-02 
528	 5.73407062049344E-02 
529	 5.73774626953286E-02 
530	 5.74507912944788E-02 
531	 5.75515475423004E-02 
532	 5.76180443252709E-02 
533	 0.057649031880814 
534	 5.76634304546868E-02 
535	 5.76939883994306E-02 
536	 5.77685724632856E-02 
537	 5.78848381578886E-02 
538	 5.80102876932857E-02 
539	 5.80249665534387E-02 
540	 5.80465295617611E-02 
541	 5.81276503916161E-02 
542	 5.82098914856726E-02 
543	 5.83280687408834E-02 
544	 5.84033768277945E-02 
545	 5.83870166719228E-02 
546	 0.058460743049282 
547	 5.85802596587002E-02 
548	 5.86950366056085E-02 
549	 5.87625754232541E-02 
550	 5.89074522659946E-02 
551	 5.90530508036595E-02 
552	 5.91503007962542E-02 
553	 5.93274373234606E-02 
554	 5.94553673772807E-02 
555	 5.95791324882239E-02 
556	 0.059814121179314 
557	 6.00131799301924E-02 
558	 6.02529476568132E-02 
559	 0.060569543793287 
560	 6.08935968013425E-02 
561	 6.11298787608862E-02 
562	 6.13478501002559E-02 
563	 6.16496878730683E-02 
564	 6.19608531877741E-02 
565	 0.062174520506101 
566	 6.23605334624727E-02 
567	 6.27791707450856E-02 
568	 6.32859173697057E-02 
569	 6.38049048703114E-02 
570	 6.42992141309227E-02 
571	 6.48089471294762E-02 
572	 6.53820821031968E-02 
573	 6.59705528674188E-02 
574	 6.64717501862299E-02 
575	 6.70363721498344E-02 
576	 6.76310419550549E-02 
577	 6.82118463879571E-02 
578	 6.87675732803594E-02 
579	 6.93854290810601E-02 
580	 7.00817621995115E-02 
581	 7.08344003799433E-02 
582	 7.15946260333085E-02 
583	 7.23922550532449E-02 
584	 7.32430787394057E-02 
585	 7.41369796040118E-02 
586	 7.50488652085558E-02 
587	 7.59468586769888E-02 
588	 7.68280833570873E-02 
589	 7.78192930577725E-02 
590	 7.88060587628679E-02 
591	 7.97768831478853E-02 
592	 8.08220192412933E-02 
593	 8.18791004572028E-02 
594	 8.30028209023382E-02 
595	 8.41750729948547E-02 
596	 8.51247544317721E-02 
597	 8.60575646305635E-02 
598	 8.69578878880142E-02 
599	 8.77317150615375E-02 
600	 8.86789101386083E-02 
601	 8.96241348238124E-02 
602	 9.04578554567539E-02 
603	 9.12900548969702E-02 
604	 9.21680849526746E-02 
605	 9.30548015913323E-02 
606	 9.38915986734225E-02 
607	 9.47232219821388E-02 
608	 9.55383476996456E-02 
609	 9.63291942650446E-02 
610	 0.097095567334121 
611	 9.77809735257499E-02 
612	 0.098414408156373 
613	 9.90244671511514E-02 
614	 9.95623513090412E-02 
615	 0.100093117075344 
616	 0.100627426583122 
617	 0.101132584666316 
618	 0.10159118848809 
619	 0.102009690059217 
620	 0.102415726804853 
621	 0.102874581677276 
622	 0.103322874793023 
623	 0.103716597247053 
624	 0.104034143216485 
625	 0.104337341692181 
626	 0.104671536226265 
627	 0.105017805495518 
628	 0.1052755592813 
629	 0.105611456956692 
630	 0.105968705177855 
631	 0.106254690722483 
632	 0.106485720272081 
633	 0.106742109256648 
634	 0.107020586408884 
635	 0.107254937312739 
636	 0.107542172083091 
637	 0.107835703354358 
638	 0.108099873470857 
639	 0.108389998450688 
640	 0.108675092624804 
641	 0.108961848451422 
642	 0.109262977795529 
643	 0.109504886548379 
644	 0.10976321276562 
645	 0.11006736244529 
646	 0.110358894813751 
647	 0.110673021372432 
648	 0.110988348839019 
649	 0.111280244421793 
650	 0.111569770408977 
651	 0.111926918533646 
652	 0.112311038630618 
653	 0.112597160102752 
654	 0.112941850337488 
655	 0.113309210649123 
656	 0.113664728216442 
657	 0.114074712378748 
658	 0.114428001136041 
659	 0.114783826905367 
660	 0.115248330512681 
661	 0.115609350136652 
662	 0.115995671533153 
663	 0.116465992192001 
664	 0.116933695514714 
665	 0.117318361183919 
666	 0.117714630538075 
667	 0.118222057002683 
668	 0.118725656063417 
669	 0.119208536533073 
670	 0.119696604408304 
671	 0.120243381745881 
672	 0.120805402956746 
673	 0.121326203578969 
674	 0.121804696192102 
675	 0.122371388022486 
676	 0.12298785787787 
677	 0.123602197740978 
678	 0.124172754411356 
679	 0.124800432379544 
680	 0.125403467506136 
681	 0.125986307879989 
682	 0.126684409948933 
683	 0.12732921201449 
684	 0.127943198592879 
685	 0.128592055977095 
686	 0.129300945864853 
687	 0.13005228757997 
688	 0.130796671144016 
689	 0.131475215167613 
690	 0.132201408413793 
691	 0.132961923340876 
692	 0.133729018052231 
693	 0.134488552033383 
694	 0.135251790778177 
695	 0.136030240313975 
696	 0.13683030783957 
697	 0.137622904092132 
698	 0.138445516125312 
699	 0.139284665805322 
700	 0.140074704026126 
701	 0.14090411322209 
702	 0.141752903578835 
703	 0.142593411600924 
704	 0.143447884757064 
705	 0.144277120775312 
706	 0.14511754410572 
707	 0.146023926714736 
708	 0.146862672117007 
709	 0.147681093285128 
710	 0.148528097435057 
711	 0.149430543412928 
712	 0.150232823189777 
713	 0.150996234480281 
714	 0.151816642597584 
715	 0.152660429591242 
716	 0.153469832688969 
717	 0.154269197132171 
718	 0.155127833396183 
719	 0.155892973281695 
720	 0.156601318382579 
721	 0.157317117785037 
722	 0.158110240102222 
723	 0.158835881656038 
724	 0.159516609460153 
725	 0.160209022202813 
726	 0.160811740825474 
727	 0.161404642220789 
728	 0.162001918290523 
729	 0.162550681035749 
730	 0.163105652701607 
731	 0.163622262182234 
732	 0.164077092323118 
733	 0.164542609673323 
734	 0.164961650979287 
735	 0.165339902139728 
736	 0.165702282028212 
737	 0.166027551692477 
738	 0.16630221329874 
739	 0.16653016471744 
740	 0.166732927197003 
741	 0.166923605392957 
742	 0.167083076779697 
743	 0.167198722640105 
744	 0.167300857058009 
745	 0.16733712115036 
746	 0.167326444777973 
747	 0.167311602958455 
748	 0.167237673496604 
749	 0.167119689928628 
750	 0.16699338332981 
751	 0.1669086498117 
752	 0.166708215530555 
753	 0.166460893120584 
754	 0.166241251216808 
755	 0.165977339840579 
756	 0.165684970100423 
757	 0.165372866466808 
758	 0.165044765674522 
759	 0.164688090883717 
760	 0.164309675025906 
761	 0.163914900714539 
762	 0.163505393690467 
763	 0.163071372897686 
764	 0.16260209536832 
765	 0.162107903732809 
766	 0.161662152028912 
767	 0.161182159482737 
768	 0.160659954355889 
769	 0.160127133454323 
770	 0.159600311926958 
771	 0.159054842522369 
772	 0.158489286330024 
773	 0.157934420317503 
774	 0.157365223814414 
775	 0.156808712920949 
776	 0.156275791535039 
777	 0.155702673205245 
778	 0.155136352529737 
779	 0.154564804901805 
780	 0.153962636949626 
781	 0.153402481897636 
782	 0.152841940465528 
783	 0.152262107045754 
784	 0.151680660288258 
785	 0.151121260140589 
786	 0.150556942782059 
787	 0.149976552977722 
788	 0.149428611712355 
789	 0.148902328741409 
790	 0.148369879552522 
791	 0.147806794949995 
792	 0.147246509907114 
793	 0.146690969648076 
794	 0.146150531548079 
795	 0.145640779939542 
796	 0.1451309939474 
797	 0.14461744784373 
798	 0.144103136773751 
799	 0.143593931561861 
800	 0.143098606520972 
801	 0.142626497496008 
802	 0.142169602528059 
803	 0.141654910326901 
804	 0.141186696207409 
805	 0.140754082572185 
806	 0.140282413946971 
807	 0.139832515757008 
808	 0.139416776306336 
809	 0.139013439985556 
810	 0.138565347942984 
811	 0.13816326582228 
812	 0.137751565341995 
813	 0.137301251806711 
814	 0.136944426085755 
815	 0.136621338248958 
816	 0.136288415432662 
817	 0.13591601761754 
818	 0.135513454701443 
819	 0.135168254181618 
820	 0.134873911470991 
821	 0.134544842137602 
822	 0.134208315450067 
823	 0.133901994529527 
824	 0.133626602447519 
825	 0.133319729506127 
826	 0.133045194626279 
827	 0.132781113147091 
828	 0.132499895876158 
829	 0.132226081650696 
830	 0.132006187695078 
831	 0.131806215574096 
832	 0.13156791603313 
833	 0.131358464899316 
834	 0.131146289720127 
835	 0.130918507558366 
836	 0.130691476514846 
837	 0.130538662332664 
838	 0.130387191829297 
839	 0.130185650565618 
840	 0.129959083078176 
841	 0.129834403356201 
842	 0.129756218434015 
843	 0.129643675854044 
844	 0.129517723006421 
845	 0.129396387864517 
846	 0.129277238573236 
847	 0.129155737344651 
848	 0.129076231870174 
849	 0.128992557392854 
850	 0.128893899202102 
851	 0.128805049210126 
852	 0.128730144664328 
853	 0.128698639800649 
854	 0.128713643485127 
855	 0.128737114680057 
856	 0.128670593260693 
857	 0.128602842156373 
858	 0.128603182222141 
859	 0.128565346750083 
860	 0.128579102905708 
861	 0.128611484204725 
862	 0.128610348257964 
863	 0.128638696527239 
864	 0.128696420042195 
865	 0.128769378222892 
866	 0.128832552120606 
867	 0.128840470474441 
868	 0.128922084741322 
869	 0.12907731360977 
870	 0.129167460722267 
871	 0.129239381865401 
872	 0.129323353830617 
873	 0.129417321912111 
874	 0.129470459031953 
875	 0.129588755748594 
876	 0.129741243605562 
877	 0.129883808465561 
878	 0.13003364146344 
879	 0.130199058749876 
880	 0.130401869771892 
881	 0.130636978680084 
882	 0.130782851761367 
883	 0.130929946054386 
884	 0.131127663021957 
885	 0.131381440250378 
886	 0.131620066030767 
887	 0.131852195134752 
888	 0.132073252753483 
889	 0.132271091138418 
890	 0.132517873961384 
891	 0.132780586983192 
892	 0.133058148335238 
893	 0.13339824238649 
894	 0.133649175399782 
895	 0.133920643827584 
896	 0.134271626291211 
897	 0.13457781371395 
898	 0.134877438352925 
899	 0.135189256483477 
900	 0.13553156527669 
901	 0.135931692885166 
902	 0.136318502754673 
903	 0.136690971672002 
904	 0.137063039988874 
905	 0.13739755738414 
906	 0.13775253617147 
907	 0.138161229419752 
908	 0.138630712694359 
909	 0.139128600317685 
910	 0.139587105685595 
911	 0.140020897135109 
912	 0.140488432674865 
913	 0.140922962614236 
914	 0.141439837682854 
915	 0.14199178956367 
916	 0.142411090406241 
917	 0.1429161103829 
918	 0.143440493278884 
919	 0.143959462358233 
920	 0.144529488952006 
921	 0.145088952592393 
922	 0.145692498771595 
923	 0.146318334419771 
924	 0.146820528424457 
925	 0.147400477047908 
926	 0.148041629910992 
927	 0.148680380958405 
928	 0.149260348717921 
929	 0.149912984093468 
930	 0.150578628998562 
931	 0.151211078458083 
932	 0.151915233800129 
933	 0.152603878640259 
934	 0.153333163289431 
935	 0.154125875105789 
936	 0.15478379181403 
937	 0.155510006722028 
938	 0.15631884369637 
939	 0.157151282835849 
940	 0.157945674444343 
941	 0.158782820806397 
942	 0.159613206358265 
943	 0.16039092636165 
944	 0.161292209615371 
945	 0.162207363734182 
946	 0.163085898924765 
947	 0.16391860844701 
948	 0.164724923007062 
949	 0.165594493100861 
950	 0.166498935345269 
951	 0.167387147111923 
952	 0.16842665819489 
953	 0.16942321384691 
954	 0.170350721906792 
955	 0.171301123510796 
956	 0.172376041969189 
957	 0.173360793638485 
958	 0.174261117957974 
959	 0.175234287394828 
960	 0.176372448927497 
961	 0.17756204720643 
962	 0.17873296857895 
963	 0.179849897752343 
964	 0.180811983837334 
965	 0.181866768290033 
966	 0.183010146528875 
967	 0.184083926906632 
968	 0.185220138807994 
969	 0.186355554690263 
970	 0.187469496775478 
971	 0.188584416793814 
972	 0.189733520829924 
973	 0.191008462221426 
974	 0.192263903834973 
975	 0.193298542122908 
976	 0.194532611870787 
977	 0.195825641073909 
978	 0.197111563096339 
979	 0.198395410121754 
980	 0.199641441293332 
981	 0.200896565496697 
982	 0.202108225517507 
983	 0.203231366877873 
984	 0.204590621646235 
985	 0.206010474391011 
986	 0.207273195658691 
987	 0.208293163717013 
988	 0.209580544681739 
989	 0.210854004022256 
990	 0.212101704313328 
991	 0.213442342306522 
992	 0.214834182903455 
993	 0.215964695949498 
994	 0.217115660977812 
995	 0.218614050519994 
996	 0.219818003744166 
997	 0.221025809330482 
998	 0.222282237869641 
999	 0.223550764918753 
1000	 0.224909300393725 
1001	 0.221830757039731 
1002	 0.223005859385221 
1003	 0.224183211979242 
1004	 0.225336385136174 
1005	 0.226409489072392 
1006	 0.227549927638207 
1007	 0.228718789847715 
1008	 0.229866235180138 
1009	 0.231058382812767 
1010	 0.232241400438907 
1011	 0.233387585799171 
1012	 0.234558726677604 
1013	 0.235702611551611 
1014	 0.236740894952807 
1015	 0.23780524163608 
1016	 0.238944268267407 
1017	 0.240038579322162 
1018	 0.241112227725787 
1019	 0.242183006728613 
1020	 0.243269770900681 
1021	 0.244238243411838 
1022	 0.245221778043258 
1023	 0.246317049399176 
1024	 0.247340562811787 
1025	 0.2483436374405 
1026	 0.249357389782095 
1027	 0.25032571139648 
1028	 0.251277775633439 
1029	 0.252245135306985 
1030	 0.253210700914015 
1031	 0.254153019424429 
1032	 0.255058482513445 
1033	 0.255996160952352 
1034	 0.256944350073391 
1035	 0.257815610529183 
1036	 0.258695630802516 
1037	 0.259575770023743 
1038	 0.260419548163462 
1039	 0.261347318073727 
1040	 0.262252214045261 
1041	 0.263045832948419 
1042	 0.263893970879742 
1043	 0.264741773939529 
1044	 0.265594589097922 
1045	 0.266445916429749 
1046	 0.267387906814895 
1047	 0.268269828989493 
1048	 0.269106161364962 
1049	 0.269926324218349 
1050	 0.270721364082745 
1051	 0.27155663221966 
1052	 0.272380625453924 
1053	 0.273197055621611 
1054	 0.274008870960589 
1055	 0.27478118594805 
1056	 0.275593600273228 
1057	 0.276383256111039 
1058	 0.277148665113901 
1059	 0.2779442436032 
1060	 0.278774819779128 
1061	 0.279522519064545 
1062	 0.280285776301086 
1063	 0.281108661707772 
1064	 0.281819799174968 
1065	 0.282546745350748 
1066	 0.283270675254887 
1067	 0.283927572327309 
1068	 0.284660502639748 
1069	 0.285363686072656 
1070	 0.286063120834191 
1071	 0.286766507096247 
1072	 0.287494840885084 
1073	 0.288211209893173 
1074	 0.288928317224852 
1075	 0.289688016222064 
1076	 0.290386504301192 
1077	 0.291005734184104 
1078	 0.291661665893375 
1079	 0.292332940776284 
1080	 0.292963373770385 
1081	 0.293618197123068 
1082	 0.294303164622408 
1083	 0.29496425870851 
1084	 0.295595886625449 
1085	 0.296258751242019 
1086	 0.29693621834079 
1087	 0.297594664123067 
1088	 0.298250360430069 
1089	 0.29889040028186 
1090	 0.299554084040873 
1091	 0.300251138771036 
1092	 0.300939951737006 
1093	 0.301594539810799 
1094	 0.302232973311086 
1095	 0.302826553792141 
1096	 0.303408815050399 
1097	 0.304064962842995 
1098	 0.304725024563111 
1099	 0.305418088994176 
1100	 0.306089780410587 
1101	 0.306771980618878 
1102	 0.307447294156878 
1103	 0.308117213183863 
1104	 0.308784910037905 
1105	 0.309436667797966 
1106	 0.310095476521885 
1107	 0.310785076010027 
1108	 0.31150529592553 
1109	 0.312238297587317 
1110	 0.312982488869451 
1111	 0.313706630382016 
1112	 0.314397092530868 
1113	 0.31511480379885 
1114	 0.315844399548767 
1115	 0.316575047008373 
1116	 0.317306605550431 
1117	 0.318055628112114 
1118	 0.318817387350505 
1119	 0.319576869619232 
1120	 0.320348925941329 
1121	 0.321103981403479 
1122	 0.321831489611872 
1123	 0.322553433575574 
1124	 0.323285347532996 
1125	 0.32401252600762 
1126	 0.324748324396939 
1127	 0.325500601967481 
1128	 0.326233847473703 
1129	 0.326968773867396 
1130	 0.327677727649534 
1131	 0.328351437200627 
1132	 0.329052383498889 
1133	 0.32976564860486 
1134	 0.330462806296002 
1135	 0.331167540610648 
1136	 0.331859666960858 
1137	 0.332551753465776 
1138	 0.333196664540006 
1139	 0.333860389450941 
1140	 0.334538384176195 
1141	 0.335192253520007 
1142	 0.335830557300427 
1143	 0.33646765876278 
1144	 0.337082995996797 
1145	 0.33771602807661 
1146	 0.338365814314303 
1147	 0.338993505242833 
1148	 0.339631882539291 
1149	 0.340242799805951 
1150	 0.340825752613362 
1151	 0.341404868291742 
1152	 0.341974970097109 
1153	 0.342523036533098 
1154	 0.343086536962334 
1155	 0.343653441093999 
1156	 0.344206837191372 
1157	 0.34476682982847 
1158	 0.345306978106577 
1159	 0.345821969660111 
1160	 0.346352402975583 
1161	 0.346889639632595 
1162	 0.347411420514935 
1163	 0.347936259575097 
1164	 0.348447665950327 
1165	 0.348948391613952 
1166	 0.349437960434807 
1167	 0.349914300584942 
1168	 0.350381696338037 
1169	 0.350833715759572 
1170	 0.351249822182664 
1171	 0.35170696962192 
1172	 0.352175411191896 
1173	 0.352634548555399 
1174	 0.353136274337756 
1175	 0.353572700510732 
1176	 0.353967091968045 
1177	 0.354368711151611 
1178	 0.354721806128557 
1179	 0.35511118531293 
1180	 0.355536279782128 
1181	 0.355935392201153 
1182	 0.356338207968093 
1183	 0.356737668706222 
1184	 0.357104657836707 
1185	 0.35743368521132 
1186	 0.357789494329146 
1187	 0.358142222849956 
1188	 0.358489910471974 
1189	 0.358855649700174 
1190	 0.359189165441163 
1191	 0.359488562400912 
1192	 0.359809812886449 
1193	 0.360116096261978 
1194	 0.360444767041993 
1195	 0.360818502408855 
1196	 0.361149270288888 
1197	 0.361481869167923 
1198	 0.361787662700935 
1199	 0.362069946076582 
1200	 0.362301641816464 
1201	 0.362584534227728 
1202	 0.362879792685411 
1203	 0.363151208150562 
1204	 0.363442313051839 
1205	 0.363698525705761 
1206	 0.363912112290535 
1207	 0.364145766691577 
1208	 0.364376691752915 
1209	 0.364610645337037 
1210	 0.364853514295942 
1211	 0.365082080487166 
1212	 0.365307067056216 
1213	 0.365527129344876 
1214	 0.365732377775745 
1215	 0.365941292774737 
1216	 0.366149985003637 
1217	 0.366362805696484 
1218	 0.366562935355038 
1219	 0.366757505867467 
1220	 0.366951869353876 
1221	 0.367139356025549 
1222	 0.367327067620747 
1223	 0.367527307367108 
1224	 0.367700497355317 
1225	 0.36784217957039 
1226	 0.36801210622757 
1227	 0.368181969800777 
1228	 0.368351734978814 
1229	 0.368544211415779 
1230	 0.368725165038394 
1231	 0.368906040270205 
1232	 0.369067725927043 
1233	 0.369219245251303 
1234	 0.369361036357356 
1235	 0.369511442756387 
1236	 0.369652429529969 
1237	 0.36978679640375 
1238	 0.369927528976008 
1239	 0.370060912392317 
1240	 0.370179362655297 
1241	 0.37029651887433 
1242	 0.370419293263191 
1243	 0.370534375758736 
1244	 0.370625187325786 
1245	 0.370734987658278 
1246	 0.370858119485543 
1247	 0.370975883094204 
1248	 0.371100622297676 
1249	 0.371221527885767 
1250	 0.371317945772892 
1251	 0.371426331803745 
1252	 0.371555119779459 
1253	 0.37169971538063 
1254	 0.371824997853981 
1255	 0.371974836497061 
1256	 0.372084512947722 
1257	 0.372157327213187 
1258	 0.372241574690377 
1259	 0.372303444609299 
1260	 0.37239576498412 
1261	 0.37250267332335 
1262	 0.37260249905386 
1263	 0.372733488567254 
1264	 0.372834043374629 
1265	 0.372907473766583 
1266	 0.372987203672098 
1267	 0.373053779995859 
1268	 0.373118089175774 
1269	 0.373204768182023 
1270	 0.373307583448306 
1271	 0.373394312948791 
1272	 0.373482112878844 
1273	 0.373578510433298 
1274	 0.37366535361761 
1275	 0.373769216752695 
1276	 0.373895812788074 
1277	 0.374016029415049 
1278	 0.374130720965679 
1279	 0.374256037821286 
1280	 0.37440474562114 
1281	 0.374528749251762 
1282	 0.374655463414203 
1283	 0.374763917493449 
1284	 0.374854789875776 
1285	 0.374925830193034 
1286	 0.375004716417216 
1287	 0.375085244780307 
1288	 0.375150939740899 
1289	 0.375210171974834 
1290	 0.375263111216872 
1291	 0.375306464730867 
1292	 0.375343917308139 
1293	 0.375385901083011 
1294	 0.375407169030543 
1295	 0.375403320619945 
1296	 0.375405314388549 
1297	 0.375402297850092 
1298	 0.37539108916403 
1299	 0.375363731677826 
1300	 0.375359007406863 
1301	 0.375372866566347 
1302	 0.375356999922117 
1303	 0.375345451673962 
1304	 0.375322975098993 
1305	 0.375267314222046 
1306	 0.375198126659893 
1307	 0.375151688060383 
1308	 0.375109614654611 
1309	 0.375055713707314 
1310	 0.375004164979782 
1311	 0.374944135917411 
1312	 0.374869445762474 
1313	 0.374800947467572 
1314	 0.374712583429763 
1315	 0.374664225675812 
1316	 0.37464372362076 
1317	 0.37460865144229 
1318	 0.374591447129411 
1319	 0.374568632442518 
1320	 0.374523374417994 
1321	 0.374502497694826 
1322	 0.374500443169665 
1323	 0.374501107625756 
1324	 0.374504733041465 
1325	 0.374503232308578 
1326	 0.374491709759412 
1327	 0.374515521546897 
1328	 0.374564724298831 
1329	 0.374600688865058 
1330	 0.37465483249334 
1331	 0.374727496943622 
1332	 0.374802062090139 
1333	 0.374894030794619 
1334	 0.374963494050728 
1335	 0.375020337531148 
1336	 0.375098178371922 
1337	 0.375157263680438 
1338	 0.375250111977277 
1339	 0.375377735506922 
1340	 0.375502355101077 
1341	 0.375653600796664 
1342	 0.375779589729936 
1343	 0.375895484266379 
1344	 0.376022909279084 
1345	 0.376133778613841 
1346	 0.376204749674586 
1347	 0.376300826790276 
1348	 0.376423887617459 
1349	 0.376538930963682 
1350	 0.376666047226005 
1351	 0.376785105171431 
1352	 0.376898179527405 
1353	 0.377019721449475 
1354	 0.377141046934786 
1355	 0.377270467867482 
1356	 0.377427122088625 
1357	 0.377542671959548 
1358	 0.37763472425083 
1359	 0.377746508923738 
1360	 0.377842888689303 
1361	 0.377940075862668 
1362	 0.378062167366987 
1363	 0.37816097069982 
1364	 0.378230728194298 
1365	 0.378323568912566 
1366	 0.378434111134248 
1367	 0.378514328082929 
1368	 0.378620014385761 
1369	 0.378701463249826 
1370	 0.378760345640287 
1371	 0.378827823818162 
1372	 0.378881644434262 
1373	 0.378926343615138 
1374	 0.378961605045735 
1375	 0.378996025283354 
1376	 0.379005987619963 
1377	 0.37899204245639 
1378	 0.378985999937624 
1379	 0.378966722022573 
1380	 0.378953921570079 
1381	 0.378953985845552 
1382	 0.378930727211787 
1383	 0.378898195866584 
1384	 0.378849327208123 
1385	 0.378780875619335 
1386	 0.378717512805317 
1387	 0.378657086102075 
1388	 0.37857882778474 
1389	 0.378509731736018 
1390	 0.378397445469592 
1391	 0.378249807752284 
1392	 0.378091952117811 
1393	 0.377925991450244 
1394	 0.377728208791828 
1395	 0.377520169008396 
1396	 0.377308587609058 
1397	 0.377079312816795 
1398	 0.376816851774613 
1399	 0.376584395350827 
1400	 0.37636226921594 
1401	 0.37611978248344 
1402	 0.37588019504642 
1403	 0.375633125138973 
1404	 0.375364618347497 
1405	 0.375107953182233 
1406	 0.374861188038177 
1407	 0.37460316052121 
1408	 0.374330773915843 
1409	 0.37406977065088 
1410	 0.373795062989282 
1411	 0.373553897287749 
1412	 0.373320226790069 
1413	 0.373121541315568 
1414	 0.372950183343452 
1415	 0.37280088778287 
1416	 0.372678621613088 
1417	 0.372582795346248 
1418	 0.372491108024978 
1419	 0.372394920558425 
1420	 0.372290469963648 
1421	 0.372183158041419 
1422	 0.372108630961381 
1423	 0.372035518341137 
1424	 0.371959486886201 
1425	 0.371899935813112 
1426	 0.37182561629459 
1427	 0.371731253468735 
1428	 0.371661417108852 
1429	 0.371599161590815 
1430	 0.371540143902122 
1431	 0.37148158468321 
1432	 0.371443561125014 
1433	 0.371421833484783 
1434	 0.371395550173149 
1435	 0.371386345020554 
1436	 0.371373561113704 
1437	 0.37135268180138 
1438	 0.371339553746465 
1439	 0.371332673051963 
1440	 0.37133353775518 
1441	 0.371323069203683 
1442	 0.371310318642143 
1443	 0.37129909249672 
1444	 0.371278828620154 
1445	 0.371289124686961 
1446	 0.371307954070674 
1447	 0.371322639292171 
1448	 0.371344333928455 
1449	 0.371350699488893 
1450	 0.371348111692608 
1451	 0.371364034478459 
1452	 0.371394459160566 
1453	 0.3714195144226 
1454	 0.371450551337596 
1455	 0.371477292945648 
1456	 0.37150352164778 
1457	 0.371524099650132 
1458	 0.371542168340605 
1459	 0.371557300323072 
1460	 0.371560974333543 
1461	 0.371582964158451 
1462	 0.371598416028092 
1463	 0.371644781686825 
1464	 0.371721411151567 
1465	 0.371783293318702 
1466	 0.371861841743939 
1467	 0.371931082299049 
1468	 0.371987381375763 
1469	 0.372052899459936 
1470	 0.372117000052001 
1471	 0.372195217152776 
1472	 0.372270959890705 
1473	 0.372349456801899 
1474	 0.37245447799058 
1475	 0.372560413070406 
1476	 0.372659177854104 
1477	 0.372752088018711 
1478	 0.372826144383341 
1479	 0.372897103945588 
1480	 0.37298091971405 
1481	 0.373079772843266 
1482	 0.373179368700734 
1483	 0.373293752969015 
1484	 0.373389255801778 
1485	 0.373475998772829 
1486	 0.37357334923402 
1487	 0.373659785229965 
1488	 0.373766530334889 
1489	 0.373890038129588 
1490	 0.37401448627741 
1491	 0.374148708395119 
1492	 0.374284925795741 
1493	 0.374429380915891 
1494	 0.374567685963977 
1495	 0.374709173660946 
1496	 0.374839621837883 
1497	 0.374973892366267 
1498	 0.375092403096683 
1499	 0.375200277632366 
1500	 0.375298833969654 
1501	 0.3753753638492 
1502	 0.375454176925801 
1503	 0.375524290676015 
1504	 0.375598447897531 
1505	 0.375680771769405 
1506	 0.375768836749432 
1507	 0.375837249582562 
1508	 0.375914168272397 
1509	 0.37599725848476 
1510	 0.376068483744908 
1511	 0.376154159285317 
1512	 0.376232808434758 
1513	 0.376291966482646 
1514	 0.37635653423861 
1515	 0.376414232149335 
1516	 0.376477054596615 
1517	 0.376545350205784 
1518	 0.376617691578076 
1519	 0.376688749016414 
1520	 0.376767884164758 
1521	 0.376832062140098 
1522	 0.376882662920753 
1523	 0.376949243794138 
1524	 0.37701986068096 
1525	 0.377092743466569 
1526	 0.37718421188213 
1527	 0.37725095699947 
1528	 0.377305629662387 
1529	 0.377350899480638 
1530	 0.377367218820314 
1531	 0.377417218720039 
1532	 0.37745987192381 
1533	 0.377537619624577 
1534	 0.377671797390697 
1535	 0.377766368052887 
1536	 0.377873167494526 
1537	 0.377952365226764 
1538	 0.377992267030149 
1539	 0.378042366928267 
1540	 0.37808351909109 
1541	 0.378128498681723 
1542	 0.378175145504456 
1543	 0.378221685129992 
1544	 0.378269471915116 
1545	 0.378315390653866 
1546	 0.378365062376892 
1547	 0.378402257994223 
1548	 0.378431364966714 
1549	 0.378473671268443 
1550	 0.378530393918448 
1551	 0.37858680924949 
1552	 0.37866319128266 
1553	 0.378739839612807 
1554	 0.378802022835789 
1555	 0.378862087295417 
1556	 0.37889960436615 
1557	 0.378927553916625 
1558	 0.378945781754956 
1559	 0.378964170378825 
1560	 0.379007276269468 
1561	 0.379064458972119 
1562	 0.3791286467954 
1563	 0.379220476569288 
1564	 0.379280017948966 
1565	 0.379334381921613 
1566	 0.379383989263403 
1567	 0.379417355859992 
1568	 0.379455657307557 
1569	 0.379494272242741 
1570	 0.379531033223434 
1571	 0.379557834136731 
1572	 0.379596813125912 
1573	 0.379642964466337 
1574	 0.379691832659116 
1575	 0.379753358406731 
1576	 0.379795226211951 
1577	 0.379826951525026 
1578	 0.379869086761411 
1579	 0.379907807309971 
1580	 0.379940530722067 
1581	 0.379971823920374 
1582	 0.380016916430216 
1583	 0.380045453561384 
1584	 0.380106277762346 
1585	 0.380213935533605 
1586	 0.380288674057595 
1587	 0.380368330714248 
1588	 0.380431044169523 
1589	 0.380472678583693 
1590	 0.380512227919573 
1591	 0.380533695527873 
1592	 0.380571416252301 
1593	 0.380612896165605 
1594	 0.380655149327807 
1595	 0.380702544488979 
1596	 0.380754797316207 
1597	 0.380817120344828 
1598	 0.380861568294054 
1599	 0.380911399524931 
1600	 0.380946226009768 
1601	 0.380962082208095 
1602	 0.38097364270387 
1603	 0.380960597937248 
1604	 0.380970783466594 
1605	 0.380978100507893 
1606	 0.38099768347356 
1607	 0.381036250704119 
1608	 0.381088711622743 
1609	 0.381135814177502 
1610	 0.381185301457208 
1611	 0.381230750312082 
1612	 0.381278430584429 
1613	 0.381295230397626 
1614	 0.381306871322412 
1615	 0.381331266342266 
1616	 0.381355699089146 
1617	 0.381413135615891 
1618	 0.381457113284818 
1619	 0.381482390020977 
1620	 0.381488401901779 
1621	 0.381482182612988 
1622	 0.381437071988889 
1623	 0.38145474263545 
1624	 0.381487193498328 
1625	 0.381522628131393 
1626	 0.381589144754053 
1627	 0.381646033957132 
1628	 0.381689353796909 
1629	 0.381755771405687 
1630	 0.381854738944123 
1631	 0.381919508602436 
1632	 0.381978808125942 
1633	 0.382028566968051 
1634	 0.382057438216928 
1635	 0.382100775110259 
1636	 0.382155647160876 
1637	 0.382179357775922 
1638	 0.382192054952053 
1639	 0.382202205723825 
1640	 0.382178297871496 
1641	 0.382193302908974 
1642	 0.38222961782579 
1643	 0.38225974143569 
1644	 0.382310403454274 
1645	 0.382329730370174 
1646	 0.382325065061631 
1647	 0.382346175502025 
1648	 0.382362215044747 
1649	 0.382389218146907 
1650	 0.382436436682434 
1651	 0.382479171913268 
1652	 0.382525448177254 
1653	 0.382557433083866 
1654	 0.382583516383628 
1655	 0.382624850567094 
1656	 0.382663176420709 
1657	 0.382698048945964 
1658	 0.382750136056254 
1659	 0.382788147053778 
1660	 0.382807848926594 
1661	 0.382832379883559 
1662	 0.382874694494414 
1663	 0.382881563930988 
1664	 0.382857364113167 
1665	 0.382851488974798 
1666	 0.38282375248784 
1667	 0.382828936348804 
1668	 0.382859963032808 
1669	 0.382884523757757 
1670	 0.382918227477508 
1671	 0.382953975503429 
1672	 0.38298240337275 
1673	 0.383035953179085 
1674	 0.383122583249579 
1675	 0.383175335231165 
1676	 0.383227599503488 
1677	 0.383272634484221 
1678	 0.383293615546912 
1679	 0.38332157015744 
1680	 0.383367273302014 
1681	 0.383383699260527 
1682	 0.383364476728538 
1683	 0.383376912060269 
1684	 0.383393497680915 
1685	 0.38340752484511 
1686	 0.383443688248144 
1687	 0.383458835711295 
1688	 0.383447809359766 
1689	 0.383458275296097 
1690	 0.383465395919917 
1691	 0.38349837933427 
1692	 0.383569026725358 
1693	 0.38359967421678 
1694	 0.383630430392613 
1695	 0.383646357443319 
1696	 0.383625446987512 
1697	 0.383625670782804 
1698	 0.383621532477931 
1699	 0.383646867033202 
1700	 0.383691647049864 
1701	 0.383726639402646 
1702	 0.383801639298425 
1703	 0.383822854223914 
1704	 0.383794411938487 
1705	 0.383801790269984 
1706	 0.383786486751174 
1707	 0.383812532653284 
1708	 0.38388629902859 
1709	 0.383932585220396 
1710	 0.38400429484076 
1711	 0.384022748723841 
1712	 0.383990769360536 
1713	 0.384000653735456 
1714	 0.38400418826196 
1715	 0.384008893205606 
1716	 0.38404690892142 
1717	 0.384046672029823 
1718	 0.384008334813219 
1719	 0.383994652557738 
1720	 0.383986607146929 
1721	 0.383971505088713 
1722	 0.383952396863882 
1723	 0.383946506051182 
1724	 0.383943256496427 
1725	 0.383941431465739 
1726	 0.383957429060401 
1727	 0.383955779274281 
1728	 0.383932307745193 
1729	 0.383935051331434 
1730	 0.383946789349694 
1731	 0.383944175875811 
1732	 0.383963895268135 
1733	 0.383947752867095 
1734	 0.383911733133916 
1735	 0.383874273268275 
1736	 0.383818339719788 
1737	 0.383753684890947 
1738	 0.383671431541742 
1739	 0.383598704725511 
1740	 0.383511577908278 
1741	 0.383455134375225 
1742	 0.383419631546431 
1743	 0.383380766872593 
1744	 0.383347703301638 
1745	 0.383340261782418 
1746	 0.383348722875525 
1747	 0.38335131162712 
1748	 0.38335009529326 
1749	 0.383350443900421 
1750	 0.383318362785717 
1751	 0.383262434512656 
1752	 0.383216241623598 
1753	 0.383093756141524 
1754	 0.382980286224681 
1755	 0.382935569988571 
1756	 0.382880854979451 
1757	 0.382876939556916 
1758	 0.382896024506093 
1759	 0.382884864548694 
1760	 0.382888440297545 
1761	 0.382873548612363 
1762	 0.382856627116556 
1763	 0.382858663214447 
1764	 0.382829841835583 
1765	 0.382817975353517 
1766	 0.382815073493857 
1767	 0.38276578938828 
1768	 0.382740281195823 
1769	 0.382715027329308 
1770	 0.38266749419181 
1771	 0.382677852524725 
1772	 0.382668795002557 
1773	 0.382666809426634 
1774	 0.382706762586169 
1775	 0.382675715540289 
1776	 0.382675768656859 
1777	 0.382679289474473 
1778	 0.382610734925913 
1779	 0.382583782628009 
1780	 0.382547184766149 
1781	 0.382509300135485 
1782	 0.382529316288762 
1783	 0.382545663519451 
1784	 0.382554730252383 
1785	 0.382563871446977 
1786	 0.382568821415273 
1787	 0.382585127410423 
1788	 0.382575350690138 
1789	 0.382537900404437 
1790	 0.382513895320437 
1791	 0.382473712740517 
1792	 0.382456034460924 
1793	 0.382455658295026 
1794	 0.382450983887715 
1795	 0.382442414561708 
1796	 0.382465776515876 
1797	 0.382521914454446 
1798	 0.382571368432644 
1799	 0.382636724590042 
1800	 0.382675896744855 
1801	 0.37980041969649 
1802	 0.379787922467774 
1803	 0.379806892271617 
1804	 0.379865689968674 
1805	 0.379901064028619 
1806	 0.379919385814949 
1807	 0.379933600095791 
1808	 0.37995422899525 
1809	 0.379967277248365 
1810	 0.37997155208992 
1811	 0.379991092407516 
1812	 0.379990738774848 
1813	 0.379938467475862 
1814	 0.379910349930212 
1815	 0.379892551314009 
1816	 0.379851824336978 
1817	 0.379845871505362 
1818	 0.379867725989895 
1819	 0.379871821008782 
1820	 0.37987222182852 
1821	 0.379901226470677 
1822	 0.379929405731234 
1823	 0.379936023077748 
1824	 0.379938998719928 
1825	 0.379944830509141 
1826	 0.379960854769046 
1827	 0.379986346370037 
1828	 0.380001012912062 
1829	 0.380039871707738 
1830	 0.380049161913892 
1831	 0.380036345460416 
1832	 0.380011876884168 
1833	 0.379995068582626 
1834	 0.379985907395949 
1835	 0.379981239731444 
1836	 0.379957328308621 
1837	 0.37997339865344 
1838	 0.37998830766872 
1839	 0.379990824486029 
1840	 0.380000787525298 
1841	 0.380018725366629 
1842	 0.379981303971795 
1843	 0.379925304979112 
1844	 0.379885007994102 
1845	 0.379845178653731 
1846	 0.37980439889219 
1847	 0.379773484059894 
1848	 0.379731181808938 
1849	 0.379690865028842 
1850	 0.379653249919531 
1851	 0.379619702477645 
1852	 0.379589717928789 
1853	 0.37956020336189 
1854	 0.379494840528592 
1855	 0.379446876065774 
1856	 0.379416403655988 
1857	 0.379346416053745 
1858	 0.37928411589233 
1859	 0.379250704540645 
1860	 0.379176816146417 
1861	 0.37907632813909 
1862	 0.37895649524377 
1863	 0.378830334834393 
1864	 0.378643439582032 
1865	 0.37843058302072 
1866	 0.378250328760435 
1867	 0.37805719255289 
1868	 0.377831708618427 
1869	 0.377619936605886 
1870	 0.377387863379368 
1871	 0.377151255595341 
1872	 0.376905387870682 
1873	 0.376690444633909 
1874	 0.376425108143305 
1875	 0.376136570594357 
1876	 0.375845229639988 
1877	 0.375500638030775 
1878	 0.375108571230056 
1879	 0.3746838797476 
1880	 0.374195068320036 
1881	 0.373629732383766 
1882	 0.37303236515251 
1883	 0.37239531103476 
1884	 0.37170053171756 
1885	 0.370966689609256 
1886	 0.370182268181585 
1887	 0.369336354368007 
1888	 0.368462555883374 
1889	 0.367558937807499 
1890	 0.366628165355233 
1891	 0.365660475496072 
1892	 0.364659868583471 
1893	 0.363632530708222 
1894	 0.362568037860268 
1895	 0.361471653718865 
1896	 0.360337322548891 
1897	 0.359203461312334 
1898	 0.358046465885398 
1899	 0.356881741555101 
1900	 0.355734419982191 
1901	 0.35455938905417 
1902	 0.353402163943059 
1903	 0.352227665187182 
1904	 0.351092911511299 
1905	 0.34996633714454 
1906	 0.34889497869564 
1907	 0.347830931318831 
1908	 0.346838988457181 
1909	 0.345919061110269 
1910	 0.345016628805784 
1911	 0.344201101481015 
1912	 0.343433878505782 
1913	 0.342672665440082 
1914	 0.341917455408676 
1915	 0.341234767705527 
1916	 0.340591493951237 
1917	 0.339976047199015 
1918	 0.339427087148079 
1919	 0.338920205021514 
1920	 0.338434134137377 
1921	 0.337983504649869 
1922	 0.337570962413941 
1923	 0.337192358204612 
1924	 0.336850506464576 
1925	 0.336535141699168 
1926	 0.336275906419327 
1927	 0.336064214262959 
1928	 0.335888085204809 
1929	 0.335748410279502 
1930	 0.335613100582098 
1931	 0.335479730308925 
1932	 0.335404536010452 
1933	 0.335382766912313 
1934	 0.335385677919168 
1935	 0.33541234945819 
1936	 0.335485063041276 
1937	 0.335559274907231 
1938	 0.335648311546898 
1939	 0.335757409652673 
1940	 0.335890959876769 
1941	 0.336032303063823 
1942	 0.336182854507031 
1943	 0.336351512055025 
1944	 0.336544462463653 
1945	 0.336731381776059 
1946	 0.336917520894023 
1947	 0.337103753239772 
1948	 0.337301073485452 
1949	 0.337501868296151 
1950	 0.337709989051054 
1951	 0.337931077634231 
1952	 0.338146346476251 
1953	 0.338380642376508 
1954	 0.338608233995739 
1955	 0.338862361835103 
1956	 0.339147462608848 
1957	 0.3394285793318 
1958	 0.339736570238343 
1959	 0.340011515087214 
1960	 0.340262237972583 
1961	 0.340542368596364 
1962	 0.340801793646237 
1963	 0.34110152988825 
1964	 0.341440297159641 
1965	 0.341793956487327 
1966	 0.342137662355681 
1967	 0.342468888177065 
1968	 0.342814727301072 
1969	 0.343157971689862 
1970	 0.34350824085196 
1971	 0.343879572180955 
1972	 0.34424029288996 
1973	 0.344589281078985 
1974	 0.344946787477287 
1975	 0.345314931651959 
1976	 0.345669005459722 
1977	 0.346035292104996 
1978	 0.346396639003095 
1979	 0.346757850837465 
1980	 0.347122509230622 
1981	 0.347499126000066 
1982	 0.347880444651936 
1983	 0.348272411147945 
1984	 0.348690822425758 
1985	 0.349091548265061 
1986	 0.34950754479334 
1987	 0.349891007488056 
1988	 0.350258925974494 
1989	 0.350597405812863 
1990	 0.35095439952945 
1991	 0.351301329473476 
1992	 0.351649014745676 
1993	 0.352001897649656 
1994	 0.352362798893114 
1995	 0.352704083935044 
1996	 0.353078313505254 
1997	 0.353501395014058 
1998	 0.353881654726545 
1999	 0.354255096557271 
2000	 0.354627776489883 
2001	 0.354967245627907 
2002	 0.355330469374448 
2003	 0.355723333675849 
2004	 0.356102526840881 
2005	 0.356479097079077 
2006	 0.356867698815124 
2007	 0.357236838682775 
2008	 0.357598333811189 
2009	 0.357940780136014 
2010	 0.358246424157552 
2011	 0.358584772741095 
2012	 0.358914081432299 
2013	 0.359263496958258 
2014	 0.359631424926479 
2015	 0.360031213207774 
2016	 0.360425650225149 
2017	 0.360805228290023 
2018	 0.361172159590407 
2019	 0.361527108113501 
2020	 0.361891856169573 
2021	 0.362253258141186 
2022	 0.36260139638462 
2023	 0.362957044162695 
2024	 0.363301237919682 
2025	 0.363620199693441 
2026	 0.363941518312858 
2027	 0.364267872787237 
2028	 0.364586002747173 
2029	 0.364894960396451 
2030	 0.365190210253361 
2031	 0.36548785058686 
2032	 0.365777080218427 
2033	 0.366073156832176 
2034	 0.366372643241711 
2035	 0.366666788136788 
2036	 0.366957659267181 
2037	 0.367253277838574 
2038	 0.367556560907443 
2039	 0.367841463382328 
2040	 0.368112215286798 
2041	 0.368408962482429 
2042	 0.368664686285768 
2043	 0.368899084935258 
2044	 0.369130127308135 
2045	 0.369342702434924 
2046	 0.369562860147195 
2047	 0.369773433889024 
2048	 0.36999079208449 
2049	 0.37021852962231 
2050	 0.37043253925458 
2051	 0.370633414211994 
2052	 0.370845138728719 
2053	 0.371063725432526 
2054	 0.371268881989205 
2055	 0.37146033264809 
2056	 0.371671298038348 
2057	 0.371884029403113 
2058	 0.372087023294715 
2059	 0.372306503526501 
2060	 0.372559309680696 
2061	 0.372774928384683 
2062	 0.372970847985296 
2063	 0.373178558595924 
2064	 0.373371959071432 
2065	 0.373579596918296 
2066	 0.37381159900578 
2067	 0.374021122970468 
2068	 0.374211753763276 
2069	 0.374423679173284 
2070	 0.37461969442415 
2071	 0.374800711200831 
2072	 0.374994113008753 
2073	 0.375183061869397 
2074	 0.375388741379244 
2075	 0.375607317176729 
2076	 0.375818766516996 
2077	 0.376047881469139 
2078	 0.376258021771203 
2079	 0.376460889194574 
2080	 0.376654385399893 
2081	 0.376829385285601 
2082	 0.377012656318011 
2083	 0.377198845559824 
2084	 0.377363312668392 
2085	 0.377550630035234 
2086	 0.377752372514347 
2087	 0.377942351552408 
2088	 0.378145702765479 
2089	 0.37831551604771 
2090	 0.378459808194569 
2091	 0.378618842232314 
2092	 0.378753192608546 
2093	 0.378915836275624 
2094	 0.379104917318541 
2095	 0.379282817966563 
2096	 0.379456384984233 
2097	 0.379643544637584 
2098	 0.379831915038565 
2099	 0.380035674674638 
2100	 0.380228739392395 
2101	 0.380433257586999 
2102	 0.380628176389248 
2103	 0.380796840199389 
2104	 0.381004799578608 
2105	 0.381228948275933 
2106	 0.381462766412635 
2107	 0.381719052585039 
2108	 0.381976464494066 
2109	 0.38224953261319 
2110	 0.38251225968912 
2111	 0.382786199490774 
2112	 0.383046513457252 
2113	 0.383298108893071 
2114	 0.383540405188548 
2115	 0.383783068983005 
2116	 0.384016727530327 
2117	 0.384259383905446 
2118	 0.384510457201638 
2119	 0.384742760978951 
2120	 0.38498417797209 
2121	 0.385189066016566 
2122	 0.38535419725672 
2123	 0.385540267382554 
2124	 0.385723837487532 
2125	 0.385892746131699 
2126	 0.386056676007492 
2127	 0.386225363391763 
2128	 0.38639142754239 
2129	 0.386538484777615 
2130	 0.386706052966826 
2131	 0.386835471015149 
2132	 0.386936683713133 
2133	 0.386994779367264 
2134	 0.387062605687954 
2135	 0.387119545479475 
2136	 0.387151092175458 
2137	 0.387163495767718 
2138	 0.38717221455087 
2139	 0.387157992709917 
2140	 0.387140364650433 
2141	 0.387130262545096 
2142	 0.387094184492619 
2143	 0.387042127399876 
2144	 0.386967629664855 
2145	 0.386872529538885 
2146	 0.386763030295436 
2147	 0.386612423352378 
2148	 0.38648499878161 
2149	 0.386330492386867 
2150	 0.386160047434423 
2151	 0.385986767104561 
2152	 0.385802698157102 
2153	 0.385610784965063 
2154	 0.385407570236339 
2155	 0.385210575856587 
2156	 0.385008499344507 
2157	 0.38480428007074 
2158	 0.384610336026577 
2159	 0.384395566554485 
2160	 0.38417812857436 
2161	 0.383936602739826 
2162	 0.383653776340587 
2163	 0.383397420235172 
2164	 0.383151895647908 
2165	 0.38287902108927 
2166	 0.382617512948101 
2167	 0.382375479588454 
2168	 0.382108117942412 
2169	 0.381807792156533 
2170	 0.381546525357625 
2171	 0.38129528215811 
2172	 0.381052167480141 
2173	 0.380843180378394 
2174	 0.380602572743646 
2175	 0.380355353100963 
2176	 0.380098690088428 
2177	 0.379814519509357 
2178	 0.379547421605733 
2179	 0.379286381523534 
2180	 0.379022461259127 
2181	 0.378774333344418 
2182	 0.378505669359657 
2183	 0.378210371816083 
2184	 0.377922998788509 
2185	 0.377660594544778 
2186	 0.377391201729491 
2187	 0.377158659300538 
2188	 0.376970375378194 
2189	 0.376765025620034 
2190	 0.376567749226582 
2191	 0.376370857846241 
2192	 0.376174635746071 
2193	 0.375984785033638 
2194	 0.375810935050758 
2195	 0.375621499594532 
2196	 0.375424616152421 
2197	 0.375234241741144 
2198	 0.375013950423339 
2199	 0.374835333911224 
2200	 0.374681078270531 
2201	 0.374540211444568 
2202	 0.374437496783743 
2203	 0.3743266963797 
2204	 0.374226639894474 
2205	 0.374122795100073 
2206	 0.374067035163944 
2207	 0.374038543935675 
2208	 0.374011289632211 
2209	 0.374022543648561 
2210	 0.374017813368449 
2211	 0.374000435337323 
2212	 0.374003856770488 
2213	 0.374034270595553 
2214	 0.37404441664791 
2215	 0.374052101652766 
2216	 0.374059864388389 
2217	 0.374047455451095 
2218	 0.374055913384184 
2219	 0.37407789709228 
2220	 0.37410445111146 
2221	 0.374156607238897 
2222	 0.374190177685632 
2223	 0.374211603615162 
2224	 0.374211752140391 
2225	 0.37421338249777 
2226	 0.374199758852982 
2227	 0.374183860917295 
2228	 0.374177138981537 
2229	 0.374129796420482 
2230	 0.374050004363532 
2231	 0.373974325536309 
2232	 0.373851402081121 
2233	 0.373796425944576 
2234	 0.373774873737909 
2235	 0.373745156095339 
2236	 0.373766153250015 
2237	 0.373744861724431 
2238	 0.373676008603758 
2239	 0.373642029698835 
2240	 0.373613854242547 
2241	 0.373591883313792 
2242	 0.373620972973 
2243	 0.37359909775661 
2244	 0.373561705030701 
2245	 0.373475072772656 
2246	 0.37339948908682 
2247	 0.373386649141033 
2248	 0.373403074845943 
2249	 0.373481392383812 
2250	 0.373542431389781 
2251	 0.373629750947819 
2252	 0.373693473464165 
2253	 0.373768381459926 
2254	 0.373811780779206 
2255	 0.3738528960884 
2256	 0.373853359989404 
2257	 0.373816981565493 
2258	 0.373779429548585 
2259	 0.373691849029715 
2260	 0.373637903451908 
2261	 0.373576872618812 
2262	 0.373549515747553 
2263	 0.373538711013453 
2264	 0.373556845773572 
2265	 0.373624907459197 
2266	 0.373673764837669 
2267	 0.373740575243658 
2268	 0.373800282690361 
2269	 0.373849424033528 
2270	 0.373900461591113 
2271	 0.373958227387124 
2272	 0.373989606928537 
2273	 0.374012713474872 
2274	 0.374042341948816 
2275	 0.374061183188979 
2276	 0.374065595656667 
2277	 0.374086473931831 
2278	 0.374116716432683 
2279	 0.374126576047504 
2280	 0.374117947691955 
2281	 0.374151394332085 
2282	 0.374191486356495 
2283	 0.37423450723675 
2284	 0.374323026898031 
2285	 0.374386893462409 
2286	 0.374431791969525 
2287	 0.374470981627597 
2288	 0.374503192564464 
2289	 0.374538093051504 
2290	 0.374550830538547 
2291	 0.374585561185695 
2292	 0.374621573301005 
2293	 0.374700182787081 
2294	 0.374833651748599 
2295	 0.374938904475426 
2296	 0.375079598737372 
2297	 0.375173252084017 
2298	 0.375257446408442 
2299	 0.375272100055273 
2300	 0.375244219915899 
2301	 0.375263744607511 
2302	 0.375308348973703 
2303	 0.375326923864199 
2304	 0.375378028688407 
2305	 0.375401693902245 
2306	 0.375402275549206 
2307	 0.375332335404105 
2308	 0.375344234432664 
2309	 0.375392663240004 
2310	 0.375413106210858 
2311	 0.375462243337087 
2312	 0.375475164497241 
2313	 0.375447518866677 
2314	 0.375439187744843 
2315	 0.375402885647023 
2316	 0.375431299087961 
2317	 0.375523232557384 
2318	 0.375565719150318 
2319	 0.375623452114888 
2320	 0.37566166368414 
2321	 0.375665908333487 
2322	 0.375651593411839 
2323	 0.375631427977323 
2324	 0.375623403746436 
2325	 0.375592416010673 
2326	 0.37555878396096 
2327	 0.375532275232682 
2328	 0.375506724864251 
2329	 0.37549995831922 
2330	 0.375466772690976 
2331	 0.375501942802697 
2332	 0.375578564936202 
2333	 0.375605634026245 
2334	 0.375699068045942 
2335	 0.375798911994886 
2336	 0.375878538345935 
2337	 0.375978721235521 
2338	 0.375992926024125 
2339	 0.375957551400611 
2340	 0.375904111290453 
2341	 0.375804074186776 
2342	 0.375716767404596 
2343	 0.375686320332302 
2344	 0.375650174924643 
2345	 0.375625086107552 
2346	 0.375660680238606 
2347	 0.37561747623927 
2348	 0.375553001065777 
2349	 0.375471034648029 
2350	 0.375329323972505 
2351	 0.37524212846483 
2352	 0.375170804411303 
2353	 0.375023837431232 
2354	 0.37486728266647 
2355	 0.374705281045276 
2356	 0.374466647376794 
2357	 0.374325814450147 
2358	 0.374222771382032 
2359	 0.374129621553948 
2360	 0.374094914399453 
2361	 0.374017910779272 
2362	 0.373961327026259 
2363	 0.373871648677029 
2364	 0.373745727874226 
2365	 0.373624329842824 
2366	 0.373485562046776 
2367	 0.373363367036751 
2368	 0.373260815806737 
2369	 0.373105581418228 
2370	 0.372957793138703 
2371	 0.37272860090494 
2372	 0.372426692401307 
2373	 0.372132302102429 
2374	 0.3718048454093 
2375	 0.371475315107012 
2376	 0.371219648237238 
2377	 0.370998672839813 
2378	 0.370788073127023 
2379	 0.370635336295581 
2380	 0.370484668640439 
2381	 0.37025431488028 
2382	 0.370010901052433 
2383	 0.369790459625674 
2384	 0.369527270152696 
2385	 0.3693069496028 
2386	 0.369091506884405 
2387	 0.368862684802696 
2388	 0.368690841126943 
2389	 0.368478167594383 
2390	 0.368310693313854 
2391	 0.368148754356265 
2392	 0.367973532503205 
2393	 0.367846182853905 
2394	 0.367572223446364 
2395	 0.367272841795002 
2396	 0.367035385766885 
2397	 0.366734070907366 
2398	 0.366449935266488 
2399	 0.366203428665477 
2400	 0.365948745273102 
2401	 0.365710139502705 
2402	 0.365430588615296 
2403	 0.365107681369132 
2404	 0.364801344941163 
2405	 0.364410262014769 
2406	 0.364123980184852 
2407	 0.363969543063584 
2408	 0.363725983792202 
2409	 0.363555618912212 
2410	 0.363390190624198 
2411	 0.363201115695881 
2412	 0.362971861022406 
2413	 0.362670978939511 
2414	 0.362363017886945 
2415	 0.362004468303709 
2416	 0.361718396125383 
2417	 0.361465828869285 
2418	 0.361199516647018 
2419	 0.36104741391278 
2420	 0.360771576507557 
2421	 0.360431511674056 
2422	 0.360104512575942 
2423	 0.359672700969948 
2424	 0.35928450304823 
2425	 0.358917987370351 
2426	 0.358567002234813 
2427	 0.358239394529405 
2428	 0.35790958705873 
2429	 0.357598065330604 
2430	 0.357286619262304 
2431	 0.356953390195905 
2432	 0.356683988508936 
2433	 0.356460710505447 
2434	 0.356178481095847 
2435	 0.355921714774961 
2436	 0.355639118544741 
2437	 0.355295166300623 
2438	 0.355007501235047 
2439	 0.354745249214659 
2440	 0.354437948166463 
2441	 0.354171753786756 
2442	 0.353832566103003 
2443	 0.353426147578778 
2444	 0.35306467905601 
2445	 0.352652898782005 
2446	 0.35224808842937 
2447	 0.351869034373491 
2448	 0.351553051835189 
2449	 0.351222971952887 
2450	 0.35092850567094 
2451	 0.350687845050734 
2452	 0.350415828005612 
2453	 0.350241575577322 
2454	 0.349984816089365 
2455	 0.349660183868198 
2456	 0.349433320292307 
2457	 0.349160060361013 
2458	 0.348851356960134 
2459	 0.348664526170067 
2460	 0.348305112718285 
2461	 0.347773517981014 
2462	 0.34737003483795 
2463	 0.346925607727419 
2464	 0.346621939687436 
2465	 0.346471038464581 
2466	 0.346183733206563 
2467	 0.345884224021248 
2468	 0.345564652800123 
2469	 0.345111228703968 
2470	 0.344954166718492 
2471	 0.344857033773933 
2472	 0.34458172149976 
2473	 0.34428483011242 
2474	 0.343871292617671 
2475	 0.343473149283506 
2476	 0.343204031450811 
2477	 0.342853332945549 
2478	 0.342491053754593 
2479	 0.34212919807656 
2480	 0.341957642694884 
2481	 0.341914214191197 
2482	 0.341734109228664 
2483	 0.341504744310132 
2484	 0.341041583269863 
2485	 0.340540641852486 
2486	 0.34035253581299 
2487	 0.340199174841501 
2488	 0.340176868194105 
2489	 0.340100793511834 
2490	 0.339617612809809 
2491	 0.3391184089843 
2492	 0.338785801028303 
2493	 0.338466397257817 
2494	 0.338270822115579 
2495	 0.338281407142538 
2496	 0.338130625881179 
2497	 0.337915682248074 
2498	 0.337762937753047 
2499	 0.337481379325116 
2500	 0.337219729579954 
