Wavelength	MM100001.asd
350	 5.11050653648865E-02 
351	 4.84812939494999E-02 
352	 4.43022836163798E-02 
353	 4.34070124506684E-02 
354	 4.28296056214232E-02 
355	 3.69852011541406E-02 
356	 3.40716241088112E-02 
357	 0.040581920138152 
358	 4.27769757640714E-02 
359	 4.02788899724805E-02 
360	 0.037035029205085 
361	 3.85558961644324E-02 
362	 3.71850593260429E-02 
363	 3.58296646991491E-02 
364	 3.63306829816671E-02 
365	 3.69812355753991E-02 
366	 3.67669328590538E-02 
367	 3.70425933180338E-02 
368	 3.87840789059524E-02 
369	 0.038836094624548 
370	 3.81846532271313E-02 
371	 3.81190258696108E-02 
372	 3.97351891223724E-02 
373	 4.07485457995497E-02 
374	 4.07181947380782E-02 
375	 0.040147183169554 
376	 4.08190647905649E-02 
377	 0.038433593170122 
378	 3.69528184511412E-02 
379	 4.05173543853158E-02 
380	 4.34984998193366E-02 
381	 0.043829589066385 
382	 0.042329685536885 
383	 4.18477847744741E-02 
384	 4.23744229738321E-02 
385	 4.33073663173265E-02 
386	 4.37986560559953E-02 
387	 4.25758065072107E-02 
388	 4.30928888570816E-02 
389	 4.40334308376312E-02 
390	 4.33085033732931E-02 
391	 4.29167723913747E-02 
392	 4.37569866172834E-02 
393	 4.55315295053167E-02 
394	 4.70049165458111E-02 
395	 4.81506408190082E-02 
396	 4.90299872255883E-02 
397	 4.97244742416589E-02 
398	 5.04238000863696E-02 
399	 0.049723346189658 
400	 4.94724400729594E-02 
401	 5.15913676917937E-02 
402	 5.13220036619474E-02 
403	 5.15187011278856E-02 
404	 5.24096145108281E-02 
405	 5.12655797417852E-02 
406	 5.11997984444132E-02 
407	 5.24772219954434E-02 
408	 5.40614538473737E-02 
409	 5.30391588016883E-02 
410	 5.28626147460155E-02 
411	 5.33422966152745E-02 
412	 5.29561121354986E-02 
413	 5.41659177864042E-02 
414	 5.46346342178671E-02 
415	 5.38971811392271E-02 
416	 5.43324705123047E-02 
417	 5.50970499332982E-02 
418	 5.55779040167517E-02 
419	 5.54813159367015E-02 
420	 5.54312229501387E-02 
421	 5.51834141326305E-02 
422	 5.49405641585144E-02 
423	 5.51178669973251E-02 
424	 5.51243886004753E-02 
425	 5.49561318821057E-02 
426	 5.47633884628375E-02 
427	 5.48517822775823E-02 
428	 5.46559551520843E-02 
429	 0.054374678359094 
430	 5.43891297002209E-02 
431	 5.47726116256778E-02 
432	 5.43582984211871E-02 
433	 5.34895640158328E-02 
434	 5.38864115018051E-02 
435	 5.39149087915573E-02 
436	 5.38013394362704E-02 
437	 5.38594852017745E-02 
438	 5.36075737588062E-02 
439	 5.37053165353809E-02 
440	 5.39370771227622E-02 
441	 5.37670679753324E-02 
442	 5.39387755218745E-02 
443	 5.41463220099172E-02 
444	 5.42058927302425E-02 
445	 5.42642759347276E-02 
446	 5.44167044929533E-02 
447	 5.47227258744304E-02 
448	 5.51004189650833E-02 
449	 5.49354627210208E-02 
450	 5.50365300085265E-02 
451	 5.54694198374112E-02 
452	 5.56590052214331E-02 
453	 5.59442766835527E-02 
454	 5.60437933074684E-02 
455	 5.59100706369617E-02 
456	 5.63596318547186E-02 
457	 5.64545823238279E-02 
458	 5.63196843819094E-02 
459	 0.056474023645141 
460	 5.64143972931828E-02 
461	 5.65261969762195E-02 
462	 5.68493998272794E-02 
463	 5.68456945151651E-02 
464	 5.67315796505739E-02 
465	 5.66977449797762E-02 
466	 5.68454544739296E-02 
467	 5.69294109422474E-02 
468	 5.70559044494203E-02 
469	 5.71382397356922E-02 
470	 5.69622122277464E-02 
471	 5.68961214302927E-02 
472	 5.70714370779497E-02 
473	 5.73749981718388E-02 
474	 5.72200872058536E-02 
475	 5.71093152346032E-02 
476	 5.70617875113181E-02 
477	 5.69435855356204E-02 
478	 5.71354971682007E-02 
479	 5.72554345792148E-02 
480	 0.057162155847579 
481	 5.71244369046799E-02 
482	 5.73754195472327E-02 
483	 5.75808577701435E-02 
484	 5.74512965641327E-02 
485	 0.057605625134382 
486	 5.75323190669875E-02 
487	 5.72889818430208E-02 
488	 5.73906289211439E-02 
489	 5.74349962996932E-02 
490	 5.74713572936827E-02 
491	 5.75317805342271E-02 
492	 5.73948462123759E-02 
493	 5.73367827163632E-02 
494	 5.73768729531915E-02 
495	 5.74210220752775E-02 
496	 5.75377078656718E-02 
497	 5.76044992118091E-02 
498	 5.76006021765104E-02 
499	 5.76797459113011E-02 
500	 5.77234538718794E-02 
501	 5.76496330627199E-02 
502	 5.74760486560948E-02 
503	 0.057597010620067 
504	 0.057669054306252 
505	 5.76273291735675E-02 
506	 5.76765067611663E-02 
507	 5.77012618880371E-02 
508	 5.77675138871317E-02 
509	 5.78907008099126E-02 
510	 5.78626652397104E-02 
511	 0.057835450233021 
512	 0.057812324352403 
513	 5.77344076015935E-02 
514	 0.057722884617948 
515	 5.78070643144165E-02 
516	 0.057940827778962 
517	 5.79791672483618E-02 
518	 5.79117188071772E-02 
519	 5.78653665729049E-02 
520	 5.79627648257232E-02 
521	 5.80335579452861E-02 
522	 5.81373693960591E-02 
523	 0.058193233739154 
524	 5.79721634900039E-02 
525	 5.79808685255894E-02 
526	 0.058066347212646 
527	 5.80606636627525E-02 
528	 5.82752407628307E-02 
529	 5.83848841317429E-02 
530	 5.83597142429128E-02 
531	 5.83685017932774E-02 
532	 5.84254984687398E-02 
533	 5.85300053584581E-02 
534	 5.86483855828956E-02 
535	 5.86790463472264E-02 
536	 5.87934917126006E-02 
537	 0.058880844381527 
538	 5.87911392112629E-02 
539	 5.89184723119709E-02 
540	 5.90226994575172E-02 
541	 5.90277633882587E-02 
542	 5.91394756210334E-02 
543	 5.92714553632201E-02 
544	 5.94295142219914E-02 
545	 5.96192444569571E-02 
546	 5.97647036036641E-02 
547	 5.98614752161467E-02 
548	 5.99721160541479E-02 
549	 6.02012453740196E-02 
550	 6.03676304527118E-02 
551	 0.0605087889266 
552	 6.06943575548758E-02 
553	 6.09808912374709E-02 
554	 0.061201134391331 
555	 6.13658167717651E-02 
556	 6.15851966391913E-02 
557	 0.061917003675643 
558	 6.22892636221752E-02 
559	 6.26542589951347E-02 
560	 6.30382465364578E-02 
561	 0.063378947422466 
562	 6.37555593934358E-02 
563	 6.42555012725156E-02 
564	 0.064731449781212 
565	 6.51823876316103E-02 
566	 6.56505031048437E-02 
567	 6.62150541647375E-02 
568	 6.69012818323928E-02 
569	 6.75768594807992E-02 
570	 0.068153515642724 
571	 6.88206297841888E-02 
572	 6.95226000253718E-02 
573	 7.02540854398949E-02 
574	 7.10360627257017E-02 
575	 7.17651665851923E-02 
576	 7.25214063138194E-02 
577	 7.33608588579019E-02 
578	 7.42227095587123E-02 
579	 7.51402448036705E-02 
580	 7.61185772707295E-02 
581	 7.71533317266897E-02 
582	 0.078267359234965 
583	 7.93447149552345E-02 
584	 8.03599918703065E-02 
585	 0.081435638323867 
586	 8.24998231292921E-02 
587	 8.35887901681619E-02 
588	 0.084744793102058 
589	 8.59144069935101E-02 
590	 8.70800385362093E-02 
591	 8.82361162362393E-02 
592	 8.93894264028754E-02 
593	 0.090522563023017 
594	 9.16383375302356E-02 
595	 9.27522042984204E-02 
596	 9.39070189629119E-02 
597	 9.50925165234363E-02 
598	 9.62591514703658E-02 
599	 9.73507488160416E-02 
600	 9.84253037531046E-02 
601	 9.94953828957638E-02 
602	 0.100532853951032 
603	 0.10144431208104 
604	 0.102365094474752 
605	 0.103317494680996 
606	 0.104269262343167 
607	 0.105136397848696 
608	 0.105974717261971 
609	 0.106813661700376 
610	 0.107643583310902 
611	 0.108442006827894 
612	 0.109212247999995 
613	 0.109943579363491 
614	 0.110556333022989 
615	 0.111183786895209 
616	 0.111802252712536 
617	 0.112293596999329 
618	 0.112871215672253 
619	 0.113398914357673 
620	 0.113802293806 
621	 0.114244057100334 
622	 0.114708145471147 
623	 0.115137231348224 
624	 0.115478980487945 
625	 0.115869668600039 
626	 0.116282368232384 
627	 0.116677867097477 
628	 0.117019817452753 
629	 0.117368189051489 
630	 0.117709723337545 
631	 0.1180250390604 
632	 0.11835566406753 
633	 0.118651115973431 
634	 0.118937557306773 
635	 0.119295292226802 
636	 0.119583581132178 
637	 0.119887337662031 
638	 0.120255040881646 
639	 0.12054641152834 
640	 0.120849693539286 
641	 0.121165182402154 
642	 0.121463845570445 
643	 0.121811829399166 
644	 0.122165535163726 
645	 0.122503394661455 
646	 0.122851745513462 
647	 0.123157135836896 
648	 0.123448068169708 
649	 0.123776860574056 
650	 0.124191845460979 
651	 0.124557037239257 
652	 0.124867725550683 
653	 0.125235232662987 
654	 0.125641967978779 
655	 0.126013618029547 
656	 0.126341436471781 
657	 0.126815519404752 
658	 0.127251994219296 
659	 0.127655820637505 
660	 0.128105975331578 
661	 0.128509745599486 
662	 0.128968112253738 
663	 0.129483604799032 
664	 0.129889989333479 
665	 0.130333521549514 
666	 0.130842966108391 
667	 0.131388290508262 
668	 0.131840759427936 
669	 0.132333957173744 
670	 0.132884405247556 
671	 0.133406449497765 
672	 0.133943252223557 
673	 0.134512025733628 
674	 0.135108305731522 
675	 0.135687436524242 
676	 0.136272071924096 
677	 0.136862497210754 
678	 0.137454990667714 
679	 0.138079767601491 
680	 0.138721639722424 
681	 0.13937423474851 
682	 0.140050136610193 
683	 0.140715038456009 
684	 0.141373372889362 
685	 0.142045789420506 
686	 0.142770518004963 
687	 0.143503120823276 
688	 0.144216829745131 
689	 0.144902374727055 
690	 0.145573354111861 
691	 0.146264357142085 
692	 0.147006895326492 
693	 0.147835160568335 
694	 0.148600407144374 
695	 0.149347165186529 
696	 0.150157585778736 
697	 0.150865895859632 
698	 0.151661186255446 
699	 0.152544377549633 
700	 0.153305674830658 
701	 0.154105457645747 
702	 0.154916421807302 
703	 0.1557013127736 
704	 0.156510902869932 
705	 0.15727911656275 
706	 0.158047085580364 
707	 0.15889216807634 
708	 0.159698755614576 
709	 0.160483211493438 
710	 0.161265895319061 
711	 0.162052164404869 
712	 0.162861023328271 
713	 0.163657072035254 
714	 0.164410997125889 
715	 0.165174762898032 
716	 0.165923808991974 
717	 0.166661652532187 
718	 0.167406864145675 
719	 0.168098651356678 
720	 0.168789843359673 
721	 0.169494059674223 
722	 0.170112292930722 
723	 0.170766276517598 
724	 0.171447434052521 
725	 0.17209451661249 
726	 0.17262904793328 
727	 0.173157632002969 
728	 0.17370105209639 
729	 0.17419378924244 
730	 0.174696091015848 
731	 0.175146719936619 
732	 0.175523882301767 
733	 0.175956512427564 
734	 0.176329043325666 
735	 0.17664245880154 
736	 0.176948528145134 
737	 0.177295363764264 
738	 0.177572580114121 
739	 0.177764359236795 
740	 0.177968199021683 
741	 0.178133473757307 
742	 0.178284456566382 
743	 0.178427357610525 
744	 0.178478658111544 
745	 0.178493795714985 
746	 0.178511708349572 
747	 0.178543360279958 
748	 0.178465944329904 
749	 0.178384154099932 
750	 0.178325852131152 
751	 0.178203011479941 
752	 0.178038576313548 
753	 0.177866263521441 
754	 0.177696449703479 
755	 0.177458327080485 
756	 0.177218896246845 
757	 0.176970252314635 
758	 0.176675367301985 
759	 0.176393392305905 
760	 0.176053904615011 
761	 0.175665974002739 
762	 0.175348011150431 
763	 0.174983866141731 
764	 0.174574646842646 
765	 0.17415059078781 
766	 0.173736872011157 
767	 0.173336018832448 
768	 0.172918763379045 
769	 0.172453266806267 
770	 0.172021610557769 
771	 0.171560550125536 
772	 0.171056065766537 
773	 0.170566760701158 
774	 0.170059456673258 
775	 0.169556329528809 
776	 0.169070682535176 
777	 0.168559940222665 
778	 0.168056385691593 
779	 0.167534686039672 
780	 0.166965294161142 
781	 0.166462527732145 
782	 0.165979135497287 
783	 0.16546371218531 
784	 0.164883855189253 
785	 0.164384844435209 
786	 0.163893749867828 
787	 0.163354178153106 
788	 0.162857156306982 
789	 0.162331373787638 
790	 0.161806647560733 
791	 0.16132519414346 
792	 0.16078797282495 
793	 0.16026002707396 
794	 0.159760154851849 
795	 0.159262118494355 
796	 0.158782328484813 
797	 0.158309212684452 
798	 0.157820351053848 
799	 0.157277280680731 
800	 0.156789690886273 
801	 0.156370149636538 
802	 0.155968458799816 
803	 0.155425869392575 
804	 0.154952715399178 
805	 0.154566354467673 
806	 0.154157582135716 
807	 0.153717919385673 
808	 0.153257972433458 
809	 0.152802391364974 
810	 0.152384607740445 
811	 0.152016952858332 
812	 0.151656558587192 
813	 0.151270386310308 
814	 0.150888884428135 
815	 0.150507400824066 
816	 0.150128861933184 
817	 0.149762256887178 
818	 0.149432506211906 
819	 0.14911254601544 
820	 0.14878496180621 
821	 0.148446050253483 
822	 0.148112476401818 
823	 0.147799327548633 
824	 0.147499267769031 
825	 0.14717023012974 
826	 0.14688287329442 
827	 0.146636838142488 
828	 0.146405034233313 
829	 0.146151157956442 
830	 0.145848125563464 
831	 0.14554201090091 
832	 0.145301785721674 
833	 0.145091159876418 
834	 0.144895160858139 
835	 0.144701116362007 
836	 0.144498477139216 
837	 0.144270740821916 
838	 0.144068587517843 
839	 0.143903652404889 
840	 0.143702952056842 
841	 0.143563623503129 
842	 0.143404258245835 
843	 0.143176710935731 
844	 0.143097676423914 
845	 0.143000494522294 
846	 0.142866280345415 
847	 0.142744472037149 
848	 0.142634205389016 
849	 0.142523671991426 
850	 0.142422036578654 
851	 0.142351107393182 
852	 0.142260752142319 
853	 0.142180726042876 
854	 0.142120665416836 
855	 0.142045794455581 
856	 0.142043926480221 
857	 0.142044043868924 
858	 0.141986875635149 
859	 0.141937100097783 
860	 0.141922075137796 
861	 0.141929197223325 
862	 0.14193471071407 
863	 0.141951007115635 
864	 0.141963023116462 
865	 0.141996089662635 
866	 0.142080062119639 
867	 0.142088613242496 
868	 0.142150524454672 
869	 0.142253216672248 
870	 0.142236401839089 
871	 0.142255448593555 
872	 0.142374487883955 
873	 0.142564471381818 
874	 0.14267999197495 
875	 0.142777803170649 
876	 0.142846061965315 
877	 0.142908663371659 
878	 0.143127290699186 
879	 0.143290545490869 
880	 0.143402248808358 
881	 0.143543522791032 
882	 0.143765431929381 
883	 0.143952381089435 
884	 0.144086798438911 
885	 0.144223517975635 
886	 0.144452687445732 
887	 0.144705456302132 
888	 0.144938519172735 
889	 0.145147745674559 
890	 0.145360576271507 
891	 0.145584432177907 
892	 0.145834263627273 
893	 0.14613227016988 
894	 0.146404053813893 
895	 0.146640383465686 
896	 0.146885354710659 
897	 0.147247804492257 
898	 0.147553082611139 
899	 0.147823114413223 
900	 0.148114917844118 
901	 0.148426638195276 
902	 0.148751449509034 
903	 0.149115274630767 
904	 0.149529113057637 
905	 0.149917099032746 
906	 0.150269394698503 
907	 0.150625860910717 
908	 0.151033173863783 
909	 0.15143908200689 
910	 0.151853149572708 
911	 0.152280655831878 
912	 0.152716177571388 
913	 0.153117442875084 
914	 0.153546390620413 
915	 0.154020039899248 
916	 0.154502335628219 
917	 0.15491975785841 
918	 0.15540587990246 
919	 0.15596752477903 
920	 0.156445816122051 
921	 0.156933895540062 
922	 0.157484652201167 
923	 0.158064567332184 
924	 0.158537372107852 
925	 0.159075872397734 
926	 0.159648002061915 
927	 0.160219002732307 
928	 0.160829449268711 
929	 0.161482092918878 
930	 0.162135556872251 
931	 0.162752936361549 
932	 0.163340972361602 
933	 0.163931637181351 
934	 0.164549666868153 
935	 0.165210323188122 
936	 0.165917898454628 
937	 0.166595917057448 
938	 0.167230913676336 
939	 0.16786040248328 
940	 0.168601995776414 
941	 0.169319373966816 
942	 0.170058215130736 
943	 0.170887609483553 
944	 0.171669533863232 
945	 0.172390207850598 
946	 0.173112256277087 
947	 0.173896066621793 
948	 0.17463647182334 
949	 0.175362473356009 
950	 0.176099211412515 
951	 0.176880225523194 
952	 0.177797860627032 
953	 0.178667364524806 
954	 0.179463650093002 
955	 0.180266204706833 
956	 0.181119842372056 
957	 0.181970597040544 
958	 0.182782729038756 
959	 0.183565044909034 
960	 0.184452193544122 
961	 0.18534898459307 
962	 0.186268320058736 
963	 0.187256732884633 
964	 0.188078235489754 
965	 0.188962804866703 
966	 0.189947277201291 
967	 0.190913993350246 
968	 0.191802297463081 
969	 0.19274560890954 
970	 0.193683611853085 
971	 0.19448503601482 
972	 0.195491786024317 
973	 0.196533505086774 
974	 0.197474985046406 
975	 0.198297675713237 
976	 0.199304521291055 
977	 0.200262803559074 
978	 0.201208993795152 
979	 0.202313286028451 
980	 0.203336523642202 
981	 0.204169925598637 
982	 0.20499611133887 
983	 0.20607618440162 
984	 0.20712574466068 
985	 0.20807408547335 
986	 0.208984014648529 
987	 0.209948422589696 
988	 0.210811694473976 
989	 0.211825869091398 
990	 0.212858918241171 
991	 0.213682221178472 
992	 0.214635560736543 
993	 0.215524357432762 
994	 0.216436139030348 
995	 0.217498576080358 
996	 0.218440813537773 
997	 0.219430625677974 
998	 0.220364941486546 
999	 0.221133099060242 
1000	 0.221969184275083 
1001	 0.225856540124051 
1002	 0.226726965445363 
1003	 0.227642799025555 
1004	 0.228501641968884 
1005	 0.229344977045792 
1006	 0.230186001554399 
1007	 0.231021638016845 
1008	 0.231774058194389 
1009	 0.232544365558405 
1010	 0.233369432217274 
1011	 0.234183901108263 
1012	 0.234952516210586 
1013	 0.235717885156115 
1014	 0.236424675440665 
1015	 0.237048478953937 
1016	 0.237729585541954 
1017	 0.238448206698839 
1018	 0.239192495766167 
1019	 0.239919538231014 
1020	 0.240685072697169 
1021	 0.241429157805415 
1022	 0.242103981758368 
1023	 0.242769737696416 
1024	 0.243384926476197 
1025	 0.243933168824738 
1026	 0.244498310621524 
1027	 0.245057188125843 
1028	 0.245645403595695 
1029	 0.246285074812828 
1030	 0.246881689216397 
1031	 0.247478593852962 
1032	 0.248071960067549 
1033	 0.248670857045724 
1034	 0.24924175884375 
1035	 0.249787088412859 
1036	 0.250294896719587 
1037	 0.250811893107964 
1038	 0.251321445420391 
1039	 0.251848300405887 
1040	 0.252401195920092 
1041	 0.252936850429069 
1042	 0.253492626670117 
1043	 0.254032919739188 
1044	 0.254572954014152 
1045	 0.255122391280007 
1046	 0.255671867714988 
1047	 0.256201854775162 
1048	 0.256746582954466 
1049	 0.25725610577923 
1050	 0.257755054840817 
1051	 0.258249539004788 
1052	 0.258733958931354 
1053	 0.259261358856115 
1054	 0.259777706614974 
1055	 0.260289645871075 
1056	 0.260815914302645 
1057	 0.261312843915408 
1058	 0.261803717208003 
1059	 0.262287008967101 
1060	 0.262769220526556 
1061	 0.263173770400222 
1062	 0.2635945935652 
1063	 0.264027018970498 
1064	 0.264438133301235 
1065	 0.264845769525718 
1066	 0.265246037938502 
1067	 0.265657456393187 
1068	 0.266029348096668 
1069	 0.266382157830944 
1070	 0.266749088200554 
1071	 0.267092132092658 
1072	 0.267480507796021 
1073	 0.267936157877089 
1074	 0.268319137967447 
1075	 0.268703983707832 
1076	 0.269037195646213 
1077	 0.269361881566711 
1078	 0.269636939994219 
1079	 0.269964709344439 
1080	 0.270339535500386 
1081	 0.270643549965334 
1082	 0.270987054134833 
1083	 0.271288694600014 
1084	 0.271565557001533 
1085	 0.271836615100012 
1086	 0.27204863787257 
1087	 0.272310362468438 
1088	 0.272583230516935 
1089	 0.272884345820935 
1090	 0.273205939554669 
1091	 0.273556838089301 
1092	 0.273870703521655 
1093	 0.274172185291474 
1094	 0.274424199349324 
1095	 0.274690601886821 
1096	 0.274947391797306 
1097	 0.27516893029009 
1098	 0.275447181342939 
1099	 0.275763643301296 
1100	 0.276052847798762 
1101	 0.276368531890477 
1102	 0.276663653717079 
1103	 0.27694399892733 
1104	 0.277197625367621 
1105	 0.277469227741958 
1106	 0.277792748699244 
1107	 0.278089437492029 
1108	 0.278395356596506 
1109	 0.278706248864877 
1110	 0.278990186803974 
1111	 0.279288056094103 
1112	 0.279584743108993 
1113	 0.279886605521786 
1114	 0.280193464947007 
1115	 0.280505778521449 
1116	 0.280834292078482 
1117	 0.281141385627645 
1118	 0.281441324149681 
1119	 0.28173674647576 
1120	 0.282041368863714 
1121	 0.282336619786513 
1122	 0.282637836384194 
1123	 0.282965466787434 
1124	 0.283294847725115 
1125	 0.283633107219958 
1126	 0.283959195265291 
1127	 0.284297725766413 
1128	 0.284614710625485 
1129	 0.284913804529948 
1130	 0.285206335859436 
1131	 0.28550286423222 
1132	 0.285781969479539 
1133	 0.286027643954985 
1134	 0.286291446823686 
1135	 0.286556523219514 
1136	 0.286826227080584 
1137	 0.287075589296868 
1138	 0.287326699643692 
1139	 0.287589445843797 
1140	 0.287852680930665 
1141	 0.288101438468978 
1142	 0.288362685047128 
1143	 0.288608456535772 
1144	 0.288836706032033 
1145	 0.28905491081593 
1146	 0.289264684058612 
1147	 0.28947871367677 
1148	 0.289675799810997 
1149	 0.289881553205144 
1150	 0.290100542586817 
1151	 0.290319261102723 
1152	 0.290518320038907 
1153	 0.290695128914267 
1154	 0.290885495414104 
1155	 0.291070832232543 
1156	 0.291254820714616 
1157	 0.291449410899773 
1158	 0.29162709991411 
1159	 0.291788137009759 
1160	 0.291955279824481 
1161	 0.292118550922604 
1162	 0.292284017394988 
1163	 0.292460151179166 
1164	 0.292618486485691 
1165	 0.292762831401691 
1166	 0.292913284231073 
1167	 0.293063766509391 
1168	 0.293213060040132 
1169	 0.293366018958936 
1170	 0.293535288008073 
1171	 0.293685050346832 
1172	 0.293830009677115 
1173	 0.293963972954813 
1174	 0.294092217916329 
1175	 0.294208006933689 
1176	 0.294299725671914 
1177	 0.294408045177665 
1178	 0.294516190367651 
1179	 0.294626016335342 
1180	 0.294746146184703 
1181	 0.29486099299131 
1182	 0.294977702104771 
1183	 0.295083072023141 
1184	 0.295186800094831 
1185	 0.295281752115093 
1186	 0.295394327718626 
1187	 0.29551420661776 
1188	 0.295621590077318 
1189	 0.295740759216694 
1190	 0.295844236875241 
1191	 0.295918462100533 
1192	 0.296016504444047 
1193	 0.29614417317938 
1194	 0.296233393439641 
1195	 0.296294664662608 
1196	 0.296379722308251 
1197	 0.296450941239535 
1198	 0.296530341243617 
1199	 0.296620142456298 
1200	 0.296744079330383 
1201	 0.296832540214272 
1202	 0.296903692476147 
1203	 0.296984449780653 
1204	 0.297052532081181 
1205	 0.297143935112257 
1206	 0.297255299218208 
1207	 0.29734817475673 
1208	 0.297449458182505 
1209	 0.297539850612593 
1210	 0.297610614763171 
1211	 0.297688849820704 
1212	 0.297776803913058 
1213	 0.297852166688741 
1214	 0.297917268849563 
1215	 0.297984585723623 
1216	 0.298049300329496 
1217	 0.298103927159453 
1218	 0.298172135009793 
1219	 0.298248257177635 
1220	 0.298318460832495 
1221	 0.298397662628396 
1222	 0.298459999636311 
1223	 0.298505415868596 
1224	 0.298565632018628 
1225	 0.298631215928331 
1226	 0.29868528325883 
1227	 0.298741517831583 
1228	 0.298795013104523 
1229	 0.298828925063988 
1230	 0.298876467367692 
1231	 0.29894195095598 
1232	 0.298995496287268 
1233	 0.29904582913681 
1234	 0.299095128370252 
1235	 0.299142000235451 
1236	 0.299178199324193 
1237	 0.299227729252499 
1238	 0.299283945675176 
1239	 0.29933733692073 
1240	 0.299394270540782 
1241	 0.299449923921638 
1242	 0.299511943961165 
1243	 0.299561076694376 
1244	 0.299600608568637 
1245	 0.299645562095908 
1246	 0.299687554682403 
1247	 0.299724204428081 
1248	 0.299751857889759 
1249	 0.299801302779328 
1250	 0.299833950064885 
1251	 0.299855372984592 
1252	 0.299890136349449 
1253	 0.299935054842936 
1254	 0.299964599111775 
1255	 0.299989936867519 
1256	 0.300018292841686 
1257	 0.300047115124503 
1258	 0.300064697122791 
1259	 0.300073938756294 
1260	 0.300092721871553 
1261	 0.30010606836711 
1262	 0.300117671680787 
1263	 0.30013785284405 
1264	 0.300155868929342 
1265	 0.300157110683393 
1266	 0.300174435985991 
1267	 0.300207960614973 
1268	 0.300244517404628 
1269	 0.300261087459968 
1270	 0.300268212745891 
1271	 0.300289094282113 
1272	 0.300285378932027 
1273	 0.300331527317243 
1274	 0.300413151303936 
1275	 0.300489963275736 
1276	 0.300592497407194 
1277	 0.300681387161227 
1278	 0.30076985686668 
1279	 0.300859997075945 
1280	 0.300942366058121 
1281	 0.301038302455468 
1282	 0.301150099300997 
1283	 0.30124937486417 
1284	 0.301349704030166 
1285	 0.301460169335374 
1286	 0.301533303407963 
1287	 0.30158921066837 
1288	 0.301625946054324 
1289	 0.301633108572974 
1290	 0.301647612492983 
1291	 0.301644748419504 
1292	 0.301654407005139 
1293	 0.301678429455547 
1294	 0.301666852904075 
1295	 0.301643428648407 
1296	 0.301613517813471 
1297	 0.301562176077675 
1298	 0.301505636510306 
1299	 0.301450331417945 
1300	 0.301377233964607 
1301	 0.301281824287213 
1302	 0.301184370984958 
1303	 0.301075929265611 
1304	 0.30097166893367 
1305	 0.300854067100357 
1306	 0.300728156829147 
1307	 0.300601837366116 
1308	 0.300457328475092 
1309	 0.300312137554195 
1310	 0.300151332541961 
1311	 0.300009946009705 
1312	 0.299863569396755 
1313	 0.299736019956015 
1314	 0.299637742992363 
1315	 0.299512484447432 
1316	 0.299380401707762 
1317	 0.299262224692771 
1318	 0.299129976005846 
1319	 0.299015371742262 
1320	 0.298926848049312 
1321	 0.298824569848117 
1322	 0.298714097308407 
1323	 0.298615900102891 
1324	 0.298529337364242 
1325	 0.298440624075604 
1326	 0.298348414683633 
1327	 0.298267863543554 
1328	 0.298178084065893 
1329	 0.298099177891131 
1330	 0.298036656891339 
1331	 0.297990270318351 
1332	 0.297947913668889 
1333	 0.297921813180213 
1334	 0.297885115315871 
1335	 0.29784874245114 
1336	 0.297820317855408 
1337	 0.297784974653425 
1338	 0.2977669125263 
1339	 0.29777109142606 
1340	 0.297764109679228 
1341	 0.297761570584556 
1342	 0.297753501738685 
1343	 0.297743381393667 
1344	 0.297725230288091 
1345	 0.297699495380487 
1346	 0.297682624607135 
1347	 0.297677643518679 
1348	 0.297664058935741 
1349	 0.297652790307878 
1350	 0.297653325517123 
1351	 0.297626118095412 
1352	 0.297568196057122 
1353	 0.29754519290831 
1354	 0.297520437138024 
1355	 0.297503294295689 
1356	 0.297523780200537 
1357	 0.29750243421196 
1358	 0.297451674228558 
1359	 0.297422928886596 
1360	 0.297377058851547 
1361	 0.297357024039839 
1362	 0.297367561701676 
1363	 0.297365224192322 
1364	 0.297380773885724 
1365	 0.297369229270939 
1366	 0.297342849044449 
1367	 0.297309593468353 
1368	 0.297273793318565 
1369	 0.297210633453044 
1370	 0.297150108700891 
1371	 0.297083034486239 
1372	 0.296985480450107 
1373	 0.296881217733726 
1374	 0.296740026018691 
1375	 0.296579153850624 
1376	 0.296380088292165 
1377	 0.296147179089669 
1378	 0.295884250779798 
1379	 0.295586123621102 
1380	 0.295272957158298 
1381	 0.294929582285656 
1382	 0.294571123544722 
1383	 0.294208843308782 
1384	 0.293798570854938 
1385	 0.293367966237729 
1386	 0.292892554890209 
1387	 0.292383417434983 
1388	 0.291832144312536 
1389	 0.291242061995879 
1390	 0.290611423275821 
1391	 0.289947498626162 
1392	 0.289225624627912 
1393	 0.28846028732511 
1394	 0.287677976672843 
1395	 0.286834401257937 
1396	 0.285978163405707 
1397	 0.285133003834357 
1398	 0.284267242028739 
1399	 0.283413303390591 
1400	 0.282578775287065 
1401	 0.281719330808062 
1402	 0.280830976308668 
1403	 0.279982592078684 
1404	 0.279121508225859 
1405	 0.278311056158804 
1406	 0.277544034821055 
1407	 0.276781025961618 
1408	 0.276023061312875 
1409	 0.275314550600077 
1410	 0.27463341239897 
1411	 0.273979182793988 
1412	 0.273346893788373 
1413	 0.272773300625852 
1414	 0.27225177763911 
1415	 0.271760670561421 
1416	 0.271338575493716 
1417	 0.27096767402977 
1418	 0.270595504631601 
1419	 0.270232209889261 
1420	 0.26989195815025 
1421	 0.269572782517027 
1422	 0.269288284802924 
1423	 0.269033589548107 
1424	 0.268772467240953 
1425	 0.268537583202185 
1426	 0.268287561344036 
1427	 0.268004826504127 
1428	 0.267786726957303 
1429	 0.267603369537812 
1430	 0.267420327063984 
1431	 0.267273541524888 
1432	 0.267119589964667 
1433	 0.266955370175003 
1434	 0.266816836679437 
1435	 0.26669782595913 
1436	 0.266585103344834 
1437	 0.266474159456649 
1438	 0.266388261281186 
1439	 0.266321889951699 
1440	 0.26627078436899 
1441	 0.266222121853947 
1442	 0.266162707396994 
1443	 0.266088791419899 
1444	 0.266015830681799 
1445	 0.265967424411246 
1446	 0.265943188427333 
1447	 0.265911457637183 
1448	 0.265876117040893 
1449	 0.265835079221226 
1450	 0.265790494577716 
1451	 0.265769031694061 
1452	 0.265761240044112 
1453	 0.265766684653148 
1454	 0.265789157956513 
1455	 0.265809279012794 
1456	 0.265840272151354 
1457	 0.265873425944304 
1458	 0.265906595670943 
1459	 0.265954387342109 
1460	 0.266005299549601 
1461	 0.266073559826516 
1462	 0.266151795044107 
1463	 0.26624606277942 
1464	 0.266363700633726 
1465	 0.266482996621999 
1466	 0.266608337690043 
1467	 0.266749485023299 
1468	 0.266890068404801 
1469	 0.267056615338766 
1470	 0.267249166971603 
1471	 0.26744977395702 
1472	 0.267664495484814 
1473	 0.267902379485345 
1474	 0.268129169909984 
1475	 0.268367852488159 
1476	 0.268601820818527 
1477	 0.268829690643279 
1478	 0.269090969400289 
1479	 0.269351870221581 
1480	 0.269616536051039 
1481	 0.269902152072697 
1482	 0.270164860677271 
1483	 0.270407386275352 
1484	 0.270669574217719 
1485	 0.270934546117698 
1486	 0.271198711102384 
1487	 0.271474738224274 
1488	 0.271741832885961 
1489	 0.27199808777072 
1490	 0.272265966199058 
1491	 0.272542006566869 
1492	 0.272815188323102 
1493	 0.273095102182018 
1494	 0.273360398256867 
1495	 0.273618108419586 
1496	 0.273872213131092 
1497	 0.27412229459943 
1498	 0.274365864229563 
1499	 0.274608474702534 
1500	 0.274839295196604 
1501	 0.275045270803301 
1502	 0.275270522622267 
1503	 0.275499494775776 
1504	 0.275729540753936 
1505	 0.275963213129156 
1506	 0.276194331058991 
1507	 0.276417420269623 
1508	 0.276622307803295 
1509	 0.276838167657256 
1510	 0.277065270694121 
1511	 0.27728528062232 
1512	 0.277508676328874 
1513	 0.277740306323076 
1514	 0.277960879972095 
1515	 0.278174812672946 
1516	 0.278402398971939 
1517	 0.278605202543418 
1518	 0.278787736344492 
1519	 0.278977650501589 
1520	 0.27915802317212 
1521	 0.279341210546613 
1522	 0.279525390366862 
1523	 0.279711915618708 
1524	 0.279903616919457 
1525	 0.280081466687289 
1526	 0.280253870169301 
1527	 0.280427011140646 
1528	 0.280588410039928 
1529	 0.280757680316686 
1530	 0.280936215291602 
1531	 0.281105913758467 
1532	 0.28127458940542 
1533	 0.281436327516447 
1534	 0.281591755514217 
1535	 0.281745305861158 
1536	 0.281891093346286 
1537	 0.282037060845287 
1538	 0.282184852555698 
1539	 0.28232600635386 
1540	 0.28246372635217 
1541	 0.282601060117809 
1542	 0.282731843524791 
1543	 0.282863117161911 
1544	 0.282995733978087 
1545	 0.283120456759627 
1546	 0.283227143481455 
1547	 0.283359217861266 
1548	 0.283498815483494 
1549	 0.283633838486858 
1550	 0.283766501326632 
1551	 0.283887747926037 
1552	 0.284000436804702 
1553	 0.284111528891256 
1554	 0.284236399385247 
1555	 0.284349468907819 
1556	 0.284434601389682 
1557	 0.284539384174412 
1558	 0.284656370622842 
1559	 0.284775841338118 
1560	 0.284889664219705 
1561	 0.285011805327288 
1562	 0.285128703196928 
1563	 0.285239095161202 
1564	 0.285343509085382 
1565	 0.285453335064517 
1566	 0.285555194557674 
1567	 0.285635908783597 
1568	 0.285733789781444 
1569	 0.285848731809422 
1570	 0.285941570378201 
1571	 0.286027197806165 
1572	 0.286111317430017 
1573	 0.286190071051354 
1574	 0.28625594546828 
1575	 0.286316290811341 
1576	 0.286375723374565 
1577	 0.28641665480972 
1578	 0.286464257423933 
1579	 0.286514463147578 
1580	 0.286566213223943 
1581	 0.286620738315401 
1582	 0.286672678086256 
1583	 0.286725295120677 
1584	 0.286780186045452 
1585	 0.286828929527097 
1586	 0.286881523657388 
1587	 0.286949576813142 
1588	 0.286999557373038 
1589	 0.287039976959231 
1590	 0.287081673131563 
1591	 0.287107901599918 
1592	 0.287145910644876 
1593	 0.28719109742556 
1594	 0.287233840760773 
1595	 0.287268581922765 
1596	 0.287325570809231 
1597	 0.287401310306362 
1598	 0.287467871967266 
1599	 0.287562324510579 
1600	 0.287624993276667 
1601	 0.287649106699496 
1602	 0.287692096948439 
1603	 0.287728129762203 
1604	 0.287769856225722 
1605	 0.287827760521167 
1606	 0.287881628406911 
1607	 0.287933453222771 
1608	 0.287982691807544 
1609	 0.28803548132404 
1610	 0.288091323002224 
1611	 0.288139213971292 
1612	 0.288178103132309 
1613	 0.288197574067134 
1614	 0.288196679065716 
1615	 0.288196705005446 
1616	 0.288209949645599 
1617	 0.288243728224629 
1618	 0.288286453049692 
1619	 0.28831524006098 
1620	 0.288328952714078 
1621	 0.288348403725627 
1622	 0.288358601891214 
1623	 0.288368980691989 
1624	 0.288379443895629 
1625	 0.288400638817963 
1626	 0.288418338431468 
1627	 0.288440997526454 
1628	 0.288480419911142 
1629	 0.288504189663299 
1630	 0.288521386905021 
1631	 0.28853230494302 
1632	 0.288538917999906 
1633	 0.288545258257595 
1634	 0.288535312080815 
1635	 0.288549670906911 
1636	 0.288582788841689 
1637	 0.288595927881038 
1638	 0.288608210700172 
1639	 0.288625177043233 
1640	 0.28862774268368 
1641	 0.288650338972642 
1642	 0.288689377129125 
1643	 0.288725454708615 
1644	 0.28876726944139 
1645	 0.288805507986212 
1646	 0.288854775613795 
1647	 0.288882962114959 
1648	 0.28890225481803 
1649	 0.288912384324884 
1650	 0.288905046335092 
1651	 0.288905212052078 
1652	 0.288901234249437 
1653	 0.288898000917974 
1654	 0.288895925004912 
1655	 0.288890653966386 
1656	 0.288884838075932 
1657	 0.288873866077182 
1658	 0.288850603781273 
1659	 0.288847977666644 
1660	 0.288855305618123 
1661	 0.288853509023515 
1662	 0.288862799029139 
1663	 0.288863242414212 
1664	 0.288859882079619 
1665	 0.288837907534846 
1666	 0.28879462073242 
1667	 0.28878203188616 
1668	 0.288770197693933 
1669	 0.288753199451308 
1670	 0.288771422236943 
1671	 0.288748848281644 
1672	 0.28867985044439 
1673	 0.288643581861558 
1674	 0.288606798311552 
1675	 0.28858383494248 
1676	 0.288572827346949 
1677	 0.288571745765417 
1678	 0.288584253293184 
1679	 0.288594392813042 
1680	 0.28862884101722 
1681	 0.288627072692021 
1682	 0.288607514759584 
1683	 0.288589011903615 
1684	 0.288548032129041 
1685	 0.288519134003324 
1686	 0.288488655003833 
1687	 0.288471453719336 
1688	 0.288470686016119 
1689	 0.288448196238178 
1690	 0.288422719459296 
1691	 0.288402683064565 
1692	 0.288366657839479 
1693	 0.28834201519293 
1694	 0.288334362026757 
1695	 0.288319026502351 
1696	 0.288302536710032 
1697	 0.28827616746236 
1698	 0.288242553680817 
1699	 0.2882211362671 
1700	 0.288195325563065 
1701	 0.288172704771698 
1702	 0.288171600581621 
1703	 0.288143899020582 
1704	 0.288103136239474 
1705	 0.288053924421831 
1706	 0.287979080620526 
1707	 0.287934995289312 
1708	 0.287899100101122 
1709	 0.287857380378398 
1710	 0.287828023867075 
1711	 0.287796571342605 
1712	 0.287763108264732 
1713	 0.287718986899977 
1714	 0.287678808868125 
1715	 0.287631330950086 
1716	 0.287557374817159 
1717	 0.287508943585837 
1718	 0.287482230131614 
1719	 0.287437340222216 
1720	 0.28739441430509 
1721	 0.287339704899254 
1722	 0.287272196866987 
1723	 0.287211327370945 
1724	 0.287142936290631 
1725	 0.287080440124899 
1726	 0.287024909855713 
1727	 0.286957066659533 
1728	 0.286893066085585 
1729	 0.286817104414908 
1730	 0.286727187080748 
1731	 0.286637074528815 
1732	 0.286544017390825 
1733	 0.286443098556682 
1734	 0.286328446566592 
1735	 0.286232037514155 
1736	 0.286142030260395 
1737	 0.286031811828512 
1738	 0.285923863311032 
1739	 0.285819794523082 
1740	 0.285694720185681 
1741	 0.285590958128628 
1742	 0.28551185210676 
1743	 0.28541170701636 
1744	 0.285305716093815 
1745	 0.28519609161994 
1746	 0.285077876922796 
1747	 0.284981748499896 
1748	 0.284881614780149 
1749	 0.284776947434468 
1750	 0.284652521688392 
1751	 0.284522108830308 
1752	 0.284384843751289 
1753	 0.284253925124978 
1754	 0.284132968552139 
1755	 0.284019667323688 
1756	 0.283904073785974 
1757	 0.283772005080958 
1758	 0.283669738311494 
1759	 0.283573241599322 
1760	 0.283463194845185 
1761	 0.283378748792043 
1762	 0.283285803170259 
1763	 0.283150819196921 
1764	 0.283012994422784 
1765	 0.282881165077365 
1766	 0.282758163817284 
1767	 0.282663562303811 
1768	 0.282591580013889 
1769	 0.282535777491537 
1770	 0.282468989017787 
1771	 0.282403206112947 
1772	 0.282312401323183 
1773	 0.282181082894687 
1774	 0.282082967201749 
1775	 0.281999237883902 
1776	 0.281909849522457 
1777	 0.281868380269945 
1778	 0.281811875021663 
1779	 0.281734088260395 
1780	 0.281701507444317 
1781	 0.281638856357932 
1782	 0.281572072160461 
1783	 0.281520571397508 
1784	 0.281466166277967 
1785	 0.281447589116343 
1786	 0.281403949664864 
1787	 0.281315484904331 
1788	 0.281271466963404 
1789	 0.281247043485534 
1790	 0.281211020172208 
1791	 0.281198362385235 
1792	 0.281178752660802 
1793	 0.281145364119563 
1794	 0.28111601058028 
1795	 0.281105453218168 
1796	 0.281067429662007 
1797	 0.281005160796361 
1798	 0.28095693846471 
1799	 0.280885155756456 
1800	 0.280861232720904 
1801	 0.281292793876312 
1802	 0.281380497367352 
1803	 0.281485496651507 
1804	 0.281592839612742 
1805	 0.281696188821195 
1806	 0.281784780862421 
1807	 0.281854591493386 
1808	 0.281932352062297 
1809	 0.282023462052865 
1810	 0.28209108580983 
1811	 0.282157082190137 
1812	 0.282208738301665 
1813	 0.282214317325421 
1814	 0.282198696976669 
1815	 0.282170955677762 
1816	 0.282134480878819 
1817	 0.282110987660999 
1818	 0.282095245133431 
1819	 0.282083308598899 
1820	 0.282074200037614 
1821	 0.282066088746548 
1822	 0.28206629316546 
1823	 0.282050352580451 
1824	 0.282040022703993 
1825	 0.28200939031164 
1826	 0.281979391477834 
1827	 0.281940547472051 
1828	 0.281879566196624 
1829	 0.281792401012146 
1830	 0.281719008691931 
1831	 0.28163413830712 
1832	 0.281545608748774 
1833	 0.281477493298312 
1834	 0.281419943309893 
1835	 0.281343211324937 
1836	 0.281262602267695 
1837	 0.281166985106333 
1838	 0.2810584419428 
1839	 0.280954908568358 
1840	 0.280852148887455 
1841	 0.280738839931838 
1842	 0.280631384853062 
1843	 0.280519647992425 
1844	 0.280400682690715 
1845	 0.280268408757275 
1846	 0.280099031584996 
1847	 0.279919773820665 
1848	 0.279729002757047 
1849	 0.279524831913187 
1850	 0.279324643700671 
1851	 0.279136896413047 
1852	 0.278932330667441 
1853	 0.278703559603537 
1854	 0.278473429324067 
1855	 0.27823448586859 
1856	 0.277962475223646 
1857	 0.277651875075152 
1858	 0.27729226447706 
1859	 0.276898073165695 
1860	 0.276456702557359 
1861	 0.275976894670651 
1862	 0.275433841523136 
1863	 0.27484507921767 
1864	 0.274201313431268 
1865	 0.273508512849237 
1866	 0.272787114564884 
1867	 0.272030902528518 
1868	 0.271215249346979 
1869	 0.270335487536448 
1870	 0.26939398554256 
1871	 0.26838130536568 
1872	 0.267303718074379 
1873	 0.266177005360388 
1874	 0.264976373050281 
1875	 0.263704944634012 
1876	 0.262364458185734 
1877	 0.260895852909454 
1878	 0.259291833746655 
1879	 0.257604619977542 
1880	 0.255812796393 
1881	 0.253890369579444 
1882	 0.251894519816617 
1883	 0.249825341276578 
1884	 0.247605288356014 
1885	 0.245310553869847 
1886	 0.24295865355488 
1887	 0.240500550229283 
1888	 0.237982802357772 
1889	 0.23538740426444 
1890	 0.232747709324479 
1891	 0.23014246363424 
1892	 0.227489430288014 
1893	 0.224901057305185 
1894	 0.222344446285552 
1895	 0.21981129352208 
1896	 0.21726482433458 
1897	 0.214786788070027 
1898	 0.212356672636046 
1899	 0.21001581872846 
1900	 0.207817274328057 
1901	 0.205715894631517 
1902	 0.203731722703172 
1903	 0.201876394391017 
1904	 0.200122088158931 
1905	 0.198461262796197 
1906	 0.196952625693527 
1907	 0.195546504436969 
1908	 0.194216170908856 
1909	 0.193006098871425 
1910	 0.191871250834362 
1911	 0.190829792719766 
1912	 0.189893074816232 
1913	 0.189004678384785 
1914	 0.188196260987522 
1915	 0.187435415027617 
1916	 0.186735081081568 
1917	 0.186078771224603 
1918	 0.185499326746088 
1919	 0.184980670450408 
1920	 0.184527298617729 
1921	 0.18413729359473 
1922	 0.183797398653026 
1923	 0.183517268411591 
1924	 0.183271929038366 
1925	 0.183081851926535 
1926	 0.182918943510713 
1927	 0.182796948311155 
1928	 0.182695591768598 
1929	 0.182635946361224 
1930	 0.182629473681559 
1931	 0.182658103967957 
1932	 0.182726935177852 
1933	 0.182830243612373 
1934	 0.182964127287767 
1935	 0.183115851658731 
1936	 0.183288858471976 
1937	 0.183492299406689 
1938	 0.183708449347297 
1939	 0.183967883026025 
1940	 0.184268424443181 
1941	 0.184600855330803 
1942	 0.184932621272626 
1943	 0.185306480047683 
1944	 0.185680468721462 
1945	 0.186071283009144 
1946	 0.186492373382076 
1947	 0.186949400475097 
1948	 0.187407569308559 
1949	 0.187890590567703 
1950	 0.188374879609865 
1951	 0.188871266880262 
1952	 0.189375884511956 
1953	 0.189869720928386 
1954	 0.190374983471992 
1955	 0.190876184503414 
1956	 0.191394460399739 
1957	 0.191934918050754 
1958	 0.192495128944953 
1959	 0.193066063417309 
1960	 0.193679058440008 
1961	 0.194258151988409 
1962	 0.194828964761216 
1963	 0.19541126516639 
1964	 0.195983152171669 
1965	 0.196551993904783 
1966	 0.197153035980139 
1967	 0.197780015777543 
1968	 0.198393831121895 
1969	 0.199002885603726 
1970	 0.199633430691436 
1971	 0.20028005235172 
1972	 0.200914232417807 
1973	 0.201561891689152 
1974	 0.202206994082012 
1975	 0.202844721633516 
1976	 0.203476566878728 
1977	 0.204134694802781 
1978	 0.204784221066968 
1979	 0.205404775341707 
1980	 0.20603067358674 
1981	 0.206656740051741 
1982	 0.207265617830069 
1983	 0.207890836617745 
1984	 0.208528668811134 
1985	 0.209163501258589 
1986	 0.209812027242199 
1987	 0.210441839996616 
1988	 0.211059107592087 
1989	 0.211683763615386 
1990	 0.212314013466501 
1991	 0.212928706831402 
1992	 0.21356377311092 
1993	 0.214231433952567 
1994	 0.214866836639493 
1995	 0.215492662213227 
1996	 0.216112436391062 
1997	 0.216717537408534 
1998	 0.217326561695651 
1999	 0.217931399975044 
2000	 0.218539989868953 
2001	 0.219161980844359 
2002	 0.219753555066735 
2003	 0.220362230428802 
2004	 0.220958178254331 
2005	 0.22154634441949 
2006	 0.222136210851156 
2007	 0.222707358025638 
2008	 0.223243427289632 
2009	 0.223811180921392 
2010	 0.224383290687791 
2011	 0.22494973608468 
2012	 0.225557422854162 
2013	 0.226120187746273 
2014	 0.226647766994918 
2015	 0.227167174880497 
2016	 0.227701922284977 
2017	 0.228221201279649 
2018	 0.228765039143255 
2019	 0.229349922440172 
2020	 0.229891488913129 
2021	 0.230431620649859 
2022	 0.230947394459282 
2023	 0.231424372568491 
2024	 0.231921046788737 
2025	 0.232415828172858 
2026	 0.23289997559845 
2027	 0.233388895822386 
2028	 0.233876210775679 
2029	 0.234332717348589 
2030	 0.234755803880908 
2031	 0.235206576456705 
2032	 0.235641646502156 
2033	 0.236102204361796 
2034	 0.236599916866295 
2035	 0.237063401429599 
2036	 0.237522502625412 
2037	 0.237974985095223 
2038	 0.238415238498173 
2039	 0.238844598100885 
2040	 0.239269273193588 
2041	 0.239685255769209 
2042	 0.240076270793049 
2043	 0.240479152434219 
2044	 0.240882022628282 
2045	 0.241290426228283 
2046	 0.241686598778255 
2047	 0.242089527024725 
2048	 0.24246867676687 
2049	 0.242826378476065 
2050	 0.243189042294421 
2051	 0.243535034033206 
2052	 0.243889351688058 
2053	 0.244247872550849 
2054	 0.244604641186375 
2055	 0.244952571332129 
2056	 0.245323725962397 
2057	 0.245675297848513 
2058	 0.246028665332425 
2059	 0.246363501383573 
2060	 0.246674303518937 
2061	 0.247007346115949 
2062	 0.247333948626208 
2063	 0.247671094741269 
2064	 0.248028212787968 
2065	 0.248379605102446 
2066	 0.248734727579939 
2067	 0.249084457313454 
2068	 0.249460523925852 
2069	 0.249778640964855 
2070	 0.250117539884774 
2071	 0.250450856759058 
2072	 0.250779413195531 
2073	 0.25110907517106 
2074	 0.251424800497477 
2075	 0.251729262200363 
2076	 0.252028666556953 
2077	 0.252308834601295 
2078	 0.252606949922661 
2079	 0.25290386765113 
2080	 0.253207189999738 
2081	 0.253529440400644 
2082	 0.25383860684759 
2083	 0.254147433767863 
2084	 0.254451937478246 
2085	 0.254742319489406 
2086	 0.255020822186161 
2087	 0.255299271500032 
2088	 0.255567173657804 
2089	 0.255838116784875 
2090	 0.256111505897764 
2091	 0.256376391286113 
2092	 0.256626543548103 
2093	 0.256891248398539 
2094	 0.257150992579213 
2095	 0.257424631062321 
2096	 0.257729836354122 
2097	 0.258008682332794 
2098	 0.258279667475531 
2099	 0.258551238084743 
2100	 0.258811118283536 
2101	 0.259050543418435 
2102	 0.259302284192908 
2103	 0.259545657323351 
2104	 0.25981285115508 
2105	 0.260096676371959 
2106	 0.260365806477527 
2107	 0.260646929376129 
2108	 0.260920874450834 
2109	 0.261177930262343 
2110	 0.261443188587764 
2111	 0.261728632523277 
2112	 0.261991688276551 
2113	 0.262235482324459 
2114	 0.262484794540054 
2115	 0.262733400511752 
2116	 0.262968671506886 
2117	 0.263219645151475 
2118	 0.263478528260113 
2119	 0.263741977567838 
2120	 0.264014535084407 
2121	 0.264281620253233 
2122	 0.264558605247215 
2123	 0.26482137186217 
2124	 0.265092128149518 
2125	 0.265329942066329 
2126	 0.265540518856096 
2127	 0.265756083904461 
2128	 0.265966366102391 
2129	 0.266147938876661 
2130	 0.266309279808271 
2131	 0.266476605258704 
2132	 0.266628720489912 
2133	 0.266750943421251 
2134	 0.266881771645533 
2135	 0.267036188974682 
2136	 0.26713363439553 
2137	 0.267193937693207 
2138	 0.267253879468533 
2139	 0.267280721350401 
2140	 0.267315449863392 
2141	 0.267350263590909 
2142	 0.267374901827143 
2143	 0.267393313480865 
2144	 0.267402251456419 
2145	 0.267396262965598 
2146	 0.267393127024401 
2147	 0.267398849565493 
2148	 0.267379742100027 
2149	 0.267344200990758 
2150	 0.267302826155799 
2151	 0.267243134128934 
2152	 0.267150707705594 
2153	 0.267065564742908 
2154	 0.266977331598451 
2155	 0.266881690721326 
2156	 0.266769080492242 
2157	 0.266667804500806 
2158	 0.266576960406449 
2159	 0.266467908239834 
2160	 0.266368561762251 
2161	 0.266239431373563 
2162	 0.266080535548838 
2163	 0.265919479397321 
2164	 0.2657242429601 
2165	 0.26554565284251 
2166	 0.265387786023435 
2167	 0.265243710704095 
2168	 0.265092028190615 
2169	 0.264961321264556 
2170	 0.264810532750473 
2171	 0.264643711152589 
2172	 0.264482110834966 
2173	 0.264329585790227 
2174	 0.264157188392297 
2175	 0.263968666825355 
2176	 0.263784805959971 
2177	 0.263596586731715 
2178	 0.263400677562446 
2179	 0.263192186866666 
2180	 0.2629973832421 
2181	 0.262787911796273 
2182	 0.262600625571875 
2183	 0.262442378577911 
2184	 0.262283633483206 
2185	 0.262114803283712 
2186	 0.261949752415683 
2187	 0.261776512649026 
2188	 0.261579355697577 
2189	 0.261418464109869 
2190	 0.261280478336419 
2191	 0.261128548803037 
2192	 0.260988696428194 
2193	 0.260841347949206 
2194	 0.260661649956859 
2195	 0.260523845850051 
2196	 0.260416312569248 
2197	 0.260302831651956 
2198	 0.260206729157483 
2199	 0.260112989329606 
2200	 0.260006157940859 
2201	 0.259921921282705 
2202	 0.259876748507399 
2203	 0.259805240309523 
2204	 0.259736853449628 
2205	 0.259670774954874 
2206	 0.259614132077258 
2207	 0.259533619097706 
2208	 0.259510735628478 
2209	 0.259528740450522 
2210	 0.259541900043073 
2211	 0.25959045579965 
2212	 0.259617843778272 
2213	 0.259647605511065 
2214	 0.259660753142214 
2215	 0.259658678090953 
2216	 0.259667725534579 
2217	 0.25967530088176 
2218	 0.259675673998469 
2219	 0.259677837041284 
2220	 0.259676897129207 
2221	 0.259658510773994 
2222	 0.259658931087646 
2223	 0.25964373959894 
2224	 0.259627702787352 
2225	 0.259598917846347 
2226	 0.259550901352673 
2227	 0.259508802291525 
2228	 0.2594692199902 
2229	 0.259418307193042 
2230	 0.259344720548003 
2231	 0.25930844140964 
2232	 0.259301708001443 
2233	 0.259250154097575 
2234	 0.259207268177395 
2235	 0.259141512569594 
2236	 0.259016768725463 
2237	 0.258928485077713 
2238	 0.258854446183201 
2239	 0.258779341372139 
2240	 0.25872877102585 
2241	 0.25864384436165 
2242	 0.258524907441263 
2243	 0.258435424566775 
2244	 0.258338306845615 
2245	 0.258249874829596 
2246	 0.258194171216055 
2247	 0.258124924909945 
2248	 0.258022812766277 
2249	 0.257881755893625 
2250	 0.257773087541223 
2251	 0.257651740372063 
2252	 0.25756074097865 
2253	 0.257502140004431 
2254	 0.257425611200787 
2255	 0.25735620211975 
2256	 0.257268260640989 
2257	 0.257173630799618 
2258	 0.257073497028524 
2259	 0.256946053047092 
2260	 0.256850628167325 
2261	 0.256753425971418 
2262	 0.256680007040843 
2263	 0.256633689646176 
2264	 0.256593578442095 
2265	 0.256579735676802 
2266	 0.256558457642106 
2267	 0.256550359958176 
2268	 0.256527506580478 
2269	 0.256513708758249 
2270	 0.256462951569064 
2271	 0.256384758327629 
2272	 0.256325901740934 
2273	 0.256236939021478 
2274	 0.256163020232107 
2275	 0.256112608248496 
2276	 0.256088779339221 
2277	 0.256039879753951 
2278	 0.256007212174802 
2279	 0.255949202544237 
2280	 0.255854428774335 
2281	 0.255796133635278 
2282	 0.255748895334237 
2283	 0.255699915445933 
2284	 0.255676198728465 
2285	 0.255625604886332 
2286	 0.255559357891969 
2287	 0.255495636531108 
2288	 0.255411953988884 
2289	 0.25534249026538 
2290	 0.25528988139962 
2291	 0.255216243053846 
2292	 0.255131126408045 
2293	 0.25506372890338 
2294	 0.254983665791325 
2295	 0.254924093407478 
2296	 0.254904101404133 
2297	 0.254848823484918 
2298	 0.254800546217518 
2299	 0.25474535722728 
2300	 0.25467987270598 
2301	 0.254620712310056 
2302	 0.254576526405303 
2303	 0.254576350412209 
2304	 0.254565953192162 
2305	 0.254536410914107 
2306	 0.254471151190838 
2307	 0.254358080999297 
2308	 0.254263750874637 
2309	 0.254169233676387 
2310	 0.254047268524746 
2311	 0.25391500936274 
2312	 0.25377423488352 
2313	 0.253575964514169 
2314	 0.253429101567615 
2315	 0.253303920533908 
2316	 0.253200789654819 
2317	 0.253139961458 
2318	 0.253050373512717 
2319	 0.252981548025565 
2320	 0.252870853258665 
2321	 0.25270123906234 
2322	 0.252578201083636 
2323	 0.252454082060535 
2324	 0.252347273295873 
2325	 0.252284156055595 
2326	 0.252202758525557 
2327	 0.252116212033043 
2328	 0.252032258135773 
2329	 0.251935647901102 
2330	 0.25183260595898 
2331	 0.251727676445487 
2332	 0.251588970288484 
2333	 0.251459089143184 
2334	 0.251324518705092 
2335	 0.251154331086596 
2336	 0.251023628531488 
2337	 0.250933286840853 
2338	 0.250809682849073 
2339	 0.250705148442658 
2340	 0.250594087506522 
2341	 0.250412921910046 
2342	 0.250255678664359 
2343	 0.250101947358317 
2344	 0.249899152606683 
2345	 0.249690548090217 
2346	 0.249461101494341 
2347	 0.249229478522957 
2348	 0.248979798075901 
2349	 0.248731469322916 
2350	 0.248480617550701 
2351	 0.248243065062527 
2352	 0.248008369101504 
2353	 0.247739231346463 
2354	 0.247461916035593 
2355	 0.247185154830821 
2356	 0.246861328417289 
2357	 0.246613317261599 
2358	 0.246421188027817 
2359	 0.246190847017075 
2360	 0.245980154958929 
2361	 0.245731154420483 
2362	 0.245461279621896 
2363	 0.245204817203632 
2364	 0.2449285092827 
2365	 0.244667721983874 
2366	 0.244439196253695 
2367	 0.244124070085413 
2368	 0.243733953549121 
2369	 0.243428435259049 
2370	 0.243098894982208 
2371	 0.242832888623509 
2372	 0.242616870645091 
2373	 0.242356442056242 
2374	 0.242073027025892 
2375	 0.241763135228182 
2376	 0.241435907024146 
2377	 0.24114936632996 
2378	 0.240846229449759 
2379	 0.240451326662963 
2380	 0.240057561256925 
2381	 0.239655877774978 
2382	 0.239235313545125 
2383	 0.238913215272471 
2384	 0.238639776585245 
2385	 0.238393929363059 
2386	 0.238162539483511 
2387	 0.237842360611057 
2388	 0.237508853273184 
2389	 0.237144766881778 
2390	 0.236732101688893 
2391	 0.2363799474827 
2392	 0.236063306573908 
2393	 0.23572933773504 
2394	 0.235343202188453 
2395	 0.234973848741784 
2396	 0.234637483554668 
2397	 0.2342402350861 
2398	 0.233781900423354 
2399	 0.233312577380862 
2400	 0.232902292783568 
2401	 0.232522155509232 
2402	 0.232267153008728 
2403	 0.23210653001376 
2404	 0.231758414423668 
2405	 0.231365459555992 
2406	 0.230978757574667 
2407	 0.230506478145255 
2408	 0.230095352095428 
2409	 0.229705160443161 
2410	 0.22929334535691 
2411	 0.228916057385666 
2412	 0.228537814398878 
2413	 0.228105820545099 
2414	 0.227729254058675 
2415	 0.227411647776437 
2416	 0.227011331829495 
2417	 0.226581503227162 
2418	 0.226187260730075 
2419	 0.22573032666326 
2420	 0.225292898260863 
2421	 0.224921583690461 
2422	 0.224483297080591 
2423	 0.223972544903966 
2424	 0.223560684233197 
2425	 0.22319958158951 
2426	 0.222764423548066 
2427	 0.222370274777682 
2428	 0.22193494870432 
2429	 0.221354210788343 
2430	 0.220963940069218 
2431	 0.220687573156822 
2432	 0.220326634235827 
2433	 0.220047535978285 
2434	 0.219697609744419 
2435	 0.219249919442322 
2436	 0.218882067334721 
2437	 0.218533580110584 
2438	 0.218162096446828 
2439	 0.217859467739633 
2440	 0.217410938828501 
2441	 0.216811086607726 
2442	 0.216383440770352 
2443	 0.215978813014462 
2444	 0.215550927066223 
2445	 0.215257228630956 
2446	 0.214900162816566 
2447	 0.214467741972959 
2448	 0.213956306726162 
2449	 0.213393319738899 
2450	 0.212846544317658 
2451	 0.212199163335991 
2452	 0.211659261310488 
2453	 0.211225013026311 
2454	 0.210774180892598 
2455	 0.210314652951434 
2456	 0.209840168292793 
2457	 0.20940079403951 
2458	 0.208955371060529 
2459	 0.208493559748909 
2460	 0.208012223263895 
2461	 0.207479505488856 
2462	 0.207100630171915 
2463	 0.20676948189392 
2464	 0.206418962902238 
2465	 0.206279255719234 
2466	 0.205904041397498 
2467	 0.205268933979277 
2468	 0.204898321535401 
2469	 0.204616065112487 
2470	 0.204384438063337 
2471	 0.204130447239979 
2472	 0.20357900113482 
2473	 0.202800476498864 
2474	 0.202199956050001 
2475	 0.201580193683586 
2476	 0.201141493197304 
2477	 0.201038195053167 
2478	 0.200822560824905 
2479	 0.200620746953399 
2480	 0.200434889173944 
2481	 0.200182670047132 
2482	 0.199887437490175 
2483	 0.199566373763394 
2484	 0.199052309154968 
2485	 0.198344869521673 
2486	 0.197780810513539 
2487	 0.197318560641629 
2488	 0.197055249959382 
2489	 0.197037862802969 
2490	 0.196948044385539 
2491	 0.19672030588007 
2492	 0.196502707507754 
2493	 0.196034408614376 
2494	 0.195220804907016 
2495	 0.194553268973616 
2496	 0.194159149540363 
2497	 0.193887508997345 
2498	 0.193838727193653 
2499	 0.193961932304838 
2500	 0.193819832728514 
