Wavelength	MM1000019.asd
350	 4.28924781866356E-02 
351	 4.43402073250701E-02 
352	 4.38856341255915E-02 
353	 4.18735757398391E-02 
354	 4.27825071142354E-02 
355	 4.49525320578107E-02 
356	 4.69759592551525E-02 
357	 4.78640200250135E-02 
358	 4.85869845745966E-02 
359	 4.25435719990047E-02 
360	 0.038417614320769 
361	 5.13170986243052E-02 
362	 4.77531973161338E-02 
363	 4.33564102053342E-02 
364	 4.64105038668333E-02 
365	 4.42029128987829E-02 
366	 0.043283726850891 
367	 4.58134523425903E-02 
368	 5.03341107053608E-02 
369	 4.59501048605677E-02 
370	 4.40906142835124E-02 
371	 4.62843682079011E-02 
372	 4.69190125931507E-02 
373	 4.55264643261168E-02 
374	 4.63757686008757E-02 
375	 4.94839242749284E-02 
376	 4.63534395333539E-02 
377	 4.58287247797461E-02 
378	 4.84314718654142E-02 
379	 5.15754187865647E-02 
380	 5.17805897003555E-02 
381	 4.97506176709416E-02 
382	 4.85003520009514E-02 
383	 5.17766971263408E-02 
384	 0.051706291069594 
385	 5.19147339273034E-02 
386	 5.42440176829119E-02 
387	 5.40911635258154E-02 
388	 5.19212386264385E-02 
389	 5.05898320107152E-02 
390	 5.20873750964124E-02 
391	 4.99158974050713E-02 
392	 5.03373244613106E-02 
393	 5.29406648976113E-02 
394	 5.17217400229942E-02 
395	 5.10861883538527E-02 
396	 5.08935239849493E-02 
397	 5.09660409267175E-02 
398	 5.28649905606603E-02 
399	 5.41404239868324E-02 
400	 5.46382623609299E-02 
401	 5.51614767903023E-02 
402	 5.66862640949966E-02 
403	 5.74378392627418E-02 
404	 0.056827763271454 
405	 5.56763023537747E-02 
406	 5.66665465727062E-02 
407	 5.76635037718868E-02 
408	 5.69204778241055E-02 
409	 5.60884692720921E-02 
410	 5.56080556003735E-02 
411	 5.54381074225373E-02 
412	 5.54060725289762E-02 
413	 5.66490583666445E-02 
414	 5.72992146648852E-02 
415	 5.68722895440687E-02 
416	 5.69098292334142E-02 
417	 5.69372435945733E-02 
418	 0.057080246788035 
419	 5.74553814453932E-02 
420	 0.057850665977911 
421	 5.75476364985204E-02 
422	 5.71501612586934E-02 
423	 5.78922298370403E-02 
424	 5.80883991989649E-02 
425	 5.79354915925261E-02 
426	 5.77679229664106E-02 
427	 5.77004311883948E-02 
428	 5.74960019566947E-02 
429	 5.74375596158006E-02 
430	 5.77164905456601E-02 
431	 5.72144006544341E-02 
432	 5.67829543936863E-02 
433	 5.67861602507823E-02 
434	 5.70223285801229E-02 
435	 5.74710603871105E-02 
436	 5.73911575376704E-02 
437	 5.66057623383443E-02 
438	 0.056679358215482 
439	 5.68956730222937E-02 
440	 0.057092666530644 
441	 5.73163458522708E-02 
442	 5.69766699857293E-02 
443	 5.68735180573251E-02 
444	 5.71368902639374E-02 
445	 5.66818381211805E-02 
446	 0.056716808883109 
447	 5.70433054000926E-02 
448	 5.71337072967987E-02 
449	 5.68212403991759E-02 
450	 5.71719789184165E-02 
451	 5.78705617204875E-02 
452	 5.75189147561862E-02 
453	 5.75395819328829E-02 
454	 5.75486888212818E-02 
455	 5.72894029388147E-02 
456	 5.76347303406102E-02 
457	 0.057835004012972 
458	 5.75904052994756E-02 
459	 5.69903716409074E-02 
460	 0.057299043450315 
461	 0.057564273393991 
462	 5.74189641604506E-02 
463	 5.75975644351666E-02 
464	 5.78004555104832E-02 
465	 5.76777065948782E-02 
466	 5.71826385715193E-02 
467	 5.75398318967236E-02 
468	 5.77753530964495E-02 
469	 5.76359143087918E-02 
470	 5.75017822524385E-02 
471	 5.74545419807204E-02 
472	 0.057495788903837 
473	 5.75576969301377E-02 
474	 5.74442732152969E-02 
475	 5.75136737851839E-02 
476	 5.75776346655237E-02 
477	 5.73053047750337E-02 
478	 5.72068120401673E-02 
479	 5.72274934547811E-02 
480	 5.72735456250243E-02 
481	 5.72681387237979E-02 
482	 5.74399050153867E-02 
483	 5.75599967918766E-02 
484	 5.74190868863244E-02 
485	 5.74031080828986E-02 
486	 5.74489258425986E-02 
487	 5.74593554446675E-02 
488	 5.73317079852977E-02 
489	 5.72081207471282E-02 
490	 5.71423081485861E-02 
491	 5.71339876108701E-02 
492	 5.70992584633099E-02 
493	 5.70793015850999E-02 
494	 5.70557199819504E-02 
495	 0.057011328576155 
496	 5.71585311700933E-02 
497	 5.72582426919504E-02 
498	 5.72459442082881E-02 
499	 5.73861783647387E-02 
500	 5.72942937828586E-02 
501	 5.71230993146355E-02 
502	 5.71097997648778E-02 
503	 5.71048231795298E-02 
504	 5.71749994867325E-02 
505	 5.72551450134402E-02 
506	 5.71735283733264E-02 
507	 5.72571307280084E-02 
508	 5.72946868966875E-02 
509	 0.057146457975165 
510	 0.057133287238234 
511	 5.72065253297523E-02 
512	 5.72606941086434E-02 
513	 0.057186950692574 
514	 5.71762154086932E-02 
515	 5.72777766453035E-02 
516	 5.74253839049206E-02 
517	 5.73888178001926E-02 
518	 5.73324474166912E-02 
519	 5.72885716261809E-02 
520	 5.72811987107446E-02 
521	 5.75384764154224E-02 
522	 5.76348161342768E-02 
523	 5.75063341000245E-02 
524	 5.74962404964868E-02 
525	 5.74554381425825E-02 
526	 5.74610481744232E-02 
527	 5.75551114093917E-02 
528	 0.057530047838797 
529	 5.74911568048799E-02 
530	 5.75130877398143E-02 
531	 5.76294699962323E-02 
532	 5.76386148710408E-02 
533	 5.77237099408862E-02 
534	 5.79363126694496E-02 
535	 5.79329076941511E-02 
536	 5.79424832397358E-02 
537	 5.80076855277072E-02 
538	 5.80946572244038E-02 
539	 5.81517107149964E-02 
540	 5.82169039145461E-02 
541	 5.83049347962735E-02 
542	 5.83917603312142E-02 
543	 5.83870810645049E-02 
544	 0.058451106688283 
545	 5.86956226000957E-02 
546	 5.87619271089332E-02 
547	 5.87838182861216E-02 
548	 5.88732880011687E-02 
549	 5.90930546003573E-02 
550	 5.91214437836815E-02 
551	 5.91460272206651E-02 
552	 5.93207168333189E-02 
553	 5.94628026835017E-02 
554	 5.96069586849896E-02 
555	 5.97504133948902E-02 
556	 5.98846299839469E-02 
557	 6.00941840532753E-02 
558	 6.03532520346403E-02 
559	 6.06410598827408E-02 
560	 6.09772743195763E-02 
561	 6.12498182114015E-02 
562	 6.14808785220989E-02 
563	 6.17404219399313E-02 
564	 6.20715363250403E-02 
565	 6.23256171295734E-02 
566	 0.062526454398584 
567	 6.28963922568281E-02 
568	 6.33277890653181E-02 
569	 6.37951468327946E-02 
570	 6.42859287639946E-02 
571	 6.47660246698494E-02 
572	 6.53512693193162E-02 
573	 6.59913764487291E-02 
574	 6.65286930183371E-02 
575	 0.067073237177056 
576	 0.067653339779632 
577	 6.82566785547695E-02 
578	 6.88000351834247E-02 
579	 6.94020880419724E-02 
580	 7.00809844130821E-02 
581	 7.08111553887531E-02 
582	 7.15917752219655E-02 
583	 7.23721365062861E-02 
584	 7.31462560940363E-02 
585	 7.39763363188844E-02 
586	 7.49081090929671E-02 
587	 7.58337777522816E-02 
588	 7.66666819690437E-02 
589	 7.76263501114297E-02 
590	 7.86203670720467E-02 
591	 7.96205373942468E-02 
592	 8.06694609194221E-02 
593	 8.17443824023244E-02 
594	 8.28462032819884E-02 
595	 8.39444853204358E-02 
596	 8.49193684159869E-02 
597	 8.58195251571009E-02 
598	 8.66872325823496E-02 
599	 8.75665913788599E-02 
600	 8.84858353128368E-02 
601	 8.94147903194648E-02 
602	 9.03086682145049E-02 
603	 9.11082458337839E-02 
604	 9.19806085935199E-02 
605	 9.28805520098591E-02 
606	 9.37059669100234E-02 
607	 9.45130554029596E-02 
608	 9.53271939725779E-02 
609	 0.096141946228523 
610	 9.69172045997443E-02 
611	 9.76168951326968E-02 
612	 0.098278270452302 
613	 9.89192409624263E-02 
614	 9.94218976024223E-02 
615	 9.99416111543479E-02 
616	 0.10048692305223 
617	 0.100967915872658 
618	 0.10149432012893 
619	 0.101985690480571 
620	 0.102391965757006 
621	 0.102776083236503 
622	 0.103187737517452 
623	 0.10359882211433 
624	 0.103955783564385 
625	 0.104289216223508 
626	 0.104634499218257 
627	 0.104988418477185 
628	 0.105297417480513 
629	 0.105581465914118 
630	 0.105864178647304 
631	 0.106160458166742 
632	 0.106441458761057 
633	 0.106720924299089 
634	 0.107007545811517 
635	 0.107305456124766 
636	 0.107624157503767 
637	 0.107910754444305 
638	 0.108138886405581 
639	 0.108361265352263 
640	 0.108658397205279 
641	 0.108989293709445 
642	 0.109266074428836 
643	 0.109560486504997 
644	 0.109847652154862 
645	 0.110130983611844 
646	 0.110467740838008 
647	 0.110779386592965 
648	 0.11107756709245 
649	 0.111388555394855 
650	 0.111677110139979 
651	 0.111971965386973 
652	 0.112304838955271 
653	 0.112701805284124 
654	 0.113076808727919 
655	 0.113414310239619 
656	 0.113739331694501 
657	 0.114142005546222 
658	 0.114530830593084 
659	 0.114914342020194 
660	 0.115337178810909 
661	 0.115733637371966 
662	 0.116156191393651 
663	 0.116603281154198 
664	 0.116977925370581 
665	 0.117390965644643 
666	 0.117875859737104 
667	 0.118414224702298 
668	 0.118881139985648 
669	 0.119342178847713 
670	 0.119834911166354 
671	 0.120363917197897 
672	 0.120888295081949 
673	 0.121420441381178 
674	 0.121971176714692 
675	 0.122522701173896 
676	 0.123112720204687 
677	 0.12371815093952 
678	 0.124297227371997 
679	 0.124877285595737 
680	 0.125486775685967 
681	 0.126127777447617 
682	 0.126769231838016 
683	 0.12736639713214 
684	 0.127984059358665 
685	 0.128682974997818 
686	 0.129399843381336 
687	 0.13013779317415 
688	 0.130875860833727 
689	 0.131580429875706 
690	 0.132288725941969 
691	 0.133031260150003 
692	 0.13380719815003 
693	 0.134561403640881 
694	 0.13529748390268 
695	 0.136073356781031 
696	 0.136930749017647 
697	 0.137696481007042 
698	 0.138492888805573 
699	 0.139338615355557 
700	 0.14013048009035 
701	 0.140958913315211 
702	 0.14180721323345 
703	 0.142652657365637 
704	 0.143528319495612 
705	 0.144349592280787 
706	 0.145162166521309 
707	 0.146056211671739 
708	 0.146878439619493 
709	 0.147705280318889 
710	 0.148574083626977 
711	 0.149435117212353 
712	 0.150210007065552 
713	 0.150984624890586 
714	 0.151845128552361 
715	 0.152683714855287 
716	 0.153486352593301 
717	 0.154270354812009 
718	 0.155071914244963 
719	 0.155880597785405 
720	 0.156621211439156 
721	 0.157296728713107 
722	 0.158083312917408 
723	 0.158813271526946 
724	 0.159499557101017 
725	 0.160190512861198 
726	 0.160773360971701 
727	 0.161362854552233 
728	 0.161967937027303 
729	 0.162495121245899 
730	 0.163056040383506 
731	 0.163583576549646 
732	 0.164029727533303 
733	 0.164469131748236 
734	 0.164880339575927 
735	 0.165272579478677 
736	 0.165652178325102 
737	 0.165940617438688 
738	 0.166212475816556 
739	 0.166485766998746 
740	 0.1667048624851 
741	 0.166871875160272 
742	 0.167009081247773 
743	 0.167131516442893 
744	 0.167224093188503 
745	 0.167256863883984 
746	 0.1672491210028 
747	 0.167235355714712 
748	 0.167167957756202 
749	 0.167061502328413 
750	 0.166947618912706 
751	 0.16686872703881 
752	 0.166658198314344 
753	 0.166402550244558 
754	 0.166189163937919 
755	 0.165923873738215 
756	 0.165646737143314 
757	 0.165350558275184 
758	 0.165008681922642 
759	 0.164628936890377 
760	 0.164278210689796 
761	 0.163946220547309 
762	 0.163523955573477 
763	 0.163073275819683 
764	 0.162604542747285 
765	 0.162122701111302 
766	 0.161650154139908 
767	 0.161159932414399 
768	 0.160657500776311 
769	 0.160157884708247 
770	 0.159621895939787 
771	 0.159085135892511 
772	 0.158553480734235 
773	 0.157991079474809 
774	 0.157418104358166 
775	 0.156853954795923 
776	 0.156303168580248 
777	 0.155731595101399 
778	 0.155152802926375 
779	 0.154582810942271 
780	 0.154031747402879 
781	 0.153468664455754 
782	 0.152904299181221 
783	 0.152333320589113 
784	 0.151735241765057 
785	 0.151191210469081 
786	 0.150658578715393 
787	 0.150092465889296 
788	 0.149491407123421 
789	 0.148970920554896 
790	 0.148471850998774 
791	 0.147899313397477 
792	 0.147366364710209 
793	 0.146815464421824 
794	 0.146248893924334 
795	 0.145723665569616 
796	 0.145204671955788 
797	 0.144713800495344 
798	 0.144247157317393 
799	 0.143740030736273 
800	 0.14322779270487 
801	 0.142745864125792 
802	 0.142303344994668 
803	 0.141810530564749 
804	 0.1413311140755 
805	 0.140871529041039 
806	 0.140405553754187 
807	 0.139964731629087 
808	 0.139532449572445 
809	 0.139097074976411 
810	 0.1386596615436 
811	 0.138260437279931 
812	 0.137872257024123 
813	 0.137478217680524 
814	 0.137136514877672 
815	 0.136784978950535 
816	 0.13641856669643 
817	 0.136052674689579 
818	 0.135666486674231 
819	 0.135314313771045 
820	 0.134994322437485 
821	 0.134658629403592 
822	 0.134355174936531 
823	 0.134059313773679 
824	 0.133757597798273 
825	 0.133472327231837 
826	 0.133204640382233 
827	 0.132922651857682 
828	 0.132617946561226 
829	 0.132385183511246 
830	 0.132147543770546 
831	 0.131903944522597 
832	 0.131687989041719 
833	 0.131496349067611 
834	 0.13129526002003 
835	 0.131082148972263 
836	 0.130887481576809 
837	 0.130741090126072 
838	 0.130581281509587 
839	 0.130374464928755 
840	 0.13015919831083 
841	 0.129987225686145 
842	 0.129864304009168 
843	 0.129773368216362 
844	 0.12968732287828 
845	 0.129567080904402 
846	 0.12943508722878 
847	 0.129334906739329 
848	 0.129239156832205 
849	 0.129131890676878 
850	 0.129027496864771 
851	 0.128960891954664 
852	 0.128901094137008 
853	 0.128862529551359 
854	 0.128857452879277 
855	 0.128885094992172 
856	 0.12883711601426 
857	 0.128772375991673 
858	 0.128750582312112 
859	 0.128718656191919 
860	 0.128748366619197 
861	 0.128788490328109 
862	 0.128776199386026 
863	 0.128798155877625 
864	 0.128866144241477 
865	 0.128952282037173 
866	 0.129011222890426 
867	 0.129059211023074 
868	 0.129118251225248 
869	 0.129189084024735 
870	 0.129252577255839 
871	 0.129342679740151 
872	 0.129429881871618 
873	 0.129508032463396 
874	 0.129623398428089 
875	 0.129776015907104 
876	 0.12991765192908 
877	 0.130026523847688 
878	 0.1301793095369 
879	 0.130365685726069 
880	 0.130560247563886 
881	 0.130737236822267 
882	 0.130901987755121 
883	 0.131078366426607 
884	 0.131286671626817 
885	 0.131526660008699 
886	 0.131702286168184 
887	 0.131912492207839 
888	 0.132160722148403 
889	 0.13237123948968 
890	 0.132660681949747 
891	 0.132941599324878 
892	 0.133195515641666 
893	 0.133514023089977 
894	 0.133777869653217 
895	 0.134040369161475 
896	 0.134344584726002 
897	 0.13465300101228 
898	 0.134981313181033 
899	 0.135338516092857 
900	 0.135720292699815 
901	 0.136091075050684 
902	 0.136470902893044 
903	 0.13683631063737 
904	 0.137164876808722 
905	 0.137482006811751 
906	 0.13787561762695 
907	 0.138317664048231 
908	 0.138744689778011 
909	 0.139247457396316 
910	 0.139679560990151 
911	 0.140065233488517 
912	 0.140533194376492 
913	 0.141041483490012 
914	 0.141545272914443 
915	 0.142009652257356 
916	 0.142430782899337 
917	 0.14295818199628 
918	 0.14351268865116 
919	 0.144048726190098 
920	 0.144594505528897 
921	 0.145162780639059 
922	 0.145707289146652 
923	 0.14625444122621 
924	 0.146935943273738 
925	 0.147462389925985 
926	 0.148004781518753 
927	 0.148680303002139 
928	 0.149322150933583 
929	 0.149979153519441 
930	 0.150604138934794 
931	 0.151199931799727 
932	 0.151930954729245 
933	 0.152626793782846 
934	 0.153332268283981 
935	 0.154095544722738 
936	 0.154784141137321 
937	 0.155481019210003 
938	 0.156234317226817 
939	 0.157059679907092 
940	 0.157920331353516 
941	 0.158737922487303 
942	 0.15950240609011 
943	 0.160271576633026 
944	 0.161225058146188 
945	 0.162140164253215 
946	 0.162933182884179 
947	 0.163655107499409 
948	 0.164577811784841 
949	 0.165496433195949 
950	 0.166422539275924 
951	 0.167441515949111 
952	 0.168365627239343 
953	 0.169326225033167 
954	 0.170267849955138 
955	 0.171096614780955 
956	 0.172142986246717 
957	 0.173143156023562 
958	 0.174103527866455 
959	 0.175180431279499 
960	 0.176261445194932 
961	 0.177298523706667 
962	 0.178379065544397 
963	 0.179597164483999 
964	 0.180573165630192 
965	 0.181626381237252 
966	 0.182762903739265 
967	 0.183799785573342 
968	 0.184978069177096 
969	 0.186188626321108 
970	 0.187310206022705 
971	 0.188301166058231 
972	 0.189505134356105 
973	 0.19066730454595 
974	 0.191744440175014 
975	 0.19288364123334 
976	 0.194246299899574 
977	 0.195537539087499 
978	 0.196699484043357 
979	 0.197871314003915 
980	 0.199186752103716 
981	 0.200415607141385 
982	 0.201569951365867 
983	 0.202804372339324 
984	 0.204062861624221 
985	 0.205354989152192 
986	 0.206661642249588 
987	 0.207946515190043 
988	 0.209191328985965 
989	 0.210359758455912 
990	 0.211536118642389 
991	 0.212812610309354 
992	 0.214017060521281 
993	 0.215297025728889 
994	 0.216659413655674 
995	 0.218010705069885 
996	 0.219183158380841 
997	 0.220484010323192 
998	 0.221853632705222 
999	 0.223130066641955 
1000	 0.224381857768053 
1001	 0.221107338093425 
1002	 0.222289417527652 
1003	 0.223440127941005 
1004	 0.224592769457595 
1005	 0.225788184364149 
1006	 0.226922932473951 
1007	 0.227999059525883 
1008	 0.229092992749822 
1009	 0.230223291659356 
1010	 0.231350366463593 
1011	 0.232536511305656 
1012	 0.23370480772651 
1013	 0.234855114540338 
1014	 0.236023725579616 
1015	 0.237098486947496 
1016	 0.23813028988359 
1017	 0.239216167846379 
1018	 0.24031026137154 
1019	 0.241338163847254 
1020	 0.24242078152005 
1021	 0.243544940319556 
1022	 0.244546439987924 
1023	 0.245530954895017 
1024	 0.246480876454493 
1025	 0.247427066973732 
1026	 0.2484049254857 
1027	 0.249341309075825 
1028	 0.250338459546377 
1029	 0.25134494142465 
1030	 0.252284810243043 
1031	 0.253229534524487 
1032	 0.254188048776124 
1033	 0.255101412995463 
1034	 0.255999651650711 
1035	 0.256918534855693 
1036	 0.257796924257219 
1037	 0.258676430754042 
1038	 0.259562158746911 
1039	 0.260478676909144 
1040	 0.261375696604668 
1041	 0.262212208973494 
1042	 0.2630422033728 
1043	 0.263852285012933 
1044	 0.264696441916211 
1045	 0.26555986294263 
1046	 0.266468552339226 
1047	 0.267358082799564 
1048	 0.268217367510668 
1049	 0.269052606592363 
1050	 0.269858080061751 
1051	 0.270647022699238 
1052	 0.271468208212978 
1053	 0.272268798660245 
1054	 0.273105823001488 
1055	 0.273984282659597 
1056	 0.274764475958945 
1057	 0.275553799851018 
1058	 0.276350298208964 
1059	 0.277123932248971 
1060	 0.277855162230009 
1061	 0.278604866237394 
1062	 0.279384621370042 
1063	 0.280088148309921 
1064	 0.280801280001306 
1065	 0.281560097020326 
1066	 0.282276719797134 
1067	 0.282963664460372 
1068	 0.283678653394377 
1069	 0.284397521040822 
1070	 0.285125841704581 
1071	 0.285884032760388 
1072	 0.28662558550249 
1073	 0.287381092193164 
1074	 0.288078460418168 
1075	 0.288733762407303 
1076	 0.289391210052732 
1077	 0.290043438663925 
1078	 0.290726707153034 
1079	 0.291438372275202 
1080	 0.292080388997724 
1081	 0.292695383629745 
1082	 0.293339357209306 
1083	 0.293988216673295 
1084	 0.29465947855374 
1085	 0.295304413639858 
1086	 0.295902413464343 
1087	 0.296562218215823 
1088	 0.297240994844728 
1089	 0.297911456675209 
1090	 0.298591340367771 
1091	 0.299323477104136 
1092	 0.299987045577923 
1093	 0.300634340558097 
1094	 0.301307385757527 
1095	 0.301923416720774 
1096	 0.302506532305841 
1097	 0.303128529011207 
1098	 0.303776015193202 
1099	 0.304439453089238 
1100	 0.305117585617691 
1101	 0.305853196550262 
1102	 0.306540612997504 
1103	 0.307203348307504 
1104	 0.307893166219046 
1105	 0.308580250637783 
1106	 0.30925986776154 
1107	 0.309971401433623 
1108	 0.310725098945868 
1109	 0.311445942647538 
1110	 0.31215514238832 
1111	 0.31288387463587 
1112	 0.313613082844744 
1113	 0.314333174949563 
1114	 0.315065563177248 
1115	 0.31580304934436 
1116	 0.316529179550179 
1117	 0.31726446747509 
1118	 0.318012272202976 
1119	 0.318760435671779 
1120	 0.319523592452736 
1121	 0.320269807318602 
1122	 0.320997992359962 
1123	 0.321734103943062 
1124	 0.322468945916614 
1125	 0.323182268077473 
1126	 0.323910566807187 
1127	 0.324648443990568 
1128	 0.32539303180619 
1129	 0.326148530002384 
1130	 0.326886939079654 
1131	 0.327651801949419 
1132	 0.32836553719781 
1133	 0.329024575251603 
1134	 0.329704690419897 
1135	 0.330360137951622 
1136	 0.331041251723298 
1137	 0.331755056536406 
1138	 0.332434458470891 
1139	 0.333111588529179 
1140	 0.333786394123937 
1141	 0.334464955383296 
1142	 0.335138444064249 
1143	 0.335799475177531 
1144	 0.336467560695638 
1145	 0.337107256324432 
1146	 0.337718190899175 
1147	 0.338337539201183 
1148	 0.338956088822183 
1149	 0.339565309060144 
1150	 0.340168628631909 
1151	 0.340762784679058 
1152	 0.341369497290411 
1153	 0.341946013191977 
1154	 0.342519959371861 
1155	 0.343090782550579 
1156	 0.343652703359454 
1157	 0.344200360941793 
1158	 0.344746326752111 
1159	 0.345294746716533 
1160	 0.345829859162846 
1161	 0.346356163983744 
1162	 0.346871589686299 
1163	 0.34738548392037 
1164	 0.347880108039824 
1165	 0.34835245209257 
1166	 0.348825592557145 
1167	 0.349286098816071 
1168	 0.349767617784874 
1169	 0.350253717515101 
1170	 0.350768214956026 
1171	 0.35123704957676 
1172	 0.351689425514389 
1173	 0.352145478704677 
1174	 0.352585134061687 
1175	 0.353022449979033 
1176	 0.353478716980096 
1177	 0.353904483268045 
1178	 0.354294441129523 
1179	 0.354695976070122 
1180	 0.355092654402687 
1181	 0.355486460636841 
1182	 0.355888122113782 
1183	 0.356279120511142 
1184	 0.356653369714107 
1185	 0.357012845604612 
1186	 0.357378348638938 
1187	 0.357733470249974 
1188	 0.358089659867683 
1189	 0.358457392936097 
1190	 0.358801632686443 
1191	 0.359129195751743 
1192	 0.359457511023128 
1193	 0.359766192409615 
1194	 0.360091651393841 
1195	 0.36043413803463 
1196	 0.360758196668144 
1197	 0.361094696964742 
1198	 0.361405378117695 
1199	 0.361698667926798 
1200	 0.36196251667446 
1201	 0.362245704921955 
1202	 0.362527268937123 
1203	 0.362793611265501 
1204	 0.363058173969801 
1205	 0.363319286531241 
1206	 0.363564641371487 
1207	 0.363811623872809 
1208	 0.364059987458025 
1209	 0.364309950281761 
1210	 0.364572512255759 
1211	 0.364801282187733 
1212	 0.365008449215734 
1213	 0.365226795562104 
1214	 0.365411999946634 
1215	 0.365618274846872 
1216	 0.36583757594386 
1217	 0.366097103879638 
1218	 0.366300117236549 
1219	 0.366488647236137 
1220	 0.366672634640042 
1221	 0.366822581554251 
1222	 0.36699652992855 
1223	 0.367185302157443 
1224	 0.367360075028824 
1225	 0.36752463526962 
1226	 0.367700819398895 
1227	 0.367881363376803 
1228	 0.368055982429321 
1229	 0.368241316087011 
1230	 0.368416332180408 
1231	 0.368577655694214 
1232	 0.36874044418863 
1233	 0.368901551376567 
1234	 0.369059490780939 
1235	 0.369220958876227 
1236	 0.369393113287141 
1237	 0.369538106621413 
1238	 0.369668824677255 
1239	 0.369806904899721 
1240	 0.369931026737077 
1241	 0.370058630746129 
1242	 0.370196845867449 
1243	 0.370328303379986 
1244	 0.370451719071543 
1245	 0.370571012880533 
1246	 0.370695609290017 
1247	 0.37080877625344 
1248	 0.370900127481163 
1249	 0.371001795746023 
1250	 0.371116168519329 
1251	 0.371233203441055 
1252	 0.371355753925909 
1253	 0.371506747629121 
1254	 0.371614175468234 
1255	 0.37170018762599 
1256	 0.371793674588448 
1257	 0.371861487576486 
1258	 0.371954717925942 
1259	 0.372070002081598 
1260	 0.372170730958513 
1261	 0.372275008534598 
1262	 0.372369038996626 
1263	 0.372437922185284 
1264	 0.372534005335673 
1265	 0.372652936612224 
1266	 0.372753731984275 
1267	 0.372864739139876 
1268	 0.37296230351123 
1269	 0.37306041170928 
1270	 0.373144684527224 
1271	 0.373225863196415 
1272	 0.373308389523619 
1273	 0.373389077506559 
1274	 0.373443243060002 
1275	 0.373532296241622 
1276	 0.373648188447731 
1277	 0.3737522970053 
1278	 0.37385772067343 
1279	 0.373974746017791 
1280	 0.374105335704958 
1281	 0.374217185711706 
1282	 0.374333479929151 
1283	 0.374441209600931 
1284	 0.374527082845765 
1285	 0.374620271210939 
1286	 0.374709909304232 
1287	 0.374806093903669 
1288	 0.374889386715271 
1289	 0.374966873676434 
1290	 0.375029270247099 
1291	 0.375088188650627 
1292	 0.375127952430444 
1293	 0.375138973272784 
1294	 0.37516796425082 
1295	 0.375198233782022 
1296	 0.375218756124946 
1297	 0.375253507216161 
1298	 0.375255140847348 
1299	 0.375226496096638 
1300	 0.375203613812525 
1301	 0.375162889545462 
1302	 0.375128927992953 
1303	 0.375109359010219 
1304	 0.37506337788216 
1305	 0.37501068137267 
1306	 0.374971136747897 
1307	 0.374933668173579 
1308	 0.374890338338557 
1309	 0.374840394247433 
1310	 0.374792705692957 
1311	 0.374736182575226 
1312	 0.374664477298899 
1313	 0.37460532597006 
1314	 0.37454779115808 
1315	 0.374492788650149 
1316	 0.374437606288475 
1317	 0.374386735493428 
1318	 0.374328502208927 
1319	 0.374297429341664 
1320	 0.374273977523098 
1321	 0.374270824625417 
1322	 0.3743023916829 
1323	 0.374330732321829 
1324	 0.374330697562048 
1325	 0.374320160237305 
1326	 0.374334481298663 
1327	 0.374344689279909 
1328	 0.374353375672242 
1329	 0.374399560037989 
1330	 0.374445031416674 
1331	 0.374469872053341 
1332	 0.374537383903016 
1333	 0.3746579648274 
1334	 0.374738738123642 
1335	 0.374809903160958 
1336	 0.374892367754066 
1337	 0.374960313960117 
1338	 0.37505517649642 
1339	 0.375164254602085 
1340	 0.375286881174626 
1341	 0.375441078887164 
1342	 0.37556887000736 
1343	 0.375698401899006 
1344	 0.375828260110418 
1345	 0.375920891438432 
1346	 0.376008161131448 
1347	 0.376093400717262 
1348	 0.376193111362159 
1349	 0.376315559659071 
1350	 0.376432848058375 
1351	 0.376552761201288 
1352	 0.376679630874476 
1353	 0.376806861202044 
1354	 0.376926634143332 
1355	 0.377065287936081 
1356	 0.377239046973889 
1357	 0.377366854282683 
1358	 0.377479156398768 
1359	 0.377595793497522 
1360	 0.377682478545056 
1361	 0.377782137754739 
1362	 0.37790055683175 
1363	 0.378003418405511 
1364	 0.378100242085354 
1365	 0.378193246914859 
1366	 0.378282028976476 
1367	 0.378361216811688 
1368	 0.37845510518139 
1369	 0.378526374844678 
1370	 0.378590499221415 
1371	 0.37866374406179 
1372	 0.378714238031116 
1373	 0.378749238405875 
1374	 0.378781228504168 
1375	 0.378802929497284 
1376	 0.378825935037526 
1377	 0.378852008346941 
1378	 0.378856660389959 
1379	 0.378854629810963 
1380	 0.378841870956076 
1381	 0.378808767235112 
1382	 0.378772756031235 
1383	 0.378742220006525 
1384	 0.378684364510475 
1385	 0.378598576202034 
1386	 0.378522808838919 
1387	 0.378444888397142 
1388	 0.378349859446039 
1389	 0.378264370229379 
1390	 0.378143119538509 
1391	 0.377996909423566 
1392	 0.377847399716009 
1393	 0.377681980039251 
1394	 0.377516279168456 
1395	 0.377329829956908 
1396	 0.377124042983092 
1397	 0.376908585116228 
1398	 0.37667072302877 
1399	 0.376434411610813 
1400	 0.376187887596161 
1401	 0.37594606796255 
1402	 0.375707757182616 
1403	 0.375457034900747 
1404	 0.375194709582214 
1405	 0.374941205269975 
1406	 0.374682747532098 
1407	 0.374420647499517 
1408	 0.374162282336208 
1409	 0.373907737291664 
1410	 0.373631979903886 
1411	 0.373391928810893 
1412	 0.373164872657558 
1413	 0.372959528343472 
1414	 0.372794806499418 
1415	 0.372633886531527 
1416	 0.37250688781389 
1417	 0.372408680826997 
1418	 0.372317046070091 
1419	 0.372236128189316 
1420	 0.372153938981498 
1421	 0.372079222760577 
1422	 0.37198962383544 
1423	 0.371891659101173 
1424	 0.371802521237242 
1425	 0.371703778386355 
1426	 0.371625061511925 
1427	 0.371557851168316 
1428	 0.37150000857716 
1429	 0.371463008226004 
1430	 0.371414777706083 
1431	 0.371353027385183 
1432	 0.37131862131868 
1433	 0.371295832645914 
1434	 0.371272664810601 
1435	 0.371278976176145 
1436	 0.371270258902673 
1437	 0.37124864432644 
1438	 0.371231948743122 
1439	 0.371210059437878 
1440	 0.371194044220174 
1441	 0.371210529371456 
1442	 0.371221503822121 
1443	 0.371231337239848 
1444	 0.371250841522173 
1445	 0.371252148115271 
1446	 0.371249318933157 
1447	 0.371253020511832 
1448	 0.371255437452056 
1449	 0.371256881486621 
1450	 0.371253535166925 
1451	 0.371268378235296 
1452	 0.37130363610318 
1453	 0.371325768472586 
1454	 0.371353543991519 
1455	 0.371376135302604 
1456	 0.371382123127047 
1457	 0.371402804500943 
1458	 0.371431672842775 
1459	 0.371462103292621 
1460	 0.371499359731748 
1461	 0.371541418354549 
1462	 0.371579734531503 
1463	 0.371630119746227 
1464	 0.371691098469494 
1465	 0.371754193771984 
1466	 0.371838870703904 
1467	 0.371904316660327 
1468	 0.371947452751316 
1469	 0.372014501429803 
1470	 0.37208598022599 
1471	 0.372159056224263 
1472	 0.37223846853175 
1473	 0.372335171454393 
1474	 0.372431220617433 
1475	 0.37251157846686 
1476	 0.372613437456358 
1477	 0.372717993254567 
1478	 0.372791101364719 
1479	 0.372877980790397 
1480	 0.372971199325157 
1481	 0.373048882315612 
1482	 0.373139850025013 
1483	 0.373249615797451 
1484	 0.373336111769212 
1485	 0.373405187900467 
1486	 0.373497345980143 
1487	 0.373587390835268 
1488	 0.373685332634952 
1489	 0.373794548304602 
1490	 0.373918660461325 
1491	 0.374048958582179 
1492	 0.374189407416996 
1493	 0.37436339501155 
1494	 0.374506743300464 
1495	 0.374642452228002 
1496	 0.374765827527351 
1497	 0.374871593102343 
1498	 0.374984364919062 
1499	 0.375094675920994 
1500	 0.375203290405809 
1501	 0.375317344533801 
1502	 0.375410326059374 
1503	 0.375495005879925 
1504	 0.375561776870285 
1505	 0.375628752993464 
1506	 0.375701534047054 
1507	 0.375768614923699 
1508	 0.375850593118521 
1509	 0.375931138166669 
1510	 0.376009534935144 
1511	 0.376092366724258 
1512	 0.376173243275661 
1513	 0.376247126448927 
1514	 0.376319033331892 
1515	 0.3763946098284 
1516	 0.376454156461499 
1517	 0.37651444226092 
1518	 0.376567623212383 
1519	 0.376628608384185 
1520	 0.376687906473958 
1521	 0.37674769702922 
1522	 0.376810068575343 
1523	 0.376862387293384 
1524	 0.376912207023549 
1525	 0.376967861285555 
1526	 0.377020745773938 
1527	 0.377074982173769 
1528	 0.377132905598184 
1529	 0.377185500941847 
1530	 0.377227566017894 
1531	 0.377287660150626 
1532	 0.377350657912459 
1533	 0.377423617162809 
1534	 0.377511833546273 
1535	 0.37759591851497 
1536	 0.377701119178885 
1537	 0.377778707212744 
1538	 0.377846031004284 
1539	 0.377905982170086 
1540	 0.377935827028332 
1541	 0.377979027364584 
1542	 0.378022100892423 
1543	 0.378074013734291 
1544	 0.378142462987295 
1545	 0.378195138402602 
1546	 0.378248051856579 
1547	 0.378287553912529 
1548	 0.378328706806364 
1549	 0.378369478386441 
1550	 0.378415753047023 
1551	 0.378481720229979 
1552	 0.37853930638494 
1553	 0.378594177271355 
1554	 0.378652942049883 
1555	 0.37870731785172 
1556	 0.378759455534476 
1557	 0.378803784500273 
1558	 0.378855745560664 
1559	 0.378892468071377 
1560	 0.378936207650481 
1561	 0.378986171182668 
1562	 0.379026473543111 
1563	 0.379056890337301 
1564	 0.379102729555277 
1565	 0.379149560459862 
1566	 0.379194567412011 
1567	 0.37924879179087 
1568	 0.37929975206467 
1569	 0.379349008510144 
1570	 0.379390890755323 
1571	 0.379433645052882 
1572	 0.379473582622764 
1573	 0.37949659156179 
1574	 0.379536524260127 
1575	 0.379584692761864 
1576	 0.379637758394458 
1577	 0.379703684135598 
1578	 0.379756184902906 
1579	 0.379813377606018 
1580	 0.379857014146481 
1581	 0.379883823457887 
1582	 0.379918620322616 
1583	 0.379939929503486 
1584	 0.379985015835076 
1585	 0.380045191941616 
1586	 0.380102080583075 
1587	 0.380181598598178 
1588	 0.380238386271677 
1589	 0.380277195904822 
1590	 0.380325550136805 
1591	 0.380377595076511 
1592	 0.380418484146684 
1593	 0.380445429982928 
1594	 0.380490644921344 
1595	 0.380540197793651 
1596	 0.38058218519246 
1597	 0.380641136686168 
1598	 0.380687277304041 
1599	 0.380716957056145 
1600	 0.38074535487815 
1601	 0.3807782555802 
1602	 0.380797315015373 
1603	 0.380789595294953 
1604	 0.380802834734486 
1605	 0.380819028609307 
1606	 0.380839019738166 
1607	 0.380877516395644 
1608	 0.380905270278855 
1609	 0.380932831331711 
1610	 0.380978177824034 
1611	 0.381039816673696 
1612	 0.381094715656208 
1613	 0.381124824202183 
1614	 0.381154336717205 
1615	 0.38117075637082 
1616	 0.381186741846826 
1617	 0.381227774328974 
1618	 0.381263224144682 
1619	 0.38128113768321 
1620	 0.381294712912683 
1621	 0.381313335602786 
1622	 0.381322707341674 
1623	 0.381341618488731 
1624	 0.38137282330695 
1625	 0.381392812555322 
1626	 0.381399835529057 
1627	 0.381429977103884 
1628	 0.381459764270209 
1629	 0.381519782708686 
1630	 0.381613461320204 
1631	 0.38168069757649 
1632	 0.381759470996641 
1633	 0.381816717370808 
1634	 0.381853743188222 
1635	 0.381893612995925 
1636	 0.381939261207173 
1637	 0.381957488531274 
1638	 0.3819455732441 
1639	 0.381967960114728 
1640	 0.381984580444651 
1641	 0.382014534755145 
1642	 0.382076527199024 
1643	 0.382112957463864 
1644	 0.382139154286573 
1645	 0.382166315686868 
1646	 0.382199937026171 
1647	 0.38220704906018 
1648	 0.382179378566558 
1649	 0.382200425795014 
1650	 0.382214425394749 
1651	 0.382266395163634 
1652	 0.382393679385041 
1653	 0.382442735805213 
1654	 0.382470733161718 
1655	 0.382496238666782 
1656	 0.382473701850424 
1657	 0.382494310465716 
1658	 0.382547270943762 
1659	 0.382569472947258 
1660	 0.382591314274118 
1661	 0.382602567658406 
1662	 0.382586806138863 
1663	 0.382593666265484 
1664	 0.382609965737083 
1665	 0.382621619571935 
1666	 0.38263466457 
1667	 0.382654108306086 
1668	 0.382669415017112 
1669	 0.382698897271889 
1670	 0.382752750753382 
1671	 0.382780773839481 
1672	 0.382790972848311 
1673	 0.382828718927367 
1674	 0.382864834483361 
1675	 0.38291088505722 
1676	 0.382993970715658 
1677	 0.383043481950252 
1678	 0.383081292662597 
1679	 0.383107496523194 
1680	 0.383118158662838 
1681	 0.383129350098769 
1682	 0.383115717321154 
1683	 0.383132106045881 
1684	 0.383161353523688 
1685	 0.383191172823002 
1686	 0.383245730139116 
1687	 0.383276616390463 
1688	 0.383298391210621 
1689	 0.383316011597776 
1690	 0.383314667339765 
1691	 0.383333408671614 
1692	 0.383355033574515 
1693	 0.383380964076816 
1694	 0.383433080016841 
1695	 0.38345224916168 
1696	 0.383450054646094 
1697	 0.383463453900589 
1698	 0.383469463998612 
1699	 0.38347429421035 
1700	 0.38348267022244 
1701	 0.383497895456111 
1702	 0.383504042386686 
1703	 0.383527194050992 
1704	 0.383569597747262 
1705	 0.383611545877506 
1706	 0.38366659308688 
1707	 0.3836979450064 
1708	 0.383715816997549 
1709	 0.383755455959849 
1710	 0.383803720228732 
1711	 0.383822072026812 
1712	 0.383850340199327 
1713	 0.383857861103129 
1714	 0.383815177250985 
1715	 0.383804599923599 
1716	 0.383805369057299 
1717	 0.383810327561794 
1718	 0.383830104204376 
1719	 0.383827598249382 
1720	 0.383827361120808 
1721	 0.383815367044144 
1722	 0.38376747276603 
1723	 0.383761003521732 
1724	 0.383769463746708 
1725	 0.383784113678766 
1726	 0.383829807421529 
1727	 0.383841271856797 
1728	 0.383846320007688 
1729	 0.38383851326141 
1730	 0.383818207668163 
1731	 0.383779820728015 
1732	 0.383716836868683 
1733	 0.383680022345368 
1734	 0.383633207608719 
1735	 0.383599769361398 
1736	 0.383602242205929 
1737	 0.383566167234198 
1738	 0.383509059496679 
1739	 0.383452019632011 
1740	 0.383378696931862 
1741	 0.383313595209802 
1742	 0.38324428582691 
1743	 0.383188733724914 
1744	 0.383131266600527 
1745	 0.38311164140086 
1746	 0.383118758043248 
1747	 0.383144621180755 
1748	 0.383151422426931 
1749	 0.383146177046651 
1750	 0.383116034772793 
1751	 0.383058392973324 
1752	 0.382989716609738 
1753	 0.382913933649381 
1754	 0.38283765454427 
1755	 0.38274191776473 
1756	 0.382681252228891 
1757	 0.382662610443823 
1758	 0.382620191676615 
1759	 0.382607909809874 
1760	 0.382614069763333 
1761	 0.382595205723171 
1762	 0.382591043120287 
1763	 0.382610182580118 
1764	 0.382618919867212 
1765	 0.38259184089633 
1766	 0.3825773883222 
1767	 0.382584274158377 
1768	 0.38256213256334 
1769	 0.382537433692518 
1770	 0.382510767973592 
1771	 0.382470510625726 
1772	 0.382451380118075 
1773	 0.382458750134028 
1774	 0.38249253711925 
1775	 0.382504987504852 
1776	 0.382522515758843 
1777	 0.382580340192109 
1778	 0.382579082925292 
1779	 0.382521973576281 
1780	 0.38243535391735 
1781	 0.382327202927206 
1782	 0.382253126341411 
1783	 0.382287661307714 
1784	 0.382302657976818 
1785	 0.382333252403232 
1786	 0.3823442214847 
1787	 0.38235571889691 
1788	 0.38233581377503 
1789	 0.382266933987989 
1790	 0.382249025899037 
1791	 0.382245187353215 
1792	 0.382238614297456 
1793	 0.382269903639514 
1794	 0.382284640169211 
1795	 0.382253085915506 
1796	 0.382280170448569 
1797	 0.382345133796899 
1798	 0.38241087579755 
1799	 0.382533935217282 
1800	 0.382577470536118 
1801	 0.379470278214233 
1802	 0.379478413462324 
1803	 0.379517999371351 
1804	 0.379580099199476 
1805	 0.379596320415087 
1806	 0.379627842346292 
1807	 0.379669195704031 
1808	 0.379686502637682 
1809	 0.379673929146794 
1810	 0.379681521666668 
1811	 0.379687662312117 
1812	 0.379694049967913 
1813	 0.37971308615296 
1814	 0.379712021263121 
1815	 0.379672581672993 
1816	 0.379654982286723 
1817	 0.379643794906406 
1818	 0.379617510711002 
1819	 0.379625147099397 
1820	 0.37966751243622 
1821	 0.37968169996252 
1822	 0.379710382105679 
1823	 0.379747954907558 
1824	 0.379735095343524 
1825	 0.379725139819014 
1826	 0.379730049232695 
1827	 0.379728881103915 
1828	 0.379736255348295 
1829	 0.379777393891072 
1830	 0.379789340488006 
1831	 0.379798701794188 
1832	 0.379773213755598 
1833	 0.37973364388935 
1834	 0.379726628826801 
1835	 0.379706250761959 
1836	 0.37968216681064 
1837	 0.379722600563242 
1838	 0.379730804383689 
1839	 0.379735024053968 
1840	 0.379749096977527 
1841	 0.379771089972054 
1842	 0.379716782998337 
1843	 0.379640264253433 
1844	 0.379542926152759 
1845	 0.379456961753763 
1846	 0.37942743208178 
1847	 0.379404352539244 
1848	 0.379391337374893 
1849	 0.379399965616806 
1850	 0.379384525127512 
1851	 0.379343626387774 
1852	 0.37932125856348 
1853	 0.379302194540212 
1854	 0.379238543465867 
1855	 0.379203466997599 
1856	 0.379168248429856 
1857	 0.379114123886705 
1858	 0.379084666781824 
1859	 0.379063917247316 
1860	 0.379004099264229 
1861	 0.378931446311147 
1862	 0.378829292434884 
1863	 0.378667731880487 
1864	 0.378461407074273 
1865	 0.378260750447538 
1866	 0.378042477865123 
1867	 0.377842954877639 
1868	 0.377628953072772 
1869	 0.377375559880629 
1870	 0.377134116257213 
1871	 0.376887834320347 
1872	 0.376629107797225 
1873	 0.376400410006239 
1874	 0.376174436720053 
1875	 0.375922283094761 
1876	 0.375643584684684 
1877	 0.375302070437316 
1878	 0.374919358783212 
1879	 0.374480338443714 
1880	 0.374002823024823 
1881	 0.373508067848362 
1882	 0.372934409231189 
1883	 0.372301220802411 
1884	 0.371601877496363 
1885	 0.370857664669887 
1886	 0.370076109699197 
1887	 0.369248662408447 
1888	 0.368398569257552 
1889	 0.367532113659431 
1890	 0.366603495972429 
1891	 0.365644818609901 
1892	 0.364652460189913 
1893	 0.363636015978461 
1894	 0.362574145825141 
1895	 0.361498479042709 
1896	 0.360392771208091 
1897	 0.359241161350588 
1898	 0.35808004132863 
1899	 0.356911790869541 
1900	 0.355740482739807 
1901	 0.354567031030019 
1902	 0.353409719564998 
1903	 0.352237331399535 
1904	 0.351106826396372 
1905	 0.349984801381104 
1906	 0.348932686639675 
1907	 0.347894685500689 
1908	 0.346900295339991 
1909	 0.345980729298082 
1910	 0.345093180273547 
1911	 0.344263799272311 
1912	 0.343491137361868 
1913	 0.342734925542723 
1914	 0.341990293367747 
1915	 0.341310448427754 
1916	 0.34067427433925 
1917	 0.340070002850499 
1918	 0.339529636699229 
1919	 0.339030597587735 
1920	 0.33855575577989 
1921	 0.338130890259292 
1922	 0.337733975183706 
1923	 0.337358152726323 
1924	 0.337015400414454 
1925	 0.336688327499132 
1926	 0.336421725461227 
1927	 0.336197100136373 
1928	 0.336005735515241 
1929	 0.335876027272955 
1930	 0.335759400051529 
1931	 0.335650348945931 
1932	 0.335604191948599 
1933	 0.335579068483593 
1934	 0.33557871655458 
1935	 0.335617294569176 
1936	 0.335713945553466 
1937	 0.335795364558234 
1938	 0.335897327903537 
1939	 0.336011202442207 
1940	 0.33613163360606 
1941	 0.336255291064446 
1942	 0.336415347322624 
1943	 0.336600236887888 
1944	 0.336783976368495 
1945	 0.33695695390659 
1946	 0.337147018419809 
1947	 0.337337855253595 
1948	 0.337542957288931 
1949	 0.337767828477412 
1950	 0.337998716588566 
1951	 0.338246282090268 
1952	 0.338475154112326 
1953	 0.338724383556241 
1954	 0.338960942729192 
1955	 0.339185740623077 
1956	 0.339440450072723 
1957	 0.339705443028863 
1958	 0.339988404174446 
1959	 0.340259075012978 
1960	 0.340542129247177 
1961	 0.340823986579348 
1962	 0.341089139611837 
1963	 0.341375463626393 
1964	 0.341687041756646 
1965	 0.341979300947119 
1966	 0.342267204755634 
1967	 0.342587187384437 
1968	 0.342941192400752 
1969	 0.343334862948121 
1970	 0.343706500138265 
1971	 0.344124129528534 
1972	 0.344498251407118 
1973	 0.34482561694003 
1974	 0.34517670663356 
1975	 0.345529364701814 
1976	 0.345882489219201 
1977	 0.346251754308957 
1978	 0.346619214110202 
1979	 0.34698112743594 
1980	 0.34732501377593 
1981	 0.3476864136566 
1982	 0.348033978791039 
1983	 0.348418714227311 
1984	 0.348836866067395 
1985	 0.349243379717967 
1986	 0.349681399237477 
1987	 0.350080627408177 
1988	 0.350461216830524 
1989	 0.350832553233655 
1990	 0.351207690987479 
1991	 0.35157483201836 
1992	 0.351926180095374 
1993	 0.352270295009176 
1994	 0.352622758670102 
1995	 0.352945278094995 
1996	 0.353300879861578 
1997	 0.353691199347175 
1998	 0.354062290869272 
1999	 0.354432828216588 
2000	 0.354806682715106 
2001	 0.355163148268488 
2002	 0.355552101447427 
2003	 0.355963549709727 
2004	 0.3563407877622 
2005	 0.356700244659162 
2006	 0.357038213846105 
2007	 0.357394093747684 
2008	 0.357733909194629 
2009	 0.358075357730559 
2010	 0.358433503870878 
2011	 0.358783506848502 
2012	 0.359099250097609 
2013	 0.359447566963435 
2014	 0.359810625262656 
2015	 0.360196908281791 
2016	 0.360579458406466 
2017	 0.360966712941827 
2018	 0.361347483552214 
2019	 0.361729772590581 
2020	 0.362102289212939 
2021	 0.362479892777634 
2022	 0.362832759134426 
2023	 0.363170297593965 
2024	 0.363502832528298 
2025	 0.363817211291152 
2026	 0.364126931225851 
2027	 0.364424195369685 
2028	 0.364725587177169 
2029	 0.365031885663498 
2030	 0.3653376534789 
2031	 0.365636243605245 
2032	 0.36593501192931 
2033	 0.366239949224043 
2034	 0.366541127853833 
2035	 0.366837747261555 
2036	 0.367154887983802 
2037	 0.367442969790151 
2038	 0.367713086448605 
2039	 0.36797308311642 
2040	 0.368214993997002 
2041	 0.368452172305433 
2042	 0.36870084295799 
2043	 0.368929750505932 
2044	 0.369159745658914 
2045	 0.369391819919254 
2046	 0.369620221984915 
2047	 0.369843847332783 
2048	 0.370057093294723 
2049	 0.37026506776873 
2050	 0.370475673660034 
2051	 0.370667331711287 
2052	 0.370871458384085 
2053	 0.371092052597319 
2054	 0.371303310913361 
2055	 0.371519605588306 
2056	 0.371722748273757 
2057	 0.37192110945508 
2058	 0.372104457114167 
2059	 0.372313534443174 
2060	 0.372524743009746 
2061	 0.37274081480765 
2062	 0.372985748212272 
2063	 0.373201095922068 
2064	 0.373414224587406 
2065	 0.373604855993814 
2066	 0.373758169098119 
2067	 0.373936591672575 
2068	 0.374120921191275 
2069	 0.374280644699547 
2070	 0.374469090591873 
2071	 0.37468282177686 
2072	 0.374883925360944 
2073	 0.375082107842978 
2074	 0.37528867222659 
2075	 0.375505422591926 
2076	 0.375711414402639 
2077	 0.375927377480223 
2078	 0.376122134579758 
2079	 0.376297378521971 
2080	 0.376480617513209 
2081	 0.376644991685439 
2082	 0.376824038710567 
2083	 0.377014797734874 
2084	 0.377206495881868 
2085	 0.37740111702939 
2086	 0.37760513110617 
2087	 0.377799301471745 
2088	 0.377997284559018 
2089	 0.378184640476977 
2090	 0.378369860135438 
2091	 0.378537072126715 
2092	 0.378678430034376 
2093	 0.378839997302569 
2094	 0.378983543373997 
2095	 0.379157494828859 
2096	 0.379378187415431 
2097	 0.379567890045128 
2098	 0.379739529990139 
2099	 0.379933227119433 
2100	 0.380127782353169 
2101	 0.380303917915557 
2102	 0.380515592820346 
2103	 0.380766760792465 
2104	 0.380984470218604 
2105	 0.381195842960047 
2106	 0.381417454904514 
2107	 0.381618622521162 
2108	 0.381853577219314 
2109	 0.382120488387563 
2110	 0.382374483880423 
2111	 0.382651244148695 
2112	 0.382906761955245 
2113	 0.383134809716039 
2114	 0.383380256220506 
2115	 0.383639052082175 
2116	 0.38390258129609 
2117	 0.384158946443792 
2118	 0.384451131417475 
2119	 0.38467940531058 
2120	 0.384865031070284 
2121	 0.3850636423806 
2122	 0.385238611320073 
2123	 0.385417486544685 
2124	 0.385616750556077 
2125	 0.38577528697851 
2126	 0.385882993301752 
2127	 0.386026391505173 
2128	 0.386164396646137 
2129	 0.386306415920796 
2130	 0.386486332502111 
2131	 0.386652909143169 
2132	 0.386771138701632 
2133	 0.386863151245897 
2134	 0.386935298197838 
2135	 0.386967501688833 
2136	 0.386997727071602 
2137	 0.387014763083886 
2138	 0.387019087023778 
2139	 0.387007686600084 
2140	 0.386981040758265 
2141	 0.386929064645004 
2142	 0.386884921775428 
2143	 0.386843151571828 
2144	 0.386776353582115 
2145	 0.386718713622242 
2146	 0.386623436887914 
2147	 0.386474610907766 
2148	 0.386336436076858 
2149	 0.386182627224707 
2150	 0.38600927191373 
2151	 0.385832349820045 
2152	 0.385660164668058 
2153	 0.385453154773923 
2154	 0.385207303706315 
2155	 0.384988191607894 
2156	 0.384751230463869 
2157	 0.384534840239838 
2158	 0.384341223504754 
2159	 0.384142857971989 
2160	 0.383966145396013 
2161	 0.383754429629208 
2162	 0.383544219123142 
2163	 0.383306981865559 
2164	 0.383024531907604 
2165	 0.382748986640705 
2166	 0.382461903889104 
2167	 0.382148269034229 
2168	 0.381868295319249 
2169	 0.38159324826407 
2170	 0.38132473114749 
2171	 0.381077183569881 
2172	 0.380818344784457 
2173	 0.380549071705458 
2174	 0.38029907137122 
2175	 0.380061281928138 
2176	 0.379822066173085 
2177	 0.379613111759406 
2178	 0.379362968379143 
2179	 0.379092437360601 
2180	 0.378816041432605 
2181	 0.378488129613034 
2182	 0.378200455467763 
2183	 0.377930119597768 
2184	 0.377663272317912 
2185	 0.377412283769703 
2186	 0.3771823984703 
2187	 0.376959650046417 
2188	 0.37674906458458 
2189	 0.376537809342943 
2190	 0.376342055659789 
2191	 0.376142402788088 
2192	 0.375937289826938 
2193	 0.375739775150051 
2194	 0.37556182189674 
2195	 0.375363963679437 
2196	 0.375131546922486 
2197	 0.374946612380648 
2198	 0.374781064556024 
2199	 0.374614249980355 
2200	 0.374467606570929 
2201	 0.374336325877181 
2202	 0.374207516455625 
2203	 0.374083464080813 
2204	 0.373981528796602 
2205	 0.373908790892886 
2206	 0.373848891441612 
2207	 0.37379972877613 
2208	 0.373756553567661 
2209	 0.373739563650569 
2210	 0.373720436571543 
2211	 0.373682938040347 
2212	 0.373692295899977 
2213	 0.373747092545844 
2214	 0.373781302710446 
2215	 0.373857450772668 
2216	 0.373881697648613 
2217	 0.373846557596985 
2218	 0.373854301574444 
2219	 0.373864392158039 
2220	 0.373872360605882 
2221	 0.373909787204274 
2222	 0.373940030860838 
2223	 0.373938340164486 
2224	 0.373902274622738 
2225	 0.373901273246492 
2226	 0.373913154603958 
2227	 0.373901866876212 
2228	 0.37390808066427 
2229	 0.373866210569999 
2230	 0.373764940511979 
2231	 0.373714472345067 
2232	 0.373661287956684 
2233	 0.37362246301526 
2234	 0.373616256975003 
2235	 0.373594171551518 
2236	 0.373568343607038 
2237	 0.373537469194137 
2238	 0.373511750271007 
2239	 0.373475138321975 
2240	 0.37341861637454 
2241	 0.373377507617355 
2242	 0.373338722900266 
2243	 0.373302971523143 
2244	 0.37328393590479 
2245	 0.373233615413033 
2246	 0.373214665779485 
2247	 0.373252752366601 
2248	 0.373278480164617 
2249	 0.373328724046658 
2250	 0.373385967745029 
2251	 0.373455393002722 
2252	 0.373508216823142 
2253	 0.37358850425408 
2254	 0.373625573153018 
2255	 0.373636096220754 
2256	 0.37363101142465 
2257	 0.373618442754412 
2258	 0.373570437204406 
2259	 0.373437087368524 
2260	 0.373393830585363 
2261	 0.373355754607611 
2262	 0.373351410064228 
2263	 0.373430547043104 
2264	 0.373488961829145 
2265	 0.373566337217561 
2266	 0.373613186566594 
2267	 0.373672628444836 
2268	 0.373691744565747 
2269	 0.373659220478415 
2270	 0.373617622657985 
2271	 0.373597139881946 
2272	 0.373608442539709 
2273	 0.373640694378879 
2274	 0.373693849733083 
2275	 0.373765150127349 
2276	 0.373868170499593 
2277	 0.37392174980932 
2278	 0.37399847123249 
2279	 0.374019604029482 
2280	 0.37394661968573 
2281	 0.37396910149585 
2282	 0.374018860932717 
2283	 0.374066455984602 
2284	 0.374163946298794 
2285	 0.374233367520075 
2286	 0.374286034549126 
2287	 0.374335157609936 
2288	 0.374396520854857 
2289	 0.374427637889411 
2290	 0.374415397198705 
2291	 0.374433172949789 
2292	 0.374424131647996 
2293	 0.374469303123433 
2294	 0.374584559911183 
2295	 0.374669854232572 
2296	 0.374774927766626 
2297	 0.374855432275083 
2298	 0.374962270894224 
2299	 0.375004263857294 
2300	 0.375010112422702 
2301	 0.375061939461055 
2302	 0.37509330306114 
2303	 0.375060787102213 
2304	 0.375066269707975 
2305	 0.375081838673847 
2306	 0.375102860238488 
2307	 0.375128314268713 
2308	 0.375145695522121 
2309	 0.375182012177893 
2310	 0.375186096928092 
2311	 0.375144953998529 
2312	 0.37513077989831 
2313	 0.375120717684342 
2314	 0.375120871691708 
2315	 0.375131155025177 
2316	 0.37515176669292 
2317	 0.375182239468816 
2318	 0.375207580830931 
2319	 0.375238481069552 
2320	 0.375267117470882 
2321	 0.37530710663621 
2322	 0.375331926997135 
2323	 0.37537133852343 
2324	 0.375364683118853 
2325	 0.375284661270632 
2326	 0.37525571150459 
2327	 0.375221580399204 
2328	 0.375199292648545 
2329	 0.375232918959796 
2330	 0.375342028975051 
2331	 0.375375147706808 
2332	 0.375400315480269 
2333	 0.37543306222096 
2334	 0.3754148114088 
2335	 0.37544484160525 
2336	 0.375543449679384 
2337	 0.375643918019546 
2338	 0.37574070298084 
2339	 0.375846107054387 
2340	 0.375832327331187 
2341	 0.375733227218811 
2342	 0.375649355258292 
2343	 0.375529193452927 
2344	 0.375447743435807 
2345	 0.375397631560217 
2346	 0.375403265177706 
2347	 0.375380462221468 
2348	 0.375391169428988 
2349	 0.375339906604322 
2350	 0.375258000678032 
2351	 0.375160509103996 
2352	 0.375029112148616 
2353	 0.374890497281433 
2354	 0.374736305422773 
2355	 0.374576658956833 
2356	 0.3743735143742 
2357	 0.374224360072026 
2358	 0.374083885269677 
2359	 0.373981509838641 
2360	 0.373913964295344 
2361	 0.373859151338286 
2362	 0.373916399586119 
2363	 0.373812063440163 
2364	 0.373620819734491 
2365	 0.37346298218451 
2366	 0.373199714871898 
2367	 0.372987133476275 
2368	 0.372846922286594 
2369	 0.372677613073019 
2370	 0.372492478861939 
2371	 0.372291121517027 
2372	 0.372048734514962 
2373	 0.371747904852173 
2374	 0.371421257065296 
2375	 0.371094127273035 
2376	 0.370874985957032 
2377	 0.370719751881942 
2378	 0.370564271728853 
2379	 0.370423144392385 
2380	 0.370199764361785 
2381	 0.369969583489582 
2382	 0.369730267244422 
2383	 0.369478390779155 
2384	 0.369342753080581 
2385	 0.369232194070238 
2386	 0.36906799659037 
2387	 0.368924913724116 
2388	 0.368700993397589 
2389	 0.368416799011179 
2390	 0.368246724740514 
2391	 0.367994343239749 
2392	 0.367725082821443 
2393	 0.367510821946259 
2394	 0.367144035954345 
2395	 0.366871113177003 
2396	 0.366637760615073 
2397	 0.366284130729057 
2398	 0.366071709598222 
2399	 0.365932798024479 
2400	 0.365731739682904 
2401	 0.365543730909875 
2402	 0.365335641948799 
2403	 0.365001887295439 
2404	 0.364655535334661 
2405	 0.364390195109591 
2406	 0.36410098207862 
2407	 0.363802767046589 
2408	 0.363544697925056 
2409	 0.363265981846064 
2410	 0.362978261207083 
2411	 0.362720844585113 
2412	 0.362406237816135 
2413	 0.362040466231118 
2414	 0.361792638972461 
2415	 0.361602247030731 
2416	 0.361321842949844 
2417	 0.361028091070872 
2418	 0.360793396572866 
2419	 0.360480484424392 
2420	 0.360235895556025 
2421	 0.360153650720934 
2422	 0.359901443124513 
2423	 0.359559372007908 
2424	 0.359247638425795 
2425	 0.358908076038589 
2426	 0.358556467823433 
2427	 0.358224103609004 
2428	 0.357823600076342 
2429	 0.357269810074579 
2430	 0.3568533727039 
2431	 0.356446576745266 
2432	 0.356132601927983 
2433	 0.356023402833058 
2434	 0.355751999675483 
2435	 0.355460856795077 
2436	 0.355152476352389 
2437	 0.354696960622317 
2438	 0.354391054728662 
2439	 0.35419696935611 
2440	 0.35392055058752 
2441	 0.353666439587992 
2442	 0.353363047741114 
2443	 0.352996397667395 
2444	 0.352668694012514 
2445	 0.35235754817025 
2446	 0.352035014814351 
2447	 0.35170002674752 
2448	 0.351329901812627 
2449	 0.350903129446841 
2450	 0.350563154081218 
2451	 0.350274282646399 
2452	 0.349964887145956 
2453	 0.34971727051013 
2454	 0.349452503613615 
2455	 0.349112276244247 
2456	 0.348877201861193 
2457	 0.348679706860534 
2458	 0.348431501429 
2459	 0.34831398867869 
2460	 0.348083178643157 
2461	 0.347783509347141 
2462	 0.347458933691503 
2463	 0.347021850584579 
2464	 0.346601986713874 
2465	 0.346132495270445 
2466	 0.345843389548876 
2467	 0.345615039843515 
2468	 0.345360821440311 
2469	 0.345237616429521 
2470	 0.344889930041763 
2471	 0.344568846027818 
2472	 0.344227180085185 
2473	 0.343779598400091 
2474	 0.343336925013246 
2475	 0.343135140546678 
2476	 0.342989391752462 
2477	 0.342797301178095 
2478	 0.342555959389886 
2479	 0.342165831875951 
2480	 0.341732029273595 
2481	 0.341503085274094 
2482	 0.341359307421516 
2483	 0.341195345905743 
2484	 0.341048216436229 
2485	 0.340570685283673 
2486	 0.340068254602039 
2487	 0.339780691174787 
2488	 0.339265677778011 
2489	 0.338932860796039 
2490	 0.338761167743622 
2491	 0.338428399106397 
2492	 0.33826676657927 
2493	 0.3381141251429 
2494	 0.337798256116018 
2495	 0.337447309747197 
2496	 0.337139411572467 
2497	 0.336901586422804 
2498	 0.33684694187339 
2499	 0.336743689856708 
2500	 0.336260078249029 
