Wavelength	MM200004.asd
350	 5.95534197178027E-02 
351	 5.67767956516332E-02 
352	 5.12711349104476E-02 
353	 5.02252974110475E-02 
354	 5.79738110665602E-02 
355	 5.33317736489902E-02 
356	 4.80974578685273E-02 
357	 5.52423812375357E-02 
358	 5.79384071150454E-02 
359	 5.68559620879608E-02 
360	 5.47135885114698E-02 
361	 5.46896235220266E-02 
362	 0.051632229694554 
363	 5.23508693929164E-02 
364	 5.67807994986095E-02 
365	 5.17470487116991E-02 
366	 5.07323033232686E-02 
367	 5.21336668346463E-02 
368	 5.24702635571532E-02 
369	 0.059067136637387 
370	 5.88151187944278E-02 
371	 5.31488567377797E-02 
372	 0.053145436537691 
373	 5.52190112304815E-02 
374	 5.59602110076395E-02 
375	 0.055179218391412 
376	 5.85323551721949E-02 
377	 5.69479095061672E-02 
378	 5.47892190422261E-02 
379	 0.057644875763189 
380	 5.82169733915727E-02 
381	 5.75513511124254E-02 
382	 0.05783362736659 
383	 6.12114761823261E-02 
384	 6.06353711530191E-02 
385	 5.87402629178884E-02 
386	 5.83760960753627E-02 
387	 6.01425378199436E-02 
388	 6.15208464311679E-02 
389	 6.19634150566843E-02 
390	 6.17631245654192E-02 
391	 6.13450218927456E-02 
392	 0.061539184106119 
393	 6.29285375647824E-02 
394	 0.065630641819725 
395	 6.64714142069704E-02 
396	 6.51551918649969E-02 
397	 6.32533241605704E-02 
398	 6.52715693936999E-02 
399	 6.67307286183362E-02 
400	 6.72462330602843E-02 
401	 6.77850371987188E-02 
402	 6.76855640703121E-02 
403	 6.81382275164807E-02 
404	 6.87135732690798E-02 
405	 6.74274895680235E-02 
406	 6.85924787029254E-02 
407	 7.04392494399411E-02 
408	 7.09117106157819E-02 
409	 7.03075907820242E-02 
410	 0.069809041814171 
411	 6.99646847788385E-02 
412	 7.08316808020343E-02 
413	 7.17451461259588E-02 
414	 7.24423695639664E-02 
415	 0.072702056051484 
416	 7.22691525791473E-02 
417	 7.18700259930611E-02 
418	 7.20338065330661E-02 
419	 0.072848473295767 
420	 7.34109161574991E-02 
421	 7.28873771498323E-02 
422	 7.22878918474619E-02 
423	 7.34370434167489E-02 
424	 7.34010391460776E-02 
425	 7.30406642802448E-02 
426	 7.31449241642862E-02 
427	 7.35617756225789E-02 
428	 7.30854556966167E-02 
429	 0.072345181327442 
430	 0.072318353082741 
431	 7.24328265229462E-02 
432	 0.072351193254843 
433	 7.21300290522324E-02 
434	 7.21651266319267E-02 
435	 7.21041650423816E-02 
436	 7.20003121884138E-02 
437	 0.0719232049144 
438	 7.17385529175154E-02 
439	 7.18289253944716E-02 
440	 7.20128290780764E-02 
441	 7.19134058869444E-02 
442	 7.20568025469401E-02 
443	 7.24303533380426E-02 
444	 7.28232981443597E-02 
445	 7.28063158830333E-02 
446	 7.29820899329322E-02 
447	 7.32140129032374E-02 
448	 7.32709485971524E-02 
449	 7.34770914198954E-02 
450	 7.37278833551184E-02 
451	 7.40583331383268E-02 
452	 7.46005697050017E-02 
453	 7.49019695451333E-02 
454	 7.49045119222462E-02 
455	 7.47610405556321E-02 
456	 7.49358020425069E-02 
457	 7.51132400111739E-02 
458	 7.52419733795434E-02 
459	 0.075368367709605 
460	 7.53389799398191E-02 
461	 7.54522971144022E-02 
462	 7.57234289148725E-02 
463	 7.57232813721023E-02 
464	 7.57337509111177E-02 
465	 7.58140825101877E-02 
466	 7.59478675865888E-02 
467	 7.60749572119575E-02 
468	 7.61585932457043E-02 
469	 0.076230674711799 
470	 7.63654254519851E-02 
471	 0.076377101465249 
472	 7.64495940639661E-02 
473	 7.66474477521104E-02 
474	 7.65918564602221E-02 
475	 7.66449976065184E-02 
476	 7.67711919588566E-02 
477	 0.076770520680373 
478	 7.65880342419583E-02 
479	 7.66368664512717E-02 
480	 7.69239083605802E-02 
481	 7.68465900841109E-02 
482	 7.69610621556019E-02 
483	 7.71512740336541E-02 
484	 7.72038090118883E-02 
485	 7.73170139093469E-02 
486	 7.72347140831422E-02 
487	 7.70493637614384E-02 
488	 7.71274346306582E-02 
489	 7.72777085484926E-02 
490	 7.73726632547536E-02 
491	 7.73664902725711E-02 
492	 7.73780198817813E-02 
493	 7.73942945859533E-02 
494	 7.74194636601787E-02 
495	 7.74684367817968E-02 
496	 7.76063347744759E-02 
497	 7.77278266638439E-02 
498	 7.77666424741721E-02 
499	 7.77318272598856E-02 
500	 0.077748312538469 
501	 7.78224586075988E-02 
502	 7.79152098692962E-02 
503	 0.077988186087983 
504	 7.79976337898093E-02 
505	 0.077991643715954 
506	 7.80905513193954E-02 
507	 0.078134382424741 
508	 7.81716364742337E-02 
509	 7.82483438485685E-02 
510	 7.82927532368526E-02 
511	 7.83467537216647E-02 
512	 7.83827946836494E-02 
513	 7.83562555985866E-02 
514	 0.078412742614606 
515	 7.84791481808429E-02 
516	 0.078545209016302 
517	 7.87692035470691E-02 
518	 7.88260500609964E-02 
519	 7.87751391767779E-02 
520	 7.87942312214204E-02 
521	 7.89342046627276E-02 
522	 7.90649655532518E-02 
523	 7.91519984989821E-02 
524	 7.92696242099701E-02 
525	 7.91877320566451E-02 
526	 7.91203072329857E-02 
527	 0.079247237583563 
528	 7.93254731441743E-02 
529	 0.079382710214108 
530	 7.94840223308933E-02 
531	 7.96941721114902E-02 
532	 0.079748872639753 
533	 7.97964191831675E-02 
534	 7.99232780763123E-02 
535	 7.99500819416277E-02 
536	 8.00554437925589E-02 
537	 0.080209797362493 
538	 8.03172972387549E-02 
539	 0.080439582099996 
540	 8.05374385219456E-02 
541	 8.06101259937825E-02 
542	 8.07166514890016E-02 
543	 8.08052423032573E-02 
544	 8.09197653121578E-02 
545	 0.081109206446291 
546	 0.081359103386225 
547	 8.14949576809081E-02 
548	 8.15771457797064E-02 
549	 8.18468047416926E-02 
550	 8.19709175469472E-02 
551	 8.20809638622651E-02 
552	 8.23113726739168E-02 
553	 8.25980910931897E-02 
554	 8.27744367346542E-02 
555	 8.29106974071985E-02 
556	 8.31845080171763E-02 
557	 8.34631900029145E-02 
558	 0.083748476211985 
559	 8.40681106233057E-02 
560	 8.44800025995839E-02 
561	 0.084798256442668 
562	 8.51034466903337E-02 
563	 8.55336550033527E-02 
564	 8.59816558955236E-02 
565	 8.64202795898098E-02 
566	 8.68669049675617E-02 
567	 8.73829711033057E-02 
568	 8.79208779316882E-02 
569	 8.84656410508662E-02 
570	 8.90006753729031E-02 
571	 8.94624060014178E-02 
572	 9.00289286265738E-02 
573	 9.07079817309223E-02 
574	 9.13769765036513E-02 
575	 9.19488602028607E-02 
576	 0.092586773992844 
577	 9.33666985335869E-02 
578	 9.40758667916037E-02 
579	 9.49043498467591E-02 
580	 9.58078390278454E-02 
581	 9.66611885809359E-02 
582	 9.75261576665106E-02 
583	 9.84139512449853E-02 
584	 9.93030286532273E-02 
585	 0.100130935861252 
586	 0.101041927566189 
587	 0.102018306725737 
588	 0.102998141024961 
589	 0.103969838752042 
590	 0.104959589494311 
591	 0.105971714819937 
592	 0.106989814779238 
593	 0.107968414353514 
594	 0.108935086681828 
595	 0.109925816572245 
596	 0.110970173730422 
597	 0.111983829247628 
598	 0.112957634152707 
599	 0.11392874231445 
600	 0.114906343580481 
601	 0.115854603933019 
602	 0.116740958059539 
603	 0.117544415891163 
604	 0.118365133103507 
605	 0.119234305806201 
606	 0.120126254344858 
607	 0.120873237326097 
608	 0.121603115000987 
609	 0.122364757271943 
610	 0.123097628441669 
611	 0.123752275703316 
612	 0.124385460551888 
613	 0.125046000694953 
614	 0.125674241938788 
615	 0.12622890553866 
616	 0.126738457876158 
617	 0.127270833459131 
618	 0.127753623774577 
619	 0.128186401314549 
620	 0.128582359163853 
621	 0.12895043093582 
622	 0.129346831282194 
623	 0.129746967172945 
624	 0.130103462714192 
625	 0.130472323961277 
626	 0.130832183720633 
627	 0.131162425370475 
628	 0.131450376012812 
629	 0.131816844053621 
630	 0.132187381103655 
631	 0.132472572238971 
632	 0.132751073533102 
633	 0.13301782627704 
634	 0.133297168931631 
635	 0.133632115382096 
636	 0.133954938232215 
637	 0.134235246276742 
638	 0.134480285019833 
639	 0.134768184772716 
640	 0.135052219383343 
641	 0.135341514811115 
642	 0.135663491573742 
643	 0.135994895530138 
644	 0.136286341228687 
645	 0.13654990414716 
646	 0.136889159083869 
647	 0.137206727016699 
648	 0.137504641122179 
649	 0.137814852985325 
650	 0.138166184903849 
651	 0.138510686976176 
652	 0.138848626096059 
653	 0.139221256836438 
654	 0.139590179824122 
655	 0.139928931992521 
656	 0.140248344355687 
657	 0.140643098880328 
658	 0.141064001092763 
659	 0.141479132836607 
660	 0.141866336147177 
661	 0.142225524899873 
662	 0.142653995732345 
663	 0.143160204645537 
664	 0.143615276992596 
665	 0.143997235822628 
666	 0.144394916056456 
667	 0.144886731722209 
668	 0.145346808669031 
669	 0.145843186603681 
670	 0.146371265548624 
671	 0.146864676678021 
672	 0.147378198378178 
673	 0.14789145542051 
674	 0.148399294884197 
675	 0.148967875084092 
676	 0.149525315397053 
677	 0.150045469220791 
678	 0.150546459277608 
679	 0.151192190417207 
680	 0.151829418856767 
681	 0.152413709647739 
682	 0.153079801369219 
683	 0.153698101282744 
684	 0.154280864091189 
685	 0.154886652718539 
686	 0.155604434265381 
687	 0.156291143037873 
688	 0.156931781825469 
689	 0.157603711807969 
690	 0.158286629727941 
691	 0.158939745651739 
692	 0.159578927298258 
693	 0.160348607511588 
694	 0.161083618555245 
695	 0.161784570627812 
696	 0.162509919721547 
697	 0.163269975721816 
698	 0.164025068106367 
699	 0.164770993723992 
700	 0.165541695469643 
701	 0.16630797700104 
702	 0.167051873621071 
703	 0.167777249862022 
704	 0.168543417631881 
705	 0.169287774439628 
706	 0.170029214076759 
707	 0.170819171738023 
708	 0.171605484895709 
709	 0.172374196369895 
710	 0.173128789351544 
711	 0.173891787230218 
712	 0.174672478819264 
713	 0.175427108361686 
714	 0.176126248073592 
715	 0.176846121930775 
716	 0.177581685290287 
717	 0.178318403801943 
718	 0.179033517807342 
719	 0.179698618452718 
720	 0.180345548026352 
721	 0.180997862438083 
722	 0.181644188459333 
723	 0.182304701618572 
724	 0.182949999838638 
725	 0.183541527665985 
726	 0.18408387841278 
727	 0.184611135158754 
728	 0.185116124604753 
729	 0.185557392671741 
730	 0.186049782611719 
731	 0.186529772076534 
732	 0.186942313659013 
733	 0.187328036621574 
734	 0.187745384698072 
735	 0.188125252697471 
736	 0.188381842137736 
737	 0.188692758567881 
738	 0.188958022700485 
739	 0.189147332049847 
740	 0.189328108894541 
741	 0.189529613764174 
742	 0.189715599542466 
743	 0.189844799148221 
744	 0.189903524299905 
745	 0.189938632853091 
746	 0.189971232080182 
747	 0.189995936390267 
748	 0.189922833296628 
749	 0.189882193216514 
750	 0.189871361061934 
751	 0.189709459010919 
752	 0.189545153006769 
753	 0.189418057333469 
754	 0.189307646665486 
755	 0.189094152263546 
756	 0.188886997721415 
757	 0.188678413007457 
758	 0.188408379907769 
759	 0.188113276553099 
760	 0.18779092313518 
761	 0.187455196004057 
762	 0.187142011891761 
763	 0.186854428295549 
764	 0.186512400367439 
765	 0.186079706968269 
766	 0.185700055522353 
767	 0.185323914623883 
768	 0.184921175287078 
769	 0.184478529143811 
770	 0.184036495994197 
771	 0.183610146254063 
772	 0.183191166678387 
773	 0.182747321206673 
774	 0.182278716682003 
775	 0.181794333725336 
776	 0.181317091812043 
777	 0.180905932763788 
778	 0.180467690494818 
779	 0.179985391319318 
780	 0.17948369675123 
781	 0.178989561641287 
782	 0.178534089314372 
783	 0.17808530243223 
784	 0.177555470673854 
785	 0.177091175625432 
786	 0.176646717673377 
787	 0.176167382982715 
788	 0.175664091736399 
789	 0.175179863313402 
790	 0.174733895909382 
791	 0.174315982683285 
792	 0.17383589200246 
793	 0.173352991496233 
794	 0.172882762845113 
795	 0.172400892716056 
796	 0.171959110311038 
797	 0.17153925441349 
798	 0.171111741746277 
799	 0.170645764258236 
800	 0.170215716285518 
801	 0.169801123054263 
802	 0.169362607024668 
803	 0.168903820303927 
804	 0.168513090852005 
805	 0.168164692674439 
806	 0.167771143647505 
807	 0.167396939279591 
808	 0.166989477908712 
809	 0.166558731130951 
810	 0.166204798268134 
811	 0.165874912376268 
812	 0.165549114125823 
813	 0.16521960658629 
814	 0.164901628988188 
815	 0.164507415905508 
816	 0.164116843333322 
817	 0.163842843312855 
818	 0.163562588485144 
819	 0.163290791979045 
820	 0.163027017526097 
821	 0.162750717400313 
822	 0.16242099361853 
823	 0.162114501607733 
824	 0.161866919652241 
825	 0.161618886850936 
826	 0.161365590109277 
827	 0.161117643052679 
828	 0.160884050208695 
829	 0.160649179164685 
830	 0.16040484285055 
831	 0.160164552246329 
832	 0.159952163122935 
833	 0.159779032356055 
834	 0.159639226949227 
835	 0.159492899348269 
836	 0.159280161466146 
837	 0.159068345075135 
838	 0.158904888484401 
839	 0.158785841418299 
840	 0.158629167689095 
841	 0.158486287138976 
842	 0.158340012868264 
843	 0.158180462517221 
844	 0.158077309804537 
845	 0.157988692792828 
846	 0.157885242446235 
847	 0.157761659261395 
848	 0.1577000880226 
849	 0.157679666917622 
850	 0.157633523140685 
851	 0.157485373453142 
852	 0.157408861492517 
853	 0.157375225118377 
854	 0.157349976076359 
855	 0.157335267502081 
856	 0.157286809522631 
857	 0.157274736231036 
858	 0.157329004361488 
859	 0.157308922622402 
860	 0.157277751340061 
861	 0.157272958141489 
862	 0.157306233447588 
863	 0.157312680845812 
864	 0.157341816405114 
865	 0.157395536171446 
866	 0.157442415970655 
867	 0.15745098106043 
868	 0.157516061153326 
869	 0.157631920002524 
870	 0.157688454346568 
871	 0.157757137514019 
872	 0.157838814173115 
873	 0.157934586572329 
874	 0.158062262275634 
875	 0.158216605539766 
876	 0.158346428613352 
877	 0.158424077557775 
878	 0.158496712995285 
879	 0.158703946819456 
880	 0.158909767503524 
881	 0.15896789600634 
882	 0.159128207177032 
883	 0.159330557091427 
884	 0.159521503980009 
885	 0.159671112581443 
886	 0.15984459101084 
887	 0.160077639928042 
888	 0.16031885874534 
889	 0.160467474231976 
890	 0.160653881615221 
891	 0.160930574088795 
892	 0.161263308113589 
893	 0.161530460264327 
894	 0.161729044791294 
895	 0.161945379205306 
896	 0.162240568972268 
897	 0.162594202753379 
898	 0.16291169141202 
899	 0.163204260754149 
900	 0.163504541503416 
901	 0.163813421278403 
902	 0.164115246088511 
903	 0.164442726430115 
904	 0.164823602253201 
905	 0.165209854039562 
906	 0.165573603662866 
907	 0.165921610368213 
908	 0.166275597128475 
909	 0.166621411396725 
910	 0.167031362646123 
911	 0.167473615578833 
912	 0.16786675767977 
913	 0.168323307300027 
914	 0.1687549409357 
915	 0.169155550989226 
916	 0.169596910474266 
917	 0.169991978941155 
918	 0.170466696634151 
919	 0.17103050202655 
920	 0.171535216712666 
921	 0.172021108340737 
922	 0.172488363437459 
923	 0.172966202938855 
924	 0.173525024371898 
925	 0.174104570555189 
926	 0.174653134160289 
927	 0.175162913139238 
928	 0.175696697655299 
929	 0.176311803146847 
930	 0.176913546432188 
931	 0.177451653328869 
932	 0.178076273243903 
933	 0.178690956527853 
934	 0.179304626937986 
935	 0.179940902683235 
936	 0.180573394870423 
937	 0.181211595422489 
938	 0.181894489250682 
939	 0.182633458785739 
940	 0.18332605976827 
941	 0.183971785727948 
942	 0.184681962991565 
943	 0.185530555903404 
944	 0.18627829610895 
945	 0.186964646003946 
946	 0.187693313667524 
947	 0.18853383689213 
948	 0.189297500801335 
949	 0.190034528918562 
950	 0.190734405695701 
951	 0.191406252484875 
952	 0.192301257478669 
953	 0.193208628245808 
954	 0.194010439243243 
955	 0.194720217065956 
956	 0.195625665460072 
957	 0.196492405480568 
958	 0.197297014401418 
959	 0.198153401483779 
960	 0.199022416931461 
961	 0.199975699635693 
962	 0.200967732992198 
963	 0.201877831683105 
964	 0.202645206979452 
965	 0.203529015771999 
966	 0.204490484349328 
967	 0.205327255486393 
968	 0.206227697531773 
969	 0.207220110558593 
970	 0.208206612470581 
971	 0.209074688983478 
972	 0.210121416192409 
973	 0.211181765754071 
974	 0.212173841472103 
975	 0.213123536629979 
976	 0.214157889405432 
977	 0.215217785752922 
978	 0.216228186978157 
979	 0.217160732990062 
980	 0.218251099576061 
981	 0.219145712209676 
982	 0.219948002619678 
983	 0.22098536791711 
984	 0.222033512661416 
985	 0.223045673552283 
986	 0.224033081165837 
987	 0.225039960616082 
988	 0.226105450296396 
989	 0.227150601098861 
990	 0.228129090623014 
991	 0.229055422345662 
992	 0.230099426806245 
993	 0.231034933081717 
994	 0.232003875390545 
995	 0.233165875530844 
996	 0.234030472393065 
997	 0.234944263370927 
998	 0.235984545112825 
999	 0.237069689725669 
1000	 0.238021956103311 
1001	 0.239096512378692 
1002	 0.239990820833614 
1003	 0.240922879305612 
1004	 0.241840573575649 
1005	 0.242768041187847 
1006	 0.24366557121319 
1007	 0.244551368921169 
1008	 0.245418782745818 
1009	 0.246290596679675 
1010	 0.247166449671881 
1011	 0.248058246227551 
1012	 0.248927434377204 
1013	 0.249764982017339 
1014	 0.250567399643766 
1015	 0.25133301923852 
1016	 0.252132281489551 
1017	 0.252932237545258 
1018	 0.253728326164846 
1019	 0.254513996300375 
1020	 0.255342281750511 
1021	 0.256124457187511 
1022	 0.256840076325861 
1023	 0.257590067570111 
1024	 0.258326188266386 
1025	 0.259052970504471 
1026	 0.25977555937157 
1027	 0.26041018745073 
1028	 0.261026841636382 
1029	 0.261708682724887 
1030	 0.26239069163283 
1031	 0.263035885658864 
1032	 0.263704228441473 
1033	 0.264383193022428 
1034	 0.264975262997545 
1035	 0.265520334765098 
1036	 0.266124763180619 
1037	 0.266735343925864 
1038	 0.267326172917045 
1039	 0.267923975954377 
1040	 0.268515073189926 
1041	 0.269095519105992 
1042	 0.269654182041316 
1043	 0.270191242696879 
1044	 0.270735026178239 
1045	 0.27127562784535 
1046	 0.271823967040659 
1047	 0.27243220938282 
1048	 0.273043263342528 
1049	 0.273616048149389 
1050	 0.274212397661957 
1051	 0.274759112742027 
1052	 0.275252609552311 
1053	 0.275842798732289 
1054	 0.276482685327983 
1055	 0.277069004273898 
1056	 0.277667122321101 
1057	 0.27822332341848 
1058	 0.278697408015798 
1059	 0.27922031428291 
1060	 0.279730531228487 
1061	 0.280291120198456 
1062	 0.280851767138357 
1063	 0.281438634598041 
1064	 0.282047865258036 
1065	 0.282624196006042 
1066	 0.283163091477461 
1067	 0.283726478178935 
1068	 0.284296152823967 
1069	 0.284836894699894 
1070	 0.28537054978323 
1071	 0.285919526859568 
1072	 0.286462672333662 
1073	 0.286963760799549 
1074	 0.287491151141746 
1075	 0.288038983257923 
1076	 0.288587778758314 
1077	 0.289141191398101 
1078	 0.289671873112696 
1079	 0.290196805293703 
1080	 0.290720325831695 
1081	 0.291219456092027 
1082	 0.291728281588447 
1083	 0.292236640389591 
1084	 0.292754061574293 
1085	 0.293261998581214 
1086	 0.293750183024984 
1087	 0.294245991087078 
1088	 0.294737844705521 
1089	 0.295250643586929 
1090	 0.295751679284193 
1091	 0.296239361740185 
1092	 0.296702661004921 
1093	 0.297160756377463 
1094	 0.2976088302896 
1095	 0.298072735982667 
1096	 0.29855831370714 
1097	 0.299025599052033 
1098	 0.299485973637043 
1099	 0.29993586860014 
1100	 0.300391923570411 
1101	 0.300851140829145 
1102	 0.301301084086598 
1103	 0.301754980673961 
1104	 0.302191457870996 
1105	 0.302618419414405 
1106	 0.303057360917837 
1107	 0.303492987486278 
1108	 0.303948629360754 
1109	 0.304425228438257 
1110	 0.304886630161537 
1111	 0.305340294313848 
1112	 0.305790315752683 
1113	 0.306229410898076 
1114	 0.306655999793201 
1115	 0.307090245901422 
1116	 0.307532739835833 
1117	 0.307969340477104 
1118	 0.308420183549947 
1119	 0.308823597923404 
1120	 0.309229516295234 
1121	 0.309626166420334 
1122	 0.310021656013512 
1123	 0.310429577021807 
1124	 0.31085268490686 
1125	 0.311287284044519 
1126	 0.311728633072584 
1127	 0.312186518514908 
1128	 0.312628745169373 
1129	 0.31309131387079 
1130	 0.313522484365969 
1131	 0.313926181479671 
1132	 0.314344818986214 
1133	 0.314746042075185 
1134	 0.315149520899158 
1135	 0.315565954248138 
1136	 0.315983663932457 
1137	 0.316364163395782 
1138	 0.316739141244892 
1139	 0.317106967736557 
1140	 0.317434438064315 
1141	 0.317815118658944 
1142	 0.318238185353165 
1143	 0.318614492521967 
1144	 0.319002775677232 
1145	 0.319359447749801 
1146	 0.319655227697596 
1147	 0.319987874751813 
1148	 0.320331030585996 
1149	 0.320674753693285 
1150	 0.321039702744112 
1151	 0.321392259951965 
1152	 0.321703140703515 
1153	 0.322014928062111 
1154	 0.322329853858352 
1155	 0.322617805582015 
1156	 0.322938849343508 
1157	 0.32328917634869 
1158	 0.323615784529005 
1159	 0.323953621808341 
1160	 0.324266522737684 
1161	 0.324551702868885 
1162	 0.324853078766499 
1163	 0.325145223697858 
1164	 0.325444065470009 
1165	 0.325750095788966 
1166	 0.32607132804153 
1167	 0.326371327559116 
1168	 0.326656821089849 
1169	 0.326946490406788 
1170	 0.327229680041132 
1171	 0.327512096074468 
1172	 0.327802682921674 
1173	 0.328072483118928 
1174	 0.328322061050248 
1175	 0.328583530575512 
1176	 0.328842892346936 
1177	 0.329099731607294 
1178	 0.329365798348815 
1179	 0.329619785410516 
1180	 0.3298452038412 
1181	 0.330097142728651 
1182	 0.330357965182248 
1183	 0.330632683379455 
1184	 0.330890352268237 
1185	 0.331163998521315 
1186	 0.331413602144854 
1187	 0.331636229712192 
1188	 0.331877110879582 
1189	 0.332126270934376 
1190	 0.33236071943358 
1191	 0.332602342868457 
1192	 0.332818363316203 
1193	 0.333002364169208 
1194	 0.333208100536998 
1195	 0.333414270514074 
1196	 0.3336145621149 
1197	 0.333835106742692 
1198	 0.334032917994627 
1199	 0.334217205132621 
1200	 0.334377832264256 
1201	 0.334554353314325 
1202	 0.334723984738937 
1203	 0.334900623195927 
1204	 0.335080670062894 
1205	 0.335265561100988 
1206	 0.335454509309748 
1207	 0.335641410645453 
1208	 0.335841717589084 
1209	 0.336024920081839 
1210	 0.336202275366228 
1211	 0.336370644753518 
1212	 0.336531101250279 
1213	 0.336683105202237 
1214	 0.336821689694422 
1215	 0.336960920412349 
1216	 0.33709615388086 
1217	 0.337222604077432 
1218	 0.337354671357345 
1219	 0.337487917956894 
1220	 0.337619328608698 
1221	 0.337749534732195 
1222	 0.337881277284409 
1223	 0.338011700296914 
1224	 0.338145345516855 
1225	 0.338293389705703 
1226	 0.338418132741009 
1227	 0.338535441803344 
1228	 0.338646422987257 
1229	 0.338730326033785 
1230	 0.33883033117426 
1231	 0.338944085802208 
1232	 0.339045929759559 
1233	 0.339144693484932 
1234	 0.339239965153193 
1235	 0.33934462883488 
1236	 0.339441208612751 
1237	 0.3395537543186 
1238	 0.339689524881923 
1239	 0.33980603575594 
1240	 0.339929289460752 
1241	 0.340028842890416 
1242	 0.340103264891154 
1243	 0.340192867951153 
1244	 0.340271704499992 
1245	 0.340359312078236 
1246	 0.340465678710193 
1247	 0.340559939722827 
1248	 0.340658984788599 
1249	 0.340738094966198 
1250	 0.340801430382638 
1251	 0.340866863753857 
1252	 0.340942647362062 
1253	 0.341015889418568 
1254	 0.341089207202152 
1255	 0.341175937221148 
1256	 0.341252705608285 
1257	 0.341317073889314 
1258	 0.341389457531114 
1259	 0.341475905185885 
1260	 0.341542614740393 
1261	 0.341609461162066 
1262	 0.341654896760305 
1263	 0.341663253771081 
1264	 0.341697828368573 
1265	 0.341733395834262 
1266	 0.341769482885428 
1267	 0.341827465702864 
1268	 0.34187161640698 
1269	 0.341909760057719 
1270	 0.341932326978062 
1271	 0.341969860900638 
1272	 0.342008852114083 
1273	 0.342054375975226 
1274	 0.34209824227209 
1275	 0.342159992396925 
1276	 0.342233161167748 
1277	 0.342308430452232 
1278	 0.342397805406082 
1279	 0.342487956086771 
1280	 0.342570037470881 
1281	 0.342673623574631 
1282	 0.342801497479783 
1283	 0.342921819230218 
1284	 0.343060367900712 
1285	 0.343176937513733 
1286	 0.343296396647147 
1287	 0.343418623853621 
1288	 0.343542262825518 
1289	 0.343670292304945 
1290	 0.343802219632271 
1291	 0.343929135287099 
1292	 0.344071236494577 
1293	 0.344229127861658 
1294	 0.344371926849004 
1295	 0.344523451125417 
1296	 0.344659397272323 
1297	 0.344773970293208 
1298	 0.344904083903436 
1299	 0.345051808263314 
1300	 0.345170818987239 
1301	 0.345276131724936 
1302	 0.345382327780852 
1303	 0.345487468436585 
1304	 0.345555188206381 
1305	 0.345615881655989 
1306	 0.34570571369268 
1307	 0.345764079974218 
1308	 0.345792472134192 
1309	 0.34583681579681 
1310	 0.345887378206501 
1311	 0.345926404108318 
1312	 0.345956952559898 
1313	 0.345991677261744 
1314	 0.3460255515984 
1315	 0.346051138350882 
1316	 0.346064927936005 
1317	 0.34609827239588 
1318	 0.346134539967308 
1319	 0.34617166673019 
1320	 0.346235199699883 
1321	 0.346272878015237 
1322	 0.346297805806215 
1323	 0.346315983077646 
1324	 0.346325961674812 
1325	 0.346327618545689 
1326	 0.346335696778531 
1327	 0.346346494129006 
1328	 0.346353890766129 
1329	 0.346360988683076 
1330	 0.346354713123713 
1331	 0.346325995383844 
1332	 0.346329498244252 
1333	 0.346348009403511 
1334	 0.346345954003085 
1335	 0.346350376515699 
1336	 0.346352191955653 
1337	 0.346324991457046 
1338	 0.34632773995076 
1339	 0.34636099929752 
1340	 0.346378285371872 
1341	 0.346399903935891 
1342	 0.346410405903443 
1343	 0.346421557355955 
1344	 0.346414661560414 
1345	 0.346379967769173 
1346	 0.346366119118438 
1347	 0.346340782991286 
1348	 0.34631596899708 
1349	 0.346322370783109 
1350	 0.346312079467054 
1351	 0.346304389297091 
1352	 0.346295363108985 
1353	 0.346295211406613 
1354	 0.34629419180923 
1355	 0.34629824032925 
1356	 0.346318561891121 
1357	 0.34631597484447 
1358	 0.346300331556302 
1359	 0.34630034178342 
1360	 0.346280077516173 
1361	 0.346291454678966 
1362	 0.346331447613861 
1363	 0.346361965127341 
1364	 0.346405663355793 
1365	 0.346449414049359 
1366	 0.346490801997361 
1367	 0.346535731316945 
1368	 0.34659518596966 
1369	 0.346644914949523 
1370	 0.346671097764261 
1371	 0.346688838120661 
1372	 0.346701866920246 
1373	 0.346695211076031 
1374	 0.346674845250581 
1375	 0.346656445118831 
1376	 0.34660835542585 
1377	 0.346526271404937 
1378	 0.346446171016263 
1379	 0.346351295466537 
1380	 0.34625594841303 
1381	 0.346137826021374 
1382	 0.346048240325934 
1383	 0.345970704638353 
1384	 0.345892986409488 
1385	 0.345854568307226 
1386	 0.345768911623437 
1387	 0.345665398958709 
1388	 0.345544829941937 
1389	 0.345399602123448 
1390	 0.345237410929883 
1391	 0.345063603206015 
1392	 0.344867803477936 
1393	 0.344647466612979 
1394	 0.344418331467529 
1395	 0.344171631831326 
1396	 0.343924740080201 
1397	 0.343687750262365 
1398	 0.343449535512236 
1399	 0.343209659776558 
1400	 0.342984011940099 
1401	 0.342742912651524 
1402	 0.342493587517736 
1403	 0.342236273311378 
1404	 0.341961596912988 
1405	 0.341702361868101 
1406	 0.341428079323563 
1407	 0.34118905790323 
1408	 0.34097648968687 
1409	 0.34076794764315 
1410	 0.340566031539704 
1411	 0.340386380533516 
1412	 0.340213625147394 
1413	 0.340057746043257 
1414	 0.339964028692897 
1415	 0.339906189681439 
1416	 0.339870437696379 
1417	 0.339873521818217 
1418	 0.339874866810215 
1419	 0.339857539639679 
1420	 0.339854382708238 
1421	 0.339853683211155 
1422	 0.339845824005392 
1423	 0.339849104619901 
1424	 0.339834556152861 
1425	 0.339813603560889 
1426	 0.339784600326509 
1427	 0.339728311438557 
1428	 0.339707438877691 
1429	 0.339696440982841 
1430	 0.339694728626343 
1431	 0.339720413824461 
1432	 0.339729650773029 
1433	 0.339735209964643 
1434	 0.339739318131054 
1435	 0.339736312095174 
1436	 0.339745460970873 
1437	 0.339753346525728 
1438	 0.339771580065597 
1439	 0.33980674586885 
1440	 0.33983639622455 
1441	 0.339848229261397 
1442	 0.339871375659052 
1443	 0.339891706677709 
1444	 0.339894589959556 
1445	 0.339919745943478 
1446	 0.339954835250247 
1447	 0.339974882471387 
1448	 0.339994408968688 
1449	 0.339996402057554 
1450	 0.339996102466821 
1451	 0.340000389021195 
1452	 0.339993785888046 
1453	 0.34001151519706 
1454	 0.340047582265912 
1455	 0.340069622854635 
1456	 0.340111141198117 
1457	 0.340119963669305 
1458	 0.340098445089922 
1459	 0.340099173099122 
1460	 0.340084475679292 
1461	 0.340095080263523 
1462	 0.340127714915136 
1463	 0.340156701924476 
1464	 0.340199505403758 
1465	 0.340233170144523 
1466	 0.340262912591139 
1467	 0.340301627003542 
1468	 0.340338534622461 
1469	 0.340380323263235 
1470	 0.340426561192372 
1471	 0.340477878824557 
1472	 0.340542903849823 
1473	 0.340625489922991 
1474	 0.340725023330439 
1475	 0.340832967718791 
1476	 0.340925473414905 
1477	 0.341006310488281 
1478	 0.341095951329801 
1479	 0.341174314393985 
1480	 0.341276980224845 
1481	 0.341407987027601 
1482	 0.341508982758176 
1483	 0.341607283274258 
1484	 0.341707235246976 
1485	 0.341782170690637 
1486	 0.341884189180296 
1487	 0.342012532155283 
1488	 0.342119671854771 
1489	 0.342235110665078 
1490	 0.342326040637754 
1491	 0.342389450861608 
1492	 0.342472603368255 
1493	 0.342543313593836 
1494	 0.342633000454129 
1495	 0.342745852863437 
1496	 0.342848250019976 
1497	 0.342952056053923 
1498	 0.3430569394818 
1499	 0.343166220550064 
1500	 0.343266931380565 
1501	 0.34337144491022 
1502	 0.343462083560212 
1503	 0.343541368476872 
1504	 0.343610530784288 
1505	 0.343677954302153 
1506	 0.343759431443592 
1507	 0.343840586269438 
1508	 0.343918378928119 
1509	 0.343992095071584 
1510	 0.344047483401994 
1511	 0.344087835181901 
1512	 0.344131935622306 
1513	 0.3442157145373 
1514	 0.34430268075804 
1515	 0.344403821888652 
1516	 0.344525240626289 
1517	 0.344604927061985 
1518	 0.34465451271703 
1519	 0.344715631651716 
1520	 0.344760303414441 
1521	 0.344817823116014 
1522	 0.3448817534335 
1523	 0.344943821505515 
1524	 0.345005250584606 
1525	 0.345072099952197 
1526	 0.345134729821697 
1527	 0.345209992741896 
1528	 0.345302366277277 
1529	 0.345377737880613 
1530	 0.345459550984791 
1531	 0.345530634856991 
1532	 0.345585514114718 
1533	 0.345647284900633 
1534	 0.345704089800342 
1535	 0.34576514118522 
1536	 0.34583418487006 
1537	 0.345891155882829 
1538	 0.345949271744361 
1539	 0.345997275738127 
1540	 0.346023749504664 
1541	 0.346063768039064 
1542	 0.346120610024244 
1543	 0.346154098391515 
1544	 0.346182420533454 
1545	 0.346203753913955 
1546	 0.346204580244977 
1547	 0.346191772097844 
1548	 0.346216974748832 
1549	 0.346258282323528 
1550	 0.346303169125711 
1551	 0.346360418609703 
1552	 0.346410430987865 
1553	 0.34644226322937 
1554	 0.346483255573873 
1555	 0.346541290629788 
1556	 0.34660412401166 
1557	 0.346663454549752 
1558	 0.346707389036455 
1559	 0.346745631027205 
1560	 0.346783647071991 
1561	 0.346802410403204 
1562	 0.346845235358533 
1563	 0.346900021891546 
1564	 0.346954657285712 
1565	 0.347020947263223 
1566	 0.347076892881524 
1567	 0.347130199156792 
1568	 0.34718658650671 
1569	 0.347243804400398 
1570	 0.347290204609272 
1571	 0.347342997996108 
1572	 0.347375820969906 
1573	 0.347393856434681 
1574	 0.347403640739009 
1575	 0.347384864480935 
1576	 0.34739804294248 
1577	 0.347412923653213 
1578	 0.347436482875291 
1579	 0.347489639824813 
1580	 0.347525522362965 
1581	 0.347554858052854 
1582	 0.347585269913647 
1583	 0.347614434391045 
1584	 0.347643455080296 
1585	 0.347656634092516 
1586	 0.3476943240487 
1587	 0.347748452290833 
1588	 0.347798581325204 
1589	 0.347885178705918 
1590	 0.347926576983666 
1591	 0.347949513967467 
1592	 0.347953642923201 
1593	 0.347897250789902 
1594	 0.347889601306495 
1595	 0.347888923228365 
1596	 0.347898295473614 
1597	 0.347949711645767 
1598	 0.347979759842325 
1599	 0.3480036148478 
1600	 0.34802395081208 
1601	 0.348033944750623 
1602	 0.348051535769146 
1603	 0.348079144829253 
1604	 0.348086904423358 
1605	 0.348074779145587 
1606	 0.348081305296536 
1607	 0.348086744751142 
1608	 0.348088984451691 
1609	 0.348109715393451 
1610	 0.348139042556537 
1611	 0.348133412060859 
1612	 0.348150184268051 
1613	 0.348166566278141 
1614	 0.348150573725929 
1615	 0.348165554714402 
1616	 0.348180279079249 
1617	 0.348194862357352 
1618	 0.348244795330538 
1619	 0.348272486721421 
1620	 0.348283092771104 
1621	 0.348305194347155 
1622	 0.348327192524683 
1623	 0.348347702746402 
1624	 0.348375594178131 
1625	 0.348386398342038 
1626	 0.348384971768852 
1627	 0.348390025945326 
1628	 0.348391183819292 
1629	 0.348389230283904 
1630	 0.34839521703651 
1631	 0.348380088100347 
1632	 0.348344124008563 
1633	 0.348325913920754 
1634	 0.348302544536629 
1635	 0.348288745321572 
1636	 0.348282427342198 
1637	 0.348286065415986 
1638	 0.348291416016725 
1639	 0.348311125000303 
1640	 0.348360153001854 
1641	 0.348374843126568 
1642	 0.348390000820634 
1643	 0.348380214396842 
1644	 0.34832273596034 
1645	 0.348325065340685 
1646	 0.348347284351969 
1647	 0.348356599444365 
1648	 0.348397225276277 
1649	 0.348410756252294 
1650	 0.348394433045027 
1651	 0.348393438973826 
1652	 0.348399782484596 
1653	 0.348404034139632 
1654	 0.348401915084187 
1655	 0.348407012147148 
1656	 0.348420807485869 
1657	 0.348428042249188 
1658	 0.348438671726206 
1659	 0.348437076361005 
1660	 0.348425581627688 
1661	 0.348420261689875 
1662	 0.348412007347168 
1663	 0.348399561791166 
1664	 0.348391179518413 
1665	 0.348374784183092 
1666	 0.348337467953124 
1667	 0.348326636331303 
1668	 0.348328064538379 
1669	 0.348327387603281 
1670	 0.348341222768228 
1671	 0.348346363984046 
1672	 0.348344972507844 
1673	 0.348348207623216 
1674	 0.34836126000169 
1675	 0.348356555330638 
1676	 0.348341335008131 
1677	 0.348330343552253 
1678	 0.348300142151949 
1679	 0.348297356594095 
1680	 0.348330157406184 
1681	 0.34831742709509 
1682	 0.348283671162937 
1683	 0.348273455782609 
1684	 0.348244661402809 
1685	 0.348230575511495 
1686	 0.348241966331491 
1687	 0.348252347042184 
1688	 0.348252925990076 
1689	 0.348267865989976 
1690	 0.348308112505389 
1691	 0.348337534647781 
1692	 0.348373038070965 
1693	 0.3483858858761 
1694	 0.348387153697093 
1695	 0.348391001792066 
1696	 0.348381358517021 
1697	 0.348369308451714 
1698	 0.348363582348619 
1699	 0.348349103555748 
1700	 0.348309721240211 
1701	 0.348292680207314 
1702	 0.348298271938803 
1703	 0.348276369206135 
1704	 0.348256675769414 
1705	 0.348218869060493 
1706	 0.348140516734376 
1707	 0.348098482306916 
1708	 0.348062670360824 
1709	 0.348034684949181 
1710	 0.348022881445767 
1711	 0.34801808410909 
1712	 0.348020325168326 
1713	 0.348024012368166 
1714	 0.348039025175758 
1715	 0.348056024324012 
1716	 0.348081808635379 
1717	 0.348088055599702 
1718	 0.348109290973225 
1719	 0.348084812338091 
1720	 0.348016134428478 
1721	 0.347967980552633 
1722	 0.347904032657421 
1723	 0.347845311182872 
1724	 0.347791638635172 
1725	 0.347738788601915 
1726	 0.347677371294297 
1727	 0.347629623005786 
1728	 0.347596884507321 
1729	 0.347556272250196 
1730	 0.347525765135109 
1731	 0.347470984597459 
1732	 0.347410092278622 
1733	 0.347330966487617 
1734	 0.347226943465947 
1735	 0.347127955249886 
1736	 0.347008351720248 
1737	 0.346916698794454 
1738	 0.346826170454224 
1739	 0.346764043685367 
1740	 0.346730230525912 
1741	 0.346698818820867 
1742	 0.346689577220844 
1743	 0.346659640879206 
1744	 0.346627646989464 
1745	 0.346584911641361 
1746	 0.346535940572817 
1747	 0.346488370493885 
1748	 0.346442425889676 
1749	 0.346388734522581 
1750	 0.346323402666072 
1751	 0.346251461632346 
1752	 0.346182408500286 
1753	 0.346148833627693 
1754	 0.346078165972958 
1755	 0.346003073404556 
1756	 0.345963766720355 
1757	 0.345909330662965 
1758	 0.345864244703037 
1759	 0.345829021595242 
1760	 0.34576116812903 
1761	 0.345676417305212 
1762	 0.345600852303639 
1763	 0.345513308485801 
1764	 0.345447070516828 
1765	 0.345402491947281 
1766	 0.345364785000106 
1767	 0.345358103395948 
1768	 0.345326032513053 
1769	 0.345269596268272 
1770	 0.345190946628159 
1771	 0.345080038470857 
1772	 0.344979169609513 
1773	 0.344890489166316 
1774	 0.344827852062604 
1775	 0.344751586469278 
1776	 0.344680195996047 
1777	 0.344636109942203 
1778	 0.344578341887396 
1779	 0.344599213357857 
1780	 0.344635291840153 
1781	 0.344636207825509 
1782	 0.344651172153052 
1783	 0.344584818988719 
1784	 0.344548736963937 
1785	 0.344514301527758 
1786	 0.344474979609231 
1787	 0.344452402135611 
1788	 0.344410798965283 
1789	 0.344343503780944 
1790	 0.344305768825982 
1791	 0.344279839527677 
1792	 0.344245501392567 
1793	 0.34423125307104 
1794	 0.34420091486891 
1795	 0.344155787249572 
1796	 0.344096597087999 
1797	 0.344018145894618 
1798	 0.343960234961647 
1799	 0.343876986996347 
1800	 0.343847149728686 
1801	 0.336494532497255 
1802	 0.336645640232324 
1803	 0.336809986400856 
1804	 0.336994909682098 
1805	 0.337197973780918 
1806	 0.337381065036357 
1807	 0.337554501227561 
1808	 0.337703446321324 
1809	 0.337858326410407 
1810	 0.337966718235168 
1811	 0.338042476252312 
1812	 0.338095295857487 
1813	 0.338123465295302 
1814	 0.3381422625915 
1815	 0.338145600742525 
1816	 0.338139116469573 
1817	 0.338150799683831 
1818	 0.338157981083576 
1819	 0.338187780795136 
1820	 0.338234824159429 
1821	 0.338292817903585 
1822	 0.33833367985401 
1823	 0.338343712257621 
1824	 0.338358895803771 
1825	 0.33836140959694 
1826	 0.338390035858091 
1827	 0.338428670998043 
1828	 0.33842749790966 
1829	 0.338399530574309 
1830	 0.338382734999181 
1831	 0.338343040504516 
1832	 0.338306016380564 
1833	 0.338298434447404 
1834	 0.338280835160431 
1835	 0.338274415335349 
1836	 0.338270737459294 
1837	 0.338254678923882 
1838	 0.338230009975202 
1839	 0.338236671683409 
1840	 0.338258803137806 
1841	 0.338280547015525 
1842	 0.338306369756042 
1843	 0.338362689014652 
1844	 0.338365095302459 
1845	 0.338327576566514 
1846	 0.338283001039809 
1847	 0.33823569856313 
1848	 0.338175333093807 
1849	 0.338115097665933 
1850	 0.338097450730217 
1851	 0.338116333691293 
1852	 0.338119353534046 
1853	 0.338140597950433 
1854	 0.33819189749045 
1855	 0.338195850114454 
1856	 0.33817737823559 
1857	 0.33815125455605 
1858	 0.338088217668635 
1859	 0.337992548733156 
1860	 0.3378858074958 
1861	 0.337761466862348 
1862	 0.337611300070019 
1863	 0.337446264833829 
1864	 0.337292241846212 
1865	 0.3371550343826 
1866	 0.336983571169352 
1867	 0.336791417147628 
1868	 0.33660064395423 
1869	 0.336372709953182 
1870	 0.336144078696121 
1871	 0.335913411524152 
1872	 0.335690497237986 
1873	 0.335451775473284 
1874	 0.335208934802193 
1875	 0.334951299786507 
1876	 0.334669601074774 
1877	 0.334358335644318 
1878	 0.333985757824819 
1879	 0.333576550799791 
1880	 0.333117374107926 
1881	 0.332603320099091 
1882	 0.332054024886918 
1883	 0.331473298622451 
1884	 0.330821406335863 
1885	 0.330130131322227 
1886	 0.329386723348009 
1887	 0.328568626507219 
1888	 0.32775021844596 
1889	 0.326860818777998 
1890	 0.325917060075163 
1891	 0.32496322438211 
1892	 0.323950712476082 
1893	 0.322927899150909 
1894	 0.321893971899409 
1895	 0.320855766850073 
1896	 0.319732001191494 
1897	 0.318602897824545 
1898	 0.317426325866584 
1899	 0.316256733970433 
1900	 0.31512564450023 
1901	 0.314018395682104 
1902	 0.312966949482164 
1903	 0.311960325297255 
1904	 0.310983660407117 
1905	 0.310041706744783 
1906	 0.309172878261459 
1907	 0.308307582991219 
1908	 0.307503712529479 
1909	 0.306749403636457 
1910	 0.306001105293047 
1911	 0.305301653263269 
1912	 0.304643370721965 
1913	 0.304022352592716 
1914	 0.303444751127309 
1915	 0.302891283209645 
1916	 0.302373837582585 
1917	 0.301884920038085 
1918	 0.301413476493163 
1919	 0.300984566731023 
1920	 0.300614076249064 
1921	 0.300255623985703 
1922	 0.299947487182171 
1923	 0.299682695702556 
1924	 0.299439224873585 
1925	 0.299216142795347 
1926	 0.299048677626172 
1927	 0.298922442926784 
1928	 0.298829828711271 
1929	 0.298761873509087 
1930	 0.298707432705407 
1931	 0.29867823016338 
1932	 0.298645961198092 
1933	 0.298647423280867 
1934	 0.298686324796131 
1935	 0.298733081044956 
1936	 0.298798109267715 
1937	 0.298878761456906 
1938	 0.298969734564895 
1939	 0.299085091751298 
1940	 0.299216427720718 
1941	 0.299372778058656 
1942	 0.299558467577902 
1943	 0.299752890988714 
1944	 0.299954099624229 
1945	 0.300150566174792 
1946	 0.300347213492099 
1947	 0.300532884415996 
1948	 0.300737448327814 
1949	 0.300961475101419 
1950	 0.301170803389939 
1951	 0.301370704976715 
1952	 0.301586817040436 
1953	 0.301813448653091 
1954	 0.302041389405518 
1955	 0.302287268354135 
1956	 0.302544875634688 
1957	 0.302814079268736 
1958	 0.303082361695779 
1959	 0.30337022710868 
1960	 0.303686274943003 
1961	 0.304002192970005 
1962	 0.304342345843005 
1963	 0.304662245340101 
1964	 0.304988178537714 
1965	 0.305287987565935 
1966	 0.305590894495937 
1967	 0.305884436944361 
1968	 0.306191972689437 
1969	 0.306513153263765 
1970	 0.306827641631076 
1971	 0.307155787867487 
1972	 0.307461436561664 
1973	 0.307729111135608 
1974	 0.308039170721674 
1975	 0.30836277399308 
1976	 0.308678545391251 
1977	 0.309027329943319 
1978	 0.309387951366605 
1979	 0.309711493665614 
1980	 0.310043732307437 
1981	 0.310375199889343 
1982	 0.310701096670022 
1983	 0.311032479607419 
1984	 0.311364792534538 
1985	 0.311700762110104 
1986	 0.312044284688912 
1987	 0.312389814843359 
1988	 0.31274320631497 
1989	 0.31308632850424 
1990	 0.313446014462999 
1991	 0.313791023527898 
1992	 0.314141940592242 
1993	 0.314504101528676 
1994	 0.314850903078329 
1995	 0.315190668675616 
1996	 0.315524946788811 
1997	 0.315846746364396 
1998	 0.316174580294734 
1999	 0.3165077354026 
2000	 0.316828499809835 
2001	 0.317140740351804 
2002	 0.317453721075895 
2003	 0.317771404540854 
2004	 0.318089919918273 
2005	 0.318404434118921 
2006	 0.318735295525086 
2007	 0.319044868986207 
2008	 0.319334279394163 
2009	 0.31962786587991 
2010	 0.319918916798917 
2011	 0.320204789953007 
2012	 0.320490728221615 
2013	 0.320768304832189 
2014	 0.321038264263319 
2015	 0.321294086974274 
2016	 0.32157172936385 
2017	 0.321857413845004 
2018	 0.322158392280397 
2019	 0.322497124398847 
2020	 0.322803262011038 
2021	 0.32310902732934 
2022	 0.323403953441708 
2023	 0.323688508530439 
2024	 0.323963220172991 
2025	 0.324225025023524 
2026	 0.324486657739338 
2027	 0.324746711239208 
2028	 0.324985898787415 
2029	 0.325230758422762 
2030	 0.32547417155895 
2031	 0.325722075232134 
2032	 0.325956902621898 
2033	 0.326219327522657 
2034	 0.326504600882933 
2035	 0.326776227407306 
2036	 0.327065246289965 
2037	 0.327330821678186 
2038	 0.32759631843594 
2039	 0.327834379752592 
2040	 0.32804215314084 
2041	 0.328249802076417 
2042	 0.328471383042661 
2043	 0.328675011971453 
2044	 0.328879929607967 
2045	 0.329100150291476 
2046	 0.329302945953716 
2047	 0.329479843457231 
2048	 0.329673044774968 
2049	 0.329876036227906 
2050	 0.33006982499821 
2051	 0.330265047958617 
2052	 0.330449294154504 
2053	 0.330615441772417 
2054	 0.33079769907717 
2055	 0.33097829915576 
2056	 0.331169205894197 
2057	 0.331350380298235 
2058	 0.331548051090852 
2059	 0.331712157100158 
2060	 0.331840049721702 
2061	 0.331999886496058 
2062	 0.332153705219738 
2063	 0.332325771567319 
2064	 0.332529280864609 
2065	 0.332715501730849 
2066	 0.332908349215222 
2067	 0.333085773199965 
2068	 0.333252586994245 
2069	 0.333414563888206 
2070	 0.333573882813911 
2071	 0.33372272174598 
2072	 0.333875520099679 
2073	 0.334025143917956 
2074	 0.334181206371771 
2075	 0.334335209794147 
2076	 0.334495086150775 
2077	 0.334665306883007 
2078	 0.334829785169802 
2079	 0.335000117646103 
2080	 0.335160513369401 
2081	 0.335320510768701 
2082	 0.335466729411142 
2083	 0.335600894009066 
2084	 0.335731798840014 
2085	 0.335854322612881 
2086	 0.335964478909864 
2087	 0.336078504796469 
2088	 0.336174078390325 
2089	 0.336302431442876 
2090	 0.336440976567133 
2091	 0.336587750907903 
2092	 0.336773289619055 
2093	 0.336926884094531 
2094	 0.337061051581873 
2095	 0.337207922549676 
2096	 0.337358738016863 
2097	 0.337496654414716 
2098	 0.337634936748908 
2099	 0.337772404822589 
2100	 0.337900341509853 
2101	 0.338009706736517 
2102	 0.338127006005085 
2103	 0.338237822112311 
2104	 0.338369676710677 
2105	 0.338489106872212 
2106	 0.338648010591844 
2107	 0.338834676789639 
2108	 0.339037070732416 
2109	 0.339284667374895 
2110	 0.339508413264458 
2111	 0.339756868209552 
2112	 0.339970633381414 
2113	 0.340157736900655 
2114	 0.34033661422021 
2115	 0.340513814594614 
2116	 0.340671830075541 
2117	 0.340842367842267 
2118	 0.341016480984547 
2119	 0.341188651080921 
2120	 0.341355175505895 
2121	 0.34153421018007 
2122	 0.341721762024208 
2123	 0.341901793239598 
2124	 0.342100847378375 
2125	 0.342271288498979 
2126	 0.342449341761189 
2127	 0.342579924558032 
2128	 0.34265347380413 
2129	 0.342744601029427 
2130	 0.34280980209508 
2131	 0.34287493039053 
2132	 0.34294789336134 
2133	 0.343053291303562 
2134	 0.343102856950152 
2135	 0.343132675311025 
2136	 0.343142565374182 
2137	 0.343110450240418 
2138	 0.343096339060552 
2139	 0.343081900361323 
2140	 0.343050875391496 
2141	 0.343017552552102 
2142	 0.342971504179698 
2143	 0.342920460980599 
2144	 0.342839043556546 
2145	 0.342740394538043 
2146	 0.342626648470586 
2147	 0.342481927856799 
2148	 0.342325222662945 
2149	 0.342161029843499 
2150	 0.341979304495543 
2151	 0.341814179384687 
2152	 0.341643820402213 
2153	 0.341473586057797 
2154	 0.341316760325335 
2155	 0.341146689924277 
2156	 0.340979184733679 
2157	 0.340784398233924 
2158	 0.340581960387424 
2159	 0.340360440581434 
2160	 0.340107990024609 
2161	 0.339850292908809 
2162	 0.3395599542784 
2163	 0.339298640940907 
2164	 0.339045654020229 
2165	 0.338794883772045 
2166	 0.33852651227567 
2167	 0.3382651613871 
2168	 0.338003182320882 
2169	 0.337712866169443 
2170	 0.337450721623354 
2171	 0.337232733398567 
2172	 0.336966142078582 
2173	 0.336677034253652 
2174	 0.336391958252458 
2175	 0.336094487465658 
2176	 0.335788438121131 
2177	 0.335471967725636 
2178	 0.335162443130712 
2179	 0.334832488028248 
2180	 0.334521673036592 
2181	 0.334207727963438 
2182	 0.333929560911224 
2183	 0.333677993985934 
2184	 0.333443529827466 
2185	 0.333193182487934 
2186	 0.332971079220854 
2187	 0.332713967845674 
2188	 0.332423697984375 
2189	 0.332151800128386 
2190	 0.331881817361323 
2191	 0.331611197812572 
2192	 0.331326012809379 
2193	 0.33106973285587 
2194	 0.330806802809522 
2195	 0.330586285566205 
2196	 0.33039209159349 
2197	 0.330227479098718 
2198	 0.330104776463653 
2199	 0.329993632503466 
2200	 0.329927135342503 
2201	 0.329842447503978 
2202	 0.329778520092504 
2203	 0.329687488250854 
2204	 0.329593391233183 
2205	 0.329473904284591 
2206	 0.329399258787776 
2207	 0.32931855390425 
2208	 0.329286467162111 
2209	 0.329295497230009 
2210	 0.329314535671192 
2211	 0.329374594893291 
2212	 0.32941343036482 
2213	 0.329451710394558 
2214	 0.329508989462356 
2215	 0.32957950547416 
2216	 0.329641174348233 
2217	 0.329733969761708 
2218	 0.32978936176388 
2219	 0.329821708730746 
2220	 0.329838373167741 
2221	 0.329811634038527 
2222	 0.329818400078999 
2223	 0.329822833812634 
2224	 0.32981404903683 
2225	 0.329821161498463 
2226	 0.329859961778673 
2227	 0.329853063843503 
2228	 0.329835817586542 
2229	 0.329792371549434 
2230	 0.32970689141396 
2231	 0.329642067002142 
2232	 0.329562343771221 
2233	 0.329505282556328 
2234	 0.329463801249487 
2235	 0.329418882765714 
2236	 0.329374709395979 
2237	 0.329338442657046 
2238	 0.329313401631775 
2239	 0.329282416863858 
2240	 0.329248642291453 
2241	 0.329228267267875 
2242	 0.329231955366692 
2243	 0.329200075826567 
2244	 0.329180724625105 
2245	 0.329119149732796 
2246	 0.329009680418591 
2247	 0.328903032201696 
2248	 0.328831333218253 
2249	 0.328778495543463 
2250	 0.328703771974583 
2251	 0.328637191838298 
2252	 0.328580231239473 
2253	 0.328501661554898 
2254	 0.328449134289892 
2255	 0.328442014047627 
2256	 0.328399848222121 
2257	 0.328320735728354 
2258	 0.32829176440101 
2259	 0.328299544628019 
2260	 0.328271569706479 
2261	 0.328231229171387 
2262	 0.328229916952673 
2263	 0.328209750185077 
2264	 0.328223710738902 
2265	 0.328296960324852 
2266	 0.328367611365582 
2267	 0.328471330215354 
2268	 0.328532748941316 
2269	 0.328586260462684 
2270	 0.328633735523605 
2271	 0.328664862432815 
2272	 0.328680436044839 
2273	 0.328681579493738 
2274	 0.328695888265648 
2275	 0.328729463359151 
2276	 0.328745357191803 
2277	 0.328798842211926 
2278	 0.328908999509728 
2279	 0.328979852638769 
2280	 0.329038190990547 
2281	 0.329094430889304 
2282	 0.32914630226924 
2283	 0.329203638889622 
2284	 0.329273290473482 
2285	 0.329319028478243 
2286	 0.329355556852523 
2287	 0.329384758563811 
2288	 0.329374362971802 
2289	 0.32939551114877 
2290	 0.329434222970082 
2291	 0.329475358220816 
2292	 0.329543529637664 
2293	 0.329581025485925 
2294	 0.329589754252631 
2295	 0.329619061783926 
2296	 0.329628512543088 
2297	 0.329679524524987 
2298	 0.329730362649096 
2299	 0.32980145459029 
2300	 0.329861385054543 
2301	 0.329882921238526 
2302	 0.32992622032886 
2303	 0.329988754508243 
2304	 0.330054767416677 
2305	 0.330136664534981 
2306	 0.330182539381133 
2307	 0.330215862714172 
2308	 0.330237904635329 
2309	 0.330243702785353 
2310	 0.330234733433284 
2311	 0.330202100549334 
2312	 0.330189404557799 
2313	 0.330154444026025 
2314	 0.330135867552168 
2315	 0.330133517641738 
2316	 0.330157713415985 
2317	 0.330198928588724 
2318	 0.330235861397174 
2319	 0.330318149115203 
2320	 0.330353243974276 
2321	 0.330326794414141 
2322	 0.330353253045088 
2323	 0.330400228688965 
2324	 0.330438952895233 
2325	 0.330522325518712 
2326	 0.330572245879512 
2327	 0.330602497475126 
2328	 0.330600348713157 
2329	 0.330619776234846 
2330	 0.330620105701589 
2331	 0.330653288142644 
2332	 0.33070643415586 
2333	 0.330743470659383 
2334	 0.330792521826135 
2335	 0.330830946697822 
2336	 0.330842136957356 
2337	 0.330860774914025 
2338	 0.330862304978045 
2339	 0.330800504011755 
2340	 0.330743286988521 
2341	 0.330707951112176 
2342	 0.330654440217171 
2343	 0.33060801205282 
2344	 0.33056655809795 
2345	 0.330513201212193 
2346	 0.330431044616392 
2347	 0.330362239647828 
2348	 0.330321415753439 
2349	 0.330233641722062 
2350	 0.33011506730832 
2351	 0.330006510055387 
2352	 0.32986472139698 
2353	 0.329737070164883 
2354	 0.329592663820391 
2355	 0.329511110143137 
2356	 0.329517100492913 
2357	 0.329427183406102 
2358	 0.329317688764848 
2359	 0.329219602517952 
2360	 0.329053674615353 
2361	 0.328905146223612 
2362	 0.328817638882032 
2363	 0.328685972316528 
2364	 0.32846180052232 
2365	 0.328316120297525 
2366	 0.328236406277164 
2367	 0.328107374905265 
2368	 0.327993557755114 
2369	 0.32787241805274 
2370	 0.327729540957796 
2371	 0.327567470081981 
2372	 0.327398965506117 
2373	 0.327185418848196 
2374	 0.326959623005282 
2375	 0.326719518399229 
2376	 0.326464692989596 
2377	 0.326230534234724 
2378	 0.326052027347739 
2379	 0.325865297168741 
2380	 0.325646908999851 
2381	 0.325481792043085 
2382	 0.325296915362318 
2383	 0.325073259992683 
2384	 0.324881181048145 
2385	 0.324716679102071 
2386	 0.324507616722466 
2387	 0.324273364095865 
2388	 0.324108244178954 
2389	 0.323921743536949 
2390	 0.323671212457499 
2391	 0.323414468354656 
2392	 0.323162499081092 
2393	 0.322876311749113 
2394	 0.322655494344746 
2395	 0.322509893601037 
2396	 0.322302169141126 
2397	 0.322073144597085 
2398	 0.321749752149597 
2399	 0.321375476991677 
2400	 0.321091377583789 
2401	 0.320817646908199 
2402	 0.320582904232581 
2403	 0.320444111753925 
2404	 0.320287463537039 
2405	 0.320078427979772 
2406	 0.319862785793146 
2407	 0.319588134586289 
2408	 0.319255887828091 
2409	 0.318967084942806 
2410	 0.318760313050219 
2411	 0.31858818048332 
2412	 0.318448894449211 
2413	 0.318253278118831 
2414	 0.31790759710442 
2415	 0.317581119566501 
2416	 0.317282833481975 
2417	 0.316930553487011 
2418	 0.316659708982178 
2419	 0.316494891873239 
2420	 0.31617893704123 
2421	 0.315806493083841 
2422	 0.315477270766496 
2423	 0.315091229495 
2424	 0.314798927702205 
2425	 0.314582353920413 
2426	 0.314293020672096 
2427	 0.314022105463467 
2428	 0.313736425897109 
2429	 0.313390455127448 
2430	 0.313101597105834 
2431	 0.312834871745502 
2432	 0.312555780605994 
2433	 0.312300067411858 
2434	 0.312074254714195 
2435	 0.311873764642624 
2436	 0.311617913222923 
2437	 0.311383599005545 
2438	 0.311085467658653 
2439	 0.310652355541797 
2440	 0.310350549240235 
2441	 0.310113884818556 
2442	 0.309889499596168 
2443	 0.309751586534692 
2444	 0.309572707560767 
2445	 0.309326954119996 
2446	 0.309107743043168 
2447	 0.30900511119859 
2448	 0.308663103406372 
2449	 0.308221764845122 
2450	 0.307830770764309 
2451	 0.307225602719143 
2452	 0.306823980762254 
2453	 0.306579031457851 
2454	 0.306258129545757 
2455	 0.305939622008401 
2456	 0.305657400656058 
2457	 0.305400080120926 
2458	 0.305180552722303 
2459	 0.305102554315792 
2460	 0.304758850745246 
2461	 0.304134022844411 
2462	 0.303854004748081 
2463	 0.303617455055295 
2464	 0.303416633842147 
2465	 0.30361665627763 
2466	 0.303410191147849 
2467	 0.302825759255646 
2468	 0.302518541315672 
2469	 0.302268076982076 
2470	 0.301987847190369 
2471	 0.301863306493325 
2472	 0.301841229891774 
2473	 0.301521344411014 
2474	 0.301440281853763 
2475	 0.301441158160766 
2476	 0.301125340695588 
2477	 0.300764889203874 
2478	 0.300391391309841 
2479	 0.299982725563084 
2480	 0.299710773660844 
2481	 0.299548173870581 
2482	 0.299436466466106 
2483	 0.299192758363633 
2484	 0.298803491802486 
2485	 0.298469072194683 
2486	 0.298141197804361 
2487	 0.297968483810263 
2488	 0.297664541103564 
2489	 0.297164016290108 
2490	 0.296945069639007 
2491	 0.296674206834347 
2492	 0.296386008265464 
2493	 0.29634911538492 
2494	 0.29618770782619 
2495	 0.296064970024641 
2496	 0.296142774020305 
2497	 0.296133202021251 
2498	 0.295985638837285 
2499	 0.295789251659399 
2500	 0.295564090441839 
