Wavelength	MM200001.asd
350	 6.78510904938577E-02 
351	 6.47181831167388E-02 
352	 0.055594154410909 
353	 4.69341824279112E-02 
354	 5.24862252661318E-02 
355	 5.50998384350409E-02 
356	 5.44780274271277E-02 
357	 5.39678341009776E-02 
358	 5.24142463040327E-02 
359	 5.25812821916102E-02 
360	 5.44442196783578E-02 
361	 5.58619636670296E-02 
362	 5.26296788369232E-02 
363	 0.052413368741653 
364	 5.66175071386129E-02 
365	 0.054754238368533 
366	 5.40037092014115E-02 
367	 5.47090003279414E-02 
368	 5.56304089685985E-02 
369	 5.71803116719413E-02 
370	 5.66790626929747E-02 
371	 5.57529096583033E-02 
372	 5.82984609780883E-02 
373	 0.058218794409352 
374	 5.78715633976861E-02 
375	 5.87765881057739E-02 
376	 5.90807352309787E-02 
377	 5.96167043630574E-02 
378	 5.95233947930743E-02 
379	 5.83905409117653E-02 
380	 5.98308310436243E-02 
381	 5.96612067608812E-02 
382	 5.85237721812539E-02 
383	 6.03330392673747E-02 
384	 5.94635937255607E-02 
385	 5.88318523563009E-02 
386	 6.03062285681093E-02 
387	 6.16449337228732E-02 
388	 6.13796911023265E-02 
389	 6.08880084529139E-02 
390	 0.061788832152053 
391	 6.16631643036726E-02 
392	 6.25128163663432E-02 
393	 6.42156494720879E-02 
394	 6.48340388572553E-02 
395	 6.57953716868705E-02 
396	 0.066489668877942 
397	 6.64740168098156E-02 
398	 6.63085559024836E-02 
399	 6.61360963172041E-02 
400	 6.67397882006526E-02 
401	 6.85033762580963E-02 
402	 6.86523169272754E-02 
403	 6.82417191123011E-02 
404	 6.83418652835485E-02 
405	 6.96726347247794E-02 
406	 7.01575499465199E-02 
407	 7.08069541761133E-02 
408	 7.19123786790637E-02 
409	 6.99786340854317E-02 
410	 6.98519798014828E-02 
411	 7.14663104948891E-02 
412	 7.24909268665948E-02 
413	 0.072914965282619 
414	 0.072387228226223 
415	 7.14298444272399E-02 
416	 7.16231002264672E-02 
417	 7.18872100272745E-02 
418	 7.24897390930963E-02 
419	 7.34785207353638E-02 
420	 7.30832271260687E-02 
421	 0.072623069415887 
422	 7.27623720245084E-02 
423	 0.073520403448196 
424	 7.31874173567302E-02 
425	 7.29894142498807E-02 
426	 7.34165773031082E-02 
427	 7.29068172322248E-02 
428	 7.26878616455358E-02 
429	 0.072535169931498 
430	 7.20673217532451E-02 
431	 7.25943299382689E-02 
432	 7.26255741027377E-02 
433	 7.19721367984292E-02 
434	 0.071774598742511 
435	 7.18590211238237E-02 
436	 7.19734171560741E-02 
437	 7.19397856824213E-02 
438	 7.18268995596526E-02 
439	 0.071830488594266 
440	 7.20326500324637E-02 
441	 7.23976523952067E-02 
442	 7.25030467429412E-02 
443	 7.27258646330502E-02 
444	 7.30755716869553E-02 
445	 7.28709432311911E-02 
446	 7.30508868690877E-02 
447	 0.073373286217429 
448	 7.34133026705031E-02 
449	 7.34990763135167E-02 
450	 0.073765479352162 
451	 0.074118824741817 
452	 7.42915503547211E-02 
453	 7.44196274983758E-02 
454	 7.44784861868695E-02 
455	 7.45105962311475E-02 
456	 7.48041823117927E-02 
457	 7.50139050775624E-02 
458	 7.50885814693015E-02 
459	 7.51417170145801E-02 
460	 7.54215467358729E-02 
461	 7.55795986442482E-02 
462	 7.55032215678587E-02 
463	 7.54682983573118E-02 
464	 0.075814602304568 
465	 0.076216772664804 
466	 7.62967483758129E-02 
467	 7.63096626046353E-02 
468	 7.62494071266124E-02 
469	 7.61908030006327E-02 
470	 7.62570604873837E-02 
471	 7.62051289777026E-02 
472	 7.63314263719753E-02 
473	 7.66832095327042E-02 
474	 7.64970098992816E-02 
475	 7.63463884632273E-02 
476	 7.63118419793215E-02 
477	 7.62897856637088E-02 
478	 0.076471876904784 
479	 7.67000603706433E-02 
480	 7.68122572978031E-02 
481	 0.076674195700855 
482	 7.67746741345972E-02 
483	 7.69762715485215E-02 
484	 7.70272283257101E-02 
485	 7.70015187107535E-02 
486	 7.69257444503758E-02 
487	 7.68999713725262E-02 
488	 7.70639066489311E-02 
489	 7.71839564500748E-02 
490	 7.73422428593417E-02 
491	 7.75420250763132E-02 
492	 7.74318025754695E-02 
493	 7.73849841771839E-02 
494	 7.74149173169971E-02 
495	 7.73963141481755E-02 
496	 7.75610550100518E-02 
497	 7.76074289383731E-02 
498	 7.75218477249689E-02 
499	 7.78002988515583E-02 
500	 7.77677198797859E-02 
501	 7.76669788372679E-02 
502	 7.78487537980061E-02 
503	 7.78765099061196E-02 
504	 7.78919182240902E-02 
505	 0.077923118057228 
506	 7.78890499918162E-02 
507	 7.80476554450293E-02 
508	 7.82722137085151E-02 
509	 0.078372781807328 
510	 0.078160268452616 
511	 7.81321226648665E-02 
512	 0.078277961594822 
513	 7.83332874255066E-02 
514	 7.84866126817778E-02 
515	 7.85207723084122E-02 
516	 7.84367176108542E-02 
517	 7.86932086108913E-02 
518	 7.87577097136058E-02 
519	 7.87275182881108E-02 
520	 7.88451934449199E-02 
521	 7.89620744119572E-02 
522	 7.90182762928774E-02 
523	 7.90241113648049E-02 
524	 7.90568230532298E-02 
525	 7.91170840295401E-02 
526	 7.91731615161367E-02 
527	 7.92042880712207E-02 
528	 7.92496809264764E-02 
529	 7.93140265718616E-02 
530	 7.93992385240866E-02 
531	 7.95034317750732E-02 
532	 7.96034338634745E-02 
533	 7.97472793050177E-02 
534	 7.99311702888962E-02 
535	 8.00266819634823E-02 
536	 8.00528874920892E-02 
537	 8.01009051131422E-02 
538	 8.02627749972376E-02 
539	 8.04101343702208E-02 
540	 8.05063212318393E-02 
541	 8.05674098570138E-02 
542	 8.06664662925757E-02 
543	 8.07510166788361E-02 
544	 8.08612076460448E-02 
545	 8.10380571203425E-02 
546	 8.12410051872321E-02 
547	 8.13748669249106E-02 
548	 8.14800498818475E-02 
549	 8.17014225089811E-02 
550	 8.18762158952199E-02 
551	 8.20342799199426E-02 
552	 8.22289316859473E-02 
553	 0.082486626621265 
554	 8.27272039164942E-02 
555	 8.29348813457498E-02 
556	 8.31339871585481E-02 
557	 8.33547762826454E-02 
558	 0.083647133200679 
559	 8.40124908211341E-02 
560	 8.43707216815738E-02 
561	 8.47284573568247E-02 
562	 8.51042899795373E-02 
563	 8.55205128318259E-02 
564	 8.59866221905077E-02 
565	 8.64117407297445E-02 
566	 8.68191206661883E-02 
567	 8.73621152460519E-02 
568	 8.79355478899624E-02 
569	 8.84858284388797E-02 
570	 0.088997271702756 
571	 8.95318013962852E-02 
572	 0.090117625940312 
573	 0.090755142499239 
574	 9.14192463480144E-02 
575	 9.20636028360048E-02 
576	 9.27239805847229E-02 
577	 9.34344719585558E-02 
578	 9.41940111377838E-02 
579	 9.50192438960495E-02 
580	 9.58879647588642E-02 
581	 9.67632518582145E-02 
582	 9.76436801630685E-02 
583	 9.85139334633862E-02 
584	 9.93810370184809E-02 
585	 0.100286043883977 
586	 0.101259036752025 
587	 0.102233109265121 
588	 0.103155848763194 
589	 0.104180402275973 
590	 0.105224953657249 
591	 0.106226536814352 
592	 0.107156138035807 
593	 0.108111099269369 
594	 0.109116602369212 
595	 0.110163939670581 
596	 0.111215585394464 
597	 0.112235660721009 
598	 0.113205884704319 
599	 0.114134979620863 
600	 0.115119882236178 
601	 0.116103192200289 
602	 0.117023248130706 
603	 0.117841019660773 
604	 0.118678732395594 
605	 0.119519596333544 
606	 0.120307684807705 
607	 0.121074564966973 
608	 0.121815777240715 
609	 0.122567089567129 
610	 0.123408696931818 
611	 0.124060372077934 
612	 0.124648220707636 
613	 0.12530972162725 
614	 0.125863362001289 
615	 0.126415742008245 
616	 0.126977060497547 
617	 0.127486752107689 
618	 0.127931180879327 
619	 0.128344410903014 
620	 0.128749194072878 
621	 0.129118866461978 
622	 0.129513049140544 
623	 0.129923049143566 
624	 0.130306799322149 
625	 0.13060831596048 
626	 0.130927180530328 
627	 0.131292265046379 
628	 0.131623441647613 
629	 0.131990185996858 
630	 0.132331773736031 
631	 0.132593510044706 
632	 0.132881246222779 
633	 0.13314404560159 
634	 0.133404592075722 
635	 0.133738477479307 
636	 0.134020532150347 
637	 0.134300080461974 
638	 0.13461209472089 
639	 0.13487595573078 
640	 0.135157967495556 
641	 0.135467069127293 
642	 0.135783289090974 
643	 0.136091658921122 
644	 0.136374917650576 
645	 0.136650025936858 
646	 0.136982955162184 
647	 0.137288349866639 
648	 0.137595477286718 
649	 0.137946418491268 
650	 0.138291223507067 
651	 0.138610997927067 
652	 0.138943123327884 
653	 0.139361537037212 
654	 0.139696710180561 
655	 0.140021712142892 
656	 0.140409856745599 
657	 0.140823553020476 
658	 0.141222075276983 
659	 0.141611548743377 
660	 0.142011279779229 
661	 0.14233480040204 
662	 0.142729110329452 
663	 0.143234979554703 
664	 0.143711987897164 
665	 0.144131045353469 
666	 0.144559408001164 
667	 0.145054915354744 
668	 0.145484217917581 
669	 0.14597188367651 
670	 0.146529826870236 
671	 0.147066758424649 
672	 0.147531330472387 
673	 0.148007821006425 
674	 0.148554425760951 
675	 0.149112477412334 
676	 0.14967093344292 
677	 0.150211595599499 
678	 0.150734210785832 
679	 0.151363154157653 
680	 0.151971315102157 
681	 0.152533211620647 
682	 0.15318436593765 
683	 0.153830428738519 
684	 0.154453315723448 
685	 0.155070099952204 
686	 0.155749899962798 
687	 0.156439746544176 
688	 0.157117765307891 
689	 0.157787020775527 
690	 0.158446419448166 
691	 0.159105926989824 
692	 0.159783203892081 
693	 0.160512574892482 
694	 0.161245575825387 
695	 0.161970667195355 
696	 0.162695924322587 
697	 0.163447075661852 
698	 0.164209046336142 
699	 0.164972630603528 
700	 0.165736532078116 
701	 0.16649538483175 
702	 0.167247434836957 
703	 0.168001076554357 
704	 0.168797159543903 
705	 0.169545105465197 
706	 0.170281522637228 
707	 0.171089244568933 
708	 0.171833390472439 
709	 0.17258229962207 
710	 0.173375290569202 
711	 0.174182051711024 
712	 0.174933811238562 
713	 0.175672117109865 
714	 0.176443078538505 
715	 0.177171794910181 
716	 0.177904340474181 
717	 0.178650592660892 
718	 0.179385872515377 
719	 0.180038725411872 
720	 0.180668408753318 
721	 0.181319623577932 
722	 0.181972345124222 
723	 0.182604860679098 
724	 0.183234371682745 
725	 0.183867381847996 
726	 0.184373872032698 
727	 0.184920063738693 
728	 0.185491550157056 
729	 0.185909313442806 
730	 0.186429237201727 
731	 0.186923610593187 
732	 0.187297661305415 
733	 0.187702251141955 
734	 0.188109409657493 
735	 0.188462500254458 
736	 0.188724187010888 
737	 0.189078687721054 
738	 0.189355829808777 
739	 0.189528809522323 
740	 0.189751218888271 
741	 0.189970766389438 
742	 0.190150764124229 
743	 0.190263728002868 
744	 0.190294593627317 
745	 0.190325637637018 
746	 0.19037430437584 
747	 0.190412399301211 
748	 0.190352762090691 
749	 0.190290366665582 
750	 0.190242801876006 
751	 0.19011619377121 
752	 0.189945746418622 
753	 0.189781493141439 
754	 0.189643225488602 
755	 0.189452828510552 
756	 0.189240608536919 
757	 0.189010579396809 
758	 0.188754740810802 
759	 0.188475955935786 
760	 0.188160712540359 
761	 0.187819633422857 
762	 0.187493259030537 
763	 0.187197145991595 
764	 0.186843336190052 
765	 0.186390769077237 
766	 0.186002258673906 
767	 0.185623787561126 
768	 0.185215951242675 
769	 0.18476181583716 
770	 0.184359264889603 
771	 0.183961551695686 
772	 0.183528558119469 
773	 0.183046855995631 
774	 0.182576989242745 
775	 0.182121955180727 
776	 0.181669340616294 
777	 0.181205664798071 
778	 0.180747183507514 
779	 0.180277270753103 
780	 0.179774484219993 
781	 0.179284621320541 
782	 0.178822380552246 
783	 0.178353300743956 
784	 0.1778046776218 
785	 0.177341567823219 
786	 0.176896134204922 
787	 0.17640627375607 
788	 0.175934393796126 
789	 0.175466352535291 
790	 0.175002426998596 
791	 0.174545946299982 
792	 0.174100082597057 
793	 0.173631688713603 
794	 0.173145796085614 
795	 0.172681622963951 
796	 0.172237330294363 
797	 0.171784521049956 
798	 0.171311316148834 
799	 0.170840501475517 
800	 0.170434449611182 
801	 0.170044710174672 
802	 0.169606206817817 
803	 0.169128539416411 
804	 0.168731258054737 
805	 0.168394910660061 
806	 0.168016895528047 
807	 0.167624604369397 
808	 0.167196757987604 
809	 0.166770873255213 
810	 0.166456690340998 
811	 0.166122631326976 
812	 0.165775668191139 
813	 0.165439647241495 
814	 0.165099661748501 
815	 0.164706154318407 
816	 0.164326393720007 
817	 0.164043694220084 
818	 0.16373807122943 
819	 0.163459217279962 
820	 0.163211182885725 
821	 0.162948293826625 
822	 0.16260296307828 
823	 0.162294896394303 
824	 0.162062717186344 
825	 0.161766534061063 
826	 0.161510315531408 
827	 0.161290022672249 
828	 0.161072313423582 
829	 0.160826172665011 
830	 0.160591270555539 
831	 0.160369630292104 
832	 0.160149648750201 
833	 0.159962217250036 
834	 0.159792234459594 
835	 0.15963144117224 
836	 0.159479038462879 
837	 0.159298357832219 
838	 0.159114725321993 
839	 0.158950709590073 
840	 0.158805405482006 
841	 0.158681434390581 
842	 0.158541283936351 
843	 0.158372030251114 
844	 0.158270489138227 
845	 0.15817667289013 
846	 0.158067717248572 
847	 0.157953280422653 
848	 0.157913578126596 
849	 0.157875901298856 
850	 0.157792799564415 
851	 0.157660563940495 
852	 0.157583573248163 
853	 0.157553509016277 
854	 0.15753683686245 
855	 0.157492771639113 
856	 0.157474218157291 
857	 0.15745958225539 
858	 0.157438030265404 
859	 0.157476603455962 
860	 0.15748004599472 
861	 0.157467846624128 
862	 0.157488946456783 
863	 0.15752780604052 
864	 0.157512919206741 
865	 0.157508522915791 
866	 0.157624300631713 
867	 0.157648287619313 
868	 0.157720093032372 
869	 0.157844953565201 
870	 0.157875222033256 
871	 0.157942021535471 
872	 0.158044371118874 
873	 0.158168839419085 
874	 0.158317336384738 
875	 0.158440687556676 
876	 0.158575460988255 
877	 0.158731069540558 
878	 0.15877496085772 
879	 0.158922516713176 
880	 0.159093940177243 
881	 0.159171338980235 
882	 0.159343231066983 
883	 0.15954633958895 
884	 0.159739609058213 
885	 0.159910430030833 
886	 0.160119461651584 
887	 0.160338127940991 
888	 0.160538830068532 
889	 0.160709139930617 
890	 0.160897110043359 
891	 0.161159856461532 
892	 0.161478745767166 
893	 0.161746063800849 
894	 0.161946833791783 
895	 0.162186490869503 
896	 0.162513701868721 
897	 0.162831733777086 
898	 0.163130671644114 
899	 0.163430560490525 
900	 0.163744569146292 
901	 0.164035108237777 
902	 0.164344207415193 
903	 0.164700356357461 
904	 0.165102947238842 
905	 0.165475856170125 
906	 0.165831899343489 
907	 0.166189548138956 
908	 0.166561185466165 
909	 0.166909543932733 
910	 0.167275895678148 
911	 0.167703442070257 
912	 0.168200530947212 
913	 0.168579445709925 
914	 0.168982601829812 
915	 0.169445293550775 
916	 0.16988432776519 
917	 0.170283218200349 
918	 0.170758525613128 
919	 0.17131834183361 
920	 0.171829341987099 
921	 0.172296525139056 
922	 0.1727873551769 
923	 0.173320983995735 
924	 0.173831706354423 
925	 0.174385061935322 
926	 0.174985644134214 
927	 0.175584032380353 
928	 0.176061766179935 
929	 0.176679115528971 
930	 0.177325540699805 
931	 0.17788265838924 
932	 0.178447696480819 
933	 0.179068678208235 
934	 0.179708611158013 
935	 0.180335593926811 
936	 0.181017508777788 
937	 0.181697090487722 
938	 0.182349498456632 
939	 0.1829936030722 
940	 0.183749828529033 
941	 0.184522355287955 
942	 0.185256205225084 
943	 0.185936470086996 
944	 0.186610091517144 
945	 0.187323730402558 
946	 0.18814391612338 
947	 0.189061966284982 
948	 0.189758059247203 
949	 0.190448501736554 
950	 0.191161808774202 
951	 0.191867861816783 
952	 0.192797726579528 
953	 0.193748478368172 
954	 0.194587243469447 
955	 0.195300828352724 
956	 0.196149925354208 
957	 0.197067682765704 
958	 0.197955032532105 
959	 0.198756347116654 
960	 0.199675639708525 
961	 0.200631024818062 
962	 0.201587118999548 
963	 0.202526831979693 
964	 0.203281877142618 
965	 0.204141990246284 
966	 0.205103577710714 
967	 0.205984683125888 
968	 0.206942480536504 
969	 0.207918759506351 
970	 0.208909007603115 
971	 0.20993911612177 
972	 0.210954915253194 
973	 0.211949694081081 
974	 0.212949369992659 
975	 0.213979946747922 
976	 0.214944591233607 
977	 0.215925803247322 
978	 0.216964538257046 
979	 0.21802762465429 
980	 0.218909005864969 
981	 0.219811548963752 
982	 0.22080014668346 
983	 0.221827894160306 
984	 0.222863530586788 
985	 0.223980952586732 
986	 0.225056097447271 
987	 0.225950257877887 
988	 0.227036784703066 
989	 0.228085866440752 
990	 0.2290420438206 
991	 0.22999130460602 
992	 0.231144772109463 
993	 0.232022719438794 
994	 0.232885443518985 
995	 0.234125448263807 
996	 0.2351908315192 
997	 0.236081725485177 
998	 0.236986517199549 
999	 0.238079397571908 
1000	 0.239218262614882 
1001	 0.240080399585355 
1002	 0.241087963094792 
1003	 0.242039338038695 
1004	 0.242973984810776 
1005	 0.243945041892955 
1006	 0.244872533156759 
1007	 0.245728596553017 
1008	 0.246617071305447 
1009	 0.247545246156625 
1010	 0.248388870428872 
1011	 0.249204045210908 
1012	 0.25005522093151 
1013	 0.250937657164283 
1014	 0.25178604597254 
1015	 0.25264922744997 
1016	 0.253485995869156 
1017	 0.254270411489269 
1018	 0.254977585534785 
1019	 0.255702896625071 
1020	 0.256441322929856 
1021	 0.257211264647471 
1022	 0.257984216038133 
1023	 0.258722750956602 
1024	 0.259503672186168 
1025	 0.260215490052702 
1026	 0.260865024881209 
1027	 0.261608449077966 
1028	 0.26234130476932 
1029	 0.263006392759311 
1030	 0.263711569185312 
1031	 0.264382667602274 
1032	 0.265025776919935 
1033	 0.265593526370294 
1034	 0.266238921983605 
1035	 0.266860386890377 
1036	 0.267459666236595 
1037	 0.268111769343769 
1038	 0.268721414873614 
1039	 0.26934436883176 
1040	 0.269920102867905 
1041	 0.270434177891602 
1042	 0.270992220870013 
1043	 0.271580818993009 
1044	 0.272154893373623 
1045	 0.27275058912462 
1046	 0.273362135717676 
1047	 0.273921312832468 
1048	 0.274404143721266 
1049	 0.274913775944136 
1050	 0.27548572545354 
1051	 0.27609408145928 
1052	 0.276705427688556 
1053	 0.277311066566124 
1054	 0.277884506788368 
1055	 0.278425947573924 
1056	 0.278999409486948 
1057	 0.279542339283042 
1058	 0.280046062688322 
1059	 0.280594336089989 
1060	 0.281147863717769 
1061	 0.281694550165403 
1062	 0.282300516405366 
1063	 0.282909484268621 
1064	 0.283459850202566 
1065	 0.284022311987751 
1066	 0.284586799923577 
1067	 0.285139310128648 
1068	 0.285731271634608 
1069	 0.286289607931325 
1070	 0.286825276265956 
1071	 0.287315284026259 
1072	 0.287860849191249 
1073	 0.288413045995265 
1074	 0.288944371689736 
1075	 0.289492430236135 
1076	 0.290014186156831 
1077	 0.290519978835798 
1078	 0.291057254320468 
1079	 0.291589665602652 
1080	 0.292088255993504 
1081	 0.292548538536587 
1082	 0.293044085847862 
1083	 0.293546387581888 
1084	 0.294066314937113 
1085	 0.294560234981479 
1086	 0.295040767481334 
1087	 0.295530655493135 
1088	 0.295994061692183 
1089	 0.296507753250791 
1090	 0.297037416827312 
1091	 0.297550604684641 
1092	 0.298044282699232 
1093	 0.298525432911767 
1094	 0.299000009913376 
1095	 0.299446249657661 
1096	 0.29985415232678 
1097	 0.30027270898295 
1098	 0.300718897903156 
1099	 0.301172842998591 
1100	 0.301627380573869 
1101	 0.302115443053572 
1102	 0.302585329146917 
1103	 0.303048743431811 
1104	 0.303483375896013 
1105	 0.303955420506839 
1106	 0.304441480915736 
1107	 0.304889822244389 
1108	 0.305378773302098 
1109	 0.305833946233387 
1110	 0.306246594121071 
1111	 0.306694740661057 
1112	 0.307148988980334 
1113	 0.307586149295307 
1114	 0.308047833237367 
1115	 0.308475748391516 
1116	 0.308858161826377 
1117	 0.309281310546366 
1118	 0.309726658461213 
1119	 0.310134212031083 
1120	 0.310562730868427 
1121	 0.310991380231273 
1122	 0.31137909011545 
1123	 0.311789525420351 
1124	 0.312219228743975 
1125	 0.312665119101287 
1126	 0.313111773601453 
1127	 0.313588723662206 
1128	 0.314026014270864 
1129	 0.314449928905058 
1130	 0.314867187602282 
1131	 0.315261385904572 
1132	 0.315665333060968 
1133	 0.316081123421261 
1134	 0.316479789866085 
1135	 0.316857615389786 
1136	 0.317240334791064 
1137	 0.317650483614781 
1138	 0.318064470667714 
1139	 0.318459570034497 
1140	 0.318865551165083 
1141	 0.319257858957199 
1142	 0.319616992333617 
1143	 0.319998388258016 
1144	 0.320416141412758 
1145	 0.320788390424638 
1146	 0.321141580466742 
1147	 0.321484786315433 
1148	 0.321794668503774 
1149	 0.322116990460835 
1150	 0.322435634643484 
1151	 0.322761008971562 
1152	 0.323083871630854 
1153	 0.323408803635881 
1154	 0.323747544497865 
1155	 0.324100839209015 
1156	 0.324442148312136 
1157	 0.324811729856964 
1158	 0.325123201340145 
1159	 0.325391307665691 
1160	 0.325679977717022 
1161	 0.325929018052056 
1162	 0.326219628949627 
1163	 0.326562137461888 
1164	 0.326866560580395 
1165	 0.327168452490184 
1166	 0.327465661319131 
1167	 0.327727051190543 
1168	 0.327995271615298 
1169	 0.328274357955853 
1170	 0.328563792352574 
1171	 0.328839441833764 
1172	 0.329115923302512 
1173	 0.329388056899363 
1174	 0.329653672667793 
1175	 0.329916102324694 
1176	 0.330180019492456 
1177	 0.330441857406332 
1178	 0.330688285404531 
1179	 0.330947333988519 
1180	 0.331225359715883 
1181	 0.331483883469865 
1182	 0.331728688128315 
1183	 0.33199454158746 
1184	 0.332230878921401 
1185	 0.332445425371986 
1186	 0.332670589733111 
1187	 0.332882938440662 
1188	 0.333115579913142 
1189	 0.333363264759379 
1190	 0.333598505820846 
1191	 0.333845326493592 
1192	 0.334073037702355 
1193	 0.334287484551723 
1194	 0.334498770350736 
1195	 0.334701592555448 
1196	 0.334902942459757 
1197	 0.335088886941213 
1198	 0.335286106212923 
1199	 0.335487102230993 
1200	 0.335695217404863 
1201	 0.335889043500113 
1202	 0.33608696018434 
1203	 0.336273855581046 
1204	 0.336443042352195 
1205	 0.336623434037303 
1206	 0.336812946255574 
1207	 0.3369870523214 
1208	 0.33715533714358 
1209	 0.337321169708407 
1210	 0.337468671106321 
1211	 0.337632035633265 
1212	 0.33782180590465 
1213	 0.337979836766598 
1214	 0.338132969735933 
1215	 0.338273979176374 
1216	 0.338399713919824 
1217	 0.338484112165791 
1218	 0.338617357528496 
1219	 0.338764411270477 
1220	 0.338906949043178 
1221	 0.339078121217694 
1222	 0.339215415220108 
1223	 0.339328537484934 
1224	 0.339454814113122 
1225	 0.339584899010029 
1226	 0.339698201250886 
1227	 0.339802560755614 
1228	 0.339912304349449 
1229	 0.340003908074864 
1230	 0.340107527159211 
1231	 0.340235979182654 
1232	 0.340347069405398 
1233	 0.340451754032652 
1234	 0.340543862870695 
1235	 0.340655279137762 
1236	 0.340768217755942 
1237	 0.340878065438475 
1238	 0.341009218044498 
1239	 0.341111427957056 
1240	 0.341186688896702 
1241	 0.341278873106451 
1242	 0.341367581950948 
1243	 0.34145897774719 
1244	 0.341560258673594 
1245	 0.341654512727293 
1246	 0.341754932954514 
1247	 0.341837426802012 
1248	 0.3419029796829 
1249	 0.341971698166511 
1250	 0.342044740066907 
1251	 0.342123452972168 
1252	 0.34219795423234 
1253	 0.342289709653957 
1254	 0.342360197403678 
1255	 0.342404496067665 
1256	 0.342474507381574 
1257	 0.342561806847488 
1258	 0.342628909091004 
1259	 0.342693178339372 
1260	 0.342761170262579 
1261	 0.342823555459299 
1262	 0.342878669644141 
1263	 0.34293840251223 
1264	 0.342991740300735 
1265	 0.343026492828424 
1266	 0.343066889203034 
1267	 0.343117606406966 
1268	 0.343160474901107 
1269	 0.343191110481248 
1270	 0.34320532783725 
1271	 0.34323991531018 
1272	 0.343271530420811 
1273	 0.343313487654542 
1274	 0.343364831390294 
1275	 0.343426754863772 
1276	 0.343485450346211 
1277	 0.343568138655211 
1278	 0.343676285233082 
1279	 0.34378719756047 
1280	 0.343925745186153 
1281	 0.344038716863014 
1282	 0.344140063449825 
1283	 0.344251892380954 
1284	 0.344362645298345 
1285	 0.344460068841859 
1286	 0.344574735360407 
1287	 0.344709659806727 
1288	 0.344832780913963 
1289	 0.344948318819952 
1290	 0.345081937560512 
1291	 0.345228808907859 
1292	 0.345361900201535 
1293	 0.34549550112748 
1294	 0.345631584394346 
1295	 0.345762948581472 
1296	 0.345895289941774 
1297	 0.346038605534978 
1298	 0.346169629831637 
1299	 0.346305215472911 
1300	 0.346414370171469 
1301	 0.346487991660102 
1302	 0.34658546940494 
1303	 0.346691330804987 
1304	 0.346777262606229 
1305	 0.346836484443139 
1306	 0.346922651544759 
1307	 0.346995278100295 
1308	 0.347026064160975 
1309	 0.347062320311657 
1310	 0.347109070371276 
1311	 0.347144034838669 
1312	 0.34714169443133 
1313	 0.347171389943746 
1314	 0.347236879103222 
1315	 0.347261407976119 
1316	 0.347251638271604 
1317	 0.347286292228163 
1318	 0.347336523496015 
1319	 0.347365436205979 
1320	 0.347423595576676 
1321	 0.347453561006271 
1322	 0.347449882805933 
1323	 0.347437521141171 
1324	 0.347450971081675 
1325	 0.347468340845784 
1326	 0.347473790736117 
1327	 0.347473768066016 
1328	 0.347448708261894 
1329	 0.347421035797327 
1330	 0.347412125273406 
1331	 0.347409708246897 
1332	 0.347403736257543 
1333	 0.347403121872194 
1334	 0.347411417051818 
1335	 0.347417935184232 
1336	 0.347429369897158 
1337	 0.347456474169327 
1338	 0.347481233374619 
1339	 0.347510759508447 
1340	 0.347525483999761 
1341	 0.347555800342214 
1342	 0.347552274893604 
1343	 0.347511947071829 
1344	 0.347476698926201 
1345	 0.347444393935208 
1346	 0.347434746950611 
1347	 0.34746264633399 
1348	 0.34749026829567 
1349	 0.347518498191241 
1350	 0.347524204284193 
1351	 0.347518050252453 
1352	 0.347475109128859 
1353	 0.34748437775747 
1354	 0.347508904634351 
1355	 0.3475274691361 
1356	 0.347580266922444 
1357	 0.347602508534694 
1358	 0.347592011968454 
1359	 0.347606056109943 
1360	 0.347618024276082 
1361	 0.347645845855871 
1362	 0.347697180085963 
1363	 0.347732458154413 
1364	 0.347783922331197 
1365	 0.347817092887205 
1366	 0.347826044484201 
1367	 0.347833349240796 
1368	 0.347886721103535 
1369	 0.347914882449448 
1370	 0.347950937469674 
1371	 0.347998620851374 
1372	 0.348006078646103 
1373	 0.347996736893254 
1374	 0.347979794354017 
1375	 0.347957429169327 
1376	 0.347911796194054 
1377	 0.347846545222312 
1378	 0.347776571497561 
1379	 0.347681687710366 
1380	 0.347606459210313 
1381	 0.347531262945233 
1382	 0.347454794700704 
1383	 0.34738408266624 
1384	 0.347312394750545 
1385	 0.347259455685556 
1386	 0.347170582739556 
1387	 0.347076519491652 
1388	 0.346955848578951 
1389	 0.346808324112968 
1390	 0.346634647343476 
1391	 0.346445401313112 
1392	 0.346253345094789 
1393	 0.346041072748979 
1394	 0.345807492941852 
1395	 0.345552868480179 
1396	 0.345316005159717 
1397	 0.345082655468681 
1398	 0.344845331833211 
1399	 0.344606746438419 
1400	 0.344388854562032 
1401	 0.344133696240795 
1402	 0.34386256234782 
1403	 0.343589061073385 
1404	 0.343277186355705 
1405	 0.343012566281966 
1406	 0.342750496480381 
1407	 0.342515236510011 
1408	 0.342321294285403 
1409	 0.342119715493646 
1410	 0.341914909680933 
1411	 0.3417379020727 
1412	 0.341565215309727 
1413	 0.341420784717979 
1414	 0.341329144866086 
1415	 0.341267238519862 
1416	 0.341231376569499 
1417	 0.341223970161826 
1418	 0.341204105115192 
1419	 0.341177261969548 
1420	 0.341172202162068 
1421	 0.341159352295082 
1422	 0.34113804598144 
1423	 0.341128990119633 
1424	 0.341115045984672 
1425	 0.341094176195614 
1426	 0.341068734412789 
1427	 0.341042259280658 
1428	 0.34102519579593 
1429	 0.340997979868988 
1430	 0.340987919569172 
1431	 0.341002127865855 
1432	 0.340994993003804 
1433	 0.34098234161335 
1434	 0.340972930834978 
1435	 0.340948258790542 
1436	 0.340949091437776 
1437	 0.340958906492999 
1438	 0.340973772584988 
1439	 0.341005419832762 
1440	 0.341041572428743 
1441	 0.341055334646607 
1442	 0.341082276170473 
1443	 0.341111828356265 
1444	 0.341114979984218 
1445	 0.341141900848713 
1446	 0.341183974106947 
1447	 0.34119509253049 
1448	 0.341212529845697 
1449	 0.341216770016035 
1450	 0.341209026209122 
1451	 0.341208608609431 
1452	 0.341199388278363 
1453	 0.341214994455045 
1454	 0.341242472169199 
1455	 0.341268473362691 
1456	 0.341324242681476 
1457	 0.341347719832128 
1458	 0.341354595246288 
1459	 0.341358751298616 
1460	 0.341333086883624 
1461	 0.34134246757932 
1462	 0.341364277286106 
1463	 0.341389850817452 
1464	 0.341440831119379 
1465	 0.341479014931731 
1466	 0.341509508798978 
1467	 0.341545975436329 
1468	 0.341574797880682 
1469	 0.34162084947254 
1470	 0.341679233798652 
1471	 0.341736785279791 
1472	 0.341802711145712 
1473	 0.341892058945697 
1474	 0.341975355696758 
1475	 0.342060516284613 
1476	 0.342145518076496 
1477	 0.342217741074697 
1478	 0.342301193142562 
1479	 0.342387212427256 
1480	 0.34249423628466 
1481	 0.34262034272924 
1482	 0.342722768239891 
1483	 0.342819678363318 
1484	 0.342922523503677 
1485	 0.343011242301734 
1486	 0.343115098400934 
1487	 0.343235696766931 
1488	 0.343344707777506 
1489	 0.343459214283991 
1490	 0.343549871943706 
1491	 0.343621579946363 
1492	 0.343711422669231 
1493	 0.34379179629929 
1494	 0.343882237841218 
1495	 0.343991662787399 
1496	 0.344088035945799 
1497	 0.344169486232934 
1498	 0.344268523753544 
1499	 0.344390665705849 
1500	 0.34448857845899 
1501	 0.344584642100805 
1502	 0.344671168581479 
1503	 0.344739499449129 
1504	 0.344795175877817 
1505	 0.344877477650848 
1506	 0.344970590122204 
1507	 0.345069524171724 
1508	 0.345168550624723 
1509	 0.345246863609288 
1510	 0.345311825969951 
1511	 0.345357644937425 
1512	 0.345412347021327 
1513	 0.345505772302725 
1514	 0.345598071830721 
1515	 0.345706512096075 
1516	 0.345834005051254 
1517	 0.345927084398491 
1518	 0.346000904730174 
1519	 0.346075676585197 
1520	 0.346137203608708 
1521	 0.346198513128909 
1522	 0.34625517543548 
1523	 0.346314626496674 
1524	 0.346364364140929 
1525	 0.346428167446789 
1526	 0.346494935411717 
1527	 0.346573766961398 
1528	 0.346674727036718 
1529	 0.346749140025112 
1530	 0.346820964520621 
1531	 0.346892485977434 
1532	 0.346947481192827 
1533	 0.347009909892075 
1534	 0.347091996047356 
1535	 0.347145105577344 
1536	 0.347169475749324 
1537	 0.347212678816122 
1538	 0.347247443785293 
1539	 0.347289224215435 
1540	 0.347356748221089 
1541	 0.347402263184061 
1542	 0.347438668603232 
1543	 0.347470874709408 
1544	 0.347487871160599 
1545	 0.347506748760416 
1546	 0.347522662773792 
1547	 0.347533597493222 
1548	 0.347550831925815 
1549	 0.347590323485794 
1550	 0.347631384730784 
1551	 0.347678966711644 
1552	 0.347714945874386 
1553	 0.347737033282143 
1554	 0.347772444604104 
1555	 0.347813962991188 
1556	 0.347869686468606 
1557	 0.347933322036364 
1558	 0.348001015386999 
1559	 0.348068133319774 
1560	 0.348121846471017 
1561	 0.348169346497991 
1562	 0.348221837695257 
1563	 0.34825776956904 
1564	 0.348315461514565 
1565	 0.348394452088536 
1566	 0.348456014183712 
1567	 0.348518229074482 
1568	 0.348577155288867 
1569	 0.348631033472096 
1570	 0.348674303809192 
1571	 0.348718704628774 
1572	 0.348749584248694 
1573	 0.348758729194971 
1574	 0.348781433578745 
1575	 0.348803813777021 
1576	 0.348827156254156 
1577	 0.348860369784079 
1578	 0.348874382196894 
1579	 0.348871198105506 
1580	 0.348884484856684 
1581	 0.348896019374896 
1582	 0.348910980958014 
1583	 0.348934912430939 
1584	 0.348960241669141 
1585	 0.348977931889566 
1586	 0.349008744832313 
1587	 0.349062198867647 
1588	 0.349101027831822 
1589	 0.349140710587515 
1590	 0.349170889778829 
1591	 0.349190327526244 
1592	 0.349208445631528 
1593	 0.349218495837067 
1594	 0.349233320814122 
1595	 0.349242801378904 
1596	 0.34926116935113 
1597	 0.349285724078823 
1598	 0.349312694358053 
1599	 0.349356405300965 
1600	 0.349382697356724 
1601	 0.349394936441587 
1602	 0.349415033012285 
1603	 0.349432314795804 
1604	 0.349446136110491 
1605	 0.349466439718961 
1606	 0.349481788959858 
1607	 0.349488505405765 
1608	 0.349489136459232 
1609	 0.349506014346957 
1610	 0.349538139508367 
1611	 0.349544727112779 
1612	 0.349558860756317 
1613	 0.349575352053417 
1614	 0.349563294454778 
1615	 0.349590201542672 
1616	 0.34961423619097 
1617	 0.349616295029237 
1618	 0.349647466510353 
1619	 0.349652639824572 
1620	 0.34965806441103 
1621	 0.349664689530546 
1622	 0.349669788369973 
1623	 0.349676730700126 
1624	 0.349682941680249 
1625	 0.349694162243901 
1626	 0.349711361612528 
1627	 0.349717478857608 
1628	 0.349723161337911 
1629	 0.34972627973517 
1630	 0.34972049011928 
1631	 0.349721068137565 
1632	 0.349725357107574 
1633	 0.349726573873947 
1634	 0.349722159036577 
1635	 0.349730805650601 
1636	 0.349745656336676 
1637	 0.34975833633618 
1638	 0.349778598553229 
1639	 0.349792612451403 
1640	 0.349805960017877 
1641	 0.34981147167655 
1642	 0.3498150542752 
1643	 0.349813629442569 
1644	 0.349797519186895 
1645	 0.349796891164728 
1646	 0.349801943562347 
1647	 0.349804608782839 
1648	 0.34980648167641 
1649	 0.349823171459486 
1650	 0.349845897460616 
1651	 0.349868477509556 
1652	 0.34991668892863 
1653	 0.349927110710422 
1654	 0.34991234346768 
1655	 0.349911626642158 
1656	 0.349892692792524 
1657	 0.349896442425596 
1658	 0.349926063986835 
1659	 0.34993056117966 
1660	 0.349925881023675 
1661	 0.349930713679817 
1662	 0.349926917822044 
1663	 0.34993139645887 
1664	 0.349950702055553 
1665	 0.349961032056358 
1666	 0.349966301062025 
1667	 0.349972409023297 
1668	 0.349982380610266 
1669	 0.349983924619079 
1670	 0.349977095107762 
1671	 0.349975999660331 
1672	 0.349976527586925 
1673	 0.34997028671545 
1674	 0.349958062918921 
1675	 0.349955918904009 
1676	 0.349948720915322 
1677	 0.349953173279258 
1678	 0.349982437961816 
1679	 0.34998616741224 
1680	 0.349989795439571 
1681	 0.349970473784271 
1682	 0.34992587326149 
1683	 0.3498888512242 
1684	 0.349831291513904 
1685	 0.34979772333996 
1686	 0.349764256144438 
1687	 0.349756205503432 
1688	 0.349774022473292 
1689	 0.349786473151966 
1690	 0.349817419354817 
1691	 0.349841456359668 
1692	 0.349859930189738 
1693	 0.34988393408204 
1694	 0.349921286149489 
1695	 0.349937929620639 
1696	 0.349949793806181 
1697	 0.349953953405782 
1698	 0.349946507786711 
1699	 0.349930726172699 
1700	 0.349908289842462 
1701	 0.349876300629833 
1702	 0.349824405208996 
1703	 0.349786480193143 
1704	 0.349757755538659 
1705	 0.349710983891044 
1706	 0.34964943513969 
1707	 0.349606793185769 
1708	 0.349553488369389 
1709	 0.349521210642041 
1710	 0.349511356006393 
1711	 0.349505977305327 
1712	 0.349510777711885 
1713	 0.349512266016149 
1714	 0.349528755781655 
1715	 0.349530598663733 
1716	 0.349511772121818 
1717	 0.349525879714669 
1718	 0.349573619922354 
1719	 0.349568001800037 
1720	 0.349560120044109 
1721	 0.349529670087962 
1722	 0.349441215137368 
1723	 0.34939463802158 
1724	 0.349367754390007 
1725	 0.349326289489481 
1726	 0.349283660413774 
1727	 0.349237017052297 
1728	 0.349185719019903 
1729	 0.349135634582057 
1730	 0.349099088910371 
1731	 0.349025476732492 
1732	 0.34893335476576 
1733	 0.348836027321718 
1734	 0.348696440712939 
1735	 0.348605309268824 
1736	 0.348535854680303 
1737	 0.348463306066372 
1738	 0.348401498811076 
1739	 0.34835685024355 
1740	 0.348314323395248 
1741	 0.348284031816536 
1742	 0.348296428777833 
1743	 0.348260927150604 
1744	 0.348203112845619 
1745	 0.348155531753946 
1746	 0.348089665282941 
1747	 0.348030038639291 
1748	 0.347995533637366 
1749	 0.347942720882294 
1750	 0.347889518189027 
1751	 0.347836410709752 
1752	 0.347758710837355 
1753	 0.347661314001548 
1754	 0.347577461701232 
1755	 0.347553529828923 
1756	 0.347527900265852 
1757	 0.347501258318031 
1758	 0.347481416817861 
1759	 0.347388243117836 
1760	 0.347288259830055 
1761	 0.347202825911641 
1762	 0.347121513991075 
1763	 0.34708023103368 
1764	 0.347026382257112 
1765	 0.346990704756929 
1766	 0.346972965523412 
1767	 0.346926917325432 
1768	 0.34688087727717 
1769	 0.346817453374137 
1770	 0.346740077228503 
1771	 0.346656116475171 
1772	 0.346561359459671 
1773	 0.346466492124172 
1774	 0.346384280237212 
1775	 0.346331912631858 
1776	 0.346286979847442 
1777	 0.346265560588639 
1778	 0.346266341569288 
1779	 0.346256389095761 
1780	 0.346254350064168 
1781	 0.346264980778008 
1782	 0.34625459440902 
1783	 0.346202385247535 
1784	 0.346148697127137 
1785	 0.346047058090975 
1786	 0.345982953389962 
1787	 0.345937508982251 
1788	 0.345905150720944 
1789	 0.345896742384326 
1790	 0.345897675848707 
1791	 0.345925995071934 
1792	 0.345911355828097 
1793	 0.345898349726528 
1794	 0.345856603722286 
1795	 0.345769617158029 
1796	 0.345687759966692 
1797	 0.345580377978771 
1798	 0.345510683559937 
1799	 0.345442749688752 
1800	 0.345393650344353 
1801	 0.33827773516322 
1802	 0.338379179586174 
1803	 0.338489374182167 
1804	 0.338641824398831 
1805	 0.338829944166268 
1806	 0.339059189961687 
1807	 0.339290662040674 
1808	 0.339471268580412 
1809	 0.339659735594716 
1810	 0.33978992029534 
1811	 0.339869497089645 
1812	 0.339917448213104 
1813	 0.339983041192348 
1814	 0.340015282130073 
1815	 0.340013632137067 
1816	 0.34003435487205 
1817	 0.340053438659167 
1818	 0.340039983809547 
1819	 0.340061606044866 
1820	 0.340115160036301 
1821	 0.340152393893396 
1822	 0.340179954961992 
1823	 0.34022154445984 
1824	 0.340271829848135 
1825	 0.340307594458926 
1826	 0.340327505796637 
1827	 0.340352866425659 
1828	 0.340347553290121 
1829	 0.340286422211663 
1830	 0.340261382482817 
1831	 0.34024491009141 
1832	 0.340217669261298 
1833	 0.340185310146041 
1834	 0.340203789594083 
1835	 0.340187372077893 
1836	 0.34015343401539 
1837	 0.340136831880386 
1838	 0.34009720524521 
1839	 0.340089355481204 
1840	 0.340100109321748 
1841	 0.340120741907687 
1842	 0.340147187958524 
1843	 0.34018845632436 
1844	 0.340185625947294 
1845	 0.340165357936144 
1846	 0.340121218335646 
1847	 0.340055530796776 
1848	 0.339994454959209 
1849	 0.339947824545077 
1850	 0.339930338447756 
1851	 0.339937566954894 
1852	 0.339944019536861 
1853	 0.339994652143784 
1854	 0.340047118343982 
1855	 0.340054663119381 
1856	 0.340062376792296 
1857	 0.340029541828096 
1858	 0.339981834963288 
1859	 0.339931490864382 
1860	 0.339839505736253 
1861	 0.339728388660893 
1862	 0.339581217547391 
1863	 0.33939864067221 
1864	 0.339193202739044 
1865	 0.339000269628648 
1866	 0.338808236257587 
1867	 0.338596104478384 
1868	 0.338379345203498 
1869	 0.338156519903787 
1870	 0.337937186886359 
1871	 0.337707002787334 
1872	 0.337476583133059 
1873	 0.337245559132795 
1874	 0.33700901098923 
1875	 0.336750524784671 
1876	 0.336487964010125 
1877	 0.336205130048399 
1878	 0.335839198384512 
1879	 0.33542157650786 
1880	 0.334952483197507 
1881	 0.33440567033448 
1882	 0.333833944437066 
1883	 0.333232416650153 
1884	 0.332567412457734 
1885	 0.331851555199711 
1886	 0.331093042854196 
1887	 0.330275777278455 
1888	 0.329430558893546 
1889	 0.328535980617011 
1890	 0.327616835493722 
1891	 0.326658281877871 
1892	 0.32563858592493 
1893	 0.324605711040631 
1894	 0.32355079733377 
1895	 0.322459385714118 
1896	 0.321327720666255 
1897	 0.320198278859658 
1898	 0.319048527452613 
1899	 0.317896123317029 
1900	 0.316755181644218 
1901	 0.31564476707191 
1902	 0.31458419659244 
1903	 0.313556694902367 
1904	 0.312569777882449 
1905	 0.311628810111784 
1906	 0.310737451639933 
1907	 0.309859170875577 
1908	 0.309031608996787 
1909	 0.308255653898434 
1910	 0.30749268303052 
1911	 0.306792797796447 
1912	 0.306141458717156 
1913	 0.305518246366971 
1914	 0.304946077334936 
1915	 0.304396823705703 
1916	 0.303878053421502 
1917	 0.303370125670708 
1918	 0.302917993623423 
1919	 0.302501568634535 
1920	 0.30212041544979 
1921	 0.301787521278221 
1922	 0.301493904138619 
1923	 0.301196102673924 
1924	 0.300940108279669 
1925	 0.30071476393011 
1926	 0.300528742312239 
1927	 0.300364362091868 
1928	 0.300256204573411 
1929	 0.300195736288875 
1930	 0.300137569540235 
1931	 0.30009365166969 
1932	 0.300059471233754 
1933	 0.300025373082837 
1934	 0.300020489632045 
1935	 0.300036528669969 
1936	 0.300062106511665 
1937	 0.300134253333982 
1938	 0.300249549554917 
1939	 0.300367908252709 
1940	 0.300513251682654 
1941	 0.30069155332757 
1942	 0.30085950419656 
1943	 0.301030427156493 
1944	 0.301217850223675 
1945	 0.301411344494499 
1946	 0.301606965684841 
1947	 0.301800074468245 
1948	 0.30200942759127 
1949	 0.302236086164063 
1950	 0.302455839465162 
1951	 0.302682440944926 
1952	 0.30291020878032 
1953	 0.303124506965984 
1954	 0.303352994471144 
1955	 0.303595415858457 
1956	 0.303844210920825 
1957	 0.304119800722529 
1958	 0.304428949440955 
1959	 0.304723038229744 
1960	 0.305027732532721 
1961	 0.305339786470263 
1962	 0.305656036716227 
1963	 0.305969334515067 
1964	 0.30628809969695 
1965	 0.306611832877897 
1966	 0.306942274578252 
1967	 0.307267390667163 
1968	 0.307584672025769 
1969	 0.307910863916165 
1970	 0.308217576475689 
1971	 0.308492440127698 
1972	 0.308796114937071 
1973	 0.30909785584334 
1974	 0.309419844064206 
1975	 0.309761485763596 
1976	 0.310102864272438 
1977	 0.310468640357028 
1978	 0.310834811088639 
1979	 0.311175870665937 
1980	 0.31153005699146 
1981	 0.311885419962953 
1982	 0.312233026607143 
1983	 0.312581235086413 
1984	 0.312946864404421 
1985	 0.313294694167146 
1986	 0.313625786415813 
1987	 0.313959211963322 
1988	 0.314287082290315 
1989	 0.314623592928021 
1990	 0.314944111923388 
1991	 0.315268380987213 
1992	 0.315597809304942 
1993	 0.315935124336727 
1994	 0.316258360078592 
1995	 0.316579277321186 
1996	 0.316894981544532 
1997	 0.317200514623609 
1998	 0.317509241378915 
1999	 0.317811000719177 
2000	 0.318125944002966 
2001	 0.318460787947087 
2002	 0.318761649953987 
2003	 0.319072735669911 
2004	 0.319408107477699 
2005	 0.319727023926712 
2006	 0.320041696996901 
2007	 0.320355295784066 
2008	 0.320663582089152 
2009	 0.320974355645319 
2010	 0.321285570647969 
2011	 0.321592415273039 
2012	 0.321898862266726 
2013	 0.322204171205476 
2014	 0.322513171312152 
2015	 0.322806895251949 
2016	 0.323081041329089 
2017	 0.323383989904172 
2018	 0.323688619252422 
2019	 0.323988572041202 
2020	 0.324301770403605 
2021	 0.324655070895637 
2022	 0.324965748885296 
2023	 0.325269404391705 
2024	 0.325555001776782 
2025	 0.325805103565844 
2026	 0.326064326218679 
2027	 0.326313759024127 
2028	 0.326558038252778 
2029	 0.326825629371947 
2030	 0.327103032383448 
2031	 0.327381013146938 
2032	 0.327678353346743 
2033	 0.327964541197706 
2034	 0.328250782682127 
2035	 0.328527990950641 
2036	 0.328807230686056 
2037	 0.329070692154934 
2038	 0.329332538528982 
2039	 0.329573100387334 
2040	 0.329800525738296 
2041	 0.330005237125065 
2042	 0.330209381784617 
2043	 0.330406399954371 
2044	 0.330604358807185 
2045	 0.330797695117891 
2046	 0.331008667995831 
2047	 0.33122866276142 
2048	 0.331432406252722 
2049	 0.331646691499889 
2050	 0.331848542047562 
2051	 0.332030823395903 
2052	 0.33221462262319 
2053	 0.332400824846153 
2054	 0.332581552476404 
2055	 0.332749646827692 
2056	 0.332924178445671 
2057	 0.333087896815421 
2058	 0.333244551875094 
2059	 0.333410578169887 
2060	 0.333566910683625 
2061	 0.333736923122411 
2062	 0.333919478962625 
2063	 0.334104532496927 
2064	 0.334297605470515 
2065	 0.334488240817355 
2066	 0.334699817846695 
2067	 0.334882723545642 
2068	 0.335054242872086 
2069	 0.335207237561328 
2070	 0.33536924061744 
2071	 0.335519946512492 
2072	 0.33567152890694 
2073	 0.335832450827493 
2074	 0.335974599631926 
2075	 0.336093974406616 
2076	 0.33622890090734 
2077	 0.336351132810506 
2078	 0.336500977675596 
2079	 0.33667175787314 
2080	 0.336838615530374 
2081	 0.337050476091178 
2082	 0.337209672216692 
2083	 0.33734844552167 
2084	 0.337457691691711 
2085	 0.337578906573129 
2086	 0.337668090919022 
2087	 0.337784885782888 
2088	 0.337910799353887 
2089	 0.338051397457386 
2090	 0.338204872845378 
2091	 0.338348826371614 
2092	 0.33849860315816 
2093	 0.338659890646208 
2094	 0.338825384325686 
2095	 0.338981547675731 
2096	 0.339164426401163 
2097	 0.339320603548614 
2098	 0.339449222313776 
2099	 0.339570382818247 
2100	 0.339702246711559 
2101	 0.33982677741522 
2102	 0.339963979190464 
2103	 0.340109061535901 
2104	 0.340256917522736 
2105	 0.340397470356154 
2106	 0.340568235787486 
2107	 0.340763177862352 
2108	 0.340948289365715 
2109	 0.341146439320484 
2110	 0.341350560293798 
2111	 0.341558526371869 
2112	 0.341759410544018 
2113	 0.341982062673494 
2114	 0.342181417193969 
2115	 0.34236854344696 
2116	 0.342533523596769 
2117	 0.342705118556751 
2118	 0.342860405865636 
2119	 0.343038024933717 
2120	 0.343227754007668 
2121	 0.343406690209851 
2122	 0.34359316302957 
2123	 0.343774162014309 
2124	 0.343961887861805 
2125	 0.344118534807393 
2126	 0.34428179708855 
2127	 0.344405669480748 
2128	 0.344469521289923 
2129	 0.344548679725387 
2130	 0.344616565658704 
2131	 0.344676252386176 
2132	 0.344737904612948 
2133	 0.344815045796167 
2134	 0.344852280411304 
2135	 0.344867673760931 
2136	 0.34488209965714 
2137	 0.344871591325478 
2138	 0.344868431897035 
2139	 0.3448857494866 
2140	 0.344856840328147 
2141	 0.344811633652327 
2142	 0.344743329114654 
2143	 0.344629810606166 
2144	 0.344522279482152 
2145	 0.344390150397089 
2146	 0.344270342449168 
2147	 0.344149647314187 
2148	 0.344038155469645 
2149	 0.343912395217876 
2150	 0.3438013863388 
2151	 0.34364564956698 
2152	 0.343458785379412 
2153	 0.34327934276276 
2154	 0.343064415091704 
2155	 0.342887382599657 
2156	 0.342753707307346 
2157	 0.342562811107068 
2158	 0.342376888604921 
2159	 0.342149628206471 
2160	 0.341858402770043 
2161	 0.341581234676489 
2162	 0.341271488685895 
2163	 0.340989698603905 
2164	 0.340710906077368 
2165	 0.340447823023414 
2166	 0.340191923354614 
2167	 0.33996225972993 
2168	 0.339713860699312 
2169	 0.339470615519856 
2170	 0.33920656123593 
2171	 0.338933192913964 
2172	 0.338654240367314 
2173	 0.338355201878459 
2174	 0.338064971358805 
2175	 0.337775944054122 
2176	 0.33748501001416 
2177	 0.337194181876881 
2178	 0.336898567841064 
2179	 0.336590394965129 
2180	 0.336295189464445 
2181	 0.335984081448279 
2182	 0.335708126893216 
2183	 0.335467193695101 
2184	 0.335225487492386 
2185	 0.334978635007549 
2186	 0.334743484563023 
2187	 0.334506706543004 
2188	 0.334257499689594 
2189	 0.334026574747809 
2190	 0.333837318355326 
2191	 0.33358992543545 
2192	 0.333299745041572 
2193	 0.333043239618706 
2194	 0.332750242957994 
2195	 0.332511168280439 
2196	 0.332319557611765 
2197	 0.332132061744623 
2198	 0.331950560580564 
2199	 0.331802848245875 
2200	 0.33168366459102 
2201	 0.33157999075307 
2202	 0.331513517746291 
2203	 0.331453009502437 
2204	 0.331392788141635 
2205	 0.331346484018584 
2206	 0.331283296894994 
2207	 0.331208922478154 
2208	 0.331158327471175 
2209	 0.331093411266046 
2210	 0.3310796352871 
2211	 0.331111802909391 
2212	 0.331127468234147 
2213	 0.33115386152184 
2214	 0.331197990856221 
2215	 0.331251714680953 
2216	 0.331309510971504 
2217	 0.331412500429253 
2218	 0.331474912981218 
2219	 0.331497215182103 
2220	 0.331541537938728 
2221	 0.331582984364525 
2222	 0.331635542506167 
2223	 0.331657776508514 
2224	 0.33168543375995 
2225	 0.331680132482321 
2226	 0.331628106365128 
2227	 0.331594438522268 
2228	 0.331565530502215 
2229	 0.331519409702916 
2230	 0.331450844473013 
2231	 0.331405071652792 
2232	 0.331355924613868 
2233	 0.33131221855045 
2234	 0.331288704675245 
2235	 0.331250991839108 
2236	 0.33119425998729 
2237	 0.331163834563581 
2238	 0.33115030024464 
2239	 0.331122406567964 
2240	 0.331111131268091 
2241	 0.331083117389128 
2242	 0.331056036568509 
2243	 0.330995726790682 
2244	 0.330917527788218 
2245	 0.330815895447924 
2246	 0.330692632874039 
2247	 0.330574893796287 
2248	 0.330508664831487 
2249	 0.330484781205366 
2250	 0.330432712246586 
2251	 0.330396032325562 
2252	 0.330370153012501 
2253	 0.330337686352719 
2254	 0.330309899226229 
2255	 0.330309408852571 
2256	 0.330291589768704 
2257	 0.330236552999646 
2258	 0.330236387940179 
2259	 0.330300029066965 
2260	 0.330296320869594 
2261	 0.330271264940411 
2262	 0.330260219809202 
2263	 0.330190349079813 
2264	 0.330180257910146 
2265	 0.330216901470059 
2266	 0.330264253466393 
2267	 0.330346285247871 
2268	 0.330420918298879 
2269	 0.330529180533918 
2270	 0.330610248815405 
2271	 0.330650386406646 
2272	 0.330701769302463 
2273	 0.330708368761301 
2274	 0.330706856512304 
2275	 0.330735037167406 
2276	 0.330762241978057 
2277	 0.330810966742914 
2278	 0.330906745059709 
2279	 0.330947004538193 
2280	 0.330969049575859 
2281	 0.331002927784891 
2282	 0.331015498490428 
2283	 0.331040316348182 
2284	 0.331093997342448 
2285	 0.331116569493353 
2286	 0.331102727111144 
2287	 0.331117429962122 
2288	 0.331126435495194 
2289	 0.331155828694228 
2290	 0.331220659252769 
2291	 0.331260782944146 
2292	 0.331288189446656 
2293	 0.33133326642263 
2294	 0.331383400325135 
2295	 0.331430871906495 
2296	 0.331473587668301 
2297	 0.331563376989484 
2298	 0.331599321225809 
2299	 0.331614223843961 
2300	 0.331677794340394 
2301	 0.331713093159911 
2302	 0.331812904584063 
2303	 0.33194527205156 
2304	 0.332002989701801 
2305	 0.332093233356674 
2306	 0.332152397370977 
2307	 0.332159298574026 
2308	 0.332196967451926 
2309	 0.332274100330571 
2310	 0.332280214275919 
2311	 0.332260646930573 
2312	 0.332232792108793 
2313	 0.332144298080077 
2314	 0.332091677021188 
2315	 0.33202287225898 
2316	 0.332013201161553 
2317	 0.332039006991847 
2318	 0.332066232213474 
2319	 0.332155157866125 
2320	 0.332199226139433 
2321	 0.332199421560198 
2322	 0.332255526571286 
2323	 0.332331712831455 
2324	 0.332404707888363 
2325	 0.332519996899513 
2326	 0.332609823256136 
2327	 0.332702080406467 
2328	 0.3327558856698 
2329	 0.332764163498578 
2330	 0.332738994092355 
2331	 0.33268908672599 
2332	 0.332678640787676 
2333	 0.332686899615612 
2334	 0.332705515902926 
2335	 0.332721631153152 
2336	 0.332745983064473 
2337	 0.332841751983852 
2338	 0.332898645263193 
2339	 0.3328827632831 
2340	 0.332842018958988 
2341	 0.332749453378717 
2342	 0.332656600478664 
2343	 0.332581423833665 
2344	 0.33249806576034 
2345	 0.332418961321748 
2346	 0.332328899161748 
2347	 0.332227009736213 
2348	 0.332126352101473 
2349	 0.332059460407374 
2350	 0.331999543430536 
2351	 0.331916717766411 
2352	 0.331860041372088 
2353	 0.331746473698277 
2354	 0.331536198449949 
2355	 0.331429578432296 
2356	 0.331405079990032 
2357	 0.331311162559876 
2358	 0.331219968894881 
2359	 0.331124100927578 
2360	 0.33097500505992 
2361	 0.330841284648692 
2362	 0.330756493765959 
2363	 0.330630464496801 
2364	 0.330439961292704 
2365	 0.330279297194133 
2366	 0.33012370243866 
2367	 0.329968127807998 
2368	 0.32981632925616 
2369	 0.329689140947716 
2370	 0.329581286154446 
2371	 0.329478730184577 
2372	 0.329289198293072 
2373	 0.329122148097007 
2374	 0.328999801368063 
2375	 0.328747067318833 
2376	 0.328566271351161 
2377	 0.328425366798649 
2378	 0.328171470971911 
2379	 0.32791852056846 
2380	 0.327641846535933 
2381	 0.327373144319475 
2382	 0.327070259050162 
2383	 0.326785600945503 
2384	 0.32661481822618 
2385	 0.326436537446965 
2386	 0.326283390050245 
2387	 0.326108897396004 
2388	 0.325887920070123 
2389	 0.325665248183109 
2390	 0.325446167317003 
2391	 0.325283956215728 
2392	 0.325087381893437 
2393	 0.324817021629491 
2394	 0.324539173224409 
2395	 0.324330108655759 
2396	 0.324138614188372 
2397	 0.323959397769223 
2398	 0.323826743861686 
2399	 0.323537661875222 
2400	 0.323198742581436 
2401	 0.322969147156334 
2402	 0.322644347485347 
2403	 0.322322480751706 
2404	 0.322085959648607 
2405	 0.321785735782991 
2406	 0.321533822394786 
2407	 0.321313238114449 
2408	 0.321081533259784 
2409	 0.320839701789133 
2410	 0.320414826826108 
2411	 0.320036659983094 
2412	 0.319907333071216 
2413	 0.319715171417558 
2414	 0.319564985704305 
2415	 0.319498566834558 
2416	 0.319253469553411 
2417	 0.31874480513743 
2418	 0.318390898869102 
2419	 0.318015373009152 
2420	 0.31773898137327 
2421	 0.317533499952379 
2422	 0.317271494024432 
2423	 0.317083248899535 
2424	 0.316826206368579 
2425	 0.316480639278317 
2426	 0.316168393834957 
2427	 0.315876740493604 
2428	 0.315576583841671 
2429	 0.315252221054128 
2430	 0.315010126733352 
2431	 0.314758230482558 
2432	 0.314552088747976 
2433	 0.314489458638335 
2434	 0.314285062945751 
2435	 0.314060083186925 
2436	 0.313841930122508 
2437	 0.313551720458307 
2438	 0.313222472528445 
2439	 0.312867428352049 
2440	 0.312491492586427 
2441	 0.311967028379574 
2442	 0.311652362704954 
2443	 0.311498439546455 
2444	 0.311298609734856 
2445	 0.311229634587035 
2446	 0.311040238391793 
2447	 0.310707647718173 
2448	 0.3104578487471 
2449	 0.310301777864799 
2450	 0.309986644505484 
2451	 0.309572601699385 
2452	 0.309263622864973 
2453	 0.308857995959367 
2454	 0.308564103055172 
2455	 0.308438051250538 
2456	 0.308214665461338 
2457	 0.307976728464462 
2458	 0.307677752588278 
2459	 0.307350899566433 
2460	 0.307027600673884 
2461	 0.30662493347491 
2462	 0.306328091896362 
2463	 0.306089419306776 
2464	 0.305831094572333 
2465	 0.305712980371224 
2466	 0.305413107398751 
2467	 0.304849982435187 
2468	 0.30459139239149 
2469	 0.304375128826407 
2470	 0.30418875483794 
2471	 0.304203501681406 
2472	 0.303949479113668 
2473	 0.303626663170549 
2474	 0.303527857033921 
2475	 0.303444652080992 
2476	 0.303177514855174 
2477	 0.303048604611117 
2478	 0.302762162576049 
2479	 0.302213089638789 
2480	 0.301814539171719 
2481	 0.301438256437418 
2482	 0.301216277814985 
2483	 0.301179089858399 
2484	 0.30108227091991 
2485	 0.300905330621171 
2486	 0.30054689599565 
2487	 0.30018913805944 
2488	 0.299907651884184 
2489	 0.299532961335486 
2490	 0.299260764609129 
2491	 0.299010900728838 
2492	 0.298875876655092 
2493	 0.298931357046503 
2494	 0.298704286907349 
2495	 0.298458336278359 
2496	 0.298363364702696 
2497	 0.298119236962512 
2498	 0.298148059874346 
2499	 0.298267795090754 
2500	 0.298007401297782 
