Wavelength	MM200009.asd
350	 6.30496684102607E-02 
351	 0.065892381823422 
352	 6.21028060948257E-02 
353	 5.74815082475117E-02 
354	 6.20867922747072E-02 
355	 6.29222716305405E-02 
356	 5.98211876579333E-02 
357	 5.67374966125153E-02 
358	 5.89049726162927E-02 
359	 6.12422209616294E-02 
360	 6.12762579318393E-02 
361	 5.90389861021421E-02 
362	 6.08911036317481E-02 
363	 6.04954427782529E-02 
364	 0.056571693463187 
365	 5.83263124328072E-02 
366	 5.59305325791855E-02 
367	 0.054225100957048 
368	 5.86088635829858E-02 
369	 6.12934446280916E-02 
370	 5.87707375749628E-02 
371	 0.054793078950615 
372	 5.71120619771127E-02 
373	 6.04544156358698E-02 
374	 6.16743219992471E-02 
375	 6.01514254139281E-02 
376	 5.88471285475178E-02 
377	 0.057671993249336 
378	 5.86180084233351E-02 
379	 6.24799664662493E-02 
380	 6.35408294486233E-02 
381	 6.31756032633118E-02 
382	 6.24584971093779E-02 
383	 6.20108791746192E-02 
384	 0.061793741606082 
385	 6.15899742503836E-02 
386	 6.16989327916982E-02 
387	 6.36019280710841E-02 
388	 6.50291316267853E-02 
389	 6.49057332385238E-02 
390	 6.34360367786819E-02 
391	 6.42639389946213E-02 
392	 0.065322809647587 
393	 6.61302768131179E-02 
394	 0.067678165372509 
395	 6.86366491792847E-02 
396	 0.068500257229936 
397	 6.78831391245818E-02 
398	 0.069594498947144 
399	 7.05473023952144E-02 
400	 7.08940693013027E-02 
401	 7.16644913827383E-02 
402	 7.16565598923277E-02 
403	 7.10678322056378E-02 
404	 7.05827266438544E-02 
405	 7.12003627217872E-02 
406	 7.19180711390645E-02 
407	 7.26065248280233E-02 
408	 0.073261122788007 
409	 7.38087524826118E-02 
410	 7.34579567522328E-02 
411	 7.32215863770212E-02 
412	 7.44557535551715E-02 
413	 7.44413826075284E-02 
414	 7.47489678940586E-02 
415	 7.55790555423867E-02 
416	 7.49028350429618E-02 
417	 7.49161941415045E-02 
418	 7.52857551728785E-02 
419	 7.53393726805478E-02 
420	 7.55112747129384E-02 
421	 7.53570757699752E-02 
422	 7.53272322116588E-02 
423	 7.62283406313923E-02 
424	 7.60739484911382E-02 
425	 7.56513293892711E-02 
426	 0.075608654726669 
427	 7.57084407940869E-02 
428	 7.56061113736994E-02 
429	 7.53744970904365E-02 
430	 7.52090854285845E-02 
431	 7.50980682420006E-02 
432	 7.50337774380655E-02 
433	 7.49793768768974E-02 
434	 0.074881759335266 
435	 0.075067528177923 
436	 0.07519395620457 
437	 7.49905417024143E-02 
438	 7.46590215372925E-02 
439	 0.07457481609244 
440	 7.47846923484972E-02 
441	 7.51292915980705E-02 
442	 0.075403688495856 
443	 7.55244063039738E-02 
444	 7.55252319665126E-02 
445	 7.55693936463294E-02 
446	 7.57509965420173E-02 
447	 0.075997109029253 
448	 7.62039990504265E-02 
449	 7.63657545117116E-02 
450	 7.67806562268493E-02 
451	 7.72474070876952E-02 
452	 7.71952769141081E-02 
453	 7.74083521055703E-02 
454	 7.75699456343133E-02 
455	 7.75170179660006E-02 
456	 7.79903675518363E-02 
457	 7.81576354696983E-02 
458	 0.078147302800528 
459	 7.84306536560065E-02 
460	 0.078495301272797 
461	 7.84948154424609E-02 
462	 0.078530873354339 
463	 7.85448672169259E-02 
464	 7.86864071984792E-02 
465	 7.88849822714164E-02 
466	 0.079013029030604 
467	 7.89799338348689E-02 
468	 7.89791902286556E-02 
469	 7.90932593508868E-02 
470	 7.92878935728831E-02 
471	 7.92871837607327E-02 
472	 7.92458013556517E-02 
473	 7.92994797015026E-02 
474	 7.93564688897887E-02 
475	 7.94457383937691E-02 
476	 7.95159350521342E-02 
477	 7.95058066104883E-02 
478	 7.95172502297451E-02 
479	 7.96954996327367E-02 
480	 7.98847573039865E-02 
481	 7.95010343452116E-02 
482	 7.96740761043917E-02 
483	 8.00322724571577E-02 
484	 7.99930234119295E-02 
485	 7.99412101197289E-02 
486	 7.99244200809131E-02 
487	 7.99719981208163E-02 
488	 8.00903427638118E-02 
489	 0.080109088593007 
490	 8.01143742797846E-02 
491	 8.01956672267753E-02 
492	 0.080355576948817 
493	 8.03708965294197E-02 
494	 8.03247291116173E-02 
495	 0.080409672578577 
496	 8.03928158000316E-02 
497	 8.04506440301216E-02 
498	 8.06204560692025E-02 
499	 8.06844826165845E-02 
500	 0.080658313274417 
501	 8.06624223686099E-02 
502	 8.07808133151855E-02 
503	 8.07794685207641E-02 
504	 8.07626254439675E-02 
505	 8.07606136511981E-02 
506	 8.07354283639023E-02 
507	 8.09627493465601E-02 
508	 8.11422085370567E-02 
509	 8.10640589701776E-02 
510	 0.081041143638575 
511	 8.11170710055995E-02 
512	 0.081182684463389 
513	 8.10938757393842E-02 
514	 8.12536277156009E-02 
515	 8.14333087537209E-02 
516	 0.081500498716242 
517	 8.16103922507445E-02 
518	 8.16733237469074E-02 
519	 8.16560250696074E-02 
520	 8.15867528691801E-02 
521	 8.16976882129159E-02 
522	 8.18518941273742E-02 
523	 8.19441064583696E-02 
524	 8.19293780125825E-02 
525	 8.19270316322907E-02 
526	 8.19716960785362E-02 
527	 8.20650242889509E-02 
528	 8.21904424930228E-02 
529	 8.22600702849485E-02 
530	 8.23055107753038E-02 
531	 8.24261142913846E-02 
532	 8.25093262663921E-02 
533	 8.26041502209614E-02 
534	 8.27250906699622E-02 
535	 8.27571304616387E-02 
536	 8.28407504618708E-02 
537	 8.29752943998815E-02 
538	 8.31009880751401E-02 
539	 8.31701609833921E-02 
540	 8.32823955189938E-02 
541	 8.34557192799191E-02 
542	 8.35878334382265E-02 
543	 8.36539142904228E-02 
544	 8.37501364223982E-02 
545	 8.39563031656014E-02 
546	 8.41537070827272E-02 
547	 8.42726395609989E-02 
548	 8.43638558850345E-02 
549	 0.084569787600386 
550	 8.47952606636641E-02 
551	 8.49600898739444E-02 
552	 8.50669300068141E-02 
553	 8.53324007921274E-02 
554	 8.55353956421437E-02 
555	 8.57127457317187E-02 
556	 8.60139628184589E-02 
557	 0.086291559950398 
558	 8.65421630939532E-02 
559	 8.68103123104216E-02 
560	 8.72000824246406E-02 
561	 8.75795329311762E-02 
562	 8.79540709914668E-02 
563	 8.83638102820832E-02 
564	 8.87558282299455E-02 
565	 8.91941827291523E-02 
566	 8.96791286412081E-02 
567	 0.090135830869232 
568	 9.06702213756534E-02 
569	 9.12256024668014E-02 
570	 0.091737721831149 
571	 9.22421607468282E-02 
572	 9.28349941165603E-02 
573	 9.34963184878092E-02 
574	 9.41226689609116E-02 
575	 9.47003348350203E-02 
576	 9.53651761306983E-02 
577	 9.61551911157836E-02 
578	 9.68335922797678E-02 
579	 9.76045488178695E-02 
580	 9.84667405457051E-02 
581	 0.099336485261286 
582	 0.100202732249669 
583	 0.101107017797221 
584	 0.102049417318322 
585	 0.102967383676444 
586	 0.103894372341192 
587	 0.104834400063525 
588	 0.105780891410236 
589	 0.106719306307339 
590	 0.107688367289253 
591	 0.108676554701949 
592	 0.109630611536544 
593	 0.110587931176069 
594	 0.111577713411704 
595	 0.112601615321239 
596	 0.113597209622643 
597	 0.114630808125529 
598	 0.115673765178183 
599	 0.11665787865876 
600	 0.117626688292901 
601	 0.118573246402451 
602	 0.119480985900688 
603	 0.120326706408141 
604	 0.121162888977232 
605	 0.121975397512385 
606	 0.122745980443245 
607	 0.123571463228588 
608	 0.124386033001653 
609	 0.125147583472111 
610	 0.125854903752186 
611	 0.126554834300314 
612	 0.127262000739487 
613	 0.127955570824035 
614	 0.128541735532909 
615	 0.129080176274396 
616	 0.12959352199633 
617	 0.130078275081246 
618	 0.130581539113174 
619	 0.131042772423332 
620	 0.131437858598859 
621	 0.131847811922059 
622	 0.132287679532926 
623	 0.132702555098679 
624	 0.133032193516915 
625	 0.133411675061102 
626	 0.133765667735356 
627	 0.134080328046419 
628	 0.134444843673258 
629	 0.134793750813228 
630	 0.13510836096706 
631	 0.135390154373068 
632	 0.135658105664488 
633	 0.135960387226839 
634	 0.136288126568461 
635	 0.136590170004931 
636	 0.136933410020716 
637	 0.137249399415954 
638	 0.137492243537183 
639	 0.137712650274572 
640	 0.138009535708673 
641	 0.138338722003786 
642	 0.138607534025539 
643	 0.138951619059719 
644	 0.13930079819787 
645	 0.13961502380176 
646	 0.139925550426793 
647	 0.140216275360366 
648	 0.140516816761387 
649	 0.140854871020938 
650	 0.141193432495988 
651	 0.141548489021332 
652	 0.141914149878925 
653	 0.142266930160037 
654	 0.142639432148268 
655	 0.142981623036824 
656	 0.143283307872448 
657	 0.143664477932408 
658	 0.144096576731381 
659	 0.144536864084323 
660	 0.144937973345441 
661	 0.145308873091469 
662	 0.145722414156423 
663	 0.146194286517322 
664	 0.14665096517518 
665	 0.147071064878391 
666	 0.147499162770592 
667	 0.147981362000067 
668	 0.148474180533842 
669	 0.148963452860224 
670	 0.149450953534614 
671	 0.149948109109575 
672	 0.150435667431424 
673	 0.150962335104145 
674	 0.151541286324873 
675	 0.152075234564139 
676	 0.152634104823003 
677	 0.153179996958382 
678	 0.153659697867029 
679	 0.154241772100697 
680	 0.154866089145809 
681	 0.155491271419222 
682	 0.156129848193782 
683	 0.15673621385646 
684	 0.157347781512361 
685	 0.158003424104525 
686	 0.158660983587977 
687	 0.159349248723522 
688	 0.160052558923793 
689	 0.160725377751198 
690	 0.161367239924592 
691	 0.162008762110596 
692	 0.162690991685284 
693	 0.163477887542768 
694	 0.164218698297012 
695	 0.164932715617381 
696	 0.165683421683685 
697	 0.166386419113647 
698	 0.167103441275005 
699	 0.167858080494807 
700	 0.168623721546309 
701	 0.169392329793693 
702	 0.170141834884741 
703	 0.170868322540481 
704	 0.171622931143813 
705	 0.172374498070227 
706	 0.17313003265017 
707	 0.173906061592598 
708	 0.174621631316285 
709	 0.175413207624814 
710	 0.176277777778956 
711	 0.176982457753457 
712	 0.177676222423276 
713	 0.17840755061359 
714	 0.179181380006529 
715	 0.179946256634743 
716	 0.180690166904717 
717	 0.181406682298695 
718	 0.182093920586361 
719	 0.182758276408251 
720	 0.18340489380299 
721	 0.184037010182453 
722	 0.184651378027418 
723	 0.18529678425579 
724	 0.185961528991993 
725	 0.186598570329974 
726	 0.187105266026283 
727	 0.187620880121606 
728	 0.18816649513798 
729	 0.188646156757453 
730	 0.189137803957232 
731	 0.189592474306913 
732	 0.189983200179593 
733	 0.190390739723599 
734	 0.190764969654365 
735	 0.191103881527189 
736	 0.19142570604909 
737	 0.191751247654794 
738	 0.192018294097462 
739	 0.192226753830183 
740	 0.192448031422294 
741	 0.192632567600106 
742	 0.192785296512051 
743	 0.192905065262297 
744	 0.192935177570709 
745	 0.192980655988475 
746	 0.193042120460533 
747	 0.193065324977532 
748	 0.193006960683904 
749	 0.192972841408838 
750	 0.192952154719385 
751	 0.192782677396233 
752	 0.192637192776321 
753	 0.19252833275477 
754	 0.192412684120639 
755	 0.192198425549533 
756	 0.191974678331938 
757	 0.191756575514551 
758	 0.191516087806572 
759	 0.191217986799438 
760	 0.190881726181485 
761	 0.190543811484809 
762	 0.190251475441271 
763	 0.189965997435267 
764	 0.189611624739166 
765	 0.189167408039505 
766	 0.188790344298058 
767	 0.188395939304442 
768	 0.187979135956311 
769	 0.187568749457216 
770	 0.187133297483808 
771	 0.186720932273095 
772	 0.186322774073723 
773	 0.185857040303694 
774	 0.18539227334072 
775	 0.184906517788363 
776	 0.184396276410041 
777	 0.183967879771806 
778	 0.183513707851843 
779	 0.183029648132219 
780	 0.18255013909509 
781	 0.182015407452658 
782	 0.181547956305128 
783	 0.18113596289644 
784	 0.180623527607119 
785	 0.180177942695292 
786	 0.179736556593326 
787	 0.179238214214244 
788	 0.178722158065013 
789	 0.178261249148444 
790	 0.177826500276524 
791	 0.17735641321421 
792	 0.176861655864278 
793	 0.176388528339325 
794	 0.175940276587624 
795	 0.175484197925141 
796	 0.175045914121817 
797	 0.174617320866099 
798	 0.174175194946612 
799	 0.173673669329368 
800	 0.173246751505318 
801	 0.17287240369924 
802	 0.172478389906805 
803	 0.172003965410451 
804	 0.171592344865924 
805	 0.171243461604112 
806	 0.170866156459823 
807	 0.170460223273102 
808	 0.170049195786454 
809	 0.169661562695636 
810	 0.169322487314518 
811	 0.168995918310801 
812	 0.168655562108896 
813	 0.168299957205308 
814	 0.167993214797267 
815	 0.167619138461615 
816	 0.167239661777242 
817	 0.166955838500918 
818	 0.166641891654222 
819	 0.166341863076205 
820	 0.166067773416572 
821	 0.165795953555351 
822	 0.165510954698017 
823	 0.165230924259536 
824	 0.164965093562354 
825	 0.164699245774066 
826	 0.164449317749241 
827	 0.164202717361693 
828	 0.1639559644842 
829	 0.163766219969622 
830	 0.163519885202866 
831	 0.163250185528386 
832	 0.163050694389644 
833	 0.162890668442933 
834	 0.162739948926015 
835	 0.162576337677959 
836	 0.162390943059208 
837	 0.16222167003961 
838	 0.162057982907583 
839	 0.161896883301557 
840	 0.161763447905661 
841	 0.161599805092634 
842	 0.161424661481566 
843	 0.161273974402638 
844	 0.16116235481966 
845	 0.161089086919046 
846	 0.160999295536418 
847	 0.16084823958551 
848	 0.160788001245581 
849	 0.160755375000323 
850	 0.160695544033855 
851	 0.160584318412806 
852	 0.160499946487435 
853	 0.160455380357199 
854	 0.160431779636511 
855	 0.160382333411948 
856	 0.160395407124193 
857	 0.160412517907452 
858	 0.160388164954594 
859	 0.160405870222193 
860	 0.160367895381386 
861	 0.160342579765079 
862	 0.160406736994567 
863	 0.160404072762325 
864	 0.160408912675872 
865	 0.160447943220411 
866	 0.160506402871197 
867	 0.160529149689829 
868	 0.160597020788101 
869	 0.160709328782209 
870	 0.160776544393901 
871	 0.160844893844618 
872	 0.160901928514215 
873	 0.160978504289813 
874	 0.161183429855231 
875	 0.161293858895037 
876	 0.161379891266199 
877	 0.161525367463655 
878	 0.161641387551374 
879	 0.161807141426762 
880	 0.161952046460464 
881	 0.162016599212782 
882	 0.162201693803184 
883	 0.162426004792337 
884	 0.162611726199276 
885	 0.162721049780738 
886	 0.162900962788009 
887	 0.163161550568472 
888	 0.163409562395876 
889	 0.16351435964926 
890	 0.163753043428009 
891	 0.164050526377556 
892	 0.164351649313967 
893	 0.164679506009279 
894	 0.164869323714198 
895	 0.165051618631736 
896	 0.165331124187727 
897	 0.165655372233335 
898	 0.165981613159221 
899	 0.166303149420443 
900	 0.166619001481012 
901	 0.166903310165927 
902	 0.167236812550997 
903	 0.167567894067965 
904	 0.167849312650893 
905	 0.168233813094432 
906	 0.168617944560223 
907	 0.168964165511545 
908	 0.16928752161374 
909	 0.169667904128196 
910	 0.170060598499294 
911	 0.170486559504857 
912	 0.170982802717221 
913	 0.171375330542052 
914	 0.171759777380988 
915	 0.17219208020831 
916	 0.172661256706721 
917	 0.173086839328731 
918	 0.173545622598712 
919	 0.174070683132922 
920	 0.174610959612538 
921	 0.175046721154204 
922	 0.175519027900106 
923	 0.176072841678135 
924	 0.176553407282676 
925	 0.177046790813039 
926	 0.177642803227832 
927	 0.178310916502316 
928	 0.178809507443209 
929	 0.17942254876861 
930	 0.180041915187391 
931	 0.180563030330825 
932	 0.181126724811594 
933	 0.181729342419967 
934	 0.182365042600859 
935	 0.18301369536617 
936	 0.183627429703458 
937	 0.184254986267451 
938	 0.184940912323155 
939	 0.185687706482495 
940	 0.186377546954713 
941	 0.187061657334408 
942	 0.187769982060608 
943	 0.188514759339901 
944	 0.189278548290352 
945	 0.189974589238767 
946	 0.190709593677882 
947	 0.191582933805012 
948	 0.192266903313464 
949	 0.192938172520161 
950	 0.193668901555974 
951	 0.194463219990488 
952	 0.195334612571761 
953	 0.196180689491652 
954	 0.196966002267368 
955	 0.197723323872085 
956	 0.198580360707913 
957	 0.19944181385613 
958	 0.200276715885337 
959	 0.201121645416793 
960	 0.202090452017339 
961	 0.202988371720353 
962	 0.203811021960237 
963	 0.204677043824184 
964	 0.205549646559564 
965	 0.206459328423054 
966	 0.207400029522194 
967	 0.208345716209796 
968	 0.209323859713544 
969	 0.210173458336668 
970	 0.210985901465474 
971	 0.211981891747435 
972	 0.213032593911561 
973	 0.214116938867058 
974	 0.215146920354321 
975	 0.2160466812088 
976	 0.217054244384596 
977	 0.218063217676617 
978	 0.219074002733488 
979	 0.220122615861953 
980	 0.220955675004771 
981	 0.221786856367553 
982	 0.222722895996965 
983	 0.223756955023064 
984	 0.224817019336654 
985	 0.22584433186623 
986	 0.226860619361484 
987	 0.227912666485112 
988	 0.228935136451354 
989	 0.229929181110535 
990	 0.230871262074907 
991	 0.231781242002586 
992	 0.232931703027462 
993	 0.233907607329375 
994	 0.234821597029589 
995	 0.235918676113347 
996	 0.236869363199028 
997	 0.23788657046275 
998	 0.238878172918779 
999	 0.239752528665188 
1000	 0.240871461432944 
1001	 0.241757346536572 
1002	 0.242674239488138 
1003	 0.243614883591436 
1004	 0.244526174769269 
1005	 0.245451856977315 
1006	 0.246362091782941 
1007	 0.247253710664158 
1008	 0.248121306393761 
1009	 0.248990473571438 
1010	 0.249830865476567 
1011	 0.250686782902069 
1012	 0.251529694906152 
1013	 0.252362276626079 
1014	 0.253239163558534 
1015	 0.254032494279114 
1016	 0.254818343088843 
1017	 0.25563394878457 
1018	 0.256468041145075 
1019	 0.257225830636897 
1020	 0.258020962005279 
1021	 0.258824622574172 
1022	 0.259573616696033 
1023	 0.260286934372 
1024	 0.260954524090269 
1025	 0.261635424011962 
1026	 0.262295718385112 
1027	 0.26297295828609 
1028	 0.263731856320796 
1029	 0.264447516267329 
1030	 0.265075163682032 
1031	 0.265731747650924 
1032	 0.26638791269513 
1033	 0.267052275007709 
1034	 0.267680237590182 
1035	 0.268309753842081 
1036	 0.268928773776841 
1037	 0.269485534411749 
1038	 0.2700682708467 
1039	 0.270691587724438 
1040	 0.271252794786784 
1041	 0.271793443532022 
1042	 0.272342366896935 
1043	 0.272866729486017 
1044	 0.273424662798239 
1045	 0.274017421181901 
1046	 0.274636769059635 
1047	 0.275179620470254 
1048	 0.275761358924645 
1049	 0.27636909853902 
1050	 0.276865353543956 
1051	 0.277415361904409 
1052	 0.278005538272623 
1053	 0.2785851694733 
1054	 0.279249668841786 
1055	 0.279851058814421 
1056	 0.28040513346996 
1057	 0.280976888818673 
1058	 0.281483194372375 
1059	 0.282022135130049 
1060	 0.28259917999962 
1061	 0.283182831513906 
1062	 0.283685457972435 
1063	 0.284229348075876 
1064	 0.284834783540268 
1065	 0.285424675032738 
1066	 0.285990424082542 
1067	 0.286528452821351 
1068	 0.287058730332544 
1069	 0.287566622801749 
1070	 0.288072686001922 
1071	 0.288603251802015 
1072	 0.289127839169831 
1073	 0.289579098953229 
1074	 0.290110474381718 
1075	 0.290708673013387 
1076	 0.291276695092545 
1077	 0.291817350614204 
1078	 0.292343078729955 
1079	 0.292788183357981 
1080	 0.293224280189381 
1081	 0.293691153744492 
1082	 0.29416995159466 
1083	 0.294650961437627 
1084	 0.295164632783301 
1085	 0.295634806945362 
1086	 0.296056818916035 
1087	 0.296524928336107 
1088	 0.296997172297521 
1089	 0.29748474274349 
1090	 0.297949336510513 
1091	 0.29843813107102 
1092	 0.298931204331107 
1093	 0.299362570506623 
1094	 0.299823658149401 
1095	 0.30030025738505 
1096	 0.300740944762938 
1097	 0.301206278830778 
1098	 0.301664479407507 
1099	 0.302134722228484 
1100	 0.302585401716851 
1101	 0.3030206361152 
1102	 0.303460380820663 
1103	 0.303876656882474 
1104	 0.304337247428693 
1105	 0.304827667611313 
1106	 0.305307693840791 
1107	 0.305799849584288 
1108	 0.306283532997632 
1109	 0.306722160828658 
1110	 0.30716383332735 
1111	 0.307620271170154 
1112	 0.308082438235235 
1113	 0.308536898353597 
1114	 0.309004481737811 
1115	 0.309452023782608 
1116	 0.309898807899153 
1117	 0.310329955197045 
1118	 0.310730738211085 
1119	 0.311146222868619 
1120	 0.311619784064853 
1121	 0.312067511163866 
1122	 0.312533509721119 
1123	 0.313017629350002 
1124	 0.313466917106046 
1125	 0.313872884690154 
1126	 0.314311975662336 
1127	 0.314755272918794 
1128	 0.315207713699022 
1129	 0.315675018617938 
1130	 0.316125845977508 
1131	 0.316592670665645 
1132	 0.31702734454432 
1133	 0.317437057213638 
1134	 0.317849321947304 
1135	 0.318243281540411 
1136	 0.318629184416686 
1137	 0.319041987833222 
1138	 0.319458096445163 
1139	 0.319885276106733 
1140	 0.32034850053151 
1141	 0.32075788501771 
1142	 0.321148153749293 
1143	 0.321542231107672 
1144	 0.321913273209387 
1145	 0.322286521433827 
1146	 0.322665801865221 
1147	 0.323037774980575 
1148	 0.323402340482884 
1149	 0.323753376961341 
1150	 0.324088466303035 
1151	 0.324442134283541 
1152	 0.32478268531924 
1153	 0.32512933645613 
1154	 0.325480816281902 
1155	 0.325851561170048 
1156	 0.326199624809828 
1157	 0.326542491818305 
1158	 0.32687667315902 
1159	 0.327212514214461 
1160	 0.327529008179858 
1161	 0.327818030525057 
1162	 0.328124339330091 
1163	 0.328427892264165 
1164	 0.328727104077496 
1165	 0.329032437810561 
1166	 0.32934112253934 
1167	 0.32962359632291 
1168	 0.329927237409491 
1169	 0.330224000209238 
1170	 0.330527874447589 
1171	 0.330814360908072 
1172	 0.33109962009939 
1173	 0.331370828066047 
1174	 0.331615717388195 
1175	 0.331888287480601 
1176	 0.332172287812424 
1177	 0.33244322020815 
1178	 0.332721059220111 
1179	 0.332994980082057 
1180	 0.33326953202006 
1181	 0.333525236534967 
1182	 0.333767231490419 
1183	 0.334021465502964 
1184	 0.334258699916118 
1185	 0.334468526522637 
1186	 0.33470061075246 
1187	 0.334947464971025 
1188	 0.335174422338891 
1189	 0.335395900605793 
1190	 0.335616089819036 
1191	 0.33582488419144 
1192	 0.336039692425759 
1193	 0.336258536044947 
1194	 0.336473343907672 
1195	 0.336678692347167 
1196	 0.336896387988071 
1197	 0.337132434842792 
1198	 0.337348337111793 
1199	 0.337558472342166 
1200	 0.337778176035197 
1201	 0.337964896610416 
1202	 0.338117200048296 
1203	 0.338296440011941 
1204	 0.338471732654364 
1205	 0.338650227375787 
1206	 0.338844840661079 
1207	 0.339022637270289 
1208	 0.339188648315964 
1209	 0.339358081003158 
1210	 0.339528974107418 
1211	 0.339691463982836 
1212	 0.339852816202811 
1213	 0.340006463620963 
1214	 0.34015755809279 
1215	 0.340294876170192 
1216	 0.340422786180115 
1217	 0.340534688079682 
1218	 0.340664986843884 
1219	 0.340789265700624 
1220	 0.340921496303966 
1221	 0.341069653436013 
1222	 0.341209701869149 
1223	 0.341344256593993 
1224	 0.341482472445919 
1225	 0.341636639431294 
1226	 0.341766411138271 
1227	 0.341882479194228 
1228	 0.341998611256127 
1229	 0.342098798484739 
1230	 0.342204313770016 
1231	 0.342316683665243 
1232	 0.342421386223739 
1233	 0.342522040174027 
1234	 0.342615528805541 
1235	 0.342716197580606 
1236	 0.342812497524555 
1237	 0.342917568976501 
1238	 0.343034843753881 
1239	 0.34314006083392 
1240	 0.343247024361078 
1241	 0.343346207769451 
1242	 0.343442339936446 
1243	 0.343527261111282 
1244	 0.343592194029053 
1245	 0.343674022954657 
1246	 0.343757545395204 
1247	 0.343838713858339 
1248	 0.343925578940735 
1249	 0.344019765281191 
1250	 0.34410149555759 
1251	 0.344185801925178 
1252	 0.344262306132384 
1253	 0.3443381852692 
1254	 0.344412557486075 
1255	 0.34447719817256 
1256	 0.344547925696441 
1257	 0.344627388909434 
1258	 0.344696795822882 
1259	 0.344752715045031 
1260	 0.344824202542274 
1261	 0.344913211430429 
1262	 0.344978457586772 
1263	 0.345041266930718 
1264	 0.345099744205377 
1265	 0.345132765483172 
1266	 0.345174797031417 
1267	 0.34522391326441 
1268	 0.345273342118169 
1269	 0.345318689834949 
1270	 0.345362124201275 
1271	 0.345405381722759 
1272	 0.345447324050637 
1273	 0.34548688681764 
1274	 0.345507252733832 
1275	 0.345566314363876 
1276	 0.345637446300907 
1277	 0.345723528443924 
1278	 0.345845664732717 
1279	 0.345954135430656 
1280	 0.346058736407813 
1281	 0.346175257333501 
1282	 0.346309758269926 
1283	 0.346430214198711 
1284	 0.346554163614487 
1285	 0.346672175286163 
1286	 0.346771975345374 
1287	 0.346870793957678 
1288	 0.346969115750013 
1289	 0.34705696278612 
1290	 0.347168979850213 
1291	 0.347294015173602 
1292	 0.347406020512517 
1293	 0.347530223202853 
1294	 0.347642732704618 
1295	 0.347735833944616 
1296	 0.347841380520378 
1297	 0.347960673330705 
1298	 0.348064891088203 
1299	 0.348169492619558 
1300	 0.348258709454071 
1301	 0.348335157118666 
1302	 0.348406512311283 
1303	 0.348474043793279 
1304	 0.348520042004906 
1305	 0.348561035466665 
1306	 0.348597289610953 
1307	 0.348622690524712 
1308	 0.348641248659032 
1309	 0.348655932128403 
1310	 0.348667337481566 
1311	 0.348676720478512 
1312	 0.348674650719518 
1313	 0.348679043665867 
1314	 0.348690986766676 
1315	 0.348688107524048 
1316	 0.348671051805307 
1317	 0.348675004443806 
1318	 0.348684879351973 
1319	 0.348687412301922 
1320	 0.348698252482502 
1321	 0.348705600417561 
1322	 0.348703872550649 
1323	 0.348700533208971 
1324	 0.348712665961487 
1325	 0.348730008012195 
1326	 0.348760348495702 
1327	 0.348785867878424 
1328	 0.348781756977664 
1329	 0.348784010559595 
1330	 0.348781659605039 
1331	 0.34874489146437 
1332	 0.348758050195353 
1333	 0.348792988921074 
1334	 0.34883448615102 
1335	 0.348905866548266 
1336	 0.348962199171766 
1337	 0.349020490320836 
1338	 0.349080036541914 
1339	 0.349130146568724 
1340	 0.349191633272459 
1341	 0.349284152819896 
1342	 0.349338721211199 
1343	 0.349382863030832 
1344	 0.349418277940854 
1345	 0.349419938831407 
1346	 0.349413926159249 
1347	 0.349429510506498 
1348	 0.349458650457572 
1349	 0.349494294973432 
1350	 0.349525110418474 
1351	 0.349552190863028 
1352	 0.349571835463796 
1353	 0.349602204571553 
1354	 0.349632458334654 
1355	 0.349665683293418 
1356	 0.34971241705305 
1357	 0.349741567675895 
1358	 0.349760422388532 
1359	 0.349789650398129 
1360	 0.349803785307967 
1361	 0.349843035570521 
1362	 0.349908556664595 
1363	 0.349957279615221 
1364	 0.350008786484166 
1365	 0.350061995422013 
1366	 0.35010750721534 
1367	 0.350152901413792 
1368	 0.350220618386289 
1369	 0.350287051483559 
1370	 0.350337053097517 
1371	 0.350384118845551 
1372	 0.35041291891424 
1373	 0.350432783500772 
1374	 0.350433104319946 
1375	 0.350415995682929 
1376	 0.350391847505554 
1377	 0.350361055073532 
1378	 0.350297637327669 
1379	 0.350204874554177 
1380	 0.350128674460127 
1381	 0.350017150463587 
1382	 0.349944634433018 
1383	 0.349912636406294 
1384	 0.349853458090835 
1385	 0.349809376633081 
1386	 0.349735906242766 
1387	 0.349650631117083 
1388	 0.349538746276202 
1389	 0.349409768209095 
1390	 0.349252360207629 
1391	 0.349080966026593 
1392	 0.348881571111678 
1393	 0.348655523795326 
1394	 0.348426447715131 
1395	 0.348145112226299 
1396	 0.347874751146863 
1397	 0.347627018092976 
1398	 0.347386823446769 
1399	 0.347136301488084 
1400	 0.34691190408341 
1401	 0.346653074122607 
1402	 0.346365156570534 
1403	 0.346083046732625 
1404	 0.345781289434799 
1405	 0.34551133210896 
1406	 0.345250644468398 
1407	 0.344999759709267 
1408	 0.34475880022321 
1409	 0.344537342396963 
1410	 0.344319045862934 
1411	 0.344120943542386 
1412	 0.34393311756743 
1413	 0.343786657415449 
1414	 0.343681751589908 
1415	 0.343591190809533 
1416	 0.343549517296227 
1417	 0.343543197358163 
1418	 0.343521589055362 
1419	 0.343510565296031 
1420	 0.343517136650911 
1421	 0.343510932822178 
1422	 0.343495825421636 
1423	 0.343487041008677 
1424	 0.343464275941421 
1425	 0.343425230909191 
1426	 0.343395269653676 
1427	 0.34335494489773 
1428	 0.343333873777094 
1429	 0.343324015205154 
1430	 0.343312594072421 
1431	 0.34331416799854 
1432	 0.343307303035276 
1433	 0.343292507682965 
1434	 0.343283505924451 
1435	 0.343269804383402 
1436	 0.343274800520588 
1437	 0.343291721324218 
1438	 0.343305459167994 
1439	 0.343334972256808 
1440	 0.343356129612625 
1441	 0.343344910357381 
1442	 0.343359527356001 
1443	 0.343372498312735 
1444	 0.343374266369222 
1445	 0.343424041961555 
1446	 0.343482067677118 
1447	 0.343528892619768 
1448	 0.343579052006537 
1449	 0.343604845639854 
1450	 0.3436126678949 
1451	 0.343621158373248 
1452	 0.343616647434781 
1453	 0.343630591933069 
1454	 0.343640530693005 
1455	 0.343663045796978 
1456	 0.343714994443549 
1457	 0.343732738786354 
1458	 0.343737234627371 
1459	 0.34374621748533 
1460	 0.343736558021147 
1461	 0.343737638330448 
1462	 0.343745203461257 
1463	 0.34376151311453 
1464	 0.343777013962513 
1465	 0.343798984996072 
1466	 0.34383697931462 
1467	 0.343869659405458 
1468	 0.343885022168719 
1469	 0.343932972160092 
1470	 0.344004911606281 
1471	 0.344066273027423 
1472	 0.344151578744551 
1473	 0.344259669989843 
1474	 0.344326322884885 
1475	 0.344398347974422 
1476	 0.344481718632345 
1477	 0.344558061466014 
1478	 0.344653638890834 
1479	 0.344764461466803 
1480	 0.344878416776209 
1481	 0.344984390247957 
1482	 0.345093689904291 
1483	 0.345209663715161 
1484	 0.345319828102726 
1485	 0.345424178322209 
1486	 0.345537092784092 
1487	 0.34566241990386 
1488	 0.345766697469222 
1489	 0.345864125097745 
1490	 0.345957782991027 
1491	 0.346029976107164 
1492	 0.34612249673724 
1493	 0.346221898067677 
1494	 0.346321876685084 
1495	 0.346428405757298 
1496	 0.34653918954342 
1497	 0.346652501235077 
1498	 0.34676873013172 
1499	 0.346911951303 
1500	 0.347015511150934 
1501	 0.347089178863258 
1502	 0.347185075500797 
1503	 0.347278997257253 
1504	 0.347348707105081 
1505	 0.347456611238427 
1506	 0.347551425685041 
1507	 0.347617132086937 
1508	 0.347688237932904 
1509	 0.34776145894393 
1510	 0.347835668235708 
1511	 0.347906685610774 
1512	 0.34798726804935 
1513	 0.348097398623359 
1514	 0.348185529618105 
1515	 0.348273311488517 
1516	 0.348383606687057 
1517	 0.34846085624757 
1518	 0.348508438913747 
1519	 0.34857626798394 
1520	 0.34863565439515 
1521	 0.348704343091186 
1522	 0.348784290177567 
1523	 0.348856540807321 
1524	 0.348927522106192 
1525	 0.349003361273561 
1526	 0.349077686554108 
1527	 0.349153567228341 
1528	 0.34923497564274 
1529	 0.34931673241349 
1530	 0.349403223291174 
1531	 0.349479643274896 
1532	 0.349556109449988 
1533	 0.349622338453155 
1534	 0.34968122725663 
1535	 0.349730741224913 
1536	 0.349763335715813 
1537	 0.349809783255288 
1538	 0.349852918251838 
1539	 0.349896615194336 
1540	 0.349957291500102 
1541	 0.350003094390905 
1542	 0.350039908026277 
1543	 0.350074082897442 
1544	 0.350093550151614 
1545	 0.350120046312973 
1546	 0.350150491014365 
1547	 0.350173198894464 
1548	 0.350190195893325 
1549	 0.35023098154738 
1550	 0.350273773039929 
1551	 0.350323487328122 
1552	 0.350386655967213 
1553	 0.350443491063307 
1554	 0.350491675051891 
1555	 0.350527157580229 
1556	 0.350571139200326 
1557	 0.350623563786098 
1558	 0.350674253402023 
1559	 0.350719544600963 
1560	 0.350756792076456 
1561	 0.350783105212407 
1562	 0.350814452283268 
1563	 0.350837559374164 
1564	 0.350877054941217 
1565	 0.350920117328956 
1566	 0.350977474151931 
1567	 0.351052220620441 
1568	 0.351116451015685 
1569	 0.351193308052631 
1570	 0.351243059207476 
1571	 0.351279635910078 
1572	 0.351316103017646 
1573	 0.351340217201893 
1574	 0.35136319932675 
1575	 0.351372873063874 
1576	 0.351401047751346 
1577	 0.351437006848164 
1578	 0.35146653537425 
1579	 0.351507942800221 
1580	 0.351542656590289 
1581	 0.351566349782192 
1582	 0.351590886956353 
1583	 0.351620320882292 
1584	 0.35164456268135 
1585	 0.35164562455453 
1586	 0.351676468155028 
1587	 0.351725721132174 
1588	 0.351772680623 
1589	 0.351848893121341 
1590	 0.351895923115586 
1591	 0.351936893976038 
1592	 0.351957222987789 
1593	 0.351935089776448 
1594	 0.351946652014241 
1595	 0.351953503187926 
1596	 0.351975316684375 
1597	 0.352036549141695 
1598	 0.352074572348541 
1599	 0.352114182959275 
1600	 0.35213775753289 
1601	 0.352139130516784 
1602	 0.352146701798255 
1603	 0.352149287374638 
1604	 0.352146643472393 
1605	 0.352129024558443 
1606	 0.35213298293494 
1607	 0.352150743080698 
1608	 0.352158695367074 
1609	 0.352169579259779 
1610	 0.352194720839631 
1611	 0.352196504871882 
1612	 0.352197708756951 
1613	 0.352207049731584 
1614	 0.352213421953907 
1615	 0.352215944993478 
1616	 0.352223783233498 
1617	 0.352238776313635 
1618	 0.35225532430314 
1619	 0.352278780633406 
1620	 0.352300784057711 
1621	 0.35232154821377 
1622	 0.352344384253651 
1623	 0.352365978533448 
1624	 0.352388182302452 
1625	 0.352398934931323 
1626	 0.352403835874505 
1627	 0.35241379428995 
1628	 0.352420609909528 
1629	 0.352420778384361 
1630	 0.35242975993282 
1631	 0.352412251351202 
1632	 0.352365011095382 
1633	 0.352346658703965 
1634	 0.352322438184436 
1635	 0.352321549567962 
1636	 0.352344865671623 
1637	 0.352360776677859 
1638	 0.352380381155022 
1639	 0.352406155189576 
1640	 0.352440996390572 
1641	 0.352467196242135 
1642	 0.352501062532942 
1643	 0.352519790779727 
1644	 0.352526449546978 
1645	 0.352533293866814 
1646	 0.352530014544825 
1647	 0.352537228068848 
1648	 0.35254583249645 
1649	 0.35255694422623 
1650	 0.352575626394601 
1651	 0.352587473004424 
1652	 0.352603435049799 
1653	 0.35260191470094 
1654	 0.352587142590884 
1655	 0.35258135304547 
1656	 0.352560547099316 
1657	 0.352560781604072 
1658	 0.352581407158866 
1659	 0.3525875937997 
1660	 0.352602677843006 
1661	 0.352597195433538 
1662	 0.352570944413845 
1663	 0.35255982575981 
1664	 0.352536059589118 
1665	 0.352535975751563 
1666	 0.352560688802884 
1667	 0.352569208121924 
1668	 0.352587680256551 
1669	 0.352587940623211 
1670	 0.35256881925953 
1671	 0.352561373197788 
1672	 0.352550536976609 
1673	 0.352543133007571 
1674	 0.352537530236349 
1675	 0.352539359725123 
1676	 0.352538298886286 
1677	 0.35255303959464 
1678	 0.352594449871786 
1679	 0.352609312949427 
1680	 0.352628606012208 
1681	 0.352625219755647 
1682	 0.352588991358839 
1683	 0.352572586673271 
1684	 0.35255516040082 
1685	 0.352538155901082 
1686	 0.352515684992996 
1687	 0.352516530076127 
1688	 0.352527991502922 
1689	 0.352539496126912 
1690	 0.352567254155971 
1691	 0.35259919688703 
1692	 0.352633514216212 
1693	 0.352661651231857 
1694	 0.352714300466734 
1695	 0.352728234746276 
1696	 0.352710448830954 
1697	 0.352702276295816 
1698	 0.352682164881765 
1699	 0.352662538883598 
1700	 0.35264425194682 
1701	 0.352620466711534 
1702	 0.352590946158961 
1703	 0.352554258700149 
1704	 0.352513454580562 
1705	 0.352473348465897 
1706	 0.352419794174224 
1707	 0.352381313963519 
1708	 0.352343012686042 
1709	 0.352321041676757 
1710	 0.352302805708534 
1711	 0.352312910731573 
1712	 0.352356968092845 
1713	 0.352381846907403 
1714	 0.352424218404908 
1715	 0.352444395846209 
1716	 0.352454113681009 
1717	 0.35244898507672 
1718	 0.35242706630571 
1719	 0.352408717462433 
1720	 0.352389416563866 
1721	 0.352339913924912 
1722	 0.35228016432031 
1723	 0.352216372345633 
1724	 0.352105870657069 
1725	 0.352040590073898 
1726	 0.352000638115547 
1727	 0.351956685333303 
1728	 0.351933787576054 
1729	 0.351890134850273 
1730	 0.351849627853437 
1731	 0.351778291714785 
1732	 0.351682223302763 
1733	 0.351586113209053 
1734	 0.351455949578698 
1735	 0.351372899217156 
1736	 0.35130385814519 
1737	 0.3512534622153 
1738	 0.351236833533854 
1739	 0.351201945502261 
1740	 0.351173096821316 
1741	 0.351136136986087 
1742	 0.3510962950001 
1743	 0.351052899632304 
1744	 0.351008112195173 
1745	 0.350948877811892 
1746	 0.350874957775993 
1747	 0.35082770964719 
1748	 0.350776430136784 
1749	 0.350757543506042 
1750	 0.350722352093467 
1751	 0.350652390598755 
1752	 0.35059257706238 
1753	 0.350531722903325 
1754	 0.3504679897769 
1755	 0.350437571842826 
1756	 0.35039609139145 
1757	 0.350332731637129 
1758	 0.350299704830381 
1759	 0.350271158829987 
1760	 0.350234093071218 
1761	 0.35019448322926 
1762	 0.350129612284922 
1763	 0.350035007472942 
1764	 0.349945533937153 
1765	 0.349896945639668 
1766	 0.349857602109217 
1767	 0.349782701789878 
1768	 0.349712421107997 
1769	 0.349643802737397 
1770	 0.349544105634058 
1771	 0.349477638431812 
1772	 0.349420951235727 
1773	 0.349328400261649 
1774	 0.349266292429675 
1775	 0.34921370030103 
1776	 0.349152159816868 
1777	 0.349127291469045 
1778	 0.349102231880429 
1779	 0.349105703508429 
1780	 0.349127640684655 
1781	 0.34912028132438 
1782	 0.349104118371352 
1783	 0.349055935140755 
1784	 0.349014704643628 
1785	 0.348958501940936 
1786	 0.348907382765037 
1787	 0.348855354364563 
1788	 0.348812440823441 
1789	 0.348786154020194 
1790	 0.34875542804982 
1791	 0.348725185592612 
1792	 0.348686454564509 
1793	 0.348646820617282 
1794	 0.348602563910004 
1795	 0.348552513831826 
1796	 0.348492867150847 
1797	 0.348407802270764 
1798	 0.348360381476075 
1799	 0.348321810821422 
1800	 0.348308341153668 
1801	 0.341134880257268 
1802	 0.34125964155213 
1803	 0.341387773383285 
1804	 0.341562725512796 
1805	 0.341729768460723 
1806	 0.341911763999304 
1807	 0.342137118114369 
1808	 0.342296762164901 
1809	 0.342453817737808 
1810	 0.342566378790419 
1811	 0.342639877095934 
1812	 0.34267139391014 
1813	 0.342702116612191 
1814	 0.342711848755165 
1815	 0.342729232695096 
1816	 0.342761543848966 
1817	 0.34280304052757 
1818	 0.342870431154463 
1819	 0.342918862764998 
1820	 0.342969432350388 
1821	 0.343013305905579 
1822	 0.343044211414037 
1823	 0.343054925188687 
1824	 0.343090455460143 
1825	 0.343109082660919 
1826	 0.34312570408987 
1827	 0.343167767424716 
1828	 0.343181307181953 
1829	 0.3431816328622 
1830	 0.343180664713062 
1831	 0.34317767502948 
1832	 0.343141602305738 
1833	 0.343097890194774 
1834	 0.343054755993388 
1835	 0.343016427128945 
1836	 0.34299735619183 
1837	 0.342981538159599 
1838	 0.342972057508161 
1839	 0.342977682490301 
1840	 0.34299263100405 
1841	 0.342997660728303 
1842	 0.343016756680652 
1843	 0.343026475714185 
1844	 0.342996655155244 
1845	 0.342945287751338 
1846	 0.342876883941422 
1847	 0.342843617255454 
1848	 0.342803916629133 
1849	 0.342744567092682 
1850	 0.342722716242531 
1851	 0.342732248783114 
1852	 0.342725344137675 
1853	 0.342731594182104 
1854	 0.342762318191071 
1855	 0.342773926375383 
1856	 0.342763765141319 
1857	 0.342736167187361 
1858	 0.342692580002375 
1859	 0.342612549153252 
1860	 0.342506669367499 
1861	 0.342372098543456 
1862	 0.342197832091917 
1863	 0.342023670111071 
1864	 0.341875694404706 
1865	 0.341724844335616 
1866	 0.341540460521444 
1867	 0.341327492168456 
1868	 0.341098559573975 
1869	 0.340839105961571 
1870	 0.340590577497622 
1871	 0.340339072733683 
1872	 0.340096118036625 
1873	 0.339838056582697 
1874	 0.339573267751804 
1875	 0.339292269211838 
1876	 0.338988481466814 
1877	 0.338631437034421 
1878	 0.33823649630056 
1879	 0.337829865468376 
1880	 0.3373597817102 
1881	 0.336842208826548 
1882	 0.336294588585357 
1883	 0.335721920770318 
1884	 0.335048166499585 
1885	 0.334344898270299 
1886	 0.333583208420255 
1887	 0.332724166831513 
1888	 0.331844131957852 
1889	 0.330893950541514 
1890	 0.329885452383416 
1891	 0.328866751732962 
1892	 0.327785091483664 
1893	 0.326708002919091 
1894	 0.325619582601839 
1895	 0.324530155224217 
1896	 0.323388506510271 
1897	 0.322218547050855 
1898	 0.321027728126643 
1899	 0.319846464123649 
1900	 0.318708160641203 
1901	 0.317568454666432 
1902	 0.316466650790186 
1903	 0.315381935160474 
1904	 0.314353215338443 
1905	 0.313343645277863 
1906	 0.312422705897843 
1907	 0.311528641442117 
1908	 0.310677866523433 
1909	 0.309887222432883 
1910	 0.309120552363255 
1911	 0.308405930264263 
1912	 0.307724544143319 
1913	 0.307077361183836 
1914	 0.30644887214297 
1915	 0.30586958149214 
1916	 0.305322165150388 
1917	 0.3048402230364 
1918	 0.304404339500323 
1919	 0.304003013235544 
1920	 0.303652774003849 
1921	 0.303334989024142 
1922	 0.303017677098429 
1923	 0.302729182528813 
1924	 0.302474782367768 
1925	 0.302228031266553 
1926	 0.302038324459457 
1927	 0.301891600553434 
1928	 0.301793390524334 
1929	 0.301714461258676 
1930	 0.301683390048124 
1931	 0.301659582699979 
1932	 0.301632080606192 
1933	 0.301626654954885 
1934	 0.30166549177063 
1935	 0.301730371013204 
1936	 0.301836542902573 
1937	 0.301940402354577 
1938	 0.302066114172512 
1939	 0.30220802677365 
1940	 0.302346158617145 
1941	 0.302533073554199 
1942	 0.302754901255118 
1943	 0.302958171279611 
1944	 0.30316538529924 
1945	 0.303371912511912 
1946	 0.303585984511078 
1947	 0.303793713637327 
1948	 0.304022665829347 
1949	 0.304283534681412 
1950	 0.304518278126837 
1951	 0.304741110110286 
1952	 0.304977456471196 
1953	 0.305217429614032 
1954	 0.305450358545322 
1955	 0.305711341876374 
1956	 0.305965904818964 
1957	 0.306228818889665 
1958	 0.306474266368728 
1959	 0.306762609029582 
1960	 0.30708723196272 
1961	 0.307404864716134 
1962	 0.307746323602952 
1963	 0.308085163088935 
1964	 0.30843458217301 
1965	 0.30875369106094 
1966	 0.309101882232647 
1967	 0.309420921812488 
1968	 0.309745710053236 
1969	 0.310061546500763 
1970	 0.310388699217008 
1971	 0.310719820759489 
1972	 0.311055250270505 
1973	 0.311397479830501 
1974	 0.311728753380808 
1975	 0.312059868945927 
1976	 0.312381157681741 
1977	 0.31270431688968 
1978	 0.313054773089101 
1979	 0.313399030731908 
1980	 0.313749449451394 
1981	 0.314100078468586 
1982	 0.31444863922964 
1983	 0.314798331116851 
1984	 0.315158401260725 
1985	 0.315507664418733 
1986	 0.315847476188622 
1987	 0.316192863650033 
1988	 0.316537408273416 
1989	 0.316880341023277 
1990	 0.317223455262701 
1991	 0.317585179063076 
1992	 0.317951245258238 
1993	 0.318333967755393 
1994	 0.318698399206441 
1995	 0.319072185642849 
1996	 0.319420937679051 
1997	 0.319751481403293 
1998	 0.320080527099779 
1999	 0.320391133040151 
2000	 0.320711900691234 
2001	 0.321039649251516 
2002	 0.321345833743688 
2003	 0.32166826919073 
2004	 0.321999481330003 
2005	 0.322303941756412 
2006	 0.322595384330247 
2007	 0.322887888550415 
2008	 0.323148707877036 
2009	 0.323442551922038 
2010	 0.323762666819266 
2011	 0.324065328477717 
2012	 0.324362705180619 
2013	 0.324675563042418 
2014	 0.324989712777274 
2015	 0.325303424495743 
2016	 0.325632053831749 
2017	 0.325956566698974 
2018	 0.32627851098377 
2019	 0.326588948719718 
2020	 0.326906485245958 
2021	 0.327234487590142 
2022	 0.327552666219508 
2023	 0.327880307293645 
2024	 0.328180181668439 
2025	 0.328466819791054 
2026	 0.328742123939926 
2027	 0.329004114332961 
2028	 0.329236339741562 
2029	 0.329479001945777 
2030	 0.32970733855093 
2031	 0.329958753366673 
2032	 0.330207692916854 
2033	 0.330478451360104 
2034	 0.33078193198582 
2035	 0.331063672271691 
2036	 0.331367591896517 
2037	 0.331630076252487 
2038	 0.331867535216949 
2039	 0.332094824190204 
2040	 0.332293189051606 
2041	 0.33248252567116 
2042	 0.332676731410687 
2043	 0.332907830440874 
2044	 0.333117985683751 
2045	 0.333331019370555 
2046	 0.333547379336803 
2047	 0.333762449037266 
2048	 0.333970972175468 
2049	 0.334193339503652 
2050	 0.334395889599066 
2051	 0.33458219878696 
2052	 0.33476458930448 
2053	 0.334946630145886 
2054	 0.335111851272855 
2055	 0.335250691685057 
2056	 0.335398026433792 
2057	 0.335551841246092 
2058	 0.335690539097162 
2059	 0.335854492190313 
2060	 0.336041662910562 
2061	 0.336222168352017 
2062	 0.336410433516802 
2063	 0.336596685334995 
2064	 0.336786709259943 
2065	 0.336973141360956 
2066	 0.337167718739448 
2067	 0.337347463680293 
2068	 0.337527401517445 
2069	 0.337680605614184 
2070	 0.337852528691971 
2071	 0.338020867360164 
2072	 0.338185398169927 
2073	 0.338355709555718 
2074	 0.338523767983897 
2075	 0.338675973158947 
2076	 0.338842850217843 
2077	 0.339026063148838 
2078	 0.339199304902326 
2079	 0.339373601714395 
2080	 0.339543607581791 
2081	 0.339712598865153 
2082	 0.339873233606921 
2083	 0.340030318303286 
2084	 0.340183409764635 
2085	 0.340320084498895 
2086	 0.340449254772004 
2087	 0.340560245862857 
2088	 0.340634059984827 
2089	 0.340751314389535 
2090	 0.340870896503571 
2091	 0.341000987183398 
2092	 0.341161118353984 
2093	 0.341312288299643 
2094	 0.341458091214378 
2095	 0.341610411842494 
2096	 0.341791243114867 
2097	 0.341939697580457 
2098	 0.342076781049853 
2099	 0.342202278964727 
2100	 0.342311922086324 
2101	 0.342390474478733 
2102	 0.342489000664904 
2103	 0.342565647762995 
2104	 0.342691346565206 
2105	 0.342823361909327 
2106	 0.342997143865234 
2107	 0.343213398407696 
2108	 0.34344076514802 
2109	 0.343719544592967 
2110	 0.343972519488568 
2111	 0.344255093550129 
2112	 0.344496707319452 
2113	 0.34473307825975 
2114	 0.344915736645752 
2115	 0.345091510591976 
2116	 0.345235136550344 
2117	 0.345383513342059 
2118	 0.345503380865994 
2119	 0.345650100238522 
2120	 0.34579459995992 
2121	 0.345957258621309 
2122	 0.346136581255549 
2123	 0.346315584687449 
2124	 0.346521666902359 
2125	 0.346696113108657 
2126	 0.346878156478521 
2127	 0.347025423575784 
2128	 0.347136489031377 
2129	 0.347243093605154 
2130	 0.347324614540984 
2131	 0.347399866284925 
2132	 0.34747849028673 
2133	 0.347566263443087 
2134	 0.347614218497534 
2135	 0.347650288218219 
2136	 0.347666378625089 
2137	 0.347641246155751 
2138	 0.347628808273631 
2139	 0.347617625703528 
2140	 0.347590442112917 
2141	 0.347565219642895 
2142	 0.347509657759015 
2143	 0.347421370497463 
2144	 0.347339521647597 
2145	 0.347246626442566 
2146	 0.347141051250286 
2147	 0.347058882212643 
2148	 0.346922458362147 
2149	 0.346771165595803 
2150	 0.346587916967544 
2151	 0.346404117766431 
2152	 0.346189066551398 
2153	 0.345994205939999 
2154	 0.345794700692239 
2155	 0.345604192127883 
2156	 0.345447249149556 
2157	 0.345236034393687 
2158	 0.345012964389354 
2159	 0.344763671779776 
2160	 0.344449503652491 
2161	 0.344165445639502 
2162	 0.343868040440957 
2163	 0.34359700580412 
2164	 0.343336629260415 
2165	 0.34310221638861 
2166	 0.342863636597382 
2167	 0.342645843788385 
2168	 0.3424074764909 
2169	 0.342167764682894 
2170	 0.341919630584052 
2171	 0.341675495895045 
2172	 0.341401095535532 
2173	 0.341098756570266 
2174	 0.3408116474008 
2175	 0.340502846389366 
2176	 0.340208702450664 
2177	 0.33994142565541 
2178	 0.339652942560669 
2179	 0.339336874420718 
2180	 0.339047119414407 
2181	 0.338753276134142 
2182	 0.338479036529789 
2183	 0.338209876748841 
2184	 0.337997044447252 
2185	 0.337749071494151 
2186	 0.337508811211899 
2187	 0.337250628829332 
2188	 0.336980144918984 
2189	 0.336707400474246 
2190	 0.336420966516746 
2191	 0.336147859144375 
2192	 0.335871505496442 
2193	 0.335605223714108 
2194	 0.335331716970914 
2195	 0.335093355497513 
2196	 0.334862020982228 
2197	 0.334661649000527 
2198	 0.334499926726982 
2199	 0.334350227483381 
2200	 0.334226080559563 
2201	 0.334111432538988 
2202	 0.334008326906611 
2203	 0.333928512520597 
2204	 0.333857558639542 
2205	 0.333801833851284 
2206	 0.333748700399712 
2207	 0.333702696964851 
2208	 0.333678078062536 
2209	 0.333660083889579 
2210	 0.333668099343611 
2211	 0.333705734759499 
2212	 0.333745022507091 
2213	 0.333800922088749 
2214	 0.333862383617242 
2215	 0.333937472692341 
2216	 0.334013869223423 
2217	 0.334125119895863 
2218	 0.33418679368329 
2219	 0.334229191555499 
2220	 0.334261464752816 
2221	 0.334244596951984 
2222	 0.334248705523172 
2223	 0.334269393119007 
2224	 0.334294446432989 
2225	 0.334304669881057 
2226	 0.334323612275017 
2227	 0.334313412551011 
2228	 0.334291745612491 
2229	 0.334242014889978 
2230	 0.334153392174556 
2231	 0.334095663213386 
2232	 0.334025189931413 
2233	 0.333960850883975 
2234	 0.333916018603794 
2235	 0.333866894074463 
2236	 0.333797703177194 
2237	 0.333755402733502 
2238	 0.333725198915686 
2239	 0.33371537252338 
2240	 0.333762080091412 
2241	 0.333744178786159 
2242	 0.333712143085787 
2243	 0.333668011881646 
2244	 0.333565753019039 
2245	 0.333479997323322 
2246	 0.333409973481768 
2247	 0.333356535963033 
2248	 0.333302534047338 
2249	 0.33325810031302 
2250	 0.333191211701629 
2251	 0.333120106358437 
2252	 0.333063795254358 
2253	 0.332988389205096 
2254	 0.332945568937173 
2255	 0.332930672413268 
2256	 0.332907456899473 
2257	 0.332883619806585 
2258	 0.332887404417299 
2259	 0.332919145269711 
2260	 0.332929891323207 
2261	 0.332958148849565 
2262	 0.33296212772413 
2263	 0.332914556927571 
2264	 0.332925268384579 
2265	 0.332961661293803 
2266	 0.332994478355665 
2267	 0.333068988148099 
2268	 0.33312413489716 
2269	 0.333150812728734 
2270	 0.333204099642069 
2271	 0.333276692990061 
2272	 0.333331351389096 
2273	 0.333360825936709 
2274	 0.333385348423703 
2275	 0.333415719741474 
2276	 0.333424132748657 
2277	 0.333444605796091 
2278	 0.333492849359626 
2279	 0.333497650016562 
2280	 0.33346468485119 
2281	 0.333474296174464 
2282	 0.333481861619796 
2283	 0.333502202745365 
2284	 0.33355329040622 
2285	 0.333585601393649 
2286	 0.333609748870575 
2287	 0.333643008500573 
2288	 0.33367778787255 
2289	 0.333716175375972 
2290	 0.333756534607745 
2291	 0.333799931985146 
2292	 0.333851886641551 
2293	 0.333905714980308 
2294	 0.333953984752364 
2295	 0.334014973413007 
2296	 0.334091094568809 
2297	 0.334155539994586 
2298	 0.334242724281751 
2299	 0.334310034826532 
2300	 0.334375501977646 
2301	 0.334450510392431 
2302	 0.334500506543109 
2303	 0.334573489338034 
2304	 0.334624236875138 
2305	 0.334647659867565 
2306	 0.334671212348055 
2307	 0.334671261543161 
2308	 0.334697910247353 
2309	 0.334735724502445 
2310	 0.3347637124531 
2311	 0.334822811937733 
2312	 0.334820140560509 
2313	 0.334775035093541 
2314	 0.334729992573062 
2315	 0.334627619366142 
2316	 0.334586865165004 
2317	 0.334547549294476 
2318	 0.334560735653304 
2319	 0.334657579731954 
2320	 0.334695607742932 
2321	 0.334709174150745 
2322	 0.334778130254922 
2323	 0.334868708922981 
2324	 0.334928853429239 
2325	 0.335060600364597 
2326	 0.335123136227305 
2327	 0.335108078114161 
2328	 0.335083967611287 
2329	 0.335104239694859 
2330	 0.335073229501552 
2331	 0.335077493732879 
2332	 0.33507734218544 
2333	 0.335088680766397 
2334	 0.335112704496115 
2335	 0.335143289620804 
2336	 0.33525939667404 
2337	 0.335326531765509 
2338	 0.335357147787606 
2339	 0.3353781376059 
2340	 0.335277660955583 
2341	 0.335197880962516 
2342	 0.335133959435285 
2343	 0.33502239017313 
2344	 0.334983419912653 
2345	 0.334898914062419 
2346	 0.334780183956481 
2347	 0.334695139148862 
2348	 0.334658901355206 
2349	 0.334526152252504 
2350	 0.334337506405783 
2351	 0.33420056836277 
2352	 0.333994008656247 
2353	 0.333847289940818 
2354	 0.333790798077001 
2355	 0.33370919403941 
2356	 0.333635579560715 
2357	 0.333536219118917 
2358	 0.333431991595297 
2359	 0.333344725150041 
2360	 0.333248155786016 
2361	 0.333118808324127 
2362	 0.332997630000268 
2363	 0.33286342993084 
2364	 0.332665739963153 
2365	 0.332517522044943 
2366	 0.33242848524362 
2367	 0.332289396477858 
2368	 0.332115996217594 
2369	 0.331983817079461 
2370	 0.331887042245913 
2371	 0.331713126294646 
2372	 0.331523056889755 
2373	 0.331325176361228 
2374	 0.33113296591821 
2375	 0.330984237251191 
2376	 0.330844617559738 
2377	 0.330718709489143 
2378	 0.330523131826111 
2379	 0.330141823623476 
2380	 0.329826455786035 
2381	 0.329572805958945 
2382	 0.329268813498862 
2383	 0.329140352457697 
2384	 0.328976353089808 
2385	 0.328802825170411 
2386	 0.328675391363894 
2387	 0.328418012023 
2388	 0.328260725862229 
2389	 0.328073472333037 
2390	 0.327786454216755 
2391	 0.327582565339926 
2392	 0.327378098013756 
2393	 0.327162613677625 
2394	 0.326960104689516 
2395	 0.326760582507413 
2396	 0.326529012563015 
2397	 0.326213440654952 
2398	 0.325883282053564 
2399	 0.325614351306169 
2400	 0.325380959656621 
2401	 0.32508280871176 
2402	 0.324747023725778 
2403	 0.324527873581884 
2404	 0.324279091371037 
2405	 0.324008875048697 
2406	 0.323836411519579 
2407	 0.323599415382103 
2408	 0.323366212600274 
2409	 0.323209151825683 
2410	 0.322985623641269 
2411	 0.322717654914539 
2412	 0.322525178552169 
2413	 0.322229820532512 
2414	 0.322004654545313 
2415	 0.321851032281886 
2416	 0.321568307444375 
2417	 0.321177045693172 
2418	 0.320886839310919 
2419	 0.320526008238488 
2420	 0.320243866790071 
2421	 0.320094487185232 
2422	 0.31979140468388 
2423	 0.319420696106519 
2424	 0.319111510721448 
2425	 0.318759048436968 
2426	 0.318376663292632 
2427	 0.318016357110748 
2428	 0.317713865986436 
2429	 0.317356901054454 
2430	 0.317080659560024 
2431	 0.316949090587348 
2432	 0.316742906988208 
2433	 0.316488049355163 
2434	 0.316291469705986 
2435	 0.316139845319216 
2436	 0.315892026411439 
2437	 0.315694312775788 
2438	 0.315397691777291 
2439	 0.314958633074211 
2440	 0.314608162047991 
2441	 0.314141059929705 
2442	 0.313795150850435 
2443	 0.313626274729766 
2444	 0.313415991793827 
2445	 0.313267379096982 
2446	 0.313070384367899 
2447	 0.31279577780718 
2448	 0.31247022762373 
2449	 0.31218506726936 
2450	 0.311824013409474 
2451	 0.311325507841313 
2452	 0.311029846886404 
2453	 0.310679643123529 
2454	 0.310437944929624 
2455	 0.310496528481587 
2456	 0.310278577772023 
2457	 0.310000359952972 
2458	 0.309771553299245 
2459	 0.309410575268857 
2460	 0.309110849727109 
2461	 0.308827208785893 
2462	 0.30850615844706 
2463	 0.308183444820815 
2464	 0.30789806795402 
2465	 0.307672148092348 
2466	 0.307385877840851 
2467	 0.307054779631271 
2468	 0.306680561255745 
2469	 0.306219621189085 
2470	 0.305958137944765 
2471	 0.305718818074119 
2472	 0.305552047940959 
2473	 0.305470110785518 
2474	 0.305457351200296 
2475	 0.305337491249026 
2476	 0.30509127976044 
2477	 0.304787799240194 
2478	 0.304240588339933 
2479	 0.303821338126051 
2480	 0.303731035152922 
2481	 0.30350163002589 
2482	 0.303273929925498 
2483	 0.303167482153522 
2484	 0.302857239347089 
2485	 0.302596007639032 
2486	 0.302393829345235 
2487	 0.302056443457537 
2488	 0.301775044552928 
2489	 0.301498367093278 
2490	 0.301239938165098 
2491	 0.301123403950265 
2492	 0.301117158232749 
2493	 0.300978723379479 
2494	 0.300870579840815 
2495	 0.300871722703008 
2496	 0.300599326178787 
2497	 0.30026610870354 
2498	 0.300027859663066 
2499	 0.299752481743664 
2500	 0.299490124424494 
