Wavelength	MM200005.asd
350	 5.34761148768998E-02 
351	 5.55681626363429E-02 
352	 5.19076321446203E-02 
353	 4.59755811306317E-02 
354	 4.96281716312308E-02 
355	 5.81194633270187E-02 
356	 5.97815019729858E-02 
357	 4.94590249661658E-02 
358	 5.28098300943466E-02 
359	 5.63706854291927E-02 
360	 5.70948353265316E-02 
361	 0.058599196246901 
362	 0.052678337568808 
363	 4.99021091746781E-02 
364	 5.34426055619992E-02 
365	 5.18142533337341E-02 
366	 5.10720334548004E-02 
367	 5.19032999752331E-02 
368	 0.053623175659362 
369	 5.63333065502368E-02 
370	 5.59965187505712E-02 
371	 5.44517314127825E-02 
372	 5.67354251382356E-02 
373	 5.48032081870519E-02 
374	 5.40807403738936E-02 
375	 5.69486244896136E-02 
376	 5.78300923728176E-02 
377	 5.57870103248765E-02 
378	 5.44676380839534E-02 
379	 5.71653942187397E-02 
380	 0.059525215775533 
381	 5.78985738480942E-02 
382	 5.55968645897801E-02 
383	 5.99730047752096E-02 
384	 6.02199195791731E-02 
385	 0.059035495369394 
386	 5.93313859523192E-02 
387	 6.07769108032093E-02 
388	 6.05820832717513E-02 
389	 5.97807862470565E-02 
390	 6.02999721121674E-02 
391	 6.18157069105237E-02 
392	 6.22038491458136E-02 
393	 6.22454464090963E-02 
394	 6.49006057895773E-02 
395	 6.66056660339674E-02 
396	 6.62301165141346E-02 
397	 6.47455735953145E-02 
398	 0.066867279717517 
399	 6.73014628888864E-02 
400	 6.71796795869689E-02 
401	 6.88711565041604E-02 
402	 0.06741421544855 
403	 6.70616799506239E-02 
404	 6.87366273169024E-02 
405	 6.95435214680884E-02 
406	 0.070537438997165 
407	 7.09587650606064E-02 
408	 7.04564705109447E-02 
409	 7.03514069510048E-02 
410	 7.10062656063763E-02 
411	 7.15683190780926E-02 
412	 7.10535086605476E-02 
413	 7.21910413941419E-02 
414	 7.25139675234383E-02 
415	 0.071630763862831 
416	 0.072327093984996 
417	 7.25207670730341E-02 
418	 7.24599534952603E-02 
419	 7.26497654862548E-02 
420	 7.24743911960971E-02 
421	 7.24249321035045E-02 
422	 7.27932689743762E-02 
423	 7.36107961147647E-02 
424	 7.37973580966185E-02 
425	 0.073519289730692 
426	 7.31395127265926E-02 
427	 7.30279988904004E-02 
428	 7.29932891964504E-02 
429	 7.30027860459944E-02 
430	 7.30193145273695E-02 
431	 0.072767842057299 
432	 0.072487380175498 
433	 7.23310523366144E-02 
434	 7.23294610807694E-02 
435	 7.21186508892534E-02 
436	 7.18115596390179E-02 
437	 7.15672412098013E-02 
438	 0.071324859615021 
439	 7.17400586995134E-02 
440	 7.22925064093465E-02 
441	 7.20898976903968E-02 
442	 7.24706119105704E-02 
443	 7.28751314129102E-02 
444	 7.29784961794678E-02 
445	 7.30809646315699E-02 
446	 7.32139304221503E-02 
447	 7.33628910072421E-02 
448	 7.35170180463151E-02 
449	 7.37749173469237E-02 
450	 7.41126810775789E-02 
451	 0.07452147858223 
452	 7.49853735497169E-02 
453	 0.075054289362975 
454	 7.49920643935532E-02 
455	 7.50760797046819E-02 
456	 7.53083347792185E-02 
457	 7.54704990277882E-02 
458	 0.075577752180294 
459	 7.57267495036432E-02 
460	 7.57200634161668E-02 
461	 7.57252544966302E-02 
462	 7.58086081077324E-02 
463	 7.58474148209656E-02 
464	 7.60525066552085E-02 
465	 7.62182676294248E-02 
466	 0.076175117606659 
467	 7.63900997193194E-02 
468	 7.64624822722941E-02 
469	 7.63843903160289E-02 
470	 7.64685706923966E-02 
471	 7.66192296360739E-02 
472	 7.66858878397179E-02 
473	 7.66126835770049E-02 
474	 7.65592510861341E-02 
475	 7.66992858167043E-02 
476	 7.68950057479429E-02 
477	 7.68987057215356E-02 
478	 7.68086612331743E-02 
479	 7.69215324720345E-02 
480	 7.72188140852154E-02 
481	 7.72347382426524E-02 
482	 7.71981489010728E-02 
483	 7.73147896201087E-02 
484	 7.76213046096449E-02 
485	 0.07749793180359 
486	 7.73854577002715E-02 
487	 7.74581995596485E-02 
488	 7.76276131273476E-02 
489	 7.76388355111474E-02 
490	 7.76073253332942E-02 
491	 7.76527859086124E-02 
492	 7.77482693176233E-02 
493	 7.77001815052252E-02 
494	 7.76340362365282E-02 
495	 0.077783236829518 
496	 7.79332225359891E-02 
497	 7.79612228944352E-02 
498	 7.78951012141334E-02 
499	 7.79673577321137E-02 
500	 0.077994512212811 
501	 7.79690827762733E-02 
502	 7.79490576464399E-02 
503	 7.80459129778627E-02 
504	 7.81133247978053E-02 
505	 7.81551245777199E-02 
506	 7.83088633136152E-02 
507	 7.83802195856963E-02 
508	 7.84511392217886E-02 
509	 7.85741814427463E-02 
510	 7.85690194386982E-02 
511	 7.85970469072634E-02 
512	 7.86702683176806E-02 
513	 7.87181012195193E-02 
514	 7.86861306196255E-02 
515	 7.87448727031612E-02 
516	 7.89361489388106E-02 
517	 7.90554535958491E-02 
518	 7.90633066105675E-02 
519	 0.079060313111861 
520	 7.91554729553347E-02 
521	 7.91990426420742E-02 
522	 7.92725607065929E-02 
523	 7.93806060215565E-02 
524	 7.94360227890614E-02 
525	 7.93714656840661E-02 
526	 7.93487899678465E-02 
527	 7.94869915259601E-02 
528	 7.96184945982233E-02 
529	 7.96869261169792E-02 
530	 7.97282423732457E-02 
531	 7.98304750055079E-02 
532	 7.98847976654187E-02 
533	 8.00403350284108E-02 
534	 8.03107970351349E-02 
535	 8.03501105136897E-02 
536	 8.03871167030584E-02 
537	 8.04750607659224E-02 
538	 8.05907184166419E-02 
539	 8.06593003918114E-02 
540	 8.07433593003175E-02 
541	 8.08538390173243E-02 
542	 8.09170302817682E-02 
543	 8.10448311580933E-02 
544	 8.12404034000915E-02 
545	 8.14578501667863E-02 
546	 8.15955787365989E-02 
547	 8.17194850367801E-02 
548	 0.081867230425589 
549	 8.20464889541999E-02 
550	 8.22492247132911E-02 
551	 8.24441358170195E-02 
552	 8.26300488307174E-02 
553	 8.29076412167949E-02 
554	 8.30948676811001E-02 
555	 8.32325462732634E-02 
556	 0.083466985028786 
557	 8.37204393087523E-02 
558	 0.084024365399024 
559	 8.43774187259635E-02 
560	 8.47007988490382E-02 
561	 8.50562630695583E-02 
562	 8.54305393818068E-02 
563	 8.58051185693727E-02 
564	 8.62838885683521E-02 
565	 8.67316115975428E-02 
566	 0.087141933190965 
567	 8.76650845427389E-02 
568	 8.82256522100722E-02 
569	 8.87468042954376E-02 
570	 8.92076398618368E-02 
571	 8.97770050305474E-02 
572	 9.03477569789408E-02 
573	 9.09391635921535E-02 
574	 0.09164348223534 
575	 0.092270880174791 
576	 9.29318724372043E-02 
577	 9.36832563019319E-02 
578	 0.094348360376902 
579	 9.50983518827892E-02 
580	 9.59749256667999E-02 
581	 9.69423699750612E-02 
582	 9.78523175759807E-02 
583	 9.87383292847821E-02 
584	 9.96250843354303E-02 
585	 0.100499926471873 
586	 0.101415772147553 
587	 0.102369748528568 
588	 0.103342927216306 
589	 0.104339573508497 
590	 0.105355408921982 
591	 0.106347154662075 
592	 0.107248056916948 
593	 0.108194934351266 
594	 0.109210630510452 
595	 0.110264127324029 
596	 0.111259166285459 
597	 0.112244210224343 
598	 0.113241714698178 
599	 0.114257087011293 
600	 0.115229145545528 
601	 0.116194628286101 
602	 0.11713581085658 
603	 0.117908275532566 
604	 0.118740515231893 
605	 0.119597321987066 
606	 0.120376264180469 
607	 0.121162163296744 
608	 0.121964303193651 
609	 0.12276341305525 
610	 0.123514827782035 
611	 0.124196187339283 
612	 0.124844484170467 
613	 0.125487231372373 
614	 0.126073856788447 
615	 0.126618800042169 
616	 0.127137411035514 
617	 0.127640816107898 
618	 0.128105120315801 
619	 0.128532840287879 
620	 0.128940499746385 
621	 0.129363264451282 
622	 0.129791961978462 
623	 0.130171641340608 
624	 0.130462822217459 
625	 0.130863238403243 
626	 0.131240953728339 
627	 0.131553696844706 
628	 0.131912461670885 
629	 0.132249250651977 
630	 0.132567395576993 
631	 0.132886175593781 
632	 0.133218934236026 
633	 0.133480141071608 
634	 0.133701156463943 
635	 0.134003619734987 
636	 0.134310223536403 
637	 0.134612054923672 
638	 0.134907161376858 
639	 0.13517889058486 
640	 0.135463776051326 
641	 0.135773143979088 
642	 0.136099614737585 
643	 0.136405560923253 
644	 0.13669278361673 
645	 0.136986637227797 
646	 0.137341522551756 
647	 0.13764327766185 
648	 0.137925177566368 
649	 0.138250428066279 
650	 0.138608539536405 
651	 0.138962780469735 
652	 0.139308348147447 
653	 0.13966849412078 
654	 0.140028491399817 
655	 0.140386518036531 
656	 0.140746831785193 
657	 0.14111999587659 
658	 0.141517591956943 
659	 0.141911474346518 
660	 0.142267608626295 
661	 0.142671488791654 
662	 0.143103338328131 
663	 0.143552562127482 
664	 0.144039778691779 
665	 0.144453191508936 
666	 0.144872615254533 
667	 0.145376302713336 
668	 0.145773261538975 
669	 0.146258841489611 
670	 0.14683539815682 
671	 0.147340349772104 
672	 0.147821353360727 
673	 0.148347519469675 
674	 0.148929607348625 
675	 0.149421599822767 
676	 0.149981739086169 
677	 0.150564971885178 
678	 0.15106956906386 
679	 0.151663978937565 
680	 0.152260085403874 
681	 0.152839320136255 
682	 0.153503536599957 
683	 0.154110625643418 
684	 0.154705127302875 
685	 0.15535601728832 
686	 0.156037213015633 
687	 0.156695699391114 
688	 0.157346880261155 
689	 0.15804871660908 
690	 0.158734147840865 
691	 0.159403656356198 
692	 0.160080990065803 
693	 0.160821433239694 
694	 0.161541448362624 
695	 0.162250031113655 
696	 0.1629794091713 
697	 0.163674902250991 
698	 0.164413130365839 
699	 0.165197226038802 
700	 0.165947492719183 
701	 0.166720664789431 
702	 0.167483809910622 
703	 0.168213017089765 
704	 0.168957259591839 
705	 0.169724969329428 
706	 0.170511499404765 
707	 0.171298202857518 
708	 0.172032198530318 
709	 0.172794910103238 
710	 0.173593580991248 
711	 0.174308615099593 
712	 0.175063637188327 
713	 0.175825043566266 
714	 0.176544383529384 
715	 0.177287999828089 
716	 0.17802585676706 
717	 0.178755352548001 
718	 0.179485788293793 
719	 0.180111711884914 
720	 0.180722602094237 
721	 0.181378067603431 
722	 0.182023226358012 
723	 0.182702118828064 
724	 0.183374634337892 
725	 0.183982665942474 
726	 0.184528885030163 
727	 0.185051191884471 
728	 0.1855589544986 
729	 0.18603390951107 
730	 0.186525054644242 
731	 0.186975646368384 
732	 0.187358687098962 
733	 0.187764622015182 
734	 0.188151279194296 
735	 0.188510848238236 
736	 0.188844775122194 
737	 0.189132320576858 
738	 0.189379733051369 
739	 0.189594510502839 
740	 0.189783810396227 
741	 0.189998088620175 
742	 0.190191897592207 
743	 0.190314205616116 
744	 0.19035257355148 
745	 0.190376810326169 
746	 0.190402548394493 
747	 0.190413108125075 
748	 0.190375573411486 
749	 0.19036156898032 
750	 0.190342495199795 
751	 0.190163901629698 
752	 0.190010100469357 
753	 0.189877455431379 
754	 0.189723935805018 
755	 0.189531125091351 
756	 0.189333862909806 
757	 0.189121502263595 
758	 0.188860467909093 
759	 0.188530942518481 
760	 0.188217351098849 
761	 0.187932349953974 
762	 0.187588392791673 
763	 0.18726016921285 
764	 0.186918099862668 
765	 0.186528624942505 
766	 0.186109095469064 
767	 0.185734031213401 
768	 0.185356430150118 
769	 0.18489083947458 
770	 0.184467446325858 
771	 0.184067179437053 
772	 0.183650179093628 
773	 0.18317137964463 
774	 0.182693691925152 
775	 0.182223625564833 
776	 0.181759959696438 
777	 0.181320724262423 
778	 0.180878834373526 
779	 0.180403489938728 
780	 0.179878426549067 
781	 0.179373657156196 
782	 0.178915590099153 
783	 0.178470921602031 
784	 0.17795659336203 
785	 0.177493408025918 
786	 0.177044291668807 
787	 0.176565911032395 
788	 0.176070268753225 
789	 0.175594507443259 
790	 0.175133840957023 
791	 0.174668793287095 
792	 0.174206308757533 
793	 0.173738216599468 
794	 0.173260999034948 
795	 0.172781650885586 
796	 0.17237132286996 
797	 0.171944081361647 
798	 0.171460564439958 
799	 0.171009074088763 
800	 0.170605772939658 
801	 0.170218006120134 
802	 0.169800079834267 
803	 0.169322909239405 
804	 0.168911187470066 
805	 0.168562009522404 
806	 0.168192014252668 
807	 0.167810499543577 
808	 0.167380083908268 
809	 0.166936875704405 
810	 0.166607653584299 
811	 0.166275252346345 
812	 0.165935233774055 
813	 0.165602238988956 
814	 0.165276679483287 
815	 0.164902887271437 
816	 0.16453054607234 
817	 0.164231883217482 
818	 0.163935084374151 
819	 0.16366544001777 
820	 0.163416793633216 
821	 0.163152395313036 
822	 0.162853039624852 
823	 0.162553186326916 
824	 0.162276112892677 
825	 0.162012282110958 
826	 0.161760415897198 
827	 0.161511934188457 
828	 0.161265861316558 
829	 0.161052272906392 
830	 0.16082338234149 
831	 0.160577737619849 
832	 0.16034388454925 
833	 0.160171304572112 
834	 0.160011994655999 
835	 0.159840124174263 
836	 0.159658819598033 
837	 0.159451738877013 
838	 0.159289901730433 
839	 0.159180229978524 
840	 0.158999235639408 
841	 0.158867425014947 
842	 0.158731565121381 
843	 0.158550467283074 
844	 0.158476154337296 
845	 0.158393448888139 
846	 0.158283019820176 
847	 0.158172508555517 
848	 0.158059696315952 
849	 0.15803471076049 
850	 0.158035958757605 
851	 0.157895967748759 
852	 0.157792776730804 
853	 0.157753810095175 
854	 0.157755398816611 
855	 0.157734783152821 
856	 0.157738993182281 
857	 0.157715513628465 
858	 0.157646375283188 
859	 0.157659297564991 
860	 0.15765453828504 
861	 0.157642337622939 
862	 0.157658617141917 
863	 0.157669686594471 
864	 0.157706277866202 
865	 0.157758144541324 
866	 0.157794005854906 
867	 0.157830179072628 
868	 0.157896229451596 
869	 0.157988923761406 
870	 0.158070683817883 
871	 0.158124174162538 
872	 0.158179282832551 
873	 0.158269979487182 
874	 0.158420219223536 
875	 0.158554370256435 
876	 0.158673778971688 
877	 0.158788738718942 
878	 0.158863366494534 
879	 0.159061831380581 
880	 0.159263705770288 
881	 0.159327738405297 
882	 0.159470658900047 
883	 0.159679945735461 
884	 0.159883528952146 
885	 0.160012662609406 
886	 0.16022025940411 
887	 0.160484134260736 
888	 0.160734035388217 
889	 0.160891482400783 
890	 0.161074058699885 
891	 0.161327837979576 
892	 0.16164075385387 
893	 0.161940620852271 
894	 0.16213871526098 
895	 0.162344215990339 
896	 0.162639483916688 
897	 0.162982298049236 
898	 0.163317506744618 
899	 0.163607364455925 
900	 0.163858423186927 
901	 0.164165358002528 
902	 0.164482310080067 
903	 0.164814433980464 
904	 0.165175669919812 
905	 0.165556971347366 
906	 0.165911220493208 
907	 0.166245465933878 
908	 0.166593709368876 
909	 0.166963986899554 
910	 0.167373413795442 
911	 0.167798662978353 
912	 0.168202888815043 
913	 0.168657518467627 
914	 0.169100065461299 
915	 0.169507037834309 
916	 0.169908725074878 
917	 0.170370787749748 
918	 0.170862945420173 
919	 0.171372082828133 
920	 0.171912963625334 
921	 0.172427860851283 
922	 0.172905545422675 
923	 0.173362106385235 
924	 0.173838660500528 
925	 0.174388932100731 
926	 0.174979824648389 
927	 0.175562845737606 
928	 0.176102292596156 
929	 0.176715036299947 
930	 0.17731756208185 
931	 0.17785022985997 
932	 0.178430971340158 
933	 0.179072365713448 
934	 0.179696781750561 
935	 0.180269028810049 
936	 0.180958006925273 
937	 0.181620282006194 
938	 0.182289364758727 
939	 0.18300896422633 
940	 0.183646309707458 
941	 0.184320756737742 
942	 0.185094151144765 
943	 0.185937666893122 
944	 0.186592654137287 
945	 0.187273790942081 
946	 0.188033243864681 
947	 0.188829180062354 
948	 0.189622403680773 
949	 0.190327691789526 
950	 0.191007813382444 
951	 0.191786840655234 
952	 0.192665765952556 
953	 0.193564867997438 
954	 0.19437003908034 
955	 0.195043153068194 
956	 0.195983601495294 
957	 0.196888255764354 
958	 0.197709243303847 
959	 0.198571956030345 
960	 0.199451594244998 
961	 0.200323737456015 
962	 0.201221076115497 
963	 0.202168069034349 
964	 0.202918105575468 
965	 0.203806892032139 
966	 0.204816909420556 
967	 0.205710785323618 
968	 0.206629419872833 
969	 0.207597670193093 
970	 0.208555142904463 
971	 0.209431614332899 
972	 0.21043265191559 
973	 0.211541202586811 
974	 0.212611363443473 
975	 0.213488779500394 
976	 0.214379380373803 
977	 0.215421764219392 
978	 0.216506558945336 
979	 0.217427507942604 
980	 0.21840658437241 
981	 0.219303272379318 
982	 0.220102513799365 
983	 0.220936974924546 
984	 0.22217441230482 
985	 0.223348167744469 
986	 0.224299844834004 
987	 0.225154404315064 
988	 0.226232220757529 
989	 0.227372197251936 
990	 0.228437119150906 
991	 0.229374080327613 
992	 0.230356483373148 
993	 0.231329725214592 
994	 0.232353688018219 
995	 0.233439610545853 
996	 0.234186350420439 
997	 0.235212290321815 
998	 0.236308647712078 
999	 0.237157905894072 
1000	 0.238343753305643 
1001	 0.239350528205076 
1002	 0.2403022411029 
1003	 0.241259209695153 
1004	 0.242184673734502 
1005	 0.243055116160677 
1006	 0.243960907775748 
1007	 0.244862276968032 
1008	 0.245796954379898 
1009	 0.24670957525456 
1010	 0.247634464541117 
1011	 0.248516216276466 
1012	 0.249328264155908 
1013	 0.250150588957483 
1014	 0.250980839353179 
1015	 0.251774271453865 
1016	 0.252534158007692 
1017	 0.253333762178186 
1018	 0.254137961925626 
1019	 0.254938380947978 
1020	 0.255757474643677 
1021	 0.256596027207421 
1022	 0.257377723227503 
1023	 0.258053528792261 
1024	 0.258687905748149 
1025	 0.259348738851944 
1026	 0.259985348604548 
1027	 0.260637366176426 
1028	 0.26134392067294 
1029	 0.262034863602458 
1030	 0.262731916854108 
1031	 0.263419924368613 
1032	 0.264123051815187 
1033	 0.264790764037555 
1034	 0.265420801972146 
1035	 0.266017752004901 
1036	 0.266624171345937 
1037	 0.267189810823834 
1038	 0.267756944144731 
1039	 0.268371941002753 
1040	 0.268949539117144 
1041	 0.269531355589775 
1042	 0.27012379844839 
1043	 0.27071095315859 
1044	 0.271274558074408 
1045	 0.271819996155318 
1046	 0.272356065031455 
1047	 0.272941212898331 
1048	 0.273533066830301 
1049	 0.274131548620939 
1050	 0.274774968456352 
1051	 0.275377068476143 
1052	 0.275877917766588 
1053	 0.276442311916391 
1054	 0.277017919349832 
1055	 0.27750176120434 
1056	 0.278060598888361 
1057	 0.27861949790636 
1058	 0.279145898227681 
1059	 0.279700008873777 
1060	 0.280311021890195 
1061	 0.280879100492564 
1062	 0.281403070088966 
1063	 0.281945985995702 
1064	 0.282509901863247 
1065	 0.283064688233583 
1066	 0.283603052432615 
1067	 0.284133013282212 
1068	 0.284674080062648 
1069	 0.285252219991004 
1070	 0.285804618337919 
1071	 0.286385717065948 
1072	 0.286929459490361 
1073	 0.287428871285093 
1074	 0.287928890695695 
1075	 0.288397816364194 
1076	 0.288925602415819 
1077	 0.289466665835375 
1078	 0.289994325931057 
1079	 0.290548670448216 
1080	 0.291051036617591 
1081	 0.29147312015745 
1082	 0.291908276817464 
1083	 0.292364672658105 
1084	 0.292803067139227 
1085	 0.293277009010028 
1086	 0.293788316023249 
1087	 0.294283324473086 
1088	 0.294782800023388 
1089	 0.295285430450131 
1090	 0.295741668847588 
1091	 0.296197131279661 
1092	 0.296654115152572 
1093	 0.297114408483262 
1094	 0.297631876252224 
1095	 0.298124239758492 
1096	 0.298543454121477 
1097	 0.298936147912887 
1098	 0.299360020482515 
1099	 0.299753057004759 
1100	 0.300185723788296 
1101	 0.300686666177716 
1102	 0.301139354397245 
1103	 0.301577567791819 
1104	 0.301997138137733 
1105	 0.302437929615678 
1106	 0.302871671428806 
1107	 0.303332945418175 
1108	 0.303831404812093 
1109	 0.304306348491977 
1110	 0.304784899313078 
1111	 0.305248501265069 
1112	 0.305696591324275 
1113	 0.306140062456441 
1114	 0.306569541030359 
1115	 0.30701312246696 
1116	 0.307470630623598 
1117	 0.307917946513407 
1118	 0.308369991528601 
1119	 0.308800541952609 
1120	 0.309251818580651 
1121	 0.309684554119094 
1122	 0.31012520432592 
1123	 0.310574665610316 
1124	 0.311013800241928 
1125	 0.311439928726283 
1126	 0.311872917168323 
1127	 0.312309270820324 
1128	 0.312744496350017 
1129	 0.313180795435044 
1130	 0.31360935643945 
1131	 0.314018907166927 
1132	 0.314458854850056 
1133	 0.314935411128271 
1134	 0.315369124646684 
1135	 0.315803259470474 
1136	 0.316215008219346 
1137	 0.316622990399713 
1138	 0.317016454214007 
1139	 0.317420147783981 
1140	 0.317848578683184 
1141	 0.318259012887337 
1142	 0.318655679772967 
1143	 0.319044666460335 
1144	 0.319441229310801 
1145	 0.319816978068823 
1146	 0.320169754465413 
1147	 0.320524130472906 
1148	 0.320864189303402 
1149	 0.32121075507068 
1150	 0.321547659056904 
1151	 0.321898939873142 
1152	 0.322268430210961 
1153	 0.322642670480364 
1154	 0.322986939335045 
1155	 0.323325781905197 
1156	 0.323652483129498 
1157	 0.323944759449786 
1158	 0.324263257533944 
1159	 0.32459295601254 
1160	 0.324918990812993 
1161	 0.325253190558688 
1162	 0.32557528565068 
1163	 0.325903041980368 
1164	 0.326212797365343 
1165	 0.326510760487247 
1166	 0.326797147329874 
1167	 0.327092620821879 
1168	 0.327363430467327 
1169	 0.327652309601843 
1170	 0.327958280402584 
1171	 0.328238185949502 
1172	 0.328507018215247 
1173	 0.328776939358318 
1174	 0.329030276627913 
1175	 0.329296190080976 
1176	 0.32957801494791 
1177	 0.329843975933694 
1178	 0.330103379329842 
1179	 0.330361406290774 
1180	 0.330608493587771 
1181	 0.330859788562012 
1182	 0.331113721459626 
1183	 0.331367921201285 
1184	 0.331620181302078 
1185	 0.331884794943196 
1186	 0.332111208939512 
1187	 0.332316824160107 
1188	 0.332532230767012 
1189	 0.332717052598974 
1190	 0.332932610502588 
1191	 0.333183050919534 
1192	 0.333402320611258 
1193	 0.33361127591446 
1194	 0.333823784186889 
1195	 0.334036813163704 
1196	 0.334232025352433 
1197	 0.334419163557012 
1198	 0.334606257502577 
1199	 0.334785800106748 
1200	 0.334936100380578 
1201	 0.335125950066651 
1202	 0.335340567356877 
1203	 0.335532338680824 
1204	 0.335730793491055 
1205	 0.335918886777122 
1206	 0.336094098445174 
1207	 0.336269034754731 
1208	 0.33644518745336 
1209	 0.336615500518542 
1210	 0.33677863434541 
1211	 0.33693775801619 
1212	 0.337087998694723 
1213	 0.33724575496543 
1214	 0.337416946845983 
1215	 0.337565049497446 
1216	 0.337704370098471 
1217	 0.337838098407201 
1218	 0.337976709149078 
1219	 0.338101986270365 
1220	 0.338228099967579 
1221	 0.338366559442417 
1222	 0.338491207235696 
1223	 0.338589733423425 
1224	 0.338711434351599 
1225	 0.33885007798525 
1226	 0.338975704970307 
1227	 0.339115799198771 
1228	 0.339230093212192 
1229	 0.339303647428472 
1230	 0.339411210617924 
1231	 0.339536890693872 
1232	 0.339642656521107 
1233	 0.339747911599535 
1234	 0.339868693162682 
1235	 0.339980808237452 
1236	 0.340072062109242 
1237	 0.34017640475793 
1238	 0.340306087677346 
1239	 0.340404691647611 
1240	 0.340480817875619 
1241	 0.340565170638035 
1242	 0.340643481816425 
1243	 0.340722146862983 
1244	 0.340792689623015 
1245	 0.340876802118894 
1246	 0.340970395014785 
1247	 0.341057916323478 
1248	 0.341150703204427 
1249	 0.34124600636674 
1250	 0.341335067829065 
1251	 0.341413621653935 
1252	 0.341486314196344 
1253	 0.341553858618027 
1254	 0.341622015020864 
1255	 0.34167338505162 
1256	 0.34174568360903 
1257	 0.341839608343866 
1258	 0.341908616203152 
1259	 0.341970391130679 
1260	 0.342037137522477 
1261	 0.342099097212929 
1262	 0.342153368050791 
1263	 0.342212116236519 
1264	 0.342263045192281 
1265	 0.342290393879056 
1266	 0.34232904322803 
1267	 0.342373012092475 
1268	 0.342421948235714 
1269	 0.342464151497192 
1270	 0.342503987530647 
1271	 0.342551034576075 
1272	 0.34260061736901 
1273	 0.342643706513204 
1274	 0.342676958978313 
1275	 0.342736695853156 
1276	 0.342788407837392 
1277	 0.342876596731091 
1278	 0.343014602808057 
1279	 0.343125783757135 
1280	 0.343243719971945 
1281	 0.343360121400086 
1282	 0.343460675400429 
1283	 0.343578222905484 
1284	 0.343718806917743 
1285	 0.343844545382974 
1286	 0.343957671144262 
1287	 0.344071084845607 
1288	 0.344177353810932 
1289	 0.344258315258618 
1290	 0.344376891442373 
1291	 0.344512338690957 
1292	 0.344642430875364 
1293	 0.344805358423206 
1294	 0.344918378893932 
1295	 0.344994337840434 
1296	 0.345094302090982 
1297	 0.345187932376818 
1298	 0.345273123866229 
1299	 0.345371696897862 
1300	 0.345456567253635 
1301	 0.345521562923127 
1302	 0.345582351169788 
1303	 0.345640691442167 
1304	 0.345694789778391 
1305	 0.34573601039562 
1306	 0.345777576139946 
1307	 0.345817892691246 
1308	 0.345850026207224 
1309	 0.345872506275044 
1310	 0.345885075886992 
1311	 0.345891209444536 
1312	 0.345880161994789 
1313	 0.345887914256635 
1314	 0.345898459588926 
1315	 0.345903063888848 
1316	 0.345910428234107 
1317	 0.34592419320964 
1318	 0.345934071857733 
1319	 0.345948757161246 
1320	 0.34598127507814 
1321	 0.34599835253396 
1322	 0.345996845970283 
1323	 0.346012782210826 
1324	 0.346042092424238 
1325	 0.346053813149428 
1326	 0.346072732397111 
1327	 0.346089386176727 
1328	 0.346082109606967 
1329	 0.346082985354171 
1330	 0.346092005007072 
1331	 0.346101123580141 
1332	 0.34612429322766 
1333	 0.346168267863053 
1334	 0.346192364038876 
1335	 0.346209982759778 
1336	 0.346240263657579 
1337	 0.346264239460114 
1338	 0.346301187653172 
1339	 0.34636464949827 
1340	 0.346403752950812 
1341	 0.34643145609678 
1342	 0.346458514724803 
1343	 0.346476691537758 
1344	 0.346500486000747 
1345	 0.346506663165141 
1346	 0.346533829815824 
1347	 0.346549103596698 
1348	 0.346574485277767 
1349	 0.3466279174401 
1350	 0.346655106769698 
1351	 0.346678319602994 
1352	 0.346694936342178 
1353	 0.346715056418304 
1354	 0.346725659963925 
1355	 0.346741059496357 
1356	 0.34675901468274 
1357	 0.346780186724781 
1358	 0.346799902609957 
1359	 0.34682577804134 
1360	 0.346850958517619 
1361	 0.346890353392136 
1362	 0.346935204483428 
1363	 0.3469847434076 
1364	 0.347057390611523 
1365	 0.347118834457155 
1366	 0.347172918346679 
1367	 0.347232999267019 
1368	 0.347302943298 
1369	 0.347358571675189 
1370	 0.347418989752634 
1371	 0.347480380425103 
1372	 0.34751331290506 
1373	 0.347531065876377 
1374	 0.34753291180352 
1375	 0.34751825861138 
1376	 0.347483681860578 
1377	 0.347438177588084 
1378	 0.347368146585173 
1379	 0.347249689810555 
1380	 0.347170361572643 
1381	 0.347083327321505 
1382	 0.347011863250138 
1383	 0.34697491621043 
1384	 0.346919123661537 
1385	 0.346878078307876 
1386	 0.346799226661041 
1387	 0.346710387614093 
1388	 0.346593542991957 
1389	 0.346447419760239 
1390	 0.346275965148202 
1391	 0.346093391379308 
1392	 0.345904380462924 
1393	 0.345686059060409 
1394	 0.345457571718755 
1395	 0.345214650779221 
1396	 0.344959979742473 
1397	 0.3447140687245 
1398	 0.3444668844657 
1399	 0.344218176442534 
1400	 0.343977035978443 
1401	 0.34372086611012 
1402	 0.343457929390361 
1403	 0.343192754525141 
1404	 0.342907260678153 
1405	 0.342641269431669 
1406	 0.342376568029529 
1407	 0.342128917106459 
1408	 0.3418889226297 
1409	 0.341668045066934 
1410	 0.34145304571215 
1411	 0.341265639756698 
1412	 0.341086837516785 
1413	 0.34095035905157 
1414	 0.340860507809826 
1415	 0.340779991986931 
1416	 0.340740860666283 
1417	 0.340720954624438 
1418	 0.340687156773439 
1419	 0.340669454031031 
1420	 0.340660639299244 
1421	 0.340639162782685 
1422	 0.340621403386006 
1423	 0.340614154584415 
1424	 0.34060116594899 
1425	 0.340593103906705 
1426	 0.340564162766171 
1427	 0.340519970923133 
1428	 0.340489794228547 
1429	 0.340435257897181 
1430	 0.340416762727669 
1431	 0.340431725696899 
1432	 0.340433428266609 
1433	 0.340450829292465 
1434	 0.34045363859534 
1435	 0.340441637030121 
1436	 0.340443233314826 
1437	 0.340434310129054 
1438	 0.340446307823301 
1439	 0.340476733449589 
1440	 0.340515049099622 
1441	 0.340538267855664 
1442	 0.340555239439711 
1443	 0.340560150354404 
1444	 0.340551371673052 
1445	 0.340581619833533 
1446	 0.340624657417389 
1447	 0.34065479631482 
1448	 0.340688316271965 
1449	 0.340708654426569 
1450	 0.340708335423201 
1451	 0.340703399049045 
1452	 0.340684205132206 
1453	 0.340692120284045 
1454	 0.340689768321322 
1455	 0.34070940951516 
1456	 0.340777088117024 
1457	 0.340799787206052 
1458	 0.340805418851899 
1459	 0.340814719804295 
1460	 0.340801077229492 
1461	 0.340804874537118 
1462	 0.340815817460364 
1463	 0.340830203959008 
1464	 0.340848218670641 
1465	 0.340870123202161 
1466	 0.340898711475658 
1467	 0.340933794051499 
1468	 0.340966229945054 
1469	 0.341018622893107 
1470	 0.34109121582288 
1471	 0.3411511897794 
1472	 0.341226420183951 
1473	 0.341315205659716 
1474	 0.341393759725247 
1475	 0.341473460686568 
1476	 0.341548288246947 
1477	 0.341637201466571 
1478	 0.341742493079545 
1479	 0.341835828034274 
1480	 0.341950976637002 
1481	 0.342072244404656 
1482	 0.342173204062647 
1483	 0.34225912115605 
1484	 0.342362988904746 
1485	 0.342462060973883 
1486	 0.342564819530224 
1487	 0.34268447992182 
1488	 0.342788333049279 
1489	 0.342882690238199 
1490	 0.342974841692544 
1491	 0.343068098491287 
1492	 0.343152344021013 
1493	 0.343210232467951 
1494	 0.343302410701711 
1495	 0.343407993837182 
1496	 0.343512705824953 
1497	 0.343644122425043 
1498	 0.343760930140159 
1499	 0.343874119280509 
1500	 0.34397146587175 
1501	 0.3440619172217 
1502	 0.344147622701929 
1503	 0.344208390085211 
1504	 0.344285536669632 
1505	 0.344389091068744 
1506	 0.344471550269989 
1507	 0.344574545886365 
1508	 0.344661432960018 
1509	 0.344703571446098 
1510	 0.344775057261564 
1511	 0.34483210391039 
1512	 0.344886512270184 
1513	 0.344996931976538 
1514	 0.345092303421315 
1515	 0.345193326568657 
1516	 0.345309153389355 
1517	 0.345391689318499 
1518	 0.345448547493849 
1519	 0.345514432870788 
1520	 0.34556712869962 
1521	 0.345630330293187 
1522	 0.345697419122785 
1523	 0.345761394643065 
1524	 0.345826751288289 
1525	 0.345889458470129 
1526	 0.345947148466783 
1527	 0.346008090909332 
1528	 0.346069531552935 
1529	 0.346133877525497 
1530	 0.346200927986273 
1531	 0.346268711898795 
1532	 0.346342809596737 
1533	 0.34640713669839 
1534	 0.346470998051737 
1535	 0.346526338192001 
1536	 0.346569933490942 
1537	 0.346619104816054 
1538	 0.346661948138649 
1539	 0.346707590652418 
1540	 0.346766116898504 
1541	 0.346808475513042 
1542	 0.346837211473601 
1543	 0.346876494469526 
1544	 0.346920074976054 
1545	 0.3469471755606 
1546	 0.346967495156881 
1547	 0.346986662407322 
1548	 0.347012086675993 
1549	 0.347052392838618 
1550	 0.347104053283312 
1551	 0.347167288156765 
1552	 0.347205308078918 
1553	 0.347219743666204 
1554	 0.347254611899442 
1555	 0.34730060266334 
1556	 0.347357447921156 
1557	 0.347423720165105 
1558	 0.34747420946255 
1559	 0.347504140707725 
1560	 0.347540093493172 
1561	 0.347562469476988 
1562	 0.347599073203673 
1563	 0.34763815725184 
1564	 0.347690699535203 
1565	 0.347757142730829 
1566	 0.347812057607339 
1567	 0.347869186475731 
1568	 0.347932340746575 
1569	 0.347995243798939 
1570	 0.348047211317231 
1571	 0.348107301141127 
1572	 0.348154074996015 
1573	 0.348187455919408 
1574	 0.348210812373517 
1575	 0.348228651270674 
1576	 0.348243682388357 
1577	 0.34823642442467 
1578	 0.348247100422401 
1579	 0.348267705696916 
1580	 0.348284947480969 
1581	 0.348299546318375 
1582	 0.348322297404179 
1583	 0.348347110319583 
1584	 0.34838129350936 
1585	 0.348430712741817 
1586	 0.348470008594022 
1587	 0.348507939940665 
1588	 0.348549234969428 
1589	 0.348594812990854 
1590	 0.348627992164818 
1591	 0.348660697217838 
1592	 0.348688896551289 
1593	 0.348705884461911 
1594	 0.348721252678371 
1595	 0.348727300601335 
1596	 0.348743904796449 
1597	 0.348758324153908 
1598	 0.348777209662176 
1599	 0.348823258635916 
1600	 0.348843666920821 
1601	 0.34884758105823 
1602	 0.348850621424693 
1603	 0.348834561084293 
1604	 0.348829849497637 
1605	 0.348819172997268 
1606	 0.3488257875389 
1607	 0.3488568722739 
1608	 0.3488676012834 
1609	 0.34888430466655 
1610	 0.348928440621322 
1611	 0.348948295993623 
1612	 0.348963187323629 
1613	 0.348977997382948 
1614	 0.348976214883858 
1615	 0.348985657668258 
1616	 0.348988365698415 
1617	 0.348988757297825 
1618	 0.349010186335494 
1619	 0.349031832399954 
1620	 0.349060562964597 
1621	 0.349082436766262 
1622	 0.3491135580424 
1623	 0.349132306374093 
1624	 0.349139783592446 
1625	 0.349149656139487 
1626	 0.349156927242594 
1627	 0.349169407192774 
1628	 0.34918753775496 
1629	 0.349183984132233 
1630	 0.349180713781935 
1631	 0.349159056267003 
1632	 0.349099729177916 
1633	 0.349087836768728 
1634	 0.349085761694638 
1635	 0.349094322683476 
1636	 0.349134720736122 
1637	 0.349150009446768 
1638	 0.349157474152003 
1639	 0.349171151396186 
1640	 0.349183563643965 
1641	 0.349193783268254 
1642	 0.349208436722878 
1643	 0.349216661674648 
1644	 0.349216290000496 
1645	 0.349221419580928 
1646	 0.349230778709401 
1647	 0.349229556128074 
1648	 0.349220121249384 
1649	 0.34922286429678 
1650	 0.349222875567462 
1651	 0.349229036597993 
1652	 0.349255666009448 
1653	 0.349256544508776 
1654	 0.349243596974649 
1655	 0.349234969959614 
1656	 0.349214509644357 
1657	 0.349203058731781 
1658	 0.349193355887643 
1659	 0.349191694523576 
1660	 0.349195010859987 
1661	 0.349199507653854 
1662	 0.349221073502751 
1663	 0.349218450237521 
1664	 0.349199309106384 
1665	 0.349192313025153 
1666	 0.349172074942698 
1667	 0.34917165363159 
1668	 0.34919158524181 
1669	 0.349201566020166 
1670	 0.34921768094173 
1671	 0.349224006333556 
1672	 0.349226320756747 
1673	 0.349223651749702 
1674	 0.349212163098407 
1675	 0.349205053845597 
1676	 0.349182323123734 
1677	 0.349192192970928 
1678	 0.349231820462288 
1679	 0.349243384548673 
1680	 0.349272219549836 
1681	 0.349268550778963 
1682	 0.34922336220422 
1683	 0.349199954117224 
1684	 0.349169166329781 
1685	 0.349154065281678 
1686	 0.349148788582151 
1687	 0.349145322257111 
1688	 0.349148976226238 
1689	 0.34915846442771 
1690	 0.349173488577895 
1691	 0.349188970445033 
1692	 0.34922259184982 
1693	 0.349229025956443 
1694	 0.349209755942227 
1695	 0.349220106584399 
1696	 0.349241961728452 
1697	 0.349240901799819 
1698	 0.349251233694689 
1699	 0.349246759503342 
1700	 0.349211855868941 
1701	 0.349185517994605 
1702	 0.349160670784895 
1703	 0.349141968189947 
1704	 0.349118100310771 
1705	 0.349097430491435 
1706	 0.349092518832732 
1707	 0.349077105096582 
1708	 0.349043391406125 
1709	 0.349027741470362 
1710	 0.349016861859769 
1711	 0.349016111211109 
1712	 0.349042903947659 
1713	 0.349036656041608 
1714	 0.349021151729658 
1715	 0.349005895060564 
1716	 0.348968356181421 
1717	 0.348940432811323 
1718	 0.348931192489349 
1719	 0.348892865309622 
1720	 0.348829657500659 
1721	 0.348784625123266 
1722	 0.348733539652109 
1723	 0.348694181222757 
1724	 0.348670946704949 
1725	 0.348635198724146 
1726	 0.3485944742334 
1727	 0.348553859313378 
1728	 0.348514270253507 
1729	 0.348471481777823 
1730	 0.348436291528479 
1731	 0.348377302229637 
1732	 0.348304017035977 
1733	 0.34822392037702 
1734	 0.348118753810947 
1735	 0.348034535577556 
1736	 0.347949214073386 
1737	 0.347881125605549 
1738	 0.347821558152044 
1739	 0.347780394819854 
1740	 0.347766146110723 
1741	 0.347727323707258 
1742	 0.347695320063675 
1743	 0.347652449540573 
1744	 0.347581128499078 
1745	 0.347549105505637 
1746	 0.347541694786125 
1747	 0.347513711635346 
1748	 0.347483067828588 
1749	 0.347392727973039 
1750	 0.347297386753806 
1751	 0.347204765384638 
1752	 0.347112164882747 
1753	 0.347036513552509 
1754	 0.346963424392967 
1755	 0.346930145091819 
1756	 0.346891621235494 
1757	 0.346857927557726 
1758	 0.346839925186669 
1759	 0.34677373861821 
1760	 0.346685084492825 
1761	 0.346580420151523 
1762	 0.34648024306479 
1763	 0.346412865716037 
1764	 0.346377980872346 
1765	 0.346372634551883 
1766	 0.346363769294858 
1767	 0.346327564012228 
1768	 0.346273985080353 
1769	 0.346222039054058 
1770	 0.346157561698302 
1771	 0.34607761903316 
1772	 0.345999672073946 
1773	 0.345880114020699 
1774	 0.345777538050854 
1775	 0.345736358648512 
1776	 0.34569017108765 
1777	 0.345690169059725 
1778	 0.345703115424493 
1779	 0.345690434395773 
1780	 0.345691478032903 
1781	 0.345685929507168 
1782	 0.345669156636962 
1783	 0.345652560801044 
1784	 0.34560576366168 
1785	 0.34552401981436 
1786	 0.345446471328752 
1787	 0.345316814796229 
1788	 0.345257179072445 
1789	 0.345254520470795 
1790	 0.345224744258911 
1791	 0.345231046394647 
1792	 0.345200745989029 
1793	 0.345118857370728 
1794	 0.345068098313889 
1795	 0.345042255189929 
1796	 0.344985316456797 
1797	 0.34490561136231 
1798	 0.34485492392356 
1799	 0.344782938509687 
1800	 0.344766773065387 
1801	 0.337821441181982 
1802	 0.33795674340436 
1803	 0.338137405576863 
1804	 0.338345509050293 
1805	 0.338519849956118 
1806	 0.338693993136864 
1807	 0.33888536882774 
1808	 0.339041867292435 
1809	 0.339199355495086 
1810	 0.339320260745249 
1811	 0.339428538533457 
1812	 0.33947677682576 
1813	 0.339527980612022 
1814	 0.339553590419782 
1815	 0.339542614222229 
1816	 0.339554638764856 
1817	 0.339569373465659 
1818	 0.339552011779071 
1819	 0.339581712359625 
1820	 0.339653073918566 
1821	 0.339706945626059 
1822	 0.339745173697387 
1823	 0.339780199432938 
1824	 0.339798128298087 
1825	 0.339812295045441 
1826	 0.339833592320053 
1827	 0.339838046336309 
1828	 0.339837157301748 
1829	 0.339825794265797 
1830	 0.339811084251743 
1831	 0.339783133524537 
1832	 0.33977262150592 
1833	 0.339739613497596 
1834	 0.3397090047444 
1835	 0.339712727685523 
1836	 0.339709780730676 
1837	 0.339716802922742 
1838	 0.33973014007107 
1839	 0.339742723064036 
1840	 0.339750378257723 
1841	 0.339756889175545 
1842	 0.339760168976064 
1843	 0.339773890267314 
1844	 0.339773365802111 
1845	 0.339723939331829 
1846	 0.339676353027957 
1847	 0.339642197029765 
1848	 0.339556498013672 
1849	 0.339493129104186 
1850	 0.33947514925773 
1851	 0.339494125872883 
1852	 0.339497775010409 
1853	 0.339542747852725 
1854	 0.339586980813463 
1855	 0.339605733061795 
1856	 0.339594894556786 
1857	 0.339528247241306 
1858	 0.339471559719885 
1859	 0.339387879960484 
1860	 0.33927556823661 
1861	 0.339137312607405 
1862	 0.33899453832372 
1863	 0.338805259610487 
1864	 0.338606192395357 
1865	 0.338421659407452 
1866	 0.338217894743623 
1867	 0.338013706977013 
1868	 0.3378130207066 
1869	 0.337587820543773 
1870	 0.337373192624481 
1871	 0.337141889402462 
1872	 0.336907476624438 
1873	 0.336663924431641 
1874	 0.336419059021695 
1875	 0.336143913077241 
1876	 0.335855312117292 
1877	 0.335541661913834 
1878	 0.335180101621476 
1879	 0.334781103357474 
1880	 0.33433060012534 
1881	 0.333846325005391 
1882	 0.333303330347476 
1883	 0.332709724902136 
1884	 0.332049681491231 
1885	 0.331352065256191 
1886	 0.330601445740452 
1887	 0.32978828233296 
1888	 0.328918639714673 
1889	 0.328003287105686 
1890	 0.327059998903949 
1891	 0.326063617339796 
1892	 0.324988252766045 
1893	 0.323928728540416 
1894	 0.322849892088381 
1895	 0.321726035711932 
1896	 0.320588909258468 
1897	 0.319447641679369 
1898	 0.318274800628429 
1899	 0.317133853058931 
1900	 0.316004715592373 
1901	 0.314892830139281 
1902	 0.313834016585986 
1903	 0.312808684761837 
1904	 0.311810455422266 
1905	 0.310842010718804 
1906	 0.309946058424164 
1907	 0.309064531063013 
1908	 0.308228547357304 
1909	 0.307444603365139 
1910	 0.306687983736914 
1911	 0.305971172237761 
1912	 0.30529536798034 
1913	 0.30466697126054 
1914	 0.304090890748427 
1915	 0.303540131798411 
1916	 0.303033415522467 
1917	 0.302550400240112 
1918	 0.30210407691027 
1919	 0.301694016386714 
1920	 0.301312692667075 
1921	 0.300982177544597 
1922	 0.300666692651648 
1923	 0.3003887180033 
1924	 0.300154239650969 
1925	 0.299973118744647 
1926	 0.299804122662216 
1927	 0.299669182716712 
1928	 0.299557141734984 
1929	 0.299470144716865 
1930	 0.299388926166855 
1931	 0.299349506784777 
1932	 0.299335198713224 
1933	 0.299325389226261 
1934	 0.299348543998674 
1935	 0.299375404505581 
1936	 0.299393427534784 
1937	 0.299464947414266 
1938	 0.299568303705056 
1939	 0.299684013152218 
1940	 0.299825935285241 
1941	 0.300006102835283 
1942	 0.300190501018108 
1943	 0.300393824723308 
1944	 0.300621328311339 
1945	 0.300844514867618 
1946	 0.301056544791162 
1947	 0.301245017611542 
1948	 0.301465150510387 
1949	 0.301707691058972 
1950	 0.301925770276123 
1951	 0.302140949781342 
1952	 0.302375276905266 
1953	 0.302569760363512 
1954	 0.302770535436816 
1955	 0.30301976992414 
1956	 0.303267706000666 
1957	 0.30353676068439 
1958	 0.303828833717355 
1959	 0.304130496854262 
1960	 0.304462430113831 
1961	 0.304779302020591 
1962	 0.305105570012747 
1963	 0.305426635320309 
1964	 0.305748191840112 
1965	 0.30604822190586 
1966	 0.306345218512596 
1967	 0.306644629566253 
1968	 0.306958836868056 
1969	 0.307263912598886 
1970	 0.307588525407515 
1971	 0.307954872901828 
1972	 0.308288554370309 
1973	 0.308616828301972 
1974	 0.308941588894553 
1975	 0.309252936712803 
1976	 0.309552034161285 
1977	 0.309907776055046 
1978	 0.310232003488054 
1979	 0.310538413585386 
1980	 0.310872781777485 
1981	 0.311190445486731 
1982	 0.311472117636523 
1983	 0.311789350603129 
1984	 0.312125400906854 
1985	 0.312463294967585 
1986	 0.312811564756597 
1987	 0.313159795583289 
1988	 0.313522356032295 
1989	 0.313879903657161 
1990	 0.314218240906677 
1991	 0.314553758803118 
1992	 0.314899634582269 
1993	 0.315244624262035 
1994	 0.31559433793231 
1995	 0.31595668364114 
1996	 0.316305267010664 
1997	 0.316660578488993 
1998	 0.316988752197346 
1999	 0.317295033864714 
2000	 0.317611618121012 
2001	 0.31792087329567 
2002	 0.318208262721467 
2003	 0.318526690809074 
2004	 0.318864428463969 
2005	 0.31918599829613 
2006	 0.319517871936171 
2007	 0.31983086598345 
2008	 0.32011468787265 
2009	 0.320426442604833 
2010	 0.320750551851974 
2011	 0.32106258107321 
2012	 0.321391350939425 
2013	 0.321702947636044 
2014	 0.321992251078333 
2015	 0.322280291829438 
2016	 0.322576348792007 
2017	 0.322883081248909 
2018	 0.323205003102652 
2019	 0.323564661087811 
2020	 0.323874337518762 
2021	 0.324181497421105 
2022	 0.324472789873882 
2023	 0.324715524964506 
2024	 0.324986488561656 
2025	 0.325273708154593 
2026	 0.325545517172061 
2027	 0.325818476022621 
2028	 0.326085770867317 
2029	 0.326341338189209 
2030	 0.326583729978694 
2031	 0.326826835100404 
2032	 0.327058993480857 
2033	 0.32730282336112 
2034	 0.327543828052332 
2035	 0.32779321736912 
2036	 0.328061477318777 
2037	 0.328309284137271 
2038	 0.328552851187332 
2039	 0.328790552172077 
2040	 0.329020821314901 
2041	 0.329239155206337 
2042	 0.329463003659461 
2043	 0.329679651444428 
2044	 0.329885224417223 
2045	 0.33007550846075 
2046	 0.330276772929883 
2047	 0.330480242626547 
2048	 0.330671220439891 
2049	 0.330863733821781 
2050	 0.33104627975157 
2051	 0.33120654167006 
2052	 0.331375399776139 
2053	 0.331555314234589 
2054	 0.331719590608976 
2055	 0.331863146418575 
2056	 0.332025524805582 
2057	 0.332186124878041 
2058	 0.332338738726835 
2059	 0.332500607730933 
2060	 0.332676059110279 
2061	 0.332843229738826 
2062	 0.332998085595507 
2063	 0.333172661231368 
2064	 0.3333597572543 
2065	 0.333544621990057 
2066	 0.333750615829774 
2067	 0.333935906272181 
2068	 0.334113892796758 
2069	 0.334282627145815 
2070	 0.334445743154143 
2071	 0.33459637583614 
2072	 0.334749830717162 
2073	 0.334895803404092 
2074	 0.335048921697051 
2075	 0.335195885530743 
2076	 0.335356707475176 
2077	 0.33552687731264 
2078	 0.335699164916154 
2079	 0.335900177982501 
2080	 0.336064961127759 
2081	 0.336208861871057 
2082	 0.336357023339239 
2083	 0.336487012887052 
2084	 0.336611636996713 
2085	 0.336752376403799 
2086	 0.336917971854645 
2087	 0.337043679928168 
2088	 0.337145640261337 
2089	 0.337275039672301 
2090	 0.337386810809836 
2091	 0.337526296478349 
2092	 0.337706124415436 
2093	 0.337862698673899 
2094	 0.338012309383767 
2095	 0.338168133918386 
2096	 0.338336709184009 
2097	 0.338485259551284 
2098	 0.338628913060588 
2099	 0.338766031733556 
2100	 0.338893229478544 
2101	 0.338998729992645 
2102	 0.339115660754786 
2103	 0.339218998975129 
2104	 0.339357059804315 
2105	 0.339487454178139 
2106	 0.339666024073977 
2107	 0.339894991597467 
2108	 0.340115282790672 
2109	 0.340374121577727 
2110	 0.340610259530266 
2111	 0.340862389728869 
2112	 0.341075501888879 
2113	 0.341255363248616 
2114	 0.3414431682999 
2115	 0.341609622079241 
2116	 0.341743158242717 
2117	 0.341890609347644 
2118	 0.342022180686134 
2119	 0.342188536535792 
2120	 0.342365746893479 
2121	 0.342546652221211 
2122	 0.342772814292443 
2123	 0.342953114940543 
2124	 0.343114673035929 
2125	 0.343265298639371 
2126	 0.34338948130994 
2127	 0.343518880774404 
2128	 0.34365435422317 
2129	 0.343765561500693 
2130	 0.343864175051536 
2131	 0.343955150922308 
2132	 0.344028633010862 
2133	 0.344078642037207 
2134	 0.344122162043718 
2135	 0.34416564017268 
2136	 0.344175503171059 
2137	 0.344160072238025 
2138	 0.344133408323953 
2139	 0.344073967302652 
2140	 0.344023124598416 
2141	 0.343969478390758 
2142	 0.343902488562277 
2143	 0.343832558924474 
2144	 0.343749094909371 
2145	 0.343645287890909 
2146	 0.343540691091354 
2147	 0.343440931242655 
2148	 0.343316018951992 
2149	 0.343180934045126 
2150	 0.343039357967438 
2151	 0.342874467725209 
2152	 0.342681959342413 
2153	 0.342495641563669 
2154	 0.3422937800313 
2155	 0.342097739078921 
2156	 0.34191592607854 
2157	 0.341702203070317 
2158	 0.341479400575612 
2159	 0.341236992998139 
2160	 0.340950091163356 
2161	 0.340685082493229 
2162	 0.340404890325484 
2163	 0.340148850300869 
2164	 0.339912857608466 
2165	 0.339690524782607 
2166	 0.339444146597283 
2167	 0.339212177541551 
2168	 0.338938878245214 
2169	 0.33862146282567 
2170	 0.338337901398777 
2171	 0.338038516400376 
2172	 0.337768695676171 
2173	 0.337540768516346 
2174	 0.337275806998145 
2175	 0.337019226012022 
2176	 0.336733713303289 
2177	 0.336397636927431 
2178	 0.33609554230893 
2179	 0.335786609182523 
2180	 0.335494294571911 
2181	 0.335222827932063 
2182	 0.334959941621809 
2183	 0.334724117882109 
2184	 0.334463874936421 
2185	 0.334205608778922 
2186	 0.333953756808352 
2187	 0.33369076070206 
2188	 0.333411625585418 
2189	 0.333142610492734 
2190	 0.33287221101126 
2191	 0.332610876529386 
2192	 0.332349563297713 
2193	 0.332093563319426 
2194	 0.331825281583598 
2195	 0.331602749580162 
2196	 0.331398270447142 
2197	 0.33121313739139 
2198	 0.33107031210904 
2199	 0.330933904315433 
2200	 0.330817369052147 
2201	 0.33069908126521 
2202	 0.330600392491548 
2203	 0.330485502579101 
2204	 0.330403900886603 
2205	 0.330328374708397 
2206	 0.330259736682377 
2207	 0.330207171286554 
2208	 0.330179605590195 
2209	 0.330156381825286 
2210	 0.330155866209279 
2211	 0.330201503572933 
2212	 0.330229746965416 
2213	 0.330246120130503 
2214	 0.330289696494714 
2215	 0.330355128901094 
2216	 0.330417752885961 
2217	 0.330505295057877 
2218	 0.330573115128125 
2219	 0.330659435701871 
2220	 0.330699626368895 
2221	 0.330691365331924 
2222	 0.330701928997353 
2223	 0.330711716478738 
2224	 0.330677609007378 
2225	 0.330673343645058 
2226	 0.330702051572222 
2227	 0.330678307447939 
2228	 0.330632339047629 
2229	 0.33058170999205 
2230	 0.330483690086598 
2231	 0.330446558144628 
2232	 0.330440940053992 
2233	 0.330410206354107 
2234	 0.330412850369964 
2235	 0.330375832386171 
2236	 0.330278013751944 
2237	 0.330227704691765 
2238	 0.330194767909963 
2239	 0.330159986642858 
2240	 0.330157977495126 
2241	 0.330128143515292 
2242	 0.330075288918584 
2243	 0.330025562499349 
2244	 0.329973578994191 
2245	 0.329914491784713 
2246	 0.329816394201617 
2247	 0.329736872964191 
2248	 0.329680792409196 
2249	 0.329615817454477 
2250	 0.329573789835447 
2251	 0.329582178302214 
2252	 0.329557654381165 
2253	 0.329527404619923 
2254	 0.329479726757236 
2255	 0.329415108717679 
2256	 0.32936563313025 
2257	 0.329285371612098 
2258	 0.329251823407958 
2259	 0.329271193823407 
2260	 0.329259048000397 
2261	 0.329246144726135 
2262	 0.329242216248194 
2263	 0.329202319995448 
2264	 0.329214011998583 
2265	 0.329282890970264 
2266	 0.329328987585261 
2267	 0.329404751641137 
2268	 0.329458303620957 
2269	 0.329515352280168 
2270	 0.329506056658305 
2271	 0.32950501578457 
2272	 0.32955052637459 
2273	 0.329569416433209 
2274	 0.329606805503266 
2275	 0.329634947216032 
2276	 0.329660493094668 
2277	 0.329690084024586 
2278	 0.329706969793309 
2279	 0.329754077972084 
2280	 0.329826994336392 
2281	 0.329883891000634 
2282	 0.32995640690382 
2283	 0.330016271972812 
2284	 0.330058983602804 
2285	 0.33011287991932 
2286	 0.330179196423128 
2287	 0.330228258040374 
2288	 0.330258364402122 
2289	 0.330308001488915 
2290	 0.33037729193757 
2291	 0.330413602311419 
2292	 0.330429736738147 
2293	 0.330471713560221 
2294	 0.330504153416456 
2295	 0.330535253263591 
2296	 0.330593289055174 
2297	 0.330642210964487 
2298	 0.330673915540626 
2299	 0.330669410770756 
2300	 0.330752232104834 
2301	 0.330864209844096 
2302	 0.330925156237072 
2303	 0.331014095749564 
2304	 0.331040120746265 
2305	 0.331030433605516 
2306	 0.331036661465659 
2307	 0.331030132096709 
2308	 0.331052593462092 
2309	 0.331107168801956 
2310	 0.33110650590115 
2311	 0.331094412068345 
2312	 0.331086039632518 
2313	 0.331034077269873 
2314	 0.331000505946801 
2315	 0.330984258755779 
2316	 0.33098016764115 
2317	 0.330972336371589 
2318	 0.330960425161796 
2319	 0.330999219315414 
2320	 0.330982695437992 
2321	 0.330861007834767 
2322	 0.330857507917233 
2323	 0.330890352308635 
2324	 0.33093371850382 
2325	 0.331092002504029 
2326	 0.331192638078444 
2327	 0.331278581349775 
2328	 0.331317821510137 
2329	 0.331384222740081 
2330	 0.331414653624177 
2331	 0.331394354033599 
2332	 0.331404168129683 
2333	 0.331418154053321 
2334	 0.331418218384367 
2335	 0.331450354092718 
2336	 0.331542531280916 
2337	 0.331628015483572 
2338	 0.331649214816418 
2339	 0.331666781671927 
2340	 0.331644561745783 
2341	 0.331602637731343 
2342	 0.331573033019941 
2343	 0.331534638999297 
2344	 0.331474582575987 
2345	 0.331380302598751 
2346	 0.331222940560918 
2347	 0.331129815718501 
2348	 0.331050436275202 
2349	 0.330944377461552 
2350	 0.330836380010727 
2351	 0.330763447715761 
2352	 0.330696388494253 
2353	 0.330588595311546 
2354	 0.3305145887034 
2355	 0.330407783696088 
2356	 0.33020865016693 
2357	 0.330098462675168 
2358	 0.330058823931658 
2359	 0.3299564842984 
2360	 0.329847469791548 
2361	 0.329736747606126 
2362	 0.329602272859974 
2363	 0.329470100537302 
2364	 0.329339550727451 
2365	 0.329206390182206 
2366	 0.329055972511422 
2367	 0.328925057520327 
2368	 0.328835921836835 
2369	 0.328707206808167 
2370	 0.328580462697947 
2371	 0.328393108058945 
2372	 0.328202599309352 
2373	 0.32796819239218 
2374	 0.327730743077648 
2375	 0.32750626623841 
2376	 0.327252294775777 
2377	 0.326993934368541 
2378	 0.326707564871855 
2379	 0.326410998826539 
2380	 0.326139179815664 
2381	 0.325902223946852 
2382	 0.325699303543085 
2383	 0.325541714537521 
2384	 0.325407706968988 
2385	 0.325264167861881 
2386	 0.325128071892981 
2387	 0.324978804442853 
2388	 0.324833393460287 
2389	 0.324620738616444 
2390	 0.324349612565835 
2391	 0.324142306786725 
2392	 0.323950568740898 
2393	 0.323750477903432 
2394	 0.323565316854592 
2395	 0.323349596040734 
2396	 0.323053679590833 
2397	 0.322732902850113 
2398	 0.322448002008568 
2399	 0.322112533451691 
2400	 0.321745757642339 
2401	 0.321438538385292 
2402	 0.321206183947339 
2403	 0.321084383208571 
2404	 0.320925504151639 
2405	 0.32069522013091 
2406	 0.320391436898164 
2407	 0.320000917598135 
2408	 0.319837808001615 
2409	 0.319702845754776 
2410	 0.31946980826845 
2411	 0.31933604762749 
2412	 0.318982563397263 
2413	 0.318566268169954 
2414	 0.318357935642115 
2415	 0.318090662447933 
2416	 0.317840363965208 
2417	 0.317701722504603 
2418	 0.317420829419987 
2419	 0.317028530000955 
2420	 0.316726181174896 
2421	 0.31640388427789 
2422	 0.31608441094782 
2423	 0.315814279725286 
2424	 0.315515515840317 
2425	 0.31514257664524 
2426	 0.314800321654186 
2427	 0.314530229082105 
2428	 0.314255629035758 
2429	 0.31393389392803 
2430	 0.313718429464626 
2431	 0.313579251411876 
2432	 0.313307183564604 
2433	 0.313074282667958 
2434	 0.312759144955148 
2435	 0.312265807094896 
2436	 0.311996681209468 
2437	 0.3118292902737 
2438	 0.311566885502409 
2439	 0.311424618959846 
2440	 0.311120616442102 
2441	 0.31056346580426 
2442	 0.310234488394742 
2443	 0.310030847808214 
2444	 0.309778032419276 
2445	 0.309632665926948 
2446	 0.309359505363627 
2447	 0.308954643056687 
2448	 0.308614952895898 
2449	 0.308210182583212 
2450	 0.30791322165882 
2451	 0.307741207361823 
2452	 0.307435164672081 
2453	 0.307171062237182 
2454	 0.306840873026142 
2455	 0.306292845366393 
2456	 0.305995603672639 
2457	 0.305756101669144 
2458	 0.305644975198617 
2459	 0.30584205825218 
2460	 0.30573697391344 
2461	 0.305635746712663 
2462	 0.305365580186793 
2463	 0.304712745369286 
2464	 0.304387001126376 
2465	 0.304173539495277 
2466	 0.303862781432348 
2467	 0.303691476859833 
2468	 0.303495321632042 
2469	 0.303220184644739 
2470	 0.303023947636274 
2471	 0.302665737355355 
2472	 0.302331392199162 
2473	 0.302130585809574 
2474	 0.3019078573865 
2475	 0.301781711674047 
2476	 0.301650809913961 
2477	 0.301311378481175 
2478	 0.300940735700564 
2479	 0.30062844091403 
2480	 0.300436120926134 
2481	 0.300301917122853 
2482	 0.300167711239783 
2483	 0.299992620125507 
2484	 0.299663958539417 
2485	 0.299290882537694 
2486	 0.298849424367059 
2487	 0.298618344233261 
2488	 0.29840313666434 
2489	 0.298049416806713 
2490	 0.298108070171175 
2491	 0.298102282601233 
2492	 0.297778642219264 
2493	 0.297496650195329 
2494	 0.297046038382258 
2495	 0.296556985826755 
2496	 0.296569753769508 
2497	 0.296528138065259 
2498	 0.296208407801672 
2499	 0.296113895656282 
2500	 0.295786927745245 
