Wavelength	MM200006.asd
350	 0.058270177296813 
351	 5.95077664318681E-02 
352	 5.58624200568339E-02 
353	 5.00794669864127E-02 
354	 5.91532031985441E-02 
355	 5.91111214085974E-02 
356	 5.50819364651385E-02 
357	 0.056288058824045 
358	 5.68847172703777E-02 
359	 5.59758991683626E-02 
360	 5.40527515024338E-02 
361	 5.25442980822153E-02 
362	 5.27112387380213E-02 
363	 5.49558427739079E-02 
364	 5.75104756439929E-02 
365	 5.52987439248266E-02 
366	 5.34186922326887E-02 
367	 5.34729771110867E-02 
368	 5.50980388137719E-02 
369	 5.45411383431888E-02 
370	 5.39843699554742E-02 
371	 0.055131598138423 
372	 5.86304054225927E-02 
373	 5.90683684891005E-02 
374	 5.82100181527363E-02 
375	 5.82334640003783E-02 
376	 6.06416586521906E-02 
377	 5.76385027456705E-02 
378	 5.45585975977642E-02 
379	 5.77683796333547E-02 
380	 6.04068318261969E-02 
381	 5.92210010341414E-02 
382	 5.68716652715862E-02 
383	 5.96155638030869E-02 
384	 6.08925675765825E-02 
385	 6.12704582166223E-02 
386	 6.16478973380982E-02 
387	 6.14408803165979E-02 
388	 6.16581103917493E-02 
389	 6.26439890197923E-02 
390	 6.40352220372367E-02 
391	 6.35002088095463E-02 
392	 6.27735721045246E-02 
393	 6.34446610806892E-02 
394	 6.64049089122346E-02 
395	 6.66277276418111E-02 
396	 6.60563497473349E-02 
397	 6.65442707170637E-02 
398	 6.71298059735448E-02 
399	 6.81454191080769E-02 
400	 6.95530609425872E-02 
401	 7.07763626145518E-02 
402	 0.068829473939308 
403	 6.84364725986131E-02 
404	 7.02060032436978E-02 
405	 7.02850619840028E-02 
406	 6.94906497777619E-02 
407	 6.97388041549733E-02 
408	 7.15350234752008E-02 
409	 7.11998763933622E-02 
410	 7.13355545053656E-02 
411	 7.19152074456794E-02 
412	 7.19224590130653E-02 
413	 7.28449553617573E-02 
414	 7.29346020650694E-02 
415	 7.22015646726219E-02 
416	 7.32033844004521E-02 
417	 0.073675441133475 
418	 7.35908649257242E-02 
419	 7.35468665592572E-02 
420	 7.44130522117523E-02 
421	 7.43205403949815E-02 
422	 7.36225530152166E-02 
423	 7.39691266762543E-02 
424	 7.43451274815412E-02 
425	 7.42965351700713E-02 
426	 7.38238842518343E-02 
427	 7.35387345846813E-02 
428	 7.35471230129272E-02 
429	 7.36175818101502E-02 
430	 7.34789413553444E-02 
431	 7.33620042432935E-02 
432	 7.32130271748936E-02 
433	 7.30486232623449E-02 
434	 7.29660075912245E-02 
435	 7.32000501841382E-02 
436	 7.34133645140994E-02 
437	 7.33154655173039E-02 
438	 7.29644319855574E-02 
439	 7.29079202082822E-02 
440	 7.32260708918985E-02 
441	 7.36682083765997E-02 
442	 7.34914307377773E-02 
443	 7.35478172378835E-02 
444	 7.40145755345187E-02 
445	 7.38172083541353E-02 
446	 7.38396871377806E-02 
447	 7.42123166100617E-02 
448	 7.47433823128727E-02 
449	 7.48719286273013E-02 
450	 7.50715326505371E-02 
451	 7.53925246875723E-02 
452	 7.55135890976573E-02 
453	 7.56088131941496E-02 
454	 7.56628944659508E-02 
455	 7.57242320420254E-02 
456	 7.60998013111446E-02 
457	 7.64012699874271E-02 
458	 7.64988306123978E-02 
459	 7.64376183504386E-02 
460	 7.65675400603143E-02 
461	 7.66755877379044E-02 
462	 7.66906481215779E-02 
463	 7.68154126152856E-02 
464	 0.076836496918294 
465	 7.69505674931492E-02 
466	 7.72813197113637E-02 
467	 7.71960811764204E-02 
468	 0.077222881641847 
469	 7.74092078577197E-02 
470	 7.74095393668445E-02 
471	 7.74105543391367E-02 
472	 7.75290577740101E-02 
473	 7.77050951802903E-02 
474	 7.74474290298521E-02 
475	 0.077441148028798 
476	 7.76161669798761E-02 
477	 7.76178724589124E-02 
478	 7.76868392744577E-02 
479	 7.77540744024826E-02 
480	 7.78122152090277E-02 
481	 0.077976412427731 
482	 7.80135467307073E-02 
483	 7.80896433072329E-02 
484	 0.078329700757039 
485	 7.82230869058954E-02 
486	 0.078137065870536 
487	 7.81847032244509E-02 
488	 7.82454843708976E-02 
489	 7.82758864635508E-02 
490	 7.82887044111912E-02 
491	 7.83113196657416E-02 
492	 7.83677849284207E-02 
493	 7.84935749557371E-02 
494	 7.86266568811709E-02 
495	 7.86781961982598E-02 
496	 0.078759853603454 
497	 7.87913120678829E-02 
498	 7.87671519489169E-02 
499	 7.88212373820814E-02 
500	 7.87819619472244E-02 
501	 0.078747024793286 
502	 7.88398491646389E-02 
503	 7.89416274982268E-02 
504	 7.90080654221811E-02 
505	 7.90336466053393E-02 
506	 7.90501922596641E-02 
507	 7.91813251440092E-02 
508	 7.93415844879936E-02 
509	 7.94290407192002E-02 
510	 7.94034063640218E-02 
511	 7.93995664482282E-02 
512	 7.94846536675168E-02 
513	 7.96562298740052E-02 
514	 7.96796349692254E-02 
515	 7.96537749269967E-02 
516	 0.07967779781285 
517	 7.97870345931802E-02 
518	 7.99038417801927E-02 
519	 0.079928299419853 
520	 7.98367727169448E-02 
521	 8.00171061062693E-02 
522	 8.01537069370892E-02 
523	 8.01583706862232E-02 
524	 8.02185598556606E-02 
525	 8.02218057754536E-02 
526	 8.02258966537228E-02 
527	 8.02958458732729E-02 
528	 8.04148462261644E-02 
529	 8.04980481030016E-02 
530	 8.05290713979153E-02 
531	 8.05511024716411E-02 
532	 8.07272406247276E-02 
533	 8.09005289487374E-02 
534	 8.09785416125161E-02 
535	 8.11040051109069E-02 
536	 8.11571594724221E-02 
537	 8.12197202807336E-02 
538	 8.14055190309977E-02 
539	 0.081492524402407 
540	 8.15209837522905E-02 
541	 8.15660427334364E-02 
542	 8.17187985933056E-02 
543	 8.18810457115452E-02 
544	 0.082059528527915 
545	 8.22620948725159E-02 
546	 8.23798962202473E-02 
547	 8.25217043350359E-02 
548	 8.27050182528972E-02 
549	 8.28662019284285E-02 
550	 8.30108024634991E-02 
551	 0.083151370540909 
552	 8.33285095692538E-02 
553	 8.36761662741011E-02 
554	 0.08389149066987 
555	 8.40119860149532E-02 
556	 8.42424731609272E-02 
557	 8.44940160283853E-02 
558	 8.47850657741124E-02 
559	 8.51320904199393E-02 
560	 8.55410175472998E-02 
561	 8.58602907153946E-02 
562	 8.61718389936219E-02 
563	 8.66026240575996E-02 
564	 8.70262009188705E-02 
565	 8.74515997560029E-02 
566	 8.79032240304675E-02 
567	 8.84138738471356E-02 
568	 8.89527335240331E-02 
569	 8.95009904609229E-02 
570	 9.00467279704705E-02 
571	 9.05900453699154E-02 
572	 9.11400979809189E-02 
573	 9.17483322536802E-02 
574	 9.24742305634148E-02 
575	 9.30962567569187E-02 
576	 9.37304593140201E-02 
577	 9.44578203745775E-02 
578	 9.51553705032542E-02 
579	 9.59372920184633E-02 
580	 9.68065434593539E-02 
581	 9.77149935275888E-02 
582	 9.86215976440003E-02 
583	 9.95364835256655E-02 
584	 0.100454771388583 
585	 0.101344497389913 
586	 0.102260233681262 
587	 0.103209269265974 
588	 0.104175091594565 
589	 0.105109001551583 
590	 0.106100083319129 
591	 0.107120622243032 
592	 0.108044690730573 
593	 0.109017624971344 
594	 0.110022810972434 
595	 0.111027785677009 
596	 0.112054032057598 
597	 0.11309033564375 
598	 0.114121056339637 
599	 0.115129583372349 
600	 0.116074975687385 
601	 0.117032670998531 
602	 0.117996126600618 
603	 0.11878437244382 
604	 0.119587690470533 
605	 0.12042558483053 
606	 0.121257355701717 
607	 0.12207207843899 
608	 0.12283348963687 
609	 0.123559975138817 
610	 0.124331844619412 
611	 0.125056716126951 
612	 0.12572447405304 
613	 0.126348346486152 
614	 0.126958331760834 
615	 0.127517434735733 
616	 0.128030574424311 
617	 0.128528824583736 
618	 0.129002826899711 
619	 0.129433335710914 
620	 0.129830138181148 
621	 0.130270780940874 
622	 0.130679661296148 
623	 0.131047245117966 
624	 0.131399406405875 
625	 0.131807853887854 
626	 0.132169921020127 
627	 0.132475398646569 
628	 0.132853771092636 
629	 0.133200774533557 
630	 0.133513090989452 
631	 0.133808177787356 
632	 0.134063645934225 
633	 0.134356883781071 
634	 0.134689607574913 
635	 0.135000089877248 
636	 0.135266584221421 
637	 0.135563498220123 
638	 0.135909386924665 
639	 0.136135139006136 
640	 0.136402468174054 
641	 0.136718815762939 
642	 0.137023406630135 
643	 0.137326841279451 
644	 0.137640123881848 
645	 0.137959660624313 
646	 0.138259592115083 
647	 0.138550960263597 
648	 0.138860506372285 
649	 0.139210455389328 
650	 0.139587108457117 
651	 0.139955004652952 
652	 0.140300314596167 
653	 0.140632246941842 
654	 0.141000499213387 
655	 0.141365616471613 
656	 0.141700044654623 
657	 0.142037755445648 
658	 0.142460448853544 
659	 0.142893910681955 
660	 0.143215971244409 
661	 0.143580729958131 
662	 0.144025364632736 
663	 0.14453452083982 
664	 0.145038503554424 
665	 0.145472033847183 
666	 0.145898228953665 
667	 0.146379315228574 
668	 0.146780113123498 
669	 0.147259807736392 
670	 0.147816187320319 
671	 0.148311667446621 
672	 0.148830101233775 
673	 0.149358091378475 
674	 0.149885713620789 
675	 0.150453589632609 
676	 0.151005842402806 
677	 0.151529468227708 
678	 0.152043504656247 
679	 0.152632137896747 
680	 0.153249463869261 
681	 0.153866359748542 
682	 0.154493726985009 
683	 0.15509432920235 
684	 0.155713811578535 
685	 0.156389715610247 
686	 0.157050146090379 
687	 0.157722587509374 
688	 0.158396352403315 
689	 0.159039272802188 
690	 0.159703826584525 
691	 0.160389309225949 
692	 0.16109148577183 
693	 0.161822893262922 
694	 0.162509933681724 
695	 0.163215698494057 
696	 0.164012913850856 
697	 0.164721848693663 
698	 0.165439112725965 
699	 0.16620726314903 
700	 0.166992807412276 
701	 0.167771851991743 
702	 0.168530439805033 
703	 0.169269008057017 
704	 0.170015110185519 
705	 0.170761171414184 
706	 0.171524980692705 
707	 0.172323636219493 
708	 0.173064559285207 
709	 0.173827037077521 
710	 0.17463140351004 
711	 0.175389459604277 
712	 0.176102576704811 
713	 0.176822219707075 
714	 0.177589285741563 
715	 0.178340121894943 
716	 0.179087692864314 
717	 0.179820389110036 
718	 0.180510337594806 
719	 0.181176075501081 
720	 0.181826219508743 
721	 0.182461833808147 
722	 0.183066882596166 
723	 0.183722772579633 
724	 0.184400433859288 
725	 0.185029083236014 
726	 0.185545671954958 
727	 0.186063049353624 
728	 0.186601014080189 
729	 0.187088104379935 
730	 0.187614049663271 
731	 0.188079724037112 
732	 0.188440830761717 
733	 0.18886533434686 
734	 0.189257975854565 
735	 0.189605994685216 
736	 0.189927051628089 
737	 0.190220339846054 
738	 0.190453059957532 
739	 0.190648816476874 
740	 0.190890133809063 
741	 0.191082033074212 
742	 0.191244970585036 
743	 0.191387857443581 
744	 0.191410966751877 
745	 0.191444372377827 
746	 0.191490824331819 
747	 0.191494962669741 
748	 0.191471593186912 
749	 0.191436627674467 
750	 0.191371947264397 
751	 0.191220690273033 
752	 0.191086992359874 
753	 0.190967205436672 
754	 0.190824217626092 
755	 0.190601877750097 
756	 0.190371502883515 
757	 0.190147771616054 
758	 0.189908069203315 
759	 0.189595757788776 
760	 0.189265298933293 
761	 0.188956360169406 
762	 0.188674018165937 
763	 0.188369168090964 
764	 0.188004044923045 
765	 0.187576650587287 
766	 0.187162415963505 
767	 0.186800014835227 
768	 0.186429923857885 
769	 0.185965777333038 
770	 0.185531944476237 
771	 0.185110341959826 
772	 0.184688849046201 
773	 0.184276806295609 
774	 0.183828016195894 
775	 0.183335505583325 
776	 0.182822671549882 
777	 0.182366953986109 
778	 0.18190845143111 
779	 0.181429112500006 
780	 0.180933005969828 
781	 0.180426885426792 
782	 0.179971511726192 
783	 0.179541750731799 
784	 0.179027280444825 
785	 0.178542496049578 
786	 0.178060781632585 
787	 0.177558969162058 
788	 0.177084928071772 
789	 0.176632886215954 
790	 0.176171029821561 
791	 0.175674928580604 
792	 0.175218717701384 
793	 0.174768904913691 
794	 0.174307445937883 
795	 0.173838281751983 
796	 0.173390097575123 
797	 0.172945375692501 
798	 0.172488446638339 
799	 0.172017316756223 
800	 0.171618857659036 
801	 0.171247463358139 
802	 0.170829775099334 
803	 0.170354905591548 
804	 0.16994301955978 
805	 0.16959002764464 
806	 0.169214607407898 
807	 0.168835628530856 
808	 0.168397243923853 
809	 0.167941474702498 
810	 0.16763456104093 
811	 0.167318009036177 
812	 0.166971633470172 
813	 0.166617368077751 
814	 0.166307521146319 
815	 0.165940376938057 
816	 0.165561323521002 
817	 0.165258214070076 
818	 0.16498510935849 
819	 0.164692402847754 
820	 0.164396664187698 
821	 0.164159682126746 
822	 0.163866053655247 
823	 0.163560250155195 
824	 0.163281865592539 
825	 0.163021851626342 
826	 0.162756413533127 
827	 0.162505154474178 
828	 0.162284712053657 
829	 0.162064864782423 
830	 0.161817866262237 
831	 0.161565733303858 
832	 0.161352135856537 
833	 0.161179303612019 
834	 0.161033404851711 
835	 0.160887512035652 
836	 0.160708601818822 
837	 0.160514123666838 
838	 0.160336132146909 
839	 0.160181567792763 
840	 0.160010670336448 
841	 0.159886536273644 
842	 0.159746788898923 
843	 0.159561423873336 
844	 0.159519934624278 
845	 0.159427498946021 
846	 0.159279961064128 
847	 0.159161380985155 
848	 0.159076726130289 
849	 0.159035647357084 
850	 0.158997485323009 
851	 0.158892739350594 
852	 0.158797684428836 
853	 0.158763309113968 
854	 0.158772852716625 
855	 0.158722604110761 
856	 0.158685814099005 
857	 0.158677699764439 
858	 0.158685685725919 
859	 0.15865952485506 
860	 0.15866066249422 
861	 0.158669367339901 
862	 0.158654205605184 
863	 0.15866551377945 
864	 0.158692843546298 
865	 0.158744442761474 
866	 0.158826194074967 
867	 0.158840101935647 
868	 0.15888635113914 
869	 0.158988803543728 
870	 0.159075737323663 
871	 0.159137513670172 
872	 0.159189936890644 
873	 0.159270935554483 
874	 0.15944046160892 
875	 0.159586441622973 
876	 0.159697681725263 
877	 0.159789493193643 
878	 0.159856572598265 
879	 0.160069172378148 
880	 0.160275355411383 
881	 0.160313137713115 
882	 0.160484538699726 
883	 0.160691931481392 
884	 0.160863112516549 
885	 0.160981246670235 
886	 0.161234165627307 
887	 0.161522273768357 
888	 0.161745819125582 
889	 0.161853616423417 
890	 0.162024425600896 
891	 0.162291993125285 
892	 0.162629119818089 
893	 0.162958972627862 
894	 0.163185979970566 
895	 0.163381416222063 
896	 0.163628906115183 
897	 0.163964010794349 
898	 0.164252469877439 
899	 0.164556010745013 
900	 0.16491586820292 
901	 0.165169617417023 
902	 0.165459587354846 
903	 0.16578816935054 
904	 0.166126874158288 
905	 0.166528397527479 
906	 0.16692439166661 
907	 0.16729285240506 
908	 0.167643195125799 
909	 0.167994910323261 
910	 0.168398674656449 
911	 0.168837443926315 
912	 0.169254787072499 
913	 0.169676089057842 
914	 0.170079718728109 
915	 0.170496637094802 
916	 0.170987534321906 
917	 0.171402434007946 
918	 0.171860679835337 
919	 0.172392558437196 
920	 0.172888592988699 
921	 0.17337027327841 
922	 0.173881772744113 
923	 0.174415298636597 
924	 0.17488781926467 
925	 0.175395128719332 
926	 0.176008878697643 
927	 0.176680759499147 
928	 0.177167314061579 
929	 0.177780205012933 
930	 0.178420822640624 
931	 0.178970062034799 
932	 0.179514762494557 
933	 0.180112517655847 
934	 0.180725111395551 
935	 0.181324593470297 
936	 0.182008261916939 
937	 0.182663924411458 
938	 0.183336704319867 
939	 0.184076424421904 
940	 0.184768148232743 
941	 0.185406981982551 
942	 0.186100891452265 
943	 0.186928758885083 
944	 0.187678809021229 
945	 0.188406092337251 
946	 0.18916526654616 
947	 0.189967266735399 
948	 0.190652871629115 
949	 0.191353289461542 
950	 0.192105915014722 
951	 0.192897334461832 
952	 0.193761769030823 
953	 0.194606740457679 
954	 0.19538549544643 
955	 0.196123253306975 
956	 0.197027611798754 
957	 0.19790686053776 
958	 0.198700923924194 
959	 0.199481199791375 
960	 0.200437231975781 
961	 0.201376705511974 
962	 0.202265620540463 
963	 0.203169988059412 
964	 0.203974292727685 
965	 0.204886198123965 
966	 0.205869191022796 
967	 0.206754174891429 
968	 0.207715467169685 
969	 0.208646703068134 
970	 0.209545786021616 
971	 0.210483774174793 
972	 0.211440405005816 
973	 0.212505245291576 
974	 0.213560276831973 
975	 0.214438788220949 
976	 0.215551028379678 
977	 0.216604677643759 
978	 0.217545742832368 
979	 0.218499788297217 
980	 0.219454336360685 
981	 0.220374668941217 
982	 0.221256156049781 
983	 0.222140994907956 
984	 0.223176814250522 
985	 0.22426239384356 
986	 0.225356516578117 
987	 0.226454324056234 
988	 0.227510487699081 
989	 0.228556166467299 
990	 0.229569150022986 
991	 0.230524518421585 
992	 0.23152067361513 
993	 0.232512310920747 
994	 0.233468536988143 
995	 0.234385661005971 
996	 0.235301692396054 
997	 0.236438202119004 
998	 0.23750776122993 
999	 0.238297366867368 
1000	 0.239597958230103 
1001	 0.24040305167042 
1002	 0.24130967859995 
1003	 0.242275888869609 
1004	 0.243221306013642 
1005	 0.244116844469733 
1006	 0.245020392415158 
1007	 0.245949956358576 
1008	 0.246874096787862 
1009	 0.247695290813023 
1010	 0.248555352496443 
1011	 0.249439999613354 
1012	 0.250234819511972 
1013	 0.251033600679514 
1014	 0.251874098902574 
1015	 0.252710498488446 
1016	 0.253530589599553 
1017	 0.254324225308477 
1018	 0.255130142558225 
1019	 0.255890821533932 
1020	 0.256604452395062 
1021	 0.257356158800867 
1022	 0.258156970482383 
1023	 0.25889661160259 
1024	 0.259637260487749 
1025	 0.26039157265575 
1026	 0.261027354907873 
1027	 0.261711541150712 
1028	 0.262433883415732 
1029	 0.263062661529213 
1030	 0.263748485923798 
1031	 0.264407867785523 
1032	 0.26505429203414 
1033	 0.265661100432566 
1034	 0.2663341440151 
1035	 0.266945033691774 
1036	 0.267565603152995 
1037	 0.268186466416095 
1038	 0.268742483933384 
1039	 0.269334355292913 
1040	 0.26992467938659 
1041	 0.270524061924301 
1042	 0.271129282840963 
1043	 0.271677935928689 
1044	 0.272253814148052 
1045	 0.272847611454719 
1046	 0.273420208652216 
1047	 0.273958233848427 
1048	 0.274545239574399 
1049	 0.275103272145916 
1050	 0.275652322136216 
1051	 0.276235564149213 
1052	 0.276843350777048 
1053	 0.277456050669202 
1054	 0.278050610409559 
1055	 0.27867032677078 
1056	 0.279216073764283 
1057	 0.279750603664986 
1058	 0.280248079318594 
1059	 0.280783382077464 
1060	 0.281281266222105 
1061	 0.281851249054856 
1062	 0.282473511533596 
1063	 0.283041103688809 
1064	 0.283610284555108 
1065	 0.28417976401867 
1066	 0.28467794914598 
1067	 0.285201682362524 
1068	 0.285739669089006 
1069	 0.286218059208704 
1070	 0.28673570263855 
1071	 0.287283156640623 
1072	 0.287816513653145 
1073	 0.288357513246688 
1074	 0.288876920294098 
1075	 0.28937831494637 
1076	 0.289883466677441 
1077	 0.29038877467974 
1078	 0.290890109842571 
1079	 0.291404034475741 
1080	 0.291916494741277 
1081	 0.292386086103957 
1082	 0.292850208020692 
1083	 0.293313461378794 
1084	 0.293758768249799 
1085	 0.294223043629492 
1086	 0.294674196587786 
1087	 0.295143419860956 
1088	 0.295636174910521 
1089	 0.296125322809778 
1090	 0.296574339851936 
1091	 0.297056058288923 
1092	 0.29751001244987 
1093	 0.297942589928776 
1094	 0.298389498745686 
1095	 0.298832878015908 
1096	 0.299284784545329 
1097	 0.299725633781102 
1098	 0.300173038654899 
1099	 0.300623647109518 
1100	 0.301071737808555 
1101	 0.3015181174108 
1102	 0.301976929933301 
1103	 0.30244586736713 
1104	 0.302898995492909 
1105	 0.303358781301918 
1106	 0.303822724971037 
1107	 0.304261634791621 
1108	 0.304705382474105 
1109	 0.3051597789694 
1110	 0.305616286772532 
1111	 0.306096362226155 
1112	 0.306610042454107 
1113	 0.307085236744025 
1114	 0.307560680638913 
1115	 0.308035330066391 
1116	 0.308508223826657 
1117	 0.308951576547936 
1118	 0.30938276975943 
1119	 0.309808321421791 
1120	 0.310254051515782 
1121	 0.310674123765015 
1122	 0.311128453560038 
1123	 0.311604685889618 
1124	 0.312042602835705 
1125	 0.312433667315737 
1126	 0.312873665625135 
1127	 0.313322070845037 
1128	 0.313774374679698 
1129	 0.314262932105311 
1130	 0.314713535752049 
1131	 0.315142091300276 
1132	 0.315584461172842 
1133	 0.316027080362074 
1134	 0.316452390939309 
1135	 0.316876449896404 
1136	 0.317291752328983 
1137	 0.317704381586412 
1138	 0.318104529475476 
1139	 0.318520348141698 
1140	 0.318959781221504 
1141	 0.319369596247953 
1142	 0.31976500972765 
1143	 0.320171764458871 
1144	 0.320587664122243 
1145	 0.320974719737638 
1146	 0.32134740083801 
1147	 0.32172161016401 
1148	 0.32207047088155 
1149	 0.322430197340807 
1150	 0.32280405068581 
1151	 0.323182221910915 
1152	 0.323519261624128 
1153	 0.323859872907413 
1154	 0.324201364905763 
1155	 0.324521532653589 
1156	 0.324873346061984 
1157	 0.325267165508929 
1158	 0.325602004161596 
1159	 0.325918735464648 
1160	 0.326241055001946 
1161	 0.326537930743251 
1162	 0.326833790873474 
1163	 0.327132080536107 
1164	 0.327436807201533 
1165	 0.327739318054987 
1166	 0.328024753396069 
1167	 0.328334171905834 
1168	 0.328641863491826 
1169	 0.328930065395251 
1170	 0.329199050195034 
1171	 0.329476394039822 
1172	 0.329753433051631 
1173	 0.330020188250424 
1174	 0.330273584006812 
1175	 0.330542545071307 
1176	 0.330808519463975 
1177	 0.33107986202096 
1178	 0.33137811155481 
1179	 0.331651272398596 
1180	 0.331902133423354 
1181	 0.332167184620581 
1182	 0.332440710702556 
1183	 0.332698165498066 
1184	 0.33294588863504 
1185	 0.333202590790416 
1186	 0.333430061754749 
1187	 0.333617778545 
1188	 0.333838457182004 
1189	 0.334061527096515 
1190	 0.334288027724715 
1191	 0.334544689798243 
1192	 0.334760588856353 
1193	 0.334954197713077 
1194	 0.335152122108977 
1195	 0.335322065132836 
1196	 0.335509892034634 
1197	 0.335719005083184 
1198	 0.335911619709581 
1199	 0.336099434555772 
1200	 0.336280832502607 
1201	 0.336473225296299 
1202	 0.336669291691016 
1203	 0.336847805522108 
1204	 0.33702801479073 
1205	 0.337202755637093 
1206	 0.337349571851034 
1207	 0.337521334584293 
1208	 0.337721760034947 
1209	 0.337893763555692 
1210	 0.338058718188931 
1211	 0.338219870481786 
1212	 0.338357867961033 
1213	 0.338509126898559 
1214	 0.338669505074082 
1215	 0.338825671058149 
1216	 0.338981805240755 
1217	 0.339142484927075 
1218	 0.339293565008847 
1219	 0.339445791789076 
1220	 0.339580703706145 
1221	 0.339702999848264 
1222	 0.339827800141874 
1223	 0.339939069427718 
1224	 0.340058028316814 
1225	 0.340183636186356 
1226	 0.34030241798837 
1227	 0.340424016237038 
1228	 0.340534019447731 
1229	 0.340626785892873 
1230	 0.34073365052324 
1231	 0.340841699366465 
1232	 0.340947648827356 
1233	 0.341056267545199 
1234	 0.341181668837544 
1235	 0.341279550206827 
1236	 0.341357900771931 
1237	 0.341452996217874 
1238	 0.341540516517946 
1239	 0.341640437305099 
1240	 0.341764349500844 
1241	 0.341862797642134 
1242	 0.341954240890378 
1243	 0.342041672274853 
1244	 0.342104599486334 
1245	 0.342188225500278 
1246	 0.342280708741136 
1247	 0.342373546353785 
1248	 0.342475926248219 
1249	 0.34258004162696 
1250	 0.342683808246319 
1251	 0.342779450627369 
1252	 0.342852468247936 
1253	 0.342906359992075 
1254	 0.342972426801667 
1255	 0.343013079120285 
1256	 0.343085829778616 
1257	 0.343191976733233 
1258	 0.34326928604304 
1259	 0.343345902023991 
1260	 0.343417406975188 
1261	 0.343475281986355 
1262	 0.343533048665636 
1263	 0.343590113424807 
1264	 0.343644339916048 
1265	 0.343699164861926 
1266	 0.343742182955001 
1267	 0.343777461865844 
1268	 0.343807381283077 
1269	 0.343846982425617 
1270	 0.343881260863394 
1271	 0.343917152963354 
1272	 0.343957195190382 
1273	 0.344007880225178 
1274	 0.344044482924445 
1275	 0.344113195182464 
1276	 0.344207975756602 
1277	 0.344308555373117 
1278	 0.344432115199144 
1279	 0.344546586944709 
1280	 0.344673057367126 
1281	 0.344790282886543 
1282	 0.344890061687935 
1283	 0.34500739671169 
1284	 0.34513611865874 
1285	 0.345263098788856 
1286	 0.345385144468277 
1287	 0.345519208139431 
1288	 0.345619300536588 
1289	 0.345691140374604 
1290	 0.345780602322914 
1291	 0.345853995284398 
1292	 0.345946138877778 
1293	 0.34605647037987 
1294	 0.34615067000496 
1295	 0.346249151963664 
1296	 0.346340141292578 
1297	 0.346420540599813 
1298	 0.346502416125154 
1299	 0.346582417866228 
1300	 0.346653233799441 
1301	 0.346723847620006 
1302	 0.34678526422079 
1303	 0.34683309176669 
1304	 0.346888831653645 
1305	 0.346934242016247 
1306	 0.346964012279421 
1307	 0.346978871116929 
1308	 0.346975320652 
1309	 0.346984189915591 
1310	 0.346989438682203 
1311	 0.346986132061548 
1312	 0.346984867328362 
1313	 0.346976611522426 
1314	 0.346951000684662 
1315	 0.346933747271522 
1316	 0.346910091285929 
1317	 0.3469114594491 
1318	 0.346922196348305 
1319	 0.346935153097324 
1320	 0.346974861249956 
1321	 0.346999208185047 
1322	 0.347019002944548 
1323	 0.347029574421223 
1324	 0.34705212469995 
1325	 0.347069821891303 
1326	 0.347080830258513 
1327	 0.347098182841525 
1328	 0.347095405137384 
1329	 0.347093242800962 
1330	 0.34709897118804 
1331	 0.347096495592734 
1332	 0.347121301156096 
1333	 0.347154578282084 
1334	 0.34721078938031 
1335	 0.347303390950517 
1336	 0.347367368819629 
1337	 0.347440439131398 
1338	 0.347499357181006 
1339	 0.347541003330166 
1340	 0.347584123386206 
1341	 0.34762828920559 
1342	 0.347665587762969 
1343	 0.347695576698349 
1344	 0.34771448545626 
1345	 0.34774774124676 
1346	 0.347794250144937 
1347	 0.347822023253344 
1348	 0.347865100410101 
1349	 0.347926082828936 
1350	 0.347954517429982 
1351	 0.347990080521027 
1352	 0.348035575250833 
1353	 0.348073070553599 
1354	 0.348091429379845 
1355	 0.34812764978337 
1356	 0.348176491184693 
1357	 0.34821493110457 
1358	 0.348257482710904 
1359	 0.348293598462941 
1360	 0.34831075905675 
1361	 0.348350332802666 
1362	 0.348396905206657 
1363	 0.348446202030216 
1364	 0.348515796196686 
1365	 0.348576342402766 
1366	 0.348624846105105 
1367	 0.348685742057969 
1368	 0.34876501356571 
1369	 0.348838429308588 
1370	 0.348917983604404 
1371	 0.348979502671863 
1372	 0.349016025217021 
1373	 0.349044733081799 
1374	 0.34906070410344 
1375	 0.349070922375385 
1376	 0.349054266321889 
1377	 0.349022084556003 
1378	 0.348971374817688 
1379	 0.348888046555444 
1380	 0.348818400920797 
1381	 0.348725265931383 
1382	 0.348658284315675 
1383	 0.34861557308163 
1384	 0.348552769384777 
1385	 0.34851167526831 
1386	 0.348432905185418 
1387	 0.348330857659568 
1388	 0.34821321109049 
1389	 0.348078063185829 
1390	 0.347918926564106 
1391	 0.34775716549056 
1392	 0.347576915324556 
1393	 0.347345225800675 
1394	 0.347111945963127 
1395	 0.346845684657172 
1396	 0.346574598056174 
1397	 0.346320719484239 
1398	 0.346070400608911 
1399	 0.345828932654575 
1400	 0.345606243346688 
1401	 0.345358428495331 
1402	 0.345118930334282 
1403	 0.344852628313171 
1404	 0.344542506241818 
1405	 0.344273271888073 
1406	 0.344003745956945 
1407	 0.343749250670776 
1408	 0.343512931323144 
1409	 0.343294561193082 
1410	 0.343077751699719 
1411	 0.342886929364468 
1412	 0.342717766901971 
1413	 0.342565223167223 
1414	 0.342463715701625 
1415	 0.342386249145919 
1416	 0.342334310567396 
1417	 0.342309474834916 
1418	 0.342265555603526 
1419	 0.342229979568113 
1420	 0.342220038365371 
1421	 0.342208567078424 
1422	 0.34219576335287 
1423	 0.342181704584927 
1424	 0.342146057718667 
1425	 0.342081715188295 
1426	 0.34204241650633 
1427	 0.341995037918957 
1428	 0.341966509268967 
1429	 0.341955742927802 
1430	 0.34194984016143 
1431	 0.341953994330455 
1432	 0.341952184348465 
1433	 0.341966532334743 
1434	 0.34196239230537 
1435	 0.341927014019372 
1436	 0.341931000772232 
1437	 0.341948540328121 
1438	 0.341964479514101 
1439	 0.342003469002123 
1440	 0.342044118888046 
1441	 0.342051773191384 
1442	 0.342051154366043 
1443	 0.342050872005353 
1444	 0.342051458568336 
1445	 0.342067569250671 
1446	 0.342101240589257 
1447	 0.342148504591836 
1448	 0.342174962516778 
1449	 0.342182506023431 
1450	 0.342191708217118 
1451	 0.342195678295814 
1452	 0.342182446254563 
1453	 0.342189817325466 
1454	 0.342200276485668 
1455	 0.342217760660955 
1456	 0.342253536716418 
1457	 0.342269326279972 
1458	 0.342287417155615 
1459	 0.342290807543804 
1460	 0.342262447097904 
1461	 0.342264338292964 
1462	 0.34227281685284 
1463	 0.342290341233284 
1464	 0.342328895959676 
1465	 0.342358627824423 
1466	 0.342379226355032 
1467	 0.342418817521216 
1468	 0.34246666704498 
1469	 0.342522890044168 
1470	 0.342599180296563 
1471	 0.342664242081138 
1472	 0.342734301101653 
1473	 0.342819406372848 
1474	 0.342896812430182 
1475	 0.34298022852959 
1476	 0.343075013513497 
1477	 0.34316235966889 
1478	 0.343257462033958 
1479	 0.343358489950135 
1480	 0.343466456664272 
1481	 0.34357295289389 
1482	 0.343672176473323 
1483	 0.343770627814962 
1484	 0.343879784712541 
1485	 0.343985522700045 
1486	 0.344090613158557 
1487	 0.34420956468634 
1488	 0.344311564437746 
1489	 0.344395950464311 
1490	 0.344493127698619 
1491	 0.344598453059651 
1492	 0.344694253177303 
1493	 0.344781521856659 
1494	 0.34487947975113 
1495	 0.344979437307565 
1496	 0.345077378037993 
1497	 0.345180189031814 
1498	 0.345286359848422 
1499	 0.345399050620466 
1500	 0.345494153001331 
1501	 0.345584605218593 
1502	 0.345678011459286 
1503	 0.345757009093303 
1504	 0.345835629214448 
1505	 0.345947567673895 
1506	 0.346053029841683 
1507	 0.34615109576959 
1508	 0.346243833314538 
1509	 0.34631128788427 
1510	 0.346374732623478 
1511	 0.34644085953179 
1512	 0.346517859678301 
1513	 0.346617178252135 
1514	 0.346705654575727 
1515	 0.346810151456832 
1516	 0.346916891034919 
1517	 0.347000685391508 
1518	 0.347079637329974 
1519	 0.347152973690781 
1520	 0.347200084450628 
1521	 0.347263996322851 
1522	 0.347336530102461 
1523	 0.347394264181877 
1524	 0.347447172667262 
1525	 0.347505298106182 
1526	 0.347549698316194 
1527	 0.347615035569756 
1528	 0.347700031398466 
1529	 0.347769480453822 
1530	 0.347848839625554 
1531	 0.347911739294518 
1532	 0.3479493760155 
1533	 0.34800782742032 
1534	 0.348077539051883 
1535	 0.348131745467744 
1536	 0.348185818639358 
1537	 0.348239407636843 
1538	 0.348278152052017 
1539	 0.348325544395988 
1540	 0.348391401737184 
1541	 0.348437783011576 
1542	 0.348467356615258 
1543	 0.348503806931601 
1544	 0.348536654431868 
1545	 0.348569325494622 
1546	 0.348598377492726 
1547	 0.348641867016707 
1548	 0.348675800224729 
1549	 0.348714002119235 
1550	 0.348781519343162 
1551	 0.348821267384825 
1552	 0.348859169947348 
1553	 0.348904572913985 
1554	 0.348942127348175 
1555	 0.348999779890154 
1556	 0.349066719636257 
1557	 0.349130338359595 
1558	 0.349182952257937 
1559	 0.349222182751067 
1560	 0.349257245273882 
1561	 0.349280044003325 
1562	 0.349310043877513 
1563	 0.34933092714522 
1564	 0.349367745810046 
1565	 0.349402755078658 
1566	 0.34946683108356 
1567	 0.349557480169227 
1568	 0.349630486524013 
1569	 0.349730939320067 
1570	 0.349783586762497 
1571	 0.34980760674343 
1572	 0.349835686460169 
1573	 0.349836748263584 
1574	 0.349853474829615 
1575	 0.349867901419214 
1576	 0.349894892682671 
1577	 0.349933703501744 
1578	 0.349968922905884 
1579	 0.350018009226313 
1580	 0.350048124788676 
1581	 0.350065351798983 
1582	 0.350083833860436 
1583	 0.350088331589238 
1584	 0.350107516212578 
1585	 0.350124708467011 
1586	 0.350162095205016 
1587	 0.35022274162281 
1588	 0.350271615652956 
1589	 0.350342928155799 
1590	 0.350381879270881 
1591	 0.350397936107665 
1592	 0.350413896905078 
1593	 0.350398369206953 
1594	 0.350409039274218 
1595	 0.350440393758783 
1596	 0.35045651246397 
1597	 0.350469645142659 
1598	 0.350494062597841 
1599	 0.350517879814281 
1600	 0.350538892807031 
1601	 0.350579057933276 
1602	 0.350602656535735 
1603	 0.350608920512784 
1604	 0.350611471269783 
1605	 0.350586084931706 
1606	 0.350596128112963 
1607	 0.350630645508106 
1608	 0.350656425939806 
1609	 0.350685189704194 
1610	 0.350710581811968 
1611	 0.350681280264491 
1612	 0.350662676017885 
1613	 0.350660765666165 
1614	 0.350657885540279 
1615	 0.35068915475086 
1616	 0.350711255556335 
1617	 0.350745039757761 
1618	 0.350797294306586 
1619	 0.350819856025484 
1620	 0.350848072673471 
1621	 0.350870546522095 
1622	 0.350880861875621 
1623	 0.350900872604728 
1624	 0.350932152783716 
1625	 0.35094037872044 
1626	 0.350936066053948 
1627	 0.350941248254469 
1628	 0.350940062104191 
1629	 0.350939073210194 
1630	 0.350947003662569 
1631	 0.350940388015827 
1632	 0.350917898757355 
1633	 0.350906521356412 
1634	 0.350894120590209 
1635	 0.350892316371103 
1636	 0.350889729384721 
1637	 0.350906220019539 
1638	 0.350942096945588 
1639	 0.350965303074724 
1640	 0.351001393596346 
1641	 0.351020797828932 
1642	 0.35102962284194 
1643	 0.351031907041181 
1644	 0.351021866698945 
1645	 0.351023175332905 
1646	 0.35101908462368 
1647	 0.351022296293509 
1648	 0.351044480159469 
1649	 0.351042005902639 
1650	 0.351021069620933 
1651	 0.351018702701149 
1652	 0.35101454776971 
1653	 0.351012311458273 
1654	 0.351024269247286 
1655	 0.351025324442021 
1656	 0.351018166829419 
1657	 0.351011124880333 
1658	 0.351000230664524 
1659	 0.350997765897815 
1660	 0.351002733744289 
1661	 0.350990778398935 
1662	 0.350964337206906 
1663	 0.350967776454566 
1664	 0.350968697184592 
1665	 0.350982683022967 
1666	 0.35103876281448 
1667	 0.351061323158274 
1668	 0.351062449262297 
1669	 0.351076580993117 
1670	 0.351098507109249 
1671	 0.35110117374712 
1672	 0.351095682660553 
1673	 0.35109246384943 
1674	 0.351077061176177 
1675	 0.351062478585871 
1676	 0.351036375115502 
1677	 0.351044870305074 
1678	 0.35107280720032 
1679	 0.351083700789704 
1680	 0.351135582690826 
1681	 0.351128136245862 
1682	 0.351059844970856 
1683	 0.351028516540631 
1684	 0.350978228934328 
1685	 0.350963421063445 
1686	 0.350979728319263 
1687	 0.350989610926409 
1688	 0.351012091027184 
1689	 0.351034491638404 
1690	 0.35106066437369 
1691	 0.351087424784826 
1692	 0.351129814692606 
1693	 0.351146596430705 
1694	 0.351145090478864 
1695	 0.351154018078636 
1696	 0.351159010545661 
1697	 0.351155008110791 
1698	 0.351156282157104 
1699	 0.351148713895257 
1700	 0.35112108859452 
1701	 0.35110404171189 
1702	 0.351092042716654 
1703	 0.351074601124883 
1704	 0.351061925857859 
1705	 0.351029897711675 
1706	 0.350978113550725 
1707	 0.350952338968511 
1708	 0.350925745522378 
1709	 0.350900962549023 
1710	 0.350883564141477 
1711	 0.350884922325772 
1712	 0.350896212931793 
1713	 0.350895313760654 
1714	 0.35092539917711 
1715	 0.350915875256668 
1716	 0.350865477658526 
1717	 0.3508378797324 
1718	 0.350811138372304 
1719	 0.350778815832786 
1720	 0.350746495303717 
1721	 0.350712974824938 
1722	 0.350682394324436 
1723	 0.35063167315973 
1724	 0.350567519512939 
1725	 0.350513165566216 
1726	 0.350435448816067 
1727	 0.3503948771363 
1728	 0.350392346575352 
1729	 0.350360863529875 
1730	 0.350342339441422 
1731	 0.350281681639064 
1732	 0.350190252853247 
1733	 0.350100249150867 
1734	 0.349979775976117 
1735	 0.349884569629449 
1736	 0.349788669475994 
1737	 0.349720932502646 
1738	 0.349661571165931 
1739	 0.349635458418093 
1740	 0.349650662752129 
1741	 0.349632025703094 
1742	 0.349633916482872 
1743	 0.349600895629312 
1744	 0.349529971966418 
1745	 0.34949481114226 
1746	 0.349460263787227 
1747	 0.349447643901247 
1748	 0.34942558238392 
1749	 0.349358677583026 
1750	 0.349284368373045 
1751	 0.349201757642991 
1752	 0.349103316417646 
1753	 0.349005238432087 
1754	 0.348933052977107 
1755	 0.348881101303036 
1756	 0.348841309740039 
1757	 0.348834092584669 
1758	 0.348818364607303 
1759	 0.348774416765624 
1760	 0.348720357618243 
1761	 0.34864795490908 
1762	 0.348555350383713 
1763	 0.348443675118082 
1764	 0.348365047279707 
1765	 0.348327786392448 
1766	 0.348311806892731 
1767	 0.348332189737479 
1768	 0.348318806502128 
1769	 0.348269617091624 
1770	 0.348196328442406 
1771	 0.348089371531755 
1772	 0.34800312916026 
1773	 0.3479230429787 
1774	 0.34787397017216 
1775	 0.347854470671899 
1776	 0.347821227193073 
1777	 0.347818493116707 
1778	 0.347816954898469 
1779	 0.347810803342248 
1780	 0.347818262667863 
1781	 0.347807092558895 
1782	 0.34777638138647 
1783	 0.347725338377418 
1784	 0.347660846780129 
1785	 0.347552292622875 
1786	 0.347460822787983 
1787	 0.347347022582788 
1788	 0.34727952707276 
1789	 0.347247888373772 
1790	 0.347211343122025 
1791	 0.347216785576796 
1792	 0.347187392234512 
1793	 0.347134027317439 
1794	 0.347089677165387 
1795	 0.347052180714368 
1796	 0.346978159357291 
1797	 0.346865479781601 
1798	 0.346804635072209 
1799	 0.346724528070004 
1800	 0.346703233719835 
1801	 0.339475732061765 
1802	 0.339628289192119 
1803	 0.339794395376472 
1804	 0.339993139692565 
1805	 0.340182948291449 
1806	 0.340365532739546 
1807	 0.340551434794081 
1808	 0.340714475918095 
1809	 0.340905030068712 
1810	 0.341020375723688 
1811	 0.341095485993969 
1812	 0.341141306166654 
1813	 0.341160486062796 
1814	 0.341145946010544 
1815	 0.341128994610383 
1816	 0.341137121616056 
1817	 0.341160259866105 
1818	 0.3411780620263 
1819	 0.341226197980409 
1820	 0.341320367208454 
1821	 0.341382359898067 
1822	 0.341428545112544 
1823	 0.341484550761043 
1824	 0.341490839596258 
1825	 0.341492599670079 
1826	 0.34151582233508 
1827	 0.341515523337487 
1828	 0.341519286889063 
1829	 0.341528505904026 
1830	 0.341536968873969 
1831	 0.34153810009194 
1832	 0.341548930892747 
1833	 0.34155119403445 
1834	 0.341545990417237 
1835	 0.341530904709121 
1836	 0.341500511721487 
1837	 0.341479632881525 
1838	 0.341462794871454 
1839	 0.341466239356327 
1840	 0.341491978230265 
1841	 0.341508694599322 
1842	 0.341507179131662 
1843	 0.341533836676156 
1844	 0.341525951898276 
1845	 0.341487241307728 
1846	 0.341456652124024 
1847	 0.341395061131621 
1848	 0.341312517070295 
1849	 0.341264095701997 
1850	 0.341234784541302 
1851	 0.341228589851852 
1852	 0.341224620340199 
1853	 0.341230173690726 
1854	 0.341231249196721 
1855	 0.341228306796486 
1856	 0.341222219411577 
1857	 0.341218216325833 
1858	 0.341187653043396 
1859	 0.34111541876013 
1860	 0.341019969619426 
1861	 0.34090101009192 
1862	 0.340738091238523 
1863	 0.340548809538121 
1864	 0.340340188851814 
1865	 0.340131596891176 
1866	 0.339943866510443 
1867	 0.33974948611196 
1868	 0.339552129228941 
1869	 0.339345382702828 
1870	 0.339119629646654 
1871	 0.338885673105092 
1872	 0.338643508986417 
1873	 0.338408716453384 
1874	 0.338155684581379 
1875	 0.337869928326733 
1876	 0.337555044958139 
1877	 0.33722414716903 
1878	 0.336853426401793 
1879	 0.33643723319161 
1880	 0.335972249128417 
1881	 0.335459702238138 
1882	 0.3349095225119 
1883	 0.334320633647401 
1884	 0.333673203023459 
1885	 0.332984210354396 
1886	 0.332237763492007 
1887	 0.33140004250869 
1888	 0.330518229618217 
1889	 0.329581803923032 
1890	 0.328584458017921 
1891	 0.327571428407106 
1892	 0.326513608001594 
1893	 0.325433526110411 
1894	 0.324318045393407 
1895	 0.323198254741212 
1896	 0.322047493948001 
1897	 0.320861166391921 
1898	 0.319692176854077 
1899	 0.318559365732492 
1900	 0.317414696063648 
1901	 0.316290895814621 
1902	 0.315214563996847 
1903	 0.314148399473798 
1904	 0.313138864260502 
1905	 0.312168589112346 
1906	 0.311281028162085 
1907	 0.310419969464715 
1908	 0.309598495332555 
1909	 0.30882126079474 
1910	 0.308067151884101 
1911	 0.307331677525436 
1912	 0.306641443284452 
1913	 0.306000588302927 
1914	 0.305397226856148 
1915	 0.304833425004587 
1916	 0.304318373356659 
1917	 0.303850576696993 
1918	 0.303399632507059 
1919	 0.302987526766725 
1920	 0.30262787903465 
1921	 0.302297065126009 
1922	 0.302000443185512 
1923	 0.301728511785023 
1924	 0.301481861774716 
1925	 0.301250522049514 
1926	 0.301070243888466 
1927	 0.300923988239127 
1928	 0.300815029334924 
1929	 0.30073671867181 
1930	 0.300659714871363 
1931	 0.300609761675139 
1932	 0.30058647855368 
1933	 0.300592611471587 
1934	 0.300616685505027 
1935	 0.300651510591988 
1936	 0.300682443981822 
1937	 0.300763022079071 
1938	 0.300874887787172 
1939	 0.301001772227427 
1940	 0.301162075778769 
1941	 0.30134432166192 
1942	 0.301513031957917 
1943	 0.301713673745358 
1944	 0.301950166537605 
1945	 0.302178765693595 
1946	 0.302409460121227 
1947	 0.302666208963038 
1948	 0.302894537536467 
1949	 0.30310535856538 
1950	 0.303321345107575 
1951	 0.303528416418824 
1952	 0.303733555374636 
1953	 0.303949954981516 
1954	 0.304176877446072 
1955	 0.304421085145176 
1956	 0.304671267648872 
1957	 0.304943984368911 
1958	 0.305249182748357 
1959	 0.305535009471067 
1960	 0.30582263643245 
1961	 0.306125392830942 
1962	 0.306440841410882 
1963	 0.306738473701129 
1964	 0.307024579365571 
1965	 0.307340257874687 
1966	 0.307651446207951 
1967	 0.307963994238782 
1968	 0.308285424024673 
1969	 0.308626823040945 
1970	 0.308966952532985 
1971	 0.309304990340118 
1972	 0.309648806711698 
1973	 0.310018299359744 
1974	 0.310369310192216 
1975	 0.310709671551174 
1976	 0.311047520671815 
1977	 0.311391918861033 
1978	 0.311734045543574 
1979	 0.312062108651601 
1980	 0.312378361743407 
1981	 0.312693716728557 
1982	 0.312987282035929 
1983	 0.313298696401596 
1984	 0.313613116588586 
1985	 0.313935936210664 
1986	 0.314264866685685 
1987	 0.314599472023827 
1988	 0.314936434049444 
1989	 0.315287800298399 
1990	 0.31566077373017 
1991	 0.316015795671261 
1992	 0.316378991506747 
1993	 0.316764294099743 
1994	 0.317123412919627 
1995	 0.317469486178213 
1996	 0.317809829724115 
1997	 0.318137666312107 
1998	 0.318467185003071 
1999	 0.318791272505145 
2000	 0.319114483783242 
2001	 0.31944904988499 
2002	 0.319751327692623 
2003	 0.320057271557248 
2004	 0.320381122490022 
2005	 0.320696010625261 
2006	 0.321019532646354 
2007	 0.321326432389672 
2008	 0.321601459334136 
2009	 0.321922855439361 
2010	 0.322271456718021 
2011	 0.322597493587844 
2012	 0.322964579340765 
2013	 0.323283999916388 
2014	 0.323550290980003 
2015	 0.323822828009154 
2016	 0.324111979690753 
2017	 0.324400439526289 
2018	 0.324712039529851 
2019	 0.325053607318156 
2020	 0.325384066643069 
2021	 0.325735910018988 
2022	 0.326061312007086 
2023	 0.326391384472838 
2024	 0.326690555654653 
2025	 0.326956738143239 
2026	 0.327222813027642 
2027	 0.327465438180461 
2028	 0.327711706721303 
2029	 0.327969535460297 
2030	 0.328234265133214 
2031	 0.328489746016442 
2032	 0.328744286300575 
2033	 0.329009562107826 
2034	 0.329279296525168 
2035	 0.329537916197775 
2036	 0.329812905200665 
2037	 0.330064054564183 
2038	 0.330293577644787 
2039	 0.330517516226166 
2040	 0.330730831251108 
2041	 0.330943696462303 
2042	 0.331124373898668 
2043	 0.331320416302911 
2044	 0.331516787283874 
2045	 0.331709637348876 
2046	 0.33190450384515 
2047	 0.332107462791091 
2048	 0.332305847352752 
2049	 0.332512483099202 
2050	 0.332698387734143 
2051	 0.332877128522459 
2052	 0.333047238410588 
2053	 0.333194804674556 
2054	 0.33334475334472 
2055	 0.333493055202894 
2056	 0.333637321903642 
2057	 0.333784243838816 
2058	 0.333924390039857 
2059	 0.334074163994796 
2060	 0.334221756970411 
2061	 0.334391395977409 
2062	 0.334583578612985 
2063	 0.334759502504398 
2064	 0.334947333220749 
2065	 0.335123186863564 
2066	 0.335268786973431 
2067	 0.335441277471357 
2068	 0.335635176687811 
2069	 0.335824328985058 
2070	 0.335991270920222 
2071	 0.336154264209184 
2072	 0.33632222147354 
2073	 0.336466447888615 
2074	 0.336631474535634 
2075	 0.336819860561277 
2076	 0.336997694056569 
2077	 0.337171209161982 
2078	 0.337344265671258 
2079	 0.33752663842117 
2080	 0.337695416824165 
2081	 0.337857105988763 
2082	 0.338011775376316 
2083	 0.338162148167436 
2084	 0.33830394046874 
2085	 0.338431692226177 
2086	 0.33854101624836 
2087	 0.338663919092014 
2088	 0.338769034117063 
2089	 0.338904941117561 
2090	 0.33906458404777 
2091	 0.33921404469519 
2092	 0.33937503619236 
2093	 0.339528808476572 
2094	 0.339677517180783 
2095	 0.339828114761095 
2096	 0.339983974393625 
2097	 0.340131726680447 
2098	 0.340283907819616 
2099	 0.34041284653831 
2100	 0.340554041722559 
2101	 0.340694227701383 
2102	 0.340830024191737 
2103	 0.340959861690863 
2104	 0.341104960688881 
2105	 0.341230706074124 
2106	 0.341404179421982 
2107	 0.34161061342651 
2108	 0.341819907993726 
2109	 0.342068980168036 
2110	 0.342298168600974 
2111	 0.342539139273365 
2112	 0.342757579605799 
2113	 0.342966150382071 
2114	 0.34316837838469 
2115	 0.343336109600176 
2116	 0.343474224517589 
2117	 0.343613701305967 
2118	 0.34371226918947 
2119	 0.343859874491343 
2120	 0.344020585813979 
2121	 0.344189659657433 
2122	 0.344388650886252 
2123	 0.344571873264103 
2124	 0.344765471359475 
2125	 0.344936787240787 
2126	 0.345102530447191 
2127	 0.345255726070384 
2128	 0.345407417551023 
2129	 0.345522699052598 
2130	 0.345598007994207 
2131	 0.345688426997175 
2132	 0.34575885749117 
2133	 0.34579508022403 
2134	 0.345846853540564 
2135	 0.345926974856068 
2136	 0.345942146784462 
2137	 0.345919862073078 
2138	 0.345899375055874 
2139	 0.345846737758375 
2140	 0.345790223675521 
2141	 0.345728871131396 
2142	 0.345660878449885 
2143	 0.345582345563705 
2144	 0.345486451302842 
2145	 0.345375534688785 
2146	 0.345269085639618 
2147	 0.345165721488091 
2148	 0.345022180212532 
2149	 0.344886886414653 
2150	 0.34476936387589 
2151	 0.344601083889872 
2152	 0.344393549090886 
2153	 0.3441973038889 
2154	 0.343972397608941 
2155	 0.343768653923648 
2156	 0.343582250479194 
2157	 0.343374931657355 
2158	 0.343173899847855 
2159	 0.342946833862305 
2160	 0.342694972979615 
2161	 0.342440543856033 
2162	 0.342149116673073 
2163	 0.341889122039581 
2164	 0.341641714617687 
2165	 0.341395816114696 
2166	 0.341156511282957 
2167	 0.340943783162803 
2168	 0.340706183277184 
2169	 0.340464775141382 
2170	 0.340204857817622 
2171	 0.339929479536525 
2172	 0.33965780265285 
2173	 0.339379194293375 
2174	 0.339088583536923 
2175	 0.338802727479276 
2176	 0.338494692322975 
2177	 0.338129291170766 
2178	 0.33781877390108 
2179	 0.33752644112552 
2180	 0.337237542884476 
2181	 0.336978626942414 
2182	 0.33672391205181 
2183	 0.336462896087429 
2184	 0.336220647288314 
2185	 0.335975075629696 
2186	 0.335750200444813 
2187	 0.33549898270326 
2188	 0.335243013553668 
2189	 0.33496818862847 
2190	 0.33466037891465 
2191	 0.334390125347249 
2192	 0.334106353502562 
2193	 0.3338569364063 
2194	 0.333658947650205 
2195	 0.333434311438008 
2196	 0.333193851134395 
2197	 0.332987565839188 
2198	 0.332771024553728 
2199	 0.332598115717876 
2200	 0.332486672128191 
2201	 0.332361487020108 
2202	 0.332248910341737 
2203	 0.332145288083703 
2204	 0.332052063715764 
2205	 0.331954316944285 
2206	 0.331886313624938 
2207	 0.331835141419863 
2208	 0.33180932191365 
2209	 0.331803363514755 
2210	 0.331816949742675 
2211	 0.331865372522672 
2212	 0.331911765604813 
2213	 0.331977398633849 
2214	 0.332035764906781 
2215	 0.332105263178832 
2216	 0.332166553161894 
2217	 0.332238470234196 
2218	 0.332280898440938 
2219	 0.332306917873254 
2220	 0.332325262472049 
2221	 0.332306368652691 
2222	 0.332308623013309 
2223	 0.332314015937092 
2224	 0.332321959348962 
2225	 0.332334775792896 
2226	 0.332371213279321 
2227	 0.332347730681633 
2228	 0.332299783753008 
2229	 0.332263155797335 
2230	 0.332186541430032 
2231	 0.332139260501152 
2232	 0.332126904159792 
2233	 0.332079640498429 
2234	 0.332008500945296 
2235	 0.331955947033343 
2236	 0.33188048859021 
2237	 0.331846419585979 
2238	 0.3318439182338 
2239	 0.331838735673897 
2240	 0.331883754567009 
2241	 0.33188040196377 
2242	 0.33186008467688 
2243	 0.331819962819912 
2244	 0.331735492976523 
2245	 0.331664250695697 
2246	 0.331590243619393 
2247	 0.33150722755778 
2248	 0.331453521587683 
2249	 0.331429095163919 
2250	 0.331361615969943 
2251	 0.331282590353907 
2252	 0.33123145892112 
2253	 0.33116539436539 
2254	 0.331113873165838 
2255	 0.331094007314546 
2256	 0.331066734609749 
2257	 0.331010897294368 
2258	 0.330998510221135 
2259	 0.331040239745857 
2260	 0.331043411818872 
2261	 0.331041640788544 
2262	 0.331050085239876 
2263	 0.331044081725811 
2264	 0.331045108066059 
2265	 0.331066408856341 
2266	 0.331074285173423 
2267	 0.331050190171322 
2268	 0.331068238463973 
2269	 0.331107080471489 
2270	 0.331160363012565 
2271	 0.331215495834955 
2272	 0.331253577878847 
2273	 0.3313051313799 
2274	 0.331339626384071 
2275	 0.331364982219975 
2276	 0.331390535477124 
2277	 0.3314336525751 
2278	 0.331456447443627 
2279	 0.331503124022417 
2280	 0.331595243096507 
2281	 0.331650318327252 
2282	 0.331688457976334 
2283	 0.331731352716738 
2284	 0.331764693941917 
2285	 0.331806818821174 
2286	 0.331843523396743 
2287	 0.33188929785831 
2288	 0.331942553069334 
2289	 0.332003817890076 
2290	 0.332106612948084 
2291	 0.332155749135668 
2292	 0.332167506075862 
2293	 0.332193950486928 
2294	 0.332179520506568 
2295	 0.332192695842725 
2296	 0.332223399736125 
2297	 0.332283336875745 
2298	 0.332340890435496 
2299	 0.332376909033703 
2300	 0.332442540785418 
2301	 0.332547430895898 
2302	 0.332601215713563 
2303	 0.332644105996781 
2304	 0.33268531571434 
2305	 0.332700129425816 
2306	 0.332741681414788 
2307	 0.332816315507503 
2308	 0.332844708553731 
2309	 0.332881828199696 
2310	 0.33287567717099 
2311	 0.332819993050667 
2312	 0.332791655179825 
2313	 0.332718700516968 
2314	 0.332686411738644 
2315	 0.332692926141296 
2316	 0.332694295311321 
2317	 0.332716094335133 
2318	 0.332727432557077 
2319	 0.332727544629269 
2320	 0.332727074176669 
2321	 0.332720593531438 
2322	 0.332732545537253 
2323	 0.332740081272126 
2324	 0.332787102309154 
2325	 0.332883859172464 
2326	 0.332950429081258 
2327	 0.33304218106665 
2328	 0.333093044854976 
2329	 0.333109190373962 
2330	 0.333102219512878 
2331	 0.333078301441923 
2332	 0.333077107067515 
2333	 0.333096748173614 
2334	 0.333122173994669 
2335	 0.333177566240928 
2336	 0.333255070458961 
2337	 0.333302812518063 
2338	 0.333356746604535 
2339	 0.333359183668872 
2340	 0.33328827037464 
2341	 0.333304256935924 
2342	 0.333278720447371 
2343	 0.333176339859308 
2344	 0.333136621531131 
2345	 0.333054563094547 
2346	 0.332884281730391 
2347	 0.332781609266933 
2348	 0.332722133944206 
2349	 0.332653055740375 
2350	 0.332594298759117 
2351	 0.332520925525281 
2352	 0.332482599207116 
2353	 0.332358755395043 
2354	 0.332147757325196 
2355	 0.332015703225304 
2356	 0.331851980569066 
2357	 0.331747613710522 
2358	 0.3317355119372 
2359	 0.331671578884944 
2360	 0.331629127872348 
2361	 0.331531092831001 
2362	 0.331383441229599 
2363	 0.331263237112902 
2364	 0.331115551893669 
2365	 0.330974115217657 
2366	 0.330871653530428 
2367	 0.330725820295703 
2368	 0.330534973877317 
2369	 0.3303599619664 
2370	 0.330201987037315 
2371	 0.329986484281552 
2372	 0.329739897383156 
2373	 0.329549959749862 
2374	 0.329354070396926 
2375	 0.329175617025254 
2376	 0.329047947703805 
2377	 0.328873180365253 
2378	 0.328657269380787 
2379	 0.328424202264023 
2380	 0.328140998627509 
2381	 0.327877545027391 
2382	 0.327625291635407 
2383	 0.327446062236304 
2384	 0.327330556732333 
2385	 0.327150174601136 
2386	 0.326968296926583 
2387	 0.326705216300933 
2388	 0.32641266497165 
2389	 0.326214128098392 
2390	 0.325994660736834 
2391	 0.325810949556666 
2392	 0.325635244173159 
2393	 0.32538809442169 
2394	 0.325182765350363 
2395	 0.324911173965414 
2396	 0.32457037526522 
2397	 0.324267881767669 
2398	 0.323911188335041 
2399	 0.323603249006665 
2400	 0.323406449657424 
2401	 0.323170052815486 
2402	 0.322977793282627 
2403	 0.32284343625066 
2404	 0.322629585788661 
2405	 0.322416217977993 
2406	 0.322175751024775 
2407	 0.321897410226414 
2408	 0.321642663040361 
2409	 0.321401954935954 
2410	 0.32114623945959 
2411	 0.320876933186858 
2412	 0.320726337029301 
2413	 0.320560851411853 
2414	 0.320337288193913 
2415	 0.320166092274385 
2416	 0.319889354765221 
2417	 0.319434977090232 
2418	 0.319096193547135 
2419	 0.318787165483272 
2420	 0.318431995774941 
2421	 0.318067663298288 
2422	 0.317730072232864 
2423	 0.317343863784211 
2424	 0.317084315397874 
2425	 0.316934651601369 
2426	 0.316702537695639 
2427	 0.316531427478959 
2428	 0.31626226847658 
2429	 0.315889132568215 
2430	 0.315593258395763 
2431	 0.315281737883829 
2432	 0.315027434924273 
2433	 0.31484878996926 
2434	 0.314602615285898 
2435	 0.314367893735742 
2436	 0.314061592591527 
2437	 0.313646689689565 
2438	 0.313344376841983 
2439	 0.313067120440067 
2440	 0.31274491667726 
2441	 0.31244773122225 
2442	 0.312205309746248 
2443	 0.311977343662449 
2444	 0.311788284497609 
2445	 0.311740451122706 
2446	 0.311490239866548 
2447	 0.311040873281323 
2448	 0.310719149398727 
2449	 0.31041259182391 
2450	 0.310057214927522 
2451	 0.30966911393155 
2452	 0.309396532770667 
2453	 0.309176708973245 
2454	 0.308980638204589 
2455	 0.30897627386632 
2456	 0.308794657383318 
2457	 0.308446226594833 
2458	 0.308109744341182 
2459	 0.307728660128983 
2460	 0.307415276614288 
2461	 0.307093803272082 
2462	 0.306864722914448 
2463	 0.30668525397758 
2464	 0.306444863554337 
2465	 0.306266741749993 
2466	 0.305946074294421 
2467	 0.305550219524035 
2468	 0.305259844188727 
2469	 0.304949851081654 
2470	 0.304753466274292 
2471	 0.30450838729061 
2472	 0.304160353839907 
2473	 0.30388939922483 
2474	 0.303675575566982 
2475	 0.303286656733763 
2476	 0.303040344869719 
2477	 0.30279214390975 
2478	 0.302572965357298 
2479	 0.302492956577303 
2480	 0.302254148172578 
2481	 0.301933121594962 
2482	 0.301620998821884 
2483	 0.301342756286518 
2484	 0.30115002806908 
2485	 0.301037138796822 
2486	 0.300773553733412 
2487	 0.300505706590375 
2488	 0.300421684178735 
2489	 0.300129593857033 
2490	 0.299885791164916 
2491	 0.299776247284481 
2492	 0.299499255058645 
2493	 0.299357839342163 
2494	 0.299344866061998 
2495	 0.299352550438985 
2496	 0.299165873165407 
2497	 0.298849189438692 
2498	 0.298698556750434 
2499	 0.298272959424873 
2500	 0.297914941174567 
