Wavelength	MM200000.asd
350	 0.056600128217951 
351	 5.89094778095666E-02 
352	 5.88688266154934E-02 
353	 5.50232881779223E-02 
354	 4.97536605956945E-02 
355	 5.83144979586459E-02 
356	 6.62461065154241E-02 
357	 5.96740947175263E-02 
358	 0.058672012905788 
359	 5.74047275657198E-02 
360	 5.55830644241769E-02 
361	 5.63347496008497E-02 
362	 5.39381306540233E-02 
363	 5.40707125373906E-02 
364	 0.057340472413434 
365	 5.42964006291561E-02 
366	 5.22322052871978E-02 
367	 5.24804954070732E-02 
368	 5.43045035335455E-02 
369	 5.58262722054501E-02 
370	 5.70816160266865E-02 
371	 5.82618067325896E-02 
372	 5.94101047842387E-02 
373	 5.77937503174562E-02 
374	 5.72970045140774E-02 
375	 5.91092267170238E-02 
376	 5.84037586751511E-02 
377	 5.74848674498311E-02 
378	 5.74834370464013E-02 
379	 5.85890230712904E-02 
380	 5.84718486996099E-02 
381	 5.82428379952797E-02 
382	 5.94589750798495E-02 
383	 6.32549107710366E-02 
384	 6.26426282168768E-02 
385	 5.99780357525843E-02 
386	 0.058568395203448 
387	 6.11416636957619E-02 
388	 6.06476120870307E-02 
389	 0.059479967585469 
390	 6.14741588432328E-02 
391	 6.15107637034186E-02 
392	 6.24420096776514E-02 
393	 6.46627510476295E-02 
394	 6.61770255160239E-02 
395	 6.55446496391464E-02 
396	 6.53060501551573E-02 
397	 6.67869965285597E-02 
398	 6.74280701858224E-02 
399	 6.72129624051433E-02 
400	 6.73734483117936E-02 
401	 6.88977978001926E-02 
402	 6.83907846268053E-02 
403	 6.81320652174554E-02 
404	 0.068803706307648 
405	 6.91521282843225E-02 
406	 6.94253160957632E-02 
407	 7.03545438714209E-02 
408	 7.17114335195394E-02 
409	 7.04083683954188E-02 
410	 6.98123414018538E-02 
411	 0.070748714878925 
412	 7.24368174614225E-02 
413	 7.23587906174332E-02 
414	 7.18836593646512E-02 
415	 7.19703834251264E-02 
416	 7.25825687315866E-02 
417	 7.27923379589357E-02 
418	 0.072633395662163 
419	 7.24889314087752E-02 
420	 7.31320828957358E-02 
421	 0.072530286894417 
422	 7.17197246701784E-02 
423	 7.32693588413047E-02 
424	 7.33991646626559E-02 
425	 0.073214403450533 
426	 7.34690621456917E-02 
427	 7.30840805078977E-02 
428	 7.26836052298604E-02 
429	 7.26205576842736E-02 
430	 7.29413128036907E-02 
431	 7.26816622323369E-02 
432	 7.22463036031329E-02 
433	 7.20081321731085E-02 
434	 7.22014974548562E-02 
435	 7.21081394304464E-02 
436	 7.19828211534894E-02 
437	 7.20291441554684E-02 
438	 7.17582304850856E-02 
439	 7.16065292672061E-02 
440	 7.18120579973872E-02 
441	 0.072398971995479 
442	 7.26502236919806E-02 
443	 7.25706958975348E-02 
444	 0.072442412003491 
445	 7.28346649863532E-02 
446	 7.31044475979502E-02 
447	 7.33167676288248E-02 
448	 7.36274748310261E-02 
449	 0.073632653983813 
450	 7.38666666850097E-02 
451	 7.42975437262225E-02 
452	 7.44242039442228E-02 
453	 7.47006659576949E-02 
454	 7.47923331518916E-02 
455	 7.45973636420469E-02 
456	 7.49162580076442E-02 
457	 7.52129389249032E-02 
458	 7.53543491353929E-02 
459	 7.53925964673295E-02 
460	 7.53290801380453E-02 
461	 7.53899341442176E-02 
462	 7.56017309716887E-02 
463	 7.56937472853369E-02 
464	 7.58355407176611E-02 
465	 7.59655963893668E-02 
466	 7.60244912330857E-02 
467	 7.62089278224702E-02 
468	 7.64118288815894E-02 
469	 0.076470395027076 
470	 7.62329179190611E-02 
471	 7.63404992561398E-02 
472	 7.64961830317759E-02 
473	 7.64829624233912E-02 
474	 7.66936164052862E-02 
475	 7.66968073938313E-02 
476	 7.65439849235397E-02 
477	 7.65036882742634E-02 
478	 0.076725997260164 
479	 7.68631859616295E-02 
480	 7.68052541320968E-02 
481	 7.68251482385574E-02 
482	 7.68615530782885E-02 
483	 7.69825574924905E-02 
484	 7.71854758629581E-02 
485	 7.70583477954267E-02 
486	 7.70538903812891E-02 
487	 0.077242236096389 
488	 7.73581619995148E-02 
489	 7.73566830862474E-02 
490	 7.73551863254925E-02 
491	 7.74181257621911E-02 
492	 7.74060903535609E-02 
493	 7.72933501739996E-02 
494	 0.077259127349616 
495	 7.75129951952503E-02 
496	 7.76854736961912E-02 
497	 7.78015505816286E-02 
498	 7.78855109747263E-02 
499	 7.79011079710468E-02 
500	 7.77918605220179E-02 
501	 0.077720782465411 
502	 7.78381869525345E-02 
503	 7.79528881280336E-02 
504	 7.80447847837102E-02 
505	 7.80978474817471E-02 
506	 7.81001858381323E-02 
507	 7.81621452148591E-02 
508	 7.82295909627546E-02 
509	 7.82386531309635E-02 
510	 7.81762093904789E-02 
511	 7.81785726361844E-02 
512	 7.82625829100378E-02 
513	 7.83790118013864E-02 
514	 7.85609068683922E-02 
515	 7.86430842509418E-02 
516	 7.86193267396074E-02 
517	 7.87961063793965E-02 
518	 7.88099791263147E-02 
519	 7.87787170875113E-02 
520	 7.88968354942686E-02 
521	 7.88710409037683E-02 
522	 7.89280136304447E-02 
523	 7.91016418247355E-02 
524	 7.91988320498259E-02 
525	 7.91715400275469E-02 
526	 7.91414222765709E-02 
527	 7.92187607303845E-02 
528	 7.93549075695882E-02 
529	 7.94326652925403E-02 
530	 7.94741973618035E-02 
531	 0.079583639291208 
532	 7.96401879654287E-02 
533	 7.97345884765431E-02 
534	 7.99042951141683E-02 
535	 0.080013915271687 
536	 8.01569916162138E-02 
537	 8.02846647269918E-02 
538	 8.03227211363287E-02 
539	 8.04082559241669E-02 
540	 8.05254013087484E-02 
541	 8.06336374577692E-02 
542	 8.06765693937481E-02 
543	 8.07355565913728E-02 
544	 8.08616089505935E-02 
545	 0.081071895775061 
546	 8.13123730322944E-02 
547	 8.14704855049463E-02 
548	 0.081579534105437 
549	 8.17869344362279E-02 
550	 8.19386904100853E-02 
551	 8.20718065157489E-02 
552	 8.22599527967196E-02 
553	 0.082602528515559 
554	 8.28417897852221E-02 
555	 8.29902849120247E-02 
556	 8.32041548815158E-02 
557	 8.35031407020407E-02 
558	 8.37871336622552E-02 
559	 8.40512033276925E-02 
560	 8.44922335459038E-02 
561	 0.084883564467168 
562	 8.52124094940302E-02 
563	 8.55533386832047E-02 
564	 8.60095972138161E-02 
565	 8.64905892131083E-02 
566	 8.69689438880873E-02 
567	 8.75017080361672E-02 
568	 8.80420607083134E-02 
569	 8.85918984783638E-02 
570	 8.91490969923314E-02 
571	 8.96526083600845E-02 
572	 9.01889132143449E-02 
573	 0.090816862569813 
574	 9.15543353213926E-02 
575	 9.22104610546881E-02 
576	 9.28476719336776E-02 
577	 9.35460412057431E-02 
578	 9.43323538568573E-02 
579	 9.51755307851066E-02 
580	 9.60600180246174E-02 
581	 0.09697505083503 
582	 9.79087408970482E-02 
583	 9.88055887944171E-02 
584	 9.96618538429186E-02 
585	 0.100551912711941 
586	 0.101504233295983 
587	 0.102492040570852 
588	 0.103474933335896 
589	 0.104449609192065 
590	 0.105466021652102 
591	 0.106511113470764 
592	 0.107515763332125 
593	 0.108436000564802 
594	 0.109390916383199 
595	 0.110458890189032 
596	 0.111540248575599 
597	 0.112591773807154 
598	 0.113590277073766 
599	 0.114540103994723 
600	 0.115510781118504 
601	 0.116466521635112 
602	 0.117364995836923 
603	 0.118172142580601 
604	 0.118999816645098 
605	 0.119848787727841 
606	 0.120672039002807 
607	 0.12140885525469 
608	 0.122129359629557 
609	 0.122874755661717 
610	 0.123643442792321 
611	 0.124317987322235 
612	 0.124944569242759 
613	 0.1255842708386 
614	 0.126212197192875 
615	 0.126784584078564 
616	 0.127286433145165 
617	 0.127731504517506 
618	 0.128235602844839 
619	 0.128684668675168 
620	 0.129025209778719 
621	 0.1294025199608 
622	 0.129792766551306 
623	 0.130178735542547 
624	 0.130544514794999 
625	 0.130902565837681 
626	 0.131258446424766 
627	 0.131598043307096 
628	 0.131881478096035 
629	 0.132234956834035 
630	 0.132574312290912 
631	 0.13281406286949 
632	 0.133102214101315 
633	 0.133370776287948 
634	 0.133645695885516 
635	 0.134018176541501 
636	 0.134287885799319 
637	 0.134543829602708 
638	 0.13485472238736 
639	 0.13510904598169 
640	 0.135364912627377 
641	 0.135661280034691 
642	 0.136012156276562 
643	 0.136311546301675 
644	 0.136599289214391 
645	 0.136908634620637 
646	 0.137242750515936 
647	 0.137540329603723 
648	 0.137819111768924 
649	 0.13812337611045 
650	 0.138498821210693 
651	 0.138858317509951 
652	 0.139194046122956 
653	 0.139567622625709 
654	 0.139936728383365 
655	 0.140287558243143 
656	 0.140630539614695 
657	 0.141023393764391 
658	 0.141417161804913 
659	 0.141809756152556 
660	 0.142210020020009 
661	 0.142528586575707 
662	 0.142931041614248 
663	 0.143455527687832 
664	 0.143924725790504 
665	 0.144366341885996 
666	 0.144817357789302 
667	 0.145299118497769 
668	 0.145725947275782 
669	 0.146204089910044 
670	 0.146734921117319 
671	 0.147229477601427 
672	 0.147715933789072 
673	 0.148229124719478 
674	 0.148778806598522 
675	 0.149308351678362 
676	 0.149888065908983 
677	 0.15047171357299 
678	 0.150990423836317 
679	 0.151597817536203 
680	 0.15220804096219 
681	 0.152798969204139 
682	 0.153459745770237 
683	 0.15408057969276 
684	 0.154700687278164 
685	 0.155375032683048 
686	 0.156075473700597 
687	 0.156732606431822 
688	 0.157363323202072 
689	 0.158040249188499 
690	 0.158693238220429 
691	 0.159363858868787 
692	 0.160087933815842 
693	 0.16087123973825 
694	 0.1615835277585 
695	 0.16226506693116 
696	 0.163002769426447 
697	 0.163736493503488 
698	 0.164482314472647 
699	 0.165255091288142 
700	 0.166060120092662 
701	 0.166797437457312 
702	 0.167524484503238 
703	 0.168297743723536 
704	 0.169069785836242 
705	 0.169855591153239 
706	 0.170645912805132 
707	 0.171419899695372 
708	 0.172171139029744 
709	 0.172942219941029 
710	 0.173735483377531 
711	 0.174489282619453 
712	 0.175251248947109 
713	 0.176010146568122 
714	 0.176749388823242 
715	 0.177489780663438 
716	 0.178239391153411 
717	 0.178990268513379 
718	 0.179719892812892 
719	 0.18039304719378 
720	 0.181040406383491 
721	 0.181688027647662 
722	 0.18233355531588 
723	 0.182964276302928 
724	 0.183609863137558 
725	 0.184280372588647 
726	 0.184812363259283 
727	 0.185351241373283 
728	 0.185900068948851 
729	 0.18632768439022 
730	 0.186833780838643 
731	 0.187326293840771 
732	 0.187724083500135 
733	 0.18809387943568 
734	 0.188507345428218 
735	 0.188903658323456 
736	 0.189192917505727 
737	 0.189501262949294 
738	 0.189759459051108 
739	 0.189961683207614 
740	 0.190183413268623 
741	 0.190381624669056 
742	 0.190550163108463 
743	 0.190674607243237 
744	 0.190686121857126 
745	 0.190734652036733 
746	 0.190802014419486 
747	 0.190797891406637 
748	 0.190760594083731 
749	 0.190731430426332 
750	 0.19068522306138 
751	 0.190520037352004 
752	 0.190361954141806 
753	 0.190220710081158 
754	 0.190067325632265 
755	 0.189841684438696 
756	 0.189631894990391 
757	 0.189424424475191 
758	 0.18915991103698 
759	 0.18886726631941 
760	 0.188542125742996 
761	 0.18820636692612 
762	 0.187914668970458 
763	 0.187594754459554 
764	 0.187227486188065 
765	 0.186830236633331 
766	 0.186487559593955 
767	 0.186101988110093 
768	 0.185659012759714 
769	 0.185195731986805 
770	 0.184774598934192 
771	 0.184368198493204 
772	 0.18393538734747 
773	 0.183433499272415 
774	 0.182952538228345 
775	 0.182497295289112 
776	 0.182049384641853 
777	 0.181589811677219 
778	 0.18110603245251 
779	 0.180599081812688 
780	 0.180083440127276 
781	 0.179601996047431 
782	 0.179133487801585 
783	 0.178651658652039 
784	 0.178137993732717 
785	 0.177712660984535 
786	 0.17727959799745 
787	 0.176772889362742 
788	 0.176300978515934 
789	 0.175809363369761 
790	 0.175303140007336 
791	 0.174815213094473 
792	 0.174410869169116 
793	 0.173962429363848 
794	 0.173454587363657 
795	 0.17297733843833 
796	 0.172522469194942 
797	 0.172063264316096 
798	 0.171588239591538 
799	 0.171118296958335 
800	 0.170701529180832 
801	 0.170316115046857 
802	 0.169912474945933 
803	 0.1694252715715 
804	 0.169006683148912 
805	 0.1686577199434 
806	 0.168281241173418 
807	 0.167862369121564 
808	 0.167428045926361 
809	 0.167025201025744 
810	 0.166711132113754 
811	 0.166373392329681 
812	 0.166018553183538 
813	 0.16567349911755 
814	 0.16534376933869 
815	 0.164982896328281 
816	 0.164620034431641 
817	 0.164305052158725 
818	 0.164008749864458 
819	 0.163718033184839 
820	 0.163435626362197 
821	 0.163171902926785 
822	 0.16286162773603 
823	 0.162559149002642 
824	 0.162299233445017 
825	 0.162055449357909 
826	 0.161783343005868 
827	 0.161520557162909 
828	 0.16129772383318 
829	 0.16103991210624 
830	 0.1608155738793 
831	 0.16060643761203 
832	 0.160368901327197 
833	 0.160187435681039 
834	 0.160016568769858 
835	 0.159840045881048 
836	 0.159676283082722 
837	 0.159501372179488 
838	 0.15933198565044 
839	 0.159178629646378 
840	 0.159029851647382 
841	 0.158913149176376 
842	 0.158769837029951 
843	 0.15857301470791 
844	 0.158465078501638 
845	 0.158401058224947 
846	 0.158313514485124 
847	 0.158161134092377 
848	 0.158104256423827 
849	 0.158093808139511 
850	 0.158049259331133 
851	 0.157897010722389 
852	 0.15777937708173 
853	 0.157754779751562 
854	 0.157781516393074 
855	 0.15770156487673 
856	 0.157671197988154 
857	 0.157679785263314 
858	 0.157684822267522 
859	 0.157664542348007 
860	 0.157669215524299 
861	 0.157689267608301 
862	 0.157699456691762 
863	 0.157709570218695 
864	 0.157736001135726 
865	 0.157787601094818 
866	 0.157859415473417 
867	 0.15789093436336 
868	 0.157968974766877 
869	 0.158077977774896 
870	 0.158099771324103 
871	 0.158163100054592 
872	 0.158261818646694 
873	 0.158381430317588 
874	 0.158530482145447 
875	 0.158690647364379 
876	 0.158822792778482 
877	 0.158910646569741 
878	 0.158996344423158 
879	 0.159176027120054 
880	 0.159343477203264 
881	 0.159400097981447 
882	 0.159598124109334 
883	 0.159812450173359 
884	 0.159981823406455 
885	 0.160109900631178 
886	 0.160310210538953 
887	 0.160582411323257 
888	 0.160836316920517 
889	 0.160950691061225 
890	 0.161162938605835 
891	 0.161449920418808 
892	 0.161758382504749 
893	 0.162044357395573 
894	 0.162264497935739 
895	 0.162524622614984 
896	 0.162849670049167 
897	 0.163068416557965 
898	 0.163366495413375 
899	 0.163691813002237 
900	 0.16397706154062 
901	 0.16428356943601 
902	 0.164613069532632 
903	 0.164977981935071 
904	 0.165380015104605 
905	 0.165785670417314 
906	 0.166160764984968 
907	 0.16651233885477 
908	 0.166860139081348 
909	 0.167151885898557 
910	 0.167566246751296 
911	 0.168070831384208 
912	 0.168500215753548 
913	 0.16888078320982 
914	 0.169283457711178 
915	 0.169734372851786 
916	 0.170207367748924 
917	 0.170624128949019 
918	 0.171117613566504 
919	 0.171688002131926 
920	 0.172161267193704 
921	 0.172587029548441 
922	 0.173082262267145 
923	 0.173656117829176 
924	 0.174153940541325 
925	 0.174750820224571 
926	 0.175378165791886 
927	 0.175949816134084 
928	 0.176445372222075 
929	 0.17712497195136 
930	 0.177773287887702 
931	 0.178236304875802 
932	 0.178788242336566 
933	 0.179468541459328 
934	 0.180173733249117 
935	 0.180806679052387 
936	 0.181432049764871 
937	 0.182093421170942 
938	 0.18275824800043 
939	 0.183402366390196 
940	 0.184133124999359 
941	 0.184870559485746 
942	 0.185594784556889 
943	 0.186313343166717 
944	 0.187025564138575 
945	 0.187774407223943 
946	 0.18856186354298 
947	 0.189361453772484 
948	 0.190139537840326 
949	 0.190879249375975 
950	 0.191609306448403 
951	 0.192393671405369 
952	 0.19334187869792 
953	 0.194218189611303 
954	 0.194978269284558 
955	 0.195728946817215 
956	 0.196653810492739 
957	 0.197541679371614 
958	 0.198377195149982 
959	 0.199271386631655 
960	 0.200208776811547 
961	 0.201121899335078 
962	 0.20203800589477 
963	 0.20301032327563 
964	 0.20385677033529 
965	 0.204724870089866 
966	 0.205650989567738 
967	 0.206587920906185 
968	 0.207567712995257 
969	 0.208546271063934 
970	 0.209475202716283 
971	 0.210346161144849 
972	 0.211359915172672 
973	 0.212488942760142 
974	 0.213585857444525 
975	 0.214500549223071 
976	 0.215439819345885 
977	 0.216476277175661 
978	 0.217552818039315 
979	 0.218553477825212 
980	 0.219529873932247 
981	 0.220464287014322 
982	 0.221428627931467 
983	 0.222498335517176 
984	 0.223457991347766 
985	 0.224546424265864 
986	 0.225709879134828 
987	 0.226763444192784 
988	 0.227868267658716 
989	 0.228863064442155 
990	 0.229779222193985 
991	 0.230753105850505 
992	 0.231877237131049 
993	 0.232803791441481 
994	 0.233762946350201 
995	 0.235012693574374 
996	 0.235771549065716 
997	 0.236745562609662 
998	 0.237878768063744 
999	 0.238885787286435 
1000	 0.239905185199444 
1001	 0.24093181788807 
1002	 0.241880387664306 
1003	 0.24285734225049 
1004	 0.243801434273911 
1005	 0.244762037691377 
1006	 0.245685669363426 
1007	 0.246560626541126 
1008	 0.247468423630806 
1009	 0.24834207574416 
1010	 0.249164142165048 
1011	 0.250008368411304 
1012	 0.250840823995556 
1013	 0.25171338534436 
1014	 0.25260360996919 
1015	 0.253426086931633 
1016	 0.254212189513129 
1017	 0.255015397601675 
1018	 0.255780825579938 
1019	 0.256582736297541 
1020	 0.257402583377355 
1021	 0.258182568847264 
1022	 0.258932912258517 
1023	 0.259655718087008 
1024	 0.260403078121227 
1025	 0.261137190623266 
1026	 0.261801200834945 
1027	 0.26247092274857 
1028	 0.263112028395859 
1029	 0.26374936863589 
1030	 0.26445358485638 
1031	 0.265103921686835 
1032	 0.265729652445983 
1033	 0.266346714551971 
1034	 0.267035346434115 
1035	 0.26762870769068 
1036	 0.26826281203916 
1037	 0.268963876651786 
1038	 0.269514864225623 
1039	 0.2701062102859 
1040	 0.270731722287792 
1041	 0.271261839572726 
1042	 0.271852540463245 
1043	 0.272479378258553 
1044	 0.273047529655651 
1045	 0.273577815497154 
1046	 0.274141722390446 
1047	 0.274698650984268 
1048	 0.275218858905702 
1049	 0.275783633044677 
1050	 0.276359093522911 
1051	 0.276972965982978 
1052	 0.277576031284694 
1053	 0.278148162399388 
1054	 0.278716456281326 
1055	 0.279232452555772 
1056	 0.279788638491275 
1057	 0.280350894524169 
1058	 0.280968380632515 
1059	 0.281521200424025 
1060	 0.282065539632224 
1061	 0.282536713499472 
1062	 0.283054987627623 
1063	 0.283591048899865 
1064	 0.284121802001433 
1065	 0.284723253076255 
1066	 0.285300744928818 
1067	 0.285824037028948 
1068	 0.286392419314831 
1069	 0.286975601589894 
1070	 0.28752787723347 
1071	 0.288058050355655 
1072	 0.288596787859177 
1073	 0.289099198228624 
1074	 0.289632958339007 
1075	 0.290174872694779 
1076	 0.290722300529301 
1077	 0.291313718372144 
1078	 0.291888712114525 
1079	 0.292331593443261 
1080	 0.29276831875837 
1081	 0.293242378598104 
1082	 0.29368742068944 
1083	 0.294155645791566 
1084	 0.294707722279039 
1085	 0.295198552711339 
1086	 0.295617431315907 
1087	 0.29608564429006 
1088	 0.296580514056218 
1089	 0.29705084452865 
1090	 0.297532918358206 
1091	 0.298036046879293 
1092	 0.298515656867372 
1093	 0.298993343690316 
1094	 0.299470737804722 
1095	 0.299941823969186 
1096	 0.300417534893961 
1097	 0.300868209104146 
1098	 0.301327270891271 
1099	 0.301780991207638 
1100	 0.302235971956755 
1101	 0.302692795197338 
1102	 0.303154462402566 
1103	 0.303629648695602 
1104	 0.304069499336068 
1105	 0.304506096446844 
1106	 0.304971229980064 
1107	 0.305428621272248 
1108	 0.305868482728464 
1109	 0.306311388379621 
1110	 0.306760050327455 
1111	 0.307214170806111 
1112	 0.307662979765218 
1113	 0.308122462015979 
1114	 0.308624846872893 
1115	 0.309066030257483 
1116	 0.309471272997264 
1117	 0.309892691156789 
1118	 0.310299074747682 
1119	 0.310678416992112 
1120	 0.311120469992082 
1121	 0.31158494021484 
1122	 0.31205346972531 
1123	 0.312519059838321 
1124	 0.312947895912899 
1125	 0.313340315620093 
1126	 0.313774473932773 
1127	 0.314202163306043 
1128	 0.314633331998466 
1129	 0.315103950549304 
1130	 0.31553321584427 
1131	 0.315913476335464 
1132	 0.316335529783006 
1133	 0.316773568573029 
1134	 0.317204445764645 
1135	 0.317661928444869 
1136	 0.318102753527103 
1137	 0.318485258984166 
1138	 0.318850879968837 
1139	 0.319241613221913 
1140	 0.319614488489035 
1141	 0.320002301759762 
1142	 0.320431095351117 
1143	 0.32082035056224 
1144	 0.321186021718569 
1145	 0.321547946780875 
1146	 0.321897705541324 
1147	 0.32224541713147 
1148	 0.322580746840569 
1149	 0.322922803732656 
1150	 0.323264682632622 
1151	 0.323610224815925 
1152	 0.323962825377584 
1153	 0.324299388480976 
1154	 0.324627551069679 
1155	 0.324943039210165 
1156	 0.325272954610133 
1157	 0.325600041106663 
1158	 0.32592490499993 
1159	 0.326274953532977 
1160	 0.32658822779299 
1161	 0.326869524385977 
1162	 0.327162341009188 
1163	 0.327447398767447 
1164	 0.327730101183661 
1165	 0.328004645774156 
1166	 0.328298052658269 
1167	 0.328582915119678 
1168	 0.328868468957448 
1169	 0.329161192261687 
1170	 0.329473139945515 
1171	 0.329757425673877 
1172	 0.330039172086578 
1173	 0.330302273945525 
1174	 0.330530831603719 
1175	 0.330791284849665 
1176	 0.331063890006129 
1177	 0.331324253383009 
1178	 0.33159647717819 
1179	 0.331858863530571 
1180	 0.332092654421987 
1181	 0.332347561195124 
1182	 0.33263034575637 
1183	 0.332893071474236 
1184	 0.333139843866669 
1185	 0.333383448193121 
1186	 0.333622110156488 
1187	 0.33383210221826 
1188	 0.334068320931745 
1189	 0.334324024101362 
1190	 0.334562268037784 
1191	 0.334803818307172 
1192	 0.335030632764049 
1193	 0.335245516279799 
1194	 0.335459529468771 
1195	 0.335668514201079 
1196	 0.335869754180486 
1197	 0.336060827319327 
1198	 0.336255323842959 
1199	 0.336447750919841 
1200	 0.336637643900133 
1201	 0.336816297895389 
1202	 0.336993915386028 
1203	 0.337165563830265 
1204	 0.337312677962198 
1205	 0.337488981655987 
1206	 0.337686359591355 
1207	 0.337864652517287 
1208	 0.338049199452362 
1209	 0.338224062318515 
1210	 0.338388389416252 
1211	 0.338546153515874 
1212	 0.338697045759959 
1213	 0.338849582740329 
1214	 0.339003643429288 
1215	 0.339141641723233 
1216	 0.339272313151634 
1217	 0.339395304919611 
1218	 0.339530762351813 
1219	 0.339662669804315 
1220	 0.339785185018967 
1221	 0.339912484682516 
1222	 0.340040888676336 
1223	 0.340154492066223 
1224	 0.34027472517218 
1225	 0.340419206702565 
1226	 0.340538477957527 
1227	 0.340633156393656 
1228	 0.34073884824489 
1229	 0.34084371662737 
1230	 0.340946550957398 
1231	 0.341054263626944 
1232	 0.341155299941049 
1233	 0.341252128396831 
1234	 0.341337854871991 
1235	 0.341440651059585 
1236	 0.341540004563663 
1237	 0.341660311290649 
1238	 0.341813276262252 
1239	 0.341928153519012 
1240	 0.342038156160125 
1241	 0.34214456013608 
1242	 0.342230283503992 
1243	 0.342318991868898 
1244	 0.3424175820959 
1245	 0.342502852029073 
1246	 0.342555870811552 
1247	 0.342636957179622 
1248	 0.342737249580933 
1249	 0.342828120590803 
1250	 0.342919929090755 
1251	 0.3430147843481 
1252	 0.343087403874321 
1253	 0.343127263464019 
1254	 0.343196012528004 
1255	 0.343267721436461 
1256	 0.343345175226799 
1257	 0.34344075537944 
1258	 0.343521606913568 
1259	 0.343604288464729 
1260	 0.343671671603467 
1261	 0.34372959407839 
1262	 0.343781732916883 
1263	 0.343815656900804 
1264	 0.343857297369977 
1265	 0.34390588747663 
1266	 0.34394084413311 
1267	 0.343958757673746 
1268	 0.343992701032393 
1269	 0.34403119647061 
1270	 0.344068398296803 
1271	 0.34410068921891 
1272	 0.344133691789287 
1273	 0.344187625859483 
1274	 0.344236557988336 
1275	 0.344298757624925 
1276	 0.344395354724862 
1277	 0.344476174534987 
1278	 0.344540591789971 
1279	 0.344626377707897 
1280	 0.34471500739996 
1281	 0.344824052817672 
1282	 0.344966420564448 
1283	 0.345087527931123 
1284	 0.34521225508921 
1285	 0.34534003930511 
1286	 0.345443322289104 
1287	 0.345552160810462 
1288	 0.345679463908184 
1289	 0.345826134004347 
1290	 0.345954341975664 
1291	 0.346081064293327 
1292	 0.34621840925668 
1293	 0.346358727332867 
1294	 0.346485581863769 
1295	 0.346627193546094 
1296	 0.346744409520182 
1297	 0.3468291696025 
1298	 0.346929918066767 
1299	 0.347037248252923 
1300	 0.347129976747298 
1301	 0.347210049947484 
1302	 0.347296658019639 
1303	 0.347388337035973 
1304	 0.347465827888125 
1305	 0.34752247362294 
1306	 0.347585201010821 
1307	 0.347611455335295 
1308	 0.347639075684379 
1309	 0.34766622506273 
1310	 0.347692462238128 
1311	 0.347717693245795 
1312	 0.347739818338405 
1313	 0.347756074765475 
1314	 0.347771395169569 
1315	 0.347790205409636 
1316	 0.347788718534059 
1317	 0.347819474936982 
1318	 0.347880797821651 
1319	 0.347918618973519 
1320	 0.347989674430289 
1321	 0.348010505298334 
1322	 0.347989189886957 
1323	 0.347961762436064 
1324	 0.347951849657617 
1325	 0.347941863426661 
1326	 0.347966327347788 
1327	 0.348014755757822 
1328	 0.348028572402736 
1329	 0.34802147734353 
1330	 0.348022194363785 
1331	 0.348002191090599 
1332	 0.348008774124132 
1333	 0.348036322683995 
1334	 0.348048241724175 
1335	 0.348051325215152 
1336	 0.348075749961463 
1337	 0.348105327387919 
1338	 0.348133726979899 
1339	 0.348194957737975 
1340	 0.348224882107711 
1341	 0.348225913470711 
1342	 0.348237823307444 
1343	 0.348248665600151 
1344	 0.348248172618909 
1345	 0.348249701785518 
1346	 0.348276519782759 
1347	 0.348299433331179 
1348	 0.348312728566899 
1349	 0.348339979070817 
1350	 0.348363653269385 
1351	 0.348378719409744 
1352	 0.348381334102724 
1353	 0.348406155510336 
1354	 0.348434864067861 
1355	 0.348458493019973 
1356	 0.348492211475588 
1357	 0.34852551468858 
1358	 0.348555304025199 
1359	 0.348585506505589 
1360	 0.348615767634378 
1361	 0.348657571038725 
1362	 0.348705032287356 
1363	 0.348739720058898 
1364	 0.348779863538794 
1365	 0.348821550508929 
1366	 0.34883979180369 
1367	 0.3488808701843 
1368	 0.348968691689637 
1369	 0.349026918173394 
1370	 0.349071359586329 
1371	 0.349129481804716 
1372	 0.349159138030531 
1373	 0.349174857332792 
1374	 0.349173024193783 
1375	 0.349166717673974 
1376	 0.349129659194914 
1377	 0.349060835384962 
1378	 0.348992591653514 
1379	 0.348906670974008 
1380	 0.34882295639835 
1381	 0.348710855249793 
1382	 0.348638256114498 
1383	 0.348587622820288 
1384	 0.348526394856244 
1385	 0.34851363752725 
1386	 0.348438984373649 
1387	 0.348333200039635 
1388	 0.348210713432103 
1389	 0.348053499816304 
1390	 0.347884226645349 
1391	 0.34771272001793 
1392	 0.347525551993714 
1393	 0.347316823673588 
1394	 0.347092620258072 
1395	 0.346851470336755 
1396	 0.346608461041416 
1397	 0.346369610965712 
1398	 0.346130047246428 
1399	 0.345892273467735 
1400	 0.345661365569162 
1401	 0.345412122197931 
1402	 0.34515768460761 
1403	 0.344900586730698 
1404	 0.344620873961424 
1405	 0.344365630781023 
1406	 0.344121890861967 
1407	 0.343876470873219 
1408	 0.343628275448312 
1409	 0.343402162586083 
1410	 0.343172049957333 
1411	 0.3429766427811 
1412	 0.342795722778402 
1413	 0.342651853228843 
1414	 0.342572169958989 
1415	 0.342492281989927 
1416	 0.342444203608701 
1417	 0.342434497536839 
1418	 0.342404961706764 
1419	 0.3423836178871 
1420	 0.342383764292099 
1421	 0.342385161672226 
1422	 0.342388128679645 
1423	 0.342394423566693 
1424	 0.342391419605704 
1425	 0.342393868326292 
1426	 0.342369220999445 
1427	 0.342313800571357 
1428	 0.342288840710298 
1429	 0.342259270931133 
1430	 0.342238769862235 
1431	 0.342247277595074 
1432	 0.34223659501852 
1433	 0.342210152958911 
1434	 0.342196364406516 
1435	 0.342177829441049 
1436	 0.342174606881875 
1437	 0.342184743590864 
1438	 0.342191082802207 
1439	 0.342205605261588 
1440	 0.342224415491883 
1441	 0.342218781641257 
1442	 0.342222167404333 
1443	 0.342233580143088 
1444	 0.342233526302997 
1445	 0.342256582275562 
1446	 0.342288082857659 
1447	 0.342310909350569 
1448	 0.342338965610648 
1449	 0.342358736388446 
1450	 0.342367827804457 
1451	 0.342370851168646 
1452	 0.342354560163907 
1453	 0.342365836293458 
1454	 0.342374281384295 
1455	 0.342406174968045 
1456	 0.342479136155716 
1457	 0.342511172971024 
1458	 0.342541014228551 
1459	 0.342557140190021 
1460	 0.342539797181515 
1461	 0.342543910936501 
1462	 0.342545802985822 
1463	 0.342563212833328 
1464	 0.342591628680402 
1465	 0.342621264251223 
1466	 0.342665108401716 
1467	 0.342705629701556 
1468	 0.342738840283296 
1469	 0.342787963040564 
1470	 0.342843485960155 
1471	 0.342905252015471 
1472	 0.342991540694841 
1473	 0.343082586561494 
1474	 0.343155641579017 
1475	 0.343232866266307 
1476	 0.343299395956759 
1477	 0.343360161478671 
1478	 0.343467153081569 
1479	 0.343578432888149 
1480	 0.34369016528616 
1481	 0.343828285505134 
1482	 0.343944524590825 
1483	 0.34405008210196 
1484	 0.344161542990854 
1485	 0.34427077052548 
1486	 0.344378395582963 
1487	 0.344484735404689 
1488	 0.34459158410369 
1489	 0.344701064929734 
1490	 0.344802322785353 
1491	 0.344897328490316 
1492	 0.345003214438092 
1493	 0.345113839396224 
1494	 0.345210021423662 
1495	 0.345313757770605 
1496	 0.345400436775866 
1497	 0.345453415629782 
1498	 0.345532571438035 
1499	 0.345624816323585 
1500	 0.345706848299215 
1501	 0.345799642150225 
1502	 0.34588046649181 
1503	 0.345944725952051 
1504	 0.346009881264128 
1505	 0.34609513240734 
1506	 0.346185464577 
1507	 0.346276804989504 
1508	 0.346363613394711 
1509	 0.346418743485976 
1510	 0.34646599789729 
1511	 0.346523632562307 
1512	 0.346579501635468 
1513	 0.346669959193465 
1514	 0.346774980597525 
1515	 0.346875601158459 
1516	 0.346977215948819 
1517	 0.347048348672567 
1518	 0.347090902832841 
1519	 0.347150182889347 
1520	 0.347188533788535 
1521	 0.347256456453055 
1522	 0.347348269085238 
1523	 0.347431396271844 
1524	 0.347524264964313 
1525	 0.347606492135271 
1526	 0.347679784640314 
1527	 0.347758680651611 
1528	 0.34784257321609 
1529	 0.347913849320954 
1530	 0.347982549850411 
1531	 0.348051163666156 
1532	 0.348102192068832 
1533	 0.348171618979445 
1534	 0.348269546602631 
1535	 0.348333184138708 
1536	 0.348374327337215 
1537	 0.348429278162547 
1538	 0.348469568537388 
1539	 0.348517611002899 
1540	 0.348598777687413 
1541	 0.348652683163755 
1542	 0.348691028241755 
1543	 0.348719559706853 
1544	 0.348726329446784 
1545	 0.348736944497744 
1546	 0.348737376694224 
1547	 0.348736883074392 
1548	 0.348766508525976 
1549	 0.348800845947358 
1550	 0.348838590979566 
1551	 0.348908135754123 
1552	 0.348970548000213 
1553	 0.349026185569148 
1554	 0.349096118697449 
1555	 0.349154525672077 
1556	 0.349204336161008 
1557	 0.349269897597975 
1558	 0.349341375055778 
1559	 0.349402230335357 
1560	 0.349449279774217 
1561	 0.349484276317495 
1562	 0.349528658080199 
1563	 0.349559796153309 
1564	 0.349604710777633 
1565	 0.349663871679533 
1566	 0.349725320729628 
1567	 0.349783264138732 
1568	 0.349850421600406 
1569	 0.349942346541306 
1570	 0.349998638187805 
1571	 0.350049899870303 
1572	 0.35008341684519 
1573	 0.350090167127819 
1574	 0.35009858685738 
1575	 0.350085225695097 
1576	 0.350098297080734 
1577	 0.350119945673719 
1578	 0.350138040806045 
1579	 0.350166074746675 
1580	 0.350195629125157 
1581	 0.350223734988645 
1582	 0.350251997198719 
1583	 0.350286980226767 
1584	 0.350323233369352 
1585	 0.350351734294489 
1586	 0.35038771398369 
1587	 0.350434711392005 
1588	 0.350480267634612 
1589	 0.350531936755404 
1590	 0.350571690855304 
1591	 0.350621797209704 
1592	 0.350644779209723 
1593	 0.350629900342965 
1594	 0.35064016214249 
1595	 0.350646047835306 
1596	 0.350658107885116 
1597	 0.350682522525022 
1598	 0.350711847606931 
1599	 0.350752437764052 
1600	 0.350779467943028 
1601	 0.350806781102832 
1602	 0.350835670633354 
1603	 0.350859736369567 
1604	 0.350872441481996 
1605	 0.350873473696207 
1606	 0.350890444613519 
1607	 0.350910240445168 
1608	 0.350918200004657 
1609	 0.350948510183622 
1610	 0.350990842909438 
1611	 0.350985904229217 
1612	 0.350979780252428 
1613	 0.350975801870081 
1614	 0.350967578418603 
1615	 0.350998626355496 
1616	 0.351027587660264 
1617	 0.351051335154883 
1618	 0.351077490347831 
1619	 0.351088490019841 
1620	 0.351103225734367 
1621	 0.351102588952047 
1622	 0.351090684017306 
1623	 0.351091075481879 
1624	 0.351085622948018 
1625	 0.351082913512832 
1626	 0.351086503028419 
1627	 0.35109945882843 
1628	 0.351112104335085 
1629	 0.351125870733756 
1630	 0.351163921172085 
1631	 0.351160894482502 
1632	 0.351124629556098 
1633	 0.351123196512781 
1634	 0.351115807063616 
1635	 0.351127984691486 
1636	 0.351175320425895 
1637	 0.351186656145046 
1638	 0.351177173522864 
1639	 0.351194900426984 
1640	 0.35122512717763 
1641	 0.351226808570093 
1642	 0.351233427038707 
1643	 0.351229877785559 
1644	 0.35118941316087 
1645	 0.351177269183199 
1646	 0.351183914880062 
1647	 0.351183026235365 
1648	 0.351179345667171 
1649	 0.351180134639137 
1650	 0.351184693604407 
1651	 0.351193467308215 
1652	 0.351205418278454 
1653	 0.351216450746241 
1654	 0.351242688945845 
1655	 0.351241483248727 
1656	 0.351216839555489 
1657	 0.351213288125263 
1658	 0.351202341075293 
1659	 0.351202002089214 
1660	 0.351221776466209 
1661	 0.351231819515668 
1662	 0.351243101168215 
1663	 0.351240870283952 
1664	 0.351231108286769 
1665	 0.351227099779916 
1666	 0.351201178833339 
1667	 0.351209141889534 
1668	 0.351258406479496 
1669	 0.351262383733377 
1670	 0.35125856499554 
1671	 0.351252699781675 
1672	 0.351213296769665 
1673	 0.35119868195939 
1674	 0.351202771190028 
1675	 0.351199946214868 
1676	 0.351201208521329 
1677	 0.351190819522542 
1678	 0.351178649569044 
1679	 0.351162092304712 
1680	 0.351129275999595 
1681	 0.351109413834699 
1682	 0.35109859653448 
1683	 0.351079983189353 
1684	 0.351057100167746 
1685	 0.35104206256179 
1686	 0.351003346974965 
1687	 0.351020541462762 
1688	 0.351090383967819 
1689	 0.351120546965135 
1690	 0.351171651444066 
1691	 0.351201221354477 
1692	 0.351185693629099 
1693	 0.351201323999439 
1694	 0.351234442240495 
1695	 0.351263222414886 
1696	 0.351306480149614 
1697	 0.351322775975286 
1698	 0.351334569185283 
1699	 0.351331822107077 
1700	 0.351300551243027 
1701	 0.351278133964582 
1702	 0.351248821002867 
1703	 0.351228976268349 
1704	 0.351215402511294 
1705	 0.351191096915834 
1706	 0.35117195547034 
1707	 0.351140639358897 
1708	 0.351088422116082 
1709	 0.35105176282045 
1710	 0.351005789660396 
1711	 0.350992744323107 
1712	 0.35099689179576 
1713	 0.351012095197884 
1714	 0.351069167255159 
1715	 0.351081717048861 
1716	 0.351088727198943 
1717	 0.351075723871719 
1718	 0.351030489100961 
1719	 0.351001837047969 
1720	 0.35097069195013 
1721	 0.350931272215866 
1722	 0.350898423376932 
1723	 0.350843005149946 
1724	 0.350759571139292 
1725	 0.35070462633215 
1726	 0.350634975422083 
1727	 0.350605642665075 
1728	 0.350629276916017 
1729	 0.350597308236553 
1730	 0.350571091981159 
1731	 0.350512245425931 
1732	 0.350408746978223 
1733	 0.350315304324591 
1734	 0.350209224117499 
1735	 0.350116415473994 
1736	 0.35001286498939 
1737	 0.349929186426482 
1738	 0.349852349730382 
1739	 0.349811947611662 
1740	 0.349807247097334 
1741	 0.349767057708362 
1742	 0.349739048114586 
1743	 0.349694733525875 
1744	 0.349615844508731 
1745	 0.349563683174338 
1746	 0.349534667046391 
1747	 0.34950853157439 
1748	 0.34945626132248 
1749	 0.349409038262283 
1750	 0.349359569516946 
1751	 0.349310238495449 
1752	 0.349262051057316 
1753	 0.349193494149293 
1754	 0.349140278900528 
1755	 0.349095003350493 
1756	 0.349024402781683 
1757	 0.349000748401069 
1758	 0.348973156663194 
1759	 0.348908267465319 
1760	 0.348856385615337 
1761	 0.34876306403411 
1762	 0.34866597279326 
1763	 0.348580281474904 
1764	 0.348490236923188 
1765	 0.348420449425785 
1766	 0.348344175388563 
1767	 0.348280776502535 
1768	 0.348226686366287 
1769	 0.348164827194831 
1770	 0.348100513968702 
1771	 0.348042319453265 
1772	 0.347994035265523 
1773	 0.347943083845591 
1774	 0.347908009914319 
1775	 0.347861026247258 
1776	 0.347802855927177 
1777	 0.347781584169103 
1778	 0.347782056108191 
1779	 0.34780663510265 
1780	 0.347822692714218 
1781	 0.347833672364325 
1782	 0.347826698531662 
1783	 0.347737487435912 
1784	 0.347672741154699 
1785	 0.347568428232156 
1786	 0.347484081810864 
1787	 0.347411105208111 
1788	 0.347363773672641 
1789	 0.347333183799765 
1790	 0.347317906390633 
1791	 0.347344621506234 
1792	 0.347341385165184 
1793	 0.347339407320066 
1794	 0.347308516425075 
1795	 0.347254457356726 
1796	 0.347203880723627 
1797	 0.347121094181012 
1798	 0.347063117400063 
1799	 0.347003614046077 
1800	 0.346991744699233 
1801	 0.339386123242831 
1802	 0.339519675388 
1803	 0.339619763919232 
1804	 0.33977924152367 
1805	 0.33997254333313 
1806	 0.340181022471496 
1807	 0.340430104333073 
1808	 0.34061329623443 
1809	 0.340797123013237 
1810	 0.340929797047348 
1811	 0.341019987448325 
1812	 0.341068717774419 
1813	 0.341110091898478 
1814	 0.341145321811725 
1815	 0.34117358710612 
1816	 0.341187478529827 
1817	 0.341198675294143 
1818	 0.341195423481475 
1819	 0.341211808018925 
1820	 0.34121811713525 
1821	 0.341253843173069 
1822	 0.341314836662063 
1823	 0.34134849349268 
1824	 0.341393881901913 
1825	 0.341402371478824 
1826	 0.341410933391623 
1827	 0.34148528969891 
1828	 0.341501058212567 
1829	 0.341501044985876 
1830	 0.341488697282857 
1831	 0.341465609286369 
1832	 0.341379109528371 
1833	 0.341303219080569 
1834	 0.341261774291072 
1835	 0.341228210540977 
1836	 0.341198802622802 
1837	 0.341160746815935 
1838	 0.341134057697535 
1839	 0.34112813267853 
1840	 0.341138103542524 
1841	 0.341126277674503 
1842	 0.341133963292066 
1843	 0.341168601415435 
1844	 0.341150260731552 
1845	 0.341118860118787 
1846	 0.341105830326365 
1847	 0.34106606013569 
1848	 0.340992153930444 
1849	 0.34092634603918 
1850	 0.340894202329346 
1851	 0.340866531878573 
1852	 0.340859758498424 
1853	 0.340909960071306 
1854	 0.340960498649873 
1855	 0.341004490499091 
1856	 0.341034277400947 
1857	 0.341013071811257 
1858	 0.340982244653444 
1859	 0.340923990170479 
1860	 0.34085028731666 
1861	 0.340748405578559 
1862	 0.340648813004688 
1863	 0.340518621452555 
1864	 0.340356061325831 
1865	 0.340177237430494 
1866	 0.339966580940831 
1867	 0.339755735913159 
1868	 0.339565052941013 
1869	 0.339357099791404 
1870	 0.339137456612621 
1871	 0.338909700549808 
1872	 0.338679662750087 
1873	 0.338427372725116 
1874	 0.338150466222675 
1875	 0.337882699203425 
1876	 0.337587115075683 
1877	 0.337238151017313 
1878	 0.336869073593129 
1879	 0.336436600364615 
1880	 0.335955264055778 
1881	 0.335424771773748 
1882	 0.334859743258525 
1883	 0.334256140803245 
1884	 0.33357982858917 
1885	 0.332877219996346 
1886	 0.33209385048485 
1887	 0.331246777430632 
1888	 0.330385930439193 
1889	 0.3294522423313 
1890	 0.328507654091339 
1891	 0.327536025394869 
1892	 0.32651704863536 
1893	 0.325479870296518 
1894	 0.324432126632219 
1895	 0.323338129084359 
1896	 0.322208220901421 
1897	 0.321089728457956 
1898	 0.31995823484176 
1899	 0.318842430363032 
1900	 0.317727737984767 
1901	 0.316628537207893 
1902	 0.315574483849514 
1903	 0.314540198339415 
1904	 0.313542947862794 
1905	 0.312574429989154 
1906	 0.311682121855636 
1907	 0.310792438564745 
1908	 0.309973318462137 
1909	 0.309213199613996 
1910	 0.308442930295294 
1911	 0.307725817821309 
1912	 0.307061673781211 
1913	 0.306430047910895 
1914	 0.305839397578429 
1915	 0.305282221778907 
1916	 0.30476919975924 
1917	 0.304271774360717 
1918	 0.303804457066648 
1919	 0.303390306213456 
1920	 0.303024228856353 
1921	 0.302686910592547 
1922	 0.302389152867583 
1923	 0.302120316628914 
1924	 0.301881425904389 
1925	 0.30167495822938 
1926	 0.301498455194974 
1927	 0.301356043802957 
1928	 0.301235962041658 
1929	 0.301131297255895 
1930	 0.301034115792544 
1931	 0.30099212783903 
1932	 0.300983233729244 
1933	 0.300968025916246 
1934	 0.300965063759162 
1935	 0.30099434931019 
1936	 0.301014157384415 
1937	 0.301083810894165 
1938	 0.301212556795682 
1939	 0.301348302511597 
1940	 0.301508048224011 
1941	 0.301675633334203 
1942	 0.301864462128706 
1943	 0.302058080936874 
1944	 0.302241616426875 
1945	 0.302429447890169 
1946	 0.30262176845803 
1947	 0.302814759401845 
1948	 0.30301060084649 
1949	 0.303220299071028 
1950	 0.303416016222787 
1951	 0.303598742601101 
1952	 0.303785955886967 
1953	 0.303997069160578 
1954	 0.304213987967944 
1955	 0.304456537047611 
1956	 0.304733468152757 
1957	 0.305011939943786 
1958	 0.305309630828633 
1959	 0.305606551503711 
1960	 0.305908649011699 
1961	 0.306225200088935 
1962	 0.306561933083532 
1963	 0.30688415416044 
1964	 0.307213767529158 
1965	 0.307539251069059 
1966	 0.307857286691513 
1967	 0.308169562188633 
1968	 0.308495828292254 
1969	 0.308839980944615 
1970	 0.309163376101535 
1971	 0.309476896998744 
1972	 0.309806268003977 
1973	 0.310134212656114 
1974	 0.310463132269781 
1975	 0.310799235996648 
1976	 0.311139119393904 
1977	 0.311494030476689 
1978	 0.311841406975574 
1979	 0.312196063123512 
1980	 0.312565035968928 
1981	 0.312912037248186 
1982	 0.313234741318829 
1983	 0.313577169217716 
1984	 0.313918555684497 
1985	 0.31426042312422 
1986	 0.314615199264365 
1987	 0.314955155348711 
1988	 0.3152786295563 
1989	 0.315624568202755 
1990	 0.315966734552519 
1991	 0.316298736562472 
1992	 0.316630263736416 
1993	 0.316970266304542 
1994	 0.317299682663856 
1995	 0.317615190286812 
1996	 0.31792871735193 
1997	 0.318238153739341 
1998	 0.318548937591643 
1999	 0.31885805559755 
2000	 0.319167214815022 
2001	 0.319481577403882 
2002	 0.319776841302734 
2003	 0.320094393947376 
2004	 0.320430960441222 
2005	 0.320754485137831 
2006	 0.321098206380758 
2007	 0.321422242088729 
2008	 0.321714000216821 
2009	 0.322033259989172 
2010	 0.322366690594074 
2011	 0.322694385458038 
2012	 0.323056629799193 
2013	 0.323374084913598 
2014	 0.323664832634159 
2015	 0.323951177635691 
2016	 0.324203724299398 
2017	 0.324456068284387 
2018	 0.324740898057809 
2019	 0.325053921475806 
2020	 0.325340897104151 
2021	 0.325636753532304 
2022	 0.325927646231285 
2023	 0.326203891975975 
2024	 0.326483796436487 
2025	 0.326772113078465 
2026	 0.327055603435262 
2027	 0.327338266663068 
2028	 0.327600096029198 
2029	 0.327875006273042 
2030	 0.328159363392449 
2031	 0.328427026595998 
2032	 0.328680011790838 
2033	 0.328953829178646 
2034	 0.329227256102497 
2035	 0.329508298777574 
2036	 0.329832478860107 
2037	 0.330099974238451 
2038	 0.330341650534611 
2039	 0.330578536285186 
2040	 0.330794946804659 
2041	 0.330976193603557 
2042	 0.331186106307175 
2043	 0.331417977424666 
2044	 0.331643151503932 
2045	 0.331881754115398 
2046	 0.332105692002567 
2047	 0.332338982982915 
2048	 0.332536794156249 
2049	 0.332694139624375 
2050	 0.332886357928786 
2051	 0.333071387363199 
2052	 0.333263190491252 
2053	 0.333496828791314 
2054	 0.333697408212115 
2055	 0.333868996510088 
2056	 0.33404773666175 
2057	 0.33422580682741 
2058	 0.334402615663518 
2059	 0.334561956915955 
2060	 0.334716349011826 
2061	 0.334867981545773 
2062	 0.334987209014191 
2063	 0.335138641217703 
2064	 0.335298888183023 
2065	 0.335476410207617 
2066	 0.335688762814734 
2067	 0.335880521886645 
2068	 0.3361013435688 
2069	 0.336268440444502 
2070	 0.336443892566987 
2071	 0.336601666663574 
2072	 0.336762512707538 
2073	 0.336916898634844 
2074	 0.337077167094033 
2075	 0.337238089396456 
2076	 0.337387936055172 
2077	 0.337517198013502 
2078	 0.337679961095624 
2079	 0.337862921565279 
2080	 0.338027594291499 
2081	 0.338210471210545 
2082	 0.338382980522844 
2083	 0.338544536403044 
2084	 0.338685206103597 
2085	 0.338824296568177 
2086	 0.338970585027171 
2087	 0.339094756986804 
2088	 0.339177998010288 
2089	 0.339305790010926 
2090	 0.339444367410238 
2091	 0.339587608613009 
2092	 0.339743652570169 
2093	 0.339912444393718 
2094	 0.340107567060868 
2095	 0.340274682122027 
2096	 0.340459388905655 
2097	 0.340614189786873 
2098	 0.340732715858701 
2099	 0.340841768632557 
2100	 0.340960575625248 
2101	 0.341073694783987 
2102	 0.341189707822813 
2103	 0.341288623457388 
2104	 0.341434509394114 
2105	 0.341595968846844 
2106	 0.341771198751862 
2107	 0.341996516547035 
2108	 0.342194173344983 
2109	 0.342383987635921 
2110	 0.342578787597892 
2111	 0.342772758679285 
2112	 0.342966825828977 
2113	 0.343179971824625 
2114	 0.343368742880266 
2115	 0.343535407458906 
2116	 0.343676872173581 
2117	 0.34384365147906 
2118	 0.343990415648069 
2119	 0.344162593589583 
2120	 0.344372854919657 
2121	 0.344555872746822 
2122	 0.344722078683096 
2123	 0.344901902103639 
2124	 0.345107005717172 
2125	 0.345267736400999 
2126	 0.345414879442239 
2127	 0.345553505647443 
2128	 0.345655328557692 
2129	 0.345758023118929 
2130	 0.345869629039377 
2131	 0.345965799295695 
2132	 0.34603756349766 
2133	 0.346103091994807 
2134	 0.346120094938855 
2135	 0.346086545328211 
2136	 0.346076857952382 
2137	 0.346038238369565 
2138	 0.346008456534574 
2139	 0.345999562261611 
2140	 0.345968829148405 
2141	 0.345924857996728 
2142	 0.34586746996631 
2143	 0.345801151617595 
2144	 0.345726086764221 
2145	 0.345632418069839 
2146	 0.345533520497955 
2147	 0.345437628807085 
2148	 0.345321135983608 
2149	 0.345191485731689 
2150	 0.345041669507533 
2151	 0.344897498116823 
2152	 0.34474981099906 
2153	 0.344581812814705 
2154	 0.344407029820548 
2155	 0.344220929376318 
2156	 0.34401360563997 
2157	 0.343803395444104 
2158	 0.343590372292614 
2159	 0.343366622217799 
2160	 0.343146354886084 
2161	 0.342887843434543 
2162	 0.342567142314991 
2163	 0.342300098223321 
2164	 0.342040076792858 
2165	 0.341775970875209 
2166	 0.341520037567632 
2167	 0.341310277390441 
2168	 0.341062968295173 
2169	 0.340775937641302 
2170	 0.340528422466637 
2171	 0.340324399832306 
2172	 0.340060281501616 
2173	 0.339785796989975 
2174	 0.339489461738518 
2175	 0.339134148292431 
2176	 0.338815367965853 
2177	 0.338490624607893 
2178	 0.338188162743667 
2179	 0.33790575333347 
2180	 0.337623468043844 
2181	 0.337344523559968 
2182	 0.337086817473624 
2183	 0.336838982265291 
2184	 0.336609223931474 
2185	 0.336375031757776 
2186	 0.336171738095921 
2187	 0.335921749145834 
2188	 0.335649786762618 
2189	 0.335380790132043 
2190	 0.335093560676477 
2191	 0.334808731843049 
2192	 0.334501527841296 
2193	 0.33423456385268 
2194	 0.333953718644189 
2195	 0.333730615256414 
2196	 0.333568403842197 
2197	 0.333402003204412 
2198	 0.333268460794037 
2199	 0.333138150642266 
2200	 0.333014393611159 
2201	 0.332902601591993 
2202	 0.33281899569064 
2203	 0.332718047243397 
2204	 0.332624219175856 
2205	 0.332528180514755 
2206	 0.332452912433856 
2207	 0.332373966341597 
2208	 0.332329006393171 
2209	 0.332305716125103 
2210	 0.332306871779384 
2211	 0.332343375940353 
2212	 0.332369867004968 
2213	 0.332410617716122 
2214	 0.332461776299198 
2215	 0.332508072247093 
2216	 0.332578466795607 
2217	 0.332705078035782 
2218	 0.332779612805697 
2219	 0.332845939938735 
2220	 0.332898461191986 
2221	 0.332910368921979 
2222	 0.332929867070647 
2223	 0.332966063408457 
2224	 0.332979618107253 
2225	 0.332993620789464 
2226	 0.333017114067996 
2227	 0.332993496249868 
2228	 0.332944395266881 
2229	 0.332893192285706 
2230	 0.332797931378932 
2231	 0.332739196080807 
2232	 0.332693625815809 
2233	 0.33264533779277 
2234	 0.332599796803757 
2235	 0.332563484999603 
2236	 0.332523144733516 
2237	 0.332501956501542 
2238	 0.332511274283093 
2239	 0.332502335842237 
2240	 0.33251811187256 
2241	 0.332495273140977 
2242	 0.332437368257412 
2243	 0.332379028647907 
2244	 0.332288334897844 
2245	 0.332219980813533 
2246	 0.332135711691504 
2247	 0.332051764068335 
2248	 0.331971640496696 
2249	 0.331880772811685 
2250	 0.331806298334875 
2251	 0.33173166833026 
2252	 0.33169654119888 
2253	 0.331703619452537 
2254	 0.331665318042383 
2255	 0.331640047991064 
2256	 0.331596734915857 
2257	 0.331490822171413 
2258	 0.331451283822451 
2259	 0.331456802974223 
2260	 0.331438424387309 
2261	 0.331417664008953 
2262	 0.331422762744774 
2263	 0.331433805053122 
2264	 0.331455460882617 
2265	 0.331491741807394 
2266	 0.331556324409624 
2267	 0.331643181563376 
2268	 0.331722456070831 
2269	 0.331831710409928 
2270	 0.33195318776632 
2271	 0.332016034385058 
2272	 0.332018274461366 
2273	 0.332011295575199 
2274	 0.332004939868337 
2275	 0.332010642736928 
2276	 0.332019032805619 
2277	 0.332056201816673 
2278	 0.332121478116553 
2279	 0.332139712716321 
2280	 0.332158672166707 
2281	 0.332164325926697 
2282	 0.332114056236451 
2283	 0.332127773318734 
2284	 0.332180284054557 
2285	 0.332219916270159 
2286	 0.332281206897708 
2287	 0.332327216027612 
2288	 0.332368847373932 
2289	 0.332401631760414 
2290	 0.33242173776366 
2291	 0.332453151165625 
2292	 0.332472119596481 
2293	 0.332511005257335 
2294	 0.33257066065767 
2295	 0.33262687698829 
2296	 0.332663739297816 
2297	 0.332755211056112 
2298	 0.332875620955861 
2299	 0.332982259290306 
2300	 0.333133185764526 
2301	 0.333228132506955 
2302	 0.333263281316853 
2303	 0.333311679094419 
2304	 0.333352125926388 
2305	 0.333446127609471 
2306	 0.333514375452821 
2307	 0.333612501439681 
2308	 0.333664977641609 
2309	 0.333698620703558 
2310	 0.333689811769139 
2311	 0.333631887695373 
2312	 0.333609673037964 
2313	 0.333568137835519 
2314	 0.333529630843181 
2315	 0.333502538753216 
2316	 0.333502374904007 
2317	 0.333479482589662 
2318	 0.333501014445565 
2319	 0.33360498791773 
2320	 0.333653058619035 
2321	 0.333667179893714 
2322	 0.333721577505809 
2323	 0.333797490252241 
2324	 0.333841393539492 
2325	 0.33391389265004 
2326	 0.333952483192899 
2327	 0.333948249197185 
2328	 0.333928197093666 
2329	 0.333929470131154 
2330	 0.333904579949444 
2331	 0.333907711466913 
2332	 0.333958433967251 
2333	 0.334027448077078 
2334	 0.334103933382377 
2335	 0.334151511883298 
2336	 0.334190094841818 
2337	 0.334207542340905 
2338	 0.334207628352341 
2339	 0.334207261777864 
2340	 0.334160875322962 
2341	 0.334089072333799 
2342	 0.334010671809122 
2343	 0.333908450387374 
2344	 0.333810749839313 
2345	 0.333719569241888 
2346	 0.333637860930373 
2347	 0.333520490428702 
2348	 0.333376332946329 
2349	 0.333281737581407 
2350	 0.333190798034821 
2351	 0.333101030367234 
2352	 0.333070555127777 
2353	 0.332965193603521 
2354	 0.332772147397987 
2355	 0.332674138090904 
2356	 0.332612644859765 
2357	 0.332535854713408 
2358	 0.3325018137286 
2359	 0.332434718510051 
2360	 0.332345809028862 
2361	 0.332234920579655 
2362	 0.332126338419445 
2363	 0.331998708897497 
2364	 0.331823972846731 
2365	 0.331668446046618 
2366	 0.331526735925991 
2367	 0.33134977930124 
2368	 0.331129925764259 
2369	 0.330951551279031 
2370	 0.330771710737786 
2371	 0.330603470603253 
2372	 0.330485927083431 
2373	 0.330343235769347 
2374	 0.330128245175883 
2375	 0.329910105763845 
2376	 0.329704065455077 
2377	 0.329429264418297 
2378	 0.329151223096341 
2379	 0.32892204462261 
2380	 0.328643148414602 
2381	 0.328430879389096 
2382	 0.328305210255273 
2383	 0.328118537295777 
2384	 0.327896584753419 
2385	 0.327678188753405 
2386	 0.327413951462865 
2387	 0.327158629262863 
2388	 0.327011561737179 
2389	 0.326785338665248 
2390	 0.326534068634948 
2391	 0.32637203082472 
2392	 0.326106037123025 
2393	 0.32592304649742 
2394	 0.325783649223989 
2395	 0.325541930353332 
2396	 0.325399435172654 
2397	 0.32522921704422 
2398	 0.324968876997434 
2399	 0.324729295526836 
2400	 0.324481230880965 
2401	 0.324175523392421 
2402	 0.32394462005632 
2403	 0.323814736939662 
2404	 0.323601054257462 
2405	 0.323442110267208 
2406	 0.323290731097238 
2407	 0.322995446614658 
2408	 0.32268591257027 
2409	 0.322356383922885 
2410	 0.32199218512229 
2411	 0.321719717473915 
2412	 0.321562107145292 
2413	 0.321353761774606 
2414	 0.32105794478418 
2415	 0.320798564861048 
2416	 0.320544339238767 
2417	 0.320246405307799 
2418	 0.319950532166648 
2419	 0.319683003208722 
2420	 0.319387812640871 
2421	 0.319039758664136 
2422	 0.318761236171699 
2423	 0.31854645440151 
2424	 0.318321367363286 
2425	 0.318120868833833 
2426	 0.317793420043829 
2427	 0.317409141814282 
2428	 0.317101454468128 
2429	 0.316722898650499 
2430	 0.316422228713463 
2431	 0.316252619326426 
2432	 0.315980866118698 
2433	 0.315592356836782 
2434	 0.315324989577702 
2435	 0.315130515628887 
2436	 0.314890682758818 
2437	 0.314756219888738 
2438	 0.314553207614174 
2439	 0.314247076338954 
2440	 0.313988958272248 
2441	 0.31370989987564 
2442	 0.313412919326749 
2443	 0.313135242371037 
2444	 0.312900060052894 
2445	 0.312651163713635 
2446	 0.312432241266144 
2447	 0.312265623722609 
2448	 0.31202775020382 
2449	 0.311832414951297 
2450	 0.311544850882291 
2451	 0.311124752452691 
2452	 0.310844574398351 
2453	 0.310591691479653 
2454	 0.310311543847077 
2455	 0.310124870401674 
2456	 0.309865919270128 
2457	 0.309470958742277 
2458	 0.309185054034907 
2459	 0.308974870020267 
2460	 0.308692722421418 
2461	 0.308418243252427 
2462	 0.308094269406815 
2463	 0.307707113112774 
2464	 0.307415776503538 
2465	 0.30715654210184 
2466	 0.30690029256976 
2467	 0.306739750347887 
2468	 0.30636092573616 
2469	 0.305762352775645 
2470	 0.305436175122164 
2471	 0.305172972826201 
2472	 0.305035804474775 
2473	 0.305058060507095 
2474	 0.305052237850766 
2475	 0.304944034127495 
2476	 0.304721014119386 
2477	 0.304402351643308 
2478	 0.304007128994398 
2479	 0.30363163993547 
2480	 0.303369919673956 
2481	 0.303072482394514 
2482	 0.3026907236721 
2483	 0.30242528644344 
2484	 0.302324936498693 
2485	 0.302124416256374 
2486	 0.301945421728693 
2487	 0.301752124122115 
2488	 0.301351470170909 
2489	 0.301072914390225 
2490	 0.300862069468368 
2491	 0.300558297094326 
2492	 0.300417435601077 
2493	 0.300408725133935 
2494	 0.300192845974236 
2495	 0.29999056602338 
2496	 0.29987684731076 
2497	 0.299420572931157 
2498	 0.299086725640283 
2499	 0.299071275435801 
2500	 0.298903216025891 
