Wavelength	MM300005.asd
350	 6.24843583485835E-02 
351	 6.96062368351179E-02 
352	 6.72856113308809E-02 
353	 5.29498416895164E-02 
354	 0.056267520897866 
355	 6.44852681177828E-02 
356	 6.84107212246283E-02 
357	 6.40403568779874E-02 
358	 6.11985102685411E-02 
359	 5.76258840231098E-02 
360	 5.61663693483426E-02 
361	 6.14747866375713E-02 
362	 5.79851115759561E-02 
363	 5.77617271643177E-02 
364	 6.39201945847136E-02 
365	 6.07127312351658E-02 
366	 5.94693758983612E-02 
367	 0.059085303624886 
368	 5.69964831664508E-02 
369	 5.86984545242854E-02 
370	 5.88045043204351E-02 
371	 5.80109341333617E-02 
372	 6.06884211898472E-02 
373	 6.10579101575074E-02 
374	 6.02613542878729E-02 
375	 6.00019063390904E-02 
376	 6.13999751406974E-02 
377	 6.08665054677464E-02 
378	 6.09891844612405E-02 
379	 6.42454604835026E-02 
380	 0.064986492006917 
381	 6.21419767198574E-02 
382	 0.059855979155235 
383	 6.47898271862978E-02 
384	 6.51169755843025E-02 
385	 6.43342916299283E-02 
386	 6.52472163405814E-02 
387	 0.064976111596386 
388	 6.48853811911708E-02 
389	 6.40048441766436E-02 
390	 6.19143147100839E-02 
391	 6.41520689008419E-02 
392	 6.54684934128571E-02 
393	 6.55430427253025E-02 
394	 6.82443517194102E-02 
395	 6.88807396930571E-02 
396	 6.82663047487479E-02 
397	 6.80254166465536E-02 
398	 6.96499010882275E-02 
399	 7.04938942288555E-02 
400	 7.01785307681586E-02 
401	 6.94740934271038E-02 
402	 7.01182651425264E-02 
403	 7.07609060585327E-02 
404	 7.08886654044473E-02 
405	 7.10466097906729E-02 
406	 7.16999668622729E-02 
407	 7.26560598391455E-02 
408	 0.073408425214809 
409	 7.29347932833553E-02 
410	 7.28122053275958E-02 
411	 7.31849558765333E-02 
412	 7.35036980747449E-02 
413	 0.07367184865733 
414	 7.37712920441799E-02 
415	 7.38054528810152E-02 
416	 7.36384270291018E-02 
417	 7.36350675248946E-02 
418	 7.42738773078921E-02 
419	 0.075468304600759 
420	 7.52600592524383E-02 
421	 7.49927958725685E-02 
422	 7.50801228873165E-02 
423	 7.52633530071851E-02 
424	 7.53456115932945E-02 
425	 0.075291093282031 
426	 7.51304028853768E-02 
427	 7.49543760891268E-02 
428	 7.46585996981379E-02 
429	 7.45577451762449E-02 
430	 7.48735309933855E-02 
431	 7.47167496809433E-02 
432	 7.45927432677455E-02 
433	 7.47044901012687E-02 
434	 7.48875204079319E-02 
435	 7.46447899881717E-02 
436	 7.44965784489579E-02 
437	 7.47338174231495E-02 
438	 0.074500142931287 
439	 0.07432298428 
440	 7.42776561242747E-02 
441	 7.42724735656276E-02 
442	 7.48241353454674E-02 
443	 7.53492053436427E-02 
444	 7.55455240179858E-02 
445	 7.56739133399943E-02 
446	 7.58995056170498E-02 
447	 7.61322940088711E-02 
448	 0.076241598460595 
449	 7.62660482851447E-02 
450	 0.076545369793931 
451	 7.69905150977673E-02 
452	 7.71606562978494E-02 
453	 7.71286757213856E-02 
454	 7.71394217003285E-02 
455	 7.73608506291002E-02 
456	 7.77394761172551E-02 
457	 7.79125864926274E-02 
458	 7.78676454831996E-02 
459	 7.78053312687745E-02 
460	 0.078106832436223 
461	 7.82059182924596E-02 
462	 7.80232426924154E-02 
463	 7.82701324399993E-02 
464	 7.85691709818573E-02 
465	 7.87429532705044E-02 
466	 0.078728400840613 
467	 7.86641045504802E-02 
468	 7.88705359968301E-02 
469	 7.91600253545857E-02 
470	 7.89853868235106E-02 
471	 7.89326317017307E-02 
472	 7.90000915877603E-02 
473	 7.91037930387713E-02 
474	 7.92223174061629E-02 
475	 7.93126475053243E-02 
476	 7.93550787299069E-02 
477	 7.93493758632588E-02 
478	 7.93019677886329E-02 
479	 0.079389942198227 
480	 7.96014886010902E-02 
481	 7.96509564886016E-02 
482	 7.97779683229531E-02 
483	 7.98351546780475E-02 
484	 7.97043822941387E-02 
485	 7.98022947405973E-02 
486	 7.99523774891365E-02 
487	 8.00052541349841E-02 
488	 7.98680837418781E-02 
489	 7.97575316590658E-02 
490	 7.98052709426103E-02 
491	 0.080014821865909 
492	 8.01531033494605E-02 
493	 8.02126646165928E-02 
494	 8.01535437419644E-02 
495	 7.99906587337165E-02 
496	 8.01999394116956E-02 
497	 8.03021913480948E-02 
498	 8.01666388558289E-02 
499	 8.03098911722767E-02 
500	 0.080469004747196 
501	 0.080479880138611 
502	 8.03181055917465E-02 
503	 8.04336348283003E-02 
504	 8.06125268571839E-02 
505	 0.080706053224261 
506	 8.06608872580014E-02 
507	 8.06825672026809E-02 
508	 8.07243753653647E-02 
509	 8.07240826404568E-02 
510	 8.07089628735026E-02 
511	 8.07716865859491E-02 
512	 8.08879422893415E-02 
513	 8.09701928903087E-02 
514	 8.10023024702125E-02 
515	 8.10234943933112E-02 
516	 8.10855738795501E-02 
517	 8.12647853595119E-02 
518	 0.081320478612686 
519	 8.12899694884918E-02 
520	 0.081290012398397 
521	 0.081290351792923 
522	 0.081383628988356 
523	 8.15377344222026E-02 
524	 8.15892683713817E-02 
525	 0.081532165300593 
526	 8.14952695919555E-02 
527	 8.15694135820298E-02 
528	 8.16267379456742E-02 
529	 8.16786409307972E-02 
530	 8.17527178500192E-02 
531	 8.18758759731206E-02 
532	 8.19156165152495E-02 
533	 8.19980599140837E-02 
534	 8.21653434308481E-02 
535	 8.22065546994112E-02 
536	 0.082245779580056 
537	 8.22891522086986E-02 
538	 8.23213896264957E-02 
539	 8.25005117577995E-02 
540	 8.25763862625598E-02 
541	 8.25212276951481E-02 
542	 8.26387439274783E-02 
543	 8.27450496502361E-02 
544	 8.28374318192408E-02 
545	 8.29525442296969E-02 
546	 8.31001422621833E-02 
547	 8.31939515844398E-02 
548	 8.32652519326424E-02 
549	 8.34353917010802E-02 
550	 8.35255305196222E-02 
551	 8.36130417240591E-02 
552	 8.37677339342676E-02 
553	 8.39189281623734E-02 
554	 8.40582656043319E-02 
555	 8.41976531774725E-02 
556	 8.43623435863962E-02 
557	 8.45694609101418E-02 
558	 0.084802450089465 
559	 8.50485285068103E-02 
560	 8.53172670431205E-02 
561	 8.54812468624771E-02 
562	 0.085650814392887 
563	 8.59694449953307E-02 
564	 8.62692233063748E-02 
565	 8.65225404231649E-02 
566	 8.67712332494129E-02 
567	 0.087122334283802 
568	 8.75576061243819E-02 
569	 8.79573862931044E-02 
570	 8.82609144173321E-02 
571	 8.86909309413267E-02 
572	 8.91348353816473E-02 
573	 8.95251003687732E-02 
574	 8.98456806981023E-02 
575	 9.02808927440727E-02 
576	 9.07705875290287E-02 
577	 9.12349149256028E-02 
578	 9.16237885210066E-02 
579	 9.21261687437328E-02 
580	 9.27141614768203E-02 
581	 9.32852949205163E-02 
582	 9.39633435901872E-02 
583	 9.46254566170244E-02 
584	 9.52246831980692E-02 
585	 9.58516050864001E-02 
586	 9.64763233981774E-02 
587	 9.70654782119077E-02 
588	 9.76167317259181E-02 
589	 0.098272292242352 
590	 9.89235718880428E-02 
591	 9.95487896985047E-02 
592	 0.100210995643865 
593	 0.100829893022532 
594	 0.10144320375121 
595	 0.102096750802203 
596	 0.102805143847157 
597	 0.103498307359935 
598	 0.10415759339429 
599	 0.104803888723535 
600	 0.105509395382032 
601	 0.106188785876945 
602	 0.106798702686025 
603	 0.10740727542826 
604	 0.107970087223803 
605	 0.108523568333436 
606	 0.109108964880916 
607	 0.10963383912621 
608	 0.110136518582081 
609	 0.110639319411009 
610	 0.111138323233744 
611	 0.111640004486899 
612	 0.11215511084505 
613	 0.112667105267668 
614	 0.113073196299397 
615	 0.113458002086318 
616	 0.113854335560206 
617	 0.114252599573753 
618	 0.11463528987031 
619	 0.114929666558084 
620	 0.115145787853606 
621	 0.115489977781505 
622	 0.115794473317466 
623	 0.116058409823373 
624	 0.116339401977598 
625	 0.116623851953391 
626	 0.116865008567241 
627	 0.11707233657222 
628	 0.117331463115005 
629	 0.11759943132534 
630	 0.117860135690021 
631	 0.118095897904594 
632	 0.118248572652012 
633	 0.118441868598017 
634	 0.118679475246476 
635	 0.118869204210724 
636	 0.11909425483881 
637	 0.119312988754018 
638	 0.119492157135494 
639	 0.119666813788678 
640	 0.119864262998474 
641	 0.120087366843141 
642	 0.120320752698656 
643	 0.120531475287377 
644	 0.120730267433504 
645	 0.120928804076162 
646	 0.121131982091306 
647	 0.121359832470637 
648	 0.121571886198472 
649	 0.121747941952182 
650	 0.122033730599398 
651	 0.122305857642279 
652	 0.122508855682691 
653	 0.122662665185763 
654	 0.122904831674339 
655	 0.123149153397067 
656	 0.123338567938848 
657	 0.123598861556728 
658	 0.12385358789525 
659	 0.124126152301318 
660	 0.124458076834685 
661	 0.124658776126451 
662	 0.12490270679428 
663	 0.125246708657464 
664	 0.125529041971942 
665	 0.12577881454704 
666	 0.126037081491294 
667	 0.126333393311462 
668	 0.1266144293243 
669	 0.126912700058261 
670	 0.12723637058056 
671	 0.127570672244139 
672	 0.127919082962642 
673	 0.128249035933042 
674	 0.128553942539518 
675	 0.128897150626729 
676	 0.129280185601596 
677	 0.129651467636274 
678	 0.129957872733294 
679	 0.130324096103615 
680	 0.130698978271504 
681	 0.131068189095117 
682	 0.131485397928495 
683	 0.131883775634362 
684	 0.132271441839403 
685	 0.13266979921626 
686	 0.133068445193252 
687	 0.133487777715863 
688	 0.133932146149279 
689	 0.13438693065438 
690	 0.134757848133057 
691	 0.13514821669049 
692	 0.135619969869756 
693	 0.136098431508183 
694	 0.136579639581423 
695	 0.137031090422174 
696	 0.13743685534609 
697	 0.137904883136698 
698	 0.138391936224825 
699	 0.138863648812654 
700	 0.139306793189664 
701	 0.139787704190543 
702	 0.14027122891137 
703	 0.140728038665722 
704	 0.141212252069554 
705	 0.141692218420842 
706	 0.142173572547734 
707	 0.142674385178005 
708	 0.143152457037873 
709	 0.143630127083118 
710	 0.144115344923526 
711	 0.144587336115947 
712	 0.145052988039927 
713	 0.14551018258873 
714	 0.145961761573011 
715	 0.146436691556124 
716	 0.146886129375237 
717	 0.147312197161279 
718	 0.147751436843266 
719	 0.148174371706802 
720	 0.148586491012725 
721	 0.148996318614369 
722	 0.149411003893819 
723	 0.14981495458946 
724	 0.150188310519943 
725	 0.15052560278051 
726	 0.150895407912929 
727	 0.151243188137961 
728	 0.151554575250184 
729	 0.151858090228943 
730	 0.152176393420353 
731	 0.152459815617898 
732	 0.15268943597183 
733	 0.15295469716331 
734	 0.153179239572358 
735	 0.153368977159031 
736	 0.153554148112335 
737	 0.153684899514929 
738	 0.153846270435105 
739	 0.154031441126485 
740	 0.154128399237077 
741	 0.154264905095392 
742	 0.154356334021819 
743	 0.154347874155598 
744	 0.154385935348632 
745	 0.154413457737729 
746	 0.154424055953799 
747	 0.154429462794284 
748	 0.154403279952658 
749	 0.154366428992274 
750	 0.154319525271304 
751	 0.154234399837657 
752	 0.154128356945073 
753	 0.153996500383211 
754	 0.153843344500483 
755	 0.153715546389324 
756	 0.153577098316825 
757	 0.153397884444053 
758	 0.153168806709885 
759	 0.153004387322501 
760	 0.152800918691885 
761	 0.152545768059818 
762	 0.152362511757099 
763	 0.152122670553562 
764	 0.151840517288822 
765	 0.151564494630995 
766	 0.151343729118679 
767	 0.151092316862681 
768	 0.150794121705639 
769	 0.150478279477779 
770	 0.150201915636506 
771	 0.149942178930308 
772	 0.149654920615207 
773	 0.149285472402121 
774	 0.148988408248759 
775	 0.14869899146187 
776	 0.148357360839518 
777	 0.148062957238701 
778	 0.147739234757854 
779	 0.147403967182255 
780	 0.14710349784959 
781	 0.146773533891926 
782	 0.146445186314999 
783	 0.146134555120973 
784	 0.145834222033328 
785	 0.145522859314412 
786	 0.145206354717857 
787	 0.144889188209631 
788	 0.144555959862902 
789	 0.144227182845038 
790	 0.143904859906164 
791	 0.143587978127552 
792	 0.143303720383279 
793	 0.14300129620689 
794	 0.142681515586738 
795	 0.142390472228659 
796	 0.1421004691034 
797	 0.141802654305181 
798	 0.141499667247109 
799	 0.141208076089282 
800	 0.140936213636742 
801	 0.14066511834981 
802	 0.140379685122422 
803	 0.140116575308222 
804	 0.139844862031569 
805	 0.139576621237973 
806	 0.13934182001844 
807	 0.139070292026123 
808	 0.138800837332989 
809	 0.1385631267309 
810	 0.138356386070937 
811	 0.13811363696458 
812	 0.137846717043456 
813	 0.137591755567722 
814	 0.137397136117708 
815	 0.137201490814109 
816	 0.136988525717872 
817	 0.136766906883732 
818	 0.136564363523891 
819	 0.13635898051919 
820	 0.136148085239115 
821	 0.135948675060581 
822	 0.135774535917122 
823	 0.135608834366225 
824	 0.135428770669727 
825	 0.135208847452972 
826	 0.135085487272691 
827	 0.134986603441407 
828	 0.134820878259932 
829	 0.134629389454179 
830	 0.13446405392971 
831	 0.134336669055849 
832	 0.134229455228833 
833	 0.134106346014477 
834	 0.133949576821523 
835	 0.133785443974755 
836	 0.133671556664934 
837	 0.133529030342515 
838	 0.133432354158252 
839	 0.133400725367729 
840	 0.133320834360021 
841	 0.133228947668875 
842	 0.133119359315595 
843	 0.132999967446584 
844	 0.132952683209701 
845	 0.132882295643878 
846	 0.132791528553387 
847	 0.132723273368397 
848	 0.132657846423292 
849	 0.132572227612498 
850	 0.132503915794576 
851	 0.132523278351461 
852	 0.132484964504821 
853	 0.132428061033778 
854	 0.13239113845191 
855	 0.132370926107053 
856	 0.132330835611978 
857	 0.132298822999986 
858	 0.1322898215266 
859	 0.132239185079907 
860	 0.132236648288056 
861	 0.132282134374735 
862	 0.132336652402718 
863	 0.132358846035891 
864	 0.132365888468079 
865	 0.132361494242789 
866	 0.132344599638594 
867	 0.132342532911971 
868	 0.13236421238519 
869	 0.132416311114003 
870	 0.132499312514615 
871	 0.132539992585594 
872	 0.132564704083854 
873	 0.132609058698213 
874	 0.13269212188124 
875	 0.132778407939035 
876	 0.132846755023632 
877	 0.132895049078566 
878	 0.132951523081105 
879	 0.133069755920268 
880	 0.133194020315627 
881	 0.133258341419978 
882	 0.133330588197894 
883	 0.133431765812653 
884	 0.133544568600243 
885	 0.133638806015716 
886	 0.133751778119989 
887	 0.133882881769044 
888	 0.133997102170022 
889	 0.134053158841938 
890	 0.134205933732468 
891	 0.134384394642898 
892	 0.134546820281149 
893	 0.134724685396847 
894	 0.134872409318646 
895	 0.13500151612853 
896	 0.135139141257164 
897	 0.135317090928248 
898	 0.135495699158028 
899	 0.135669813540642 
900	 0.135846089998171 
901	 0.136034461002245 
902	 0.136237375557605 
903	 0.13645035449436 
904	 0.136654190946163 
905	 0.136778523505796 
906	 0.136986943021144 
907	 0.137246155993299 
908	 0.13746222650005 
909	 0.137789072292236 
910	 0.138034197721702 
911	 0.138223471231428 
912	 0.138508178665304 
913	 0.138756979803565 
914	 0.138967709874188 
915	 0.13918599926505 
916	 0.139475493208077 
917	 0.139748594906015 
918	 0.140028429530571 
919	 0.140311556522105 
920	 0.140557463961767 
921	 0.140887416991368 
922	 0.141237371999149 
923	 0.141559736122498 
924	 0.141881846442141 
925	 0.14220643411222 
926	 0.142528162288537 
927	 0.142837093724385 
928	 0.143118487012744 
929	 0.143420587651826 
930	 0.143790143116495 
931	 0.144212437768441 
932	 0.144546505373491 
933	 0.144878326065617 
934	 0.145238435762302 
935	 0.145634628403757 
936	 0.146065579421811 
937	 0.146419830692804 
938	 0.146750417452242 
939	 0.147150889290461 
940	 0.147640690024879 
941	 0.148086090898135 
942	 0.148523051031093 
943	 0.149004320936026 
944	 0.149354411035589 
945	 0.149675757890018 
946	 0.15011302923367 
947	 0.15071933972183 
948	 0.151112879573191 
949	 0.151570420295234 
950	 0.152078000200217 
951	 0.152500131247335 
952	 0.152951787433825 
953	 0.153406649859759 
954	 0.153897041374571 
955	 0.154457013832308 
956	 0.154942772917527 
957	 0.155486019939585 
958	 0.156048453503303 
959	 0.156512648729868 
960	 0.156985636285838 
961	 0.157539366444818 
962	 0.158115722784712 
963	 0.158609697399981 
964	 0.159165342104249 
965	 0.159730539808377 
966	 0.160335052790716 
967	 0.161024968790184 
968	 0.16155290573517 
969	 0.162147831129458 
970	 0.162780303460102 
971	 0.163280792147419 
972	 0.163912376455742 
973	 0.164563453056835 
974	 0.165144412767464 
975	 0.165659122087961 
976	 0.166423086692438 
977	 0.167114647402249 
978	 0.167673292113871 
979	 0.168251225930855 
980	 0.168939093770346 
981	 0.169642378366147 
982	 0.170320733980964 
983	 0.170974467172128 
984	 0.171562724612038 
985	 0.172166565461223 
986	 0.172782336191039 
987	 0.173380193625652 
988	 0.17407385059619 
989	 0.174874481547548 
990	 0.17561126106208 
991	 0.176151437656918 
992	 0.176934500782716 
993	 0.177572087953723 
994	 0.17815892036356 
995	 0.178909410690418 
996	 0.17950869439022 
997	 0.180211988274147 
998	 0.180946186438571 
999	 0.181566746715391 
1000	 0.182155799138992 
1001	 0.184521785660293 
1002	 0.185182805046901 
1003	 0.185851305269019 
1004	 0.186537249113334 
1005	 0.187288866397819 
1006	 0.187986297441851 
1007	 0.188672571172945 
1008	 0.189351187166235 
1009	 0.189975879109797 
1010	 0.190601964256536 
1011	 0.191269235448339 
1012	 0.191881488448656 
1013	 0.19245571191991 
1014	 0.193104316824987 
1015	 0.193715837478025 
1016	 0.194284389807652 
1017	 0.194906468529004 
1018	 0.195591815612654 
1019	 0.196209178043012 
1020	 0.196741364962896 
1021	 0.197293522039714 
1022	 0.197857477476959 
1023	 0.198440191900519 
1024	 0.199087279760566 
1025	 0.199748490774404 
1026	 0.200311618726421 
1027	 0.200849463645689 
1028	 0.201411708741903 
1029	 0.201967907956993 
1030	 0.202546747039487 
1031	 0.203089902128306 
1032	 0.203615473287432 
1033	 0.204084082121228 
1034	 0.204604602530876 
1035	 0.205182956416224 
1036	 0.205740063767738 
1037	 0.206267729273194 
1038	 0.206789355468287 
1039	 0.207292267035485 
1040	 0.207816331328638 
1041	 0.208374237278851 
1042	 0.208861300965681 
1043	 0.209333524718559 
1044	 0.209856010483428 
1045	 0.210387700594765 
1046	 0.210920274993598 
1047	 0.211459055298749 
1048	 0.211985583753161 
1049	 0.212463809724391 
1050	 0.212906609184059 
1051	 0.21343609570844 
1052	 0.214001430255566 
1053	 0.214511055908684 
1054	 0.215039921029959 
1055	 0.215571616568961 
1056	 0.216098042741683 
1057	 0.21661158616875 
1058	 0.217118492298038 
1059	 0.217624452830629 
1060	 0.218125298474841 
1061	 0.218606591237645 
1062	 0.219086283469654 
1063	 0.219587185604195 
1064	 0.22013227786006 
1065	 0.220686615118163 
1066	 0.221149819033585 
1067	 0.221622493459333 
1068	 0.222121449130534 
1069	 0.222534015939617 
1070	 0.223016425226888 
1071	 0.223608170150717 
1072	 0.224118472212373 
1073	 0.224585593249518 
1074	 0.225084526208036 
1075	 0.225597657010776 
1076	 0.226031848218231 
1077	 0.226513079938351 
1078	 0.226985223293999 
1079	 0.227384528721727 
1080	 0.227830280297159 
1081	 0.22831316759006 
1082	 0.228789106192322 
1083	 0.229269727282009 
1084	 0.229776039202207 
1085	 0.230272672161056 
1086	 0.230752288596974 
1087	 0.231243293005752 
1088	 0.231732658197005 
1089	 0.232262411233282 
1090	 0.232786921666493 
1091	 0.233289068809473 
1092	 0.233771190515054 
1093	 0.234242756987087 
1094	 0.234705067888268 
1095	 0.235141724896549 
1096	 0.235661340019619 
1097	 0.236203940997396 
1098	 0.236716430997097 
1099	 0.237243796873458 
1100	 0.237765868919719 
1101	 0.238248431827603 
1102	 0.238761645846097 
1103	 0.23930327375394 
1104	 0.239826183726057 
1105	 0.240340565917155 
1106	 0.24088168226163 
1107	 0.241450186688854 
1108	 0.242035418700805 
1109	 0.242619050142933 
1110	 0.243174486098532 
1111	 0.243745584270237 
1112	 0.244301187867885 
1113	 0.244871368275181 
1114	 0.245454763079697 
1115	 0.246049146220227 
1116	 0.246644497406246 
1117	 0.247243572264999 
1118	 0.24785835421561 
1119	 0.248478587249864 
1120	 0.249084064165625 
1121	 0.249652516620335 
1122	 0.250215647190493 
1123	 0.25081590898956 
1124	 0.251409061606725 
1125	 0.252008627056968 
1126	 0.252610472887888 
1127	 0.253212793439557 
1128	 0.253818938659366 
1129	 0.254433562035026 
1130	 0.255037893186319 
1131	 0.255649072380144 
1132	 0.256246877054178 
1133	 0.256826904013623 
1134	 0.257417578041577 
1135	 0.258017699696602 
1136	 0.258597605342743 
1137	 0.259179574265244 
1138	 0.259744542886826 
1139	 0.260304597226647 
1140	 0.260842317315558 
1141	 0.2614011675811 
1142	 0.261965698386912 
1143	 0.262528990127612 
1144	 0.263109362636406 
1145	 0.263662352967121 
1146	 0.264192234878388 
1147	 0.26473474381776 
1148	 0.265276141930795 
1149	 0.265811612346832 
1150	 0.266345595898541 
1151	 0.266884264087553 
1152	 0.267426342536976 
1153	 0.267952141170095 
1154	 0.268499701611008 
1155	 0.269073299455267 
1156	 0.269621667265924 
1157	 0.270171048120225 
1158	 0.270704179351073 
1159	 0.271220731182564 
1160	 0.27174030361065 
1161	 0.272255287800648 
1162	 0.272767466925453 
1163	 0.273282326639659 
1164	 0.273784233516813 
1165	 0.274271118117696 
1166	 0.274763105229718 
1167	 0.275250950513526 
1168	 0.275759691992382 
1169	 0.276267840781796 
1170	 0.276793146730105 
1171	 0.277300480067804 
1172	 0.277805873067291 
1173	 0.278305900290786 
1174	 0.278807952286201 
1175	 0.279292582205654 
1176	 0.279772055219796 
1177	 0.280239803646813 
1178	 0.280677911494019 
1179	 0.281134615644142 
1180	 0.281603385086943 
1181	 0.282057201229488 
1182	 0.282513170220091 
1183	 0.282963415482491 
1184	 0.283404585697383 
1185	 0.283832801291751 
1186	 0.28425641259669 
1187	 0.284673581239087 
1188	 0.285094494272069 
1189	 0.285518939159914 
1190	 0.285919619691187 
1191	 0.286315183005249 
1192	 0.286702170872385 
1193	 0.287060842040334 
1194	 0.287430481135458 
1195	 0.28780452497877 
1196	 0.288175476802364 
1197	 0.288541141542481 
1198	 0.288909622589459 
1199	 0.289279304010072 
1200	 0.289652375587449 
1201	 0.290022081447286 
1202	 0.290403203246841 
1203	 0.290750515711861 
1204	 0.291084495089905 
1205	 0.291412821122963 
1206	 0.291713604011831 
1207	 0.292027710764225 
1208	 0.29235495017899 
1209	 0.292660358256291 
1210	 0.292948346831203 
1211	 0.29324502364376 
1212	 0.293540945580926 
1213	 0.293826102138393 
1214	 0.294113290669086 
1215	 0.29439411071518 
1216	 0.294667094301349 
1217	 0.294920636964098 
1218	 0.295190179665969 
1219	 0.295473669872821 
1220	 0.295729791215825 
1221	 0.295975635032446 
1222	 0.296222370113707 
1223	 0.296447890549706 
1224	 0.296689495875582 
1225	 0.296946680624368 
1226	 0.297191274708126 
1227	 0.297444516656631 
1228	 0.297675046893635 
1229	 0.297877509903908 
1230	 0.298097380540067 
1231	 0.298308956770644 
1232	 0.298526861336393 
1233	 0.298751675523784 
1234	 0.299002896692256 
1235	 0.299212932584355 
1236	 0.299409248550454 
1237	 0.299601790870862 
1238	 0.299779630151635 
1239	 0.299952472877569 
1240	 0.300108872795105 
1241	 0.300285209326124 
1242	 0.300460236511583 
1243	 0.300636282187468 
1244	 0.300834841648114 
1245	 0.30101597520815 
1246	 0.301179011088805 
1247	 0.301351186845206 
1248	 0.301527936760919 
1249	 0.301703547622557 
1250	 0.301874817322189 
1251	 0.302013316900497 
1252	 0.30216135910662 
1253	 0.302295909378813 
1254	 0.302432245513951 
1255	 0.302576894390418 
1256	 0.302701624640197 
1257	 0.302801219093937 
1258	 0.302921772266476 
1259	 0.30304070881333 
1260	 0.303163755041835 
1261	 0.303315486228908 
1262	 0.303431428349334 
1263	 0.303523298794574 
1264	 0.303624284211547 
1265	 0.303713446619382 
1266	 0.303801262619905 
1267	 0.303886008996671 
1268	 0.303976881092332 
1269	 0.304078168312291 
1270	 0.304178095739701 
1271	 0.304279911389153 
1272	 0.304391929099774 
1273	 0.30451092562055 
1274	 0.304622399268821 
1275	 0.304750858363946 
1276	 0.304917802925019 
1277	 0.3050478529499 
1278	 0.305167962983932 
1279	 0.305278002289959 
1280	 0.305365605929772 
1281	 0.305460286134344 
1282	 0.305549393639955 
1283	 0.30564033818011 
1284	 0.305733512968151 
1285	 0.305812819420982 
1286	 0.305923507480592 
1287	 0.306053625745992 
1288	 0.306157493383616 
1289	 0.306281279155152 
1290	 0.30636112682407 
1291	 0.306397615500148 
1292	 0.306457701315779 
1293	 0.30651559663793 
1294	 0.306563325184279 
1295	 0.306614424941892 
1296	 0.306649229192114 
1297	 0.306660772866543 
1298	 0.306685480987059 
1299	 0.306718161151165 
1300	 0.306733332179881 
1301	 0.306737042309681 
1302	 0.306744250898626 
1303	 0.306742132840106 
1304	 0.306740101991191 
1305	 0.306738585775989 
1306	 0.306735468901992 
1307	 0.306735158417319 
1308	 0.306733960409639 
1309	 0.306729462453119 
1310	 0.3067384188901 
1311	 0.3067251607063 
1312	 0.306690667748036 
1313	 0.306666143253083 
1314	 0.3066263057635 
1315	 0.306610321698111 
1316	 0.306618687527407 
1317	 0.306609871782685 
1318	 0.306605448660925 
1319	 0.306596969707916 
1320	 0.30657147633978 
1321	 0.30655286598048 
1322	 0.306531947841925 
1323	 0.306525914456354 
1324	 0.306528890253649 
1325	 0.306539860385962 
1326	 0.30656628556583 
1327	 0.306586951944423 
1328	 0.306575326960232 
1329	 0.306565684384539 
1330	 0.306576589237544 
1331	 0.306590279945309 
1332	 0.306605526761701 
1333	 0.306643031416724 
1334	 0.306664686144485 
1335	 0.306670518266121 
1336	 0.306685423988523 
1337	 0.306703628239312 
1338	 0.306729972845141 
1339	 0.30675707294361 
1340	 0.306788718291765 
1341	 0.306826388054031 
1342	 0.306868776823105 
1343	 0.306917776708169 
1344	 0.306962834612844 
1345	 0.307012909138308 
1346	 0.307073012916882 
1347	 0.30712351434826 
1348	 0.307170713967177 
1349	 0.307206156285366 
1350	 0.307245993563531 
1351	 0.307296992070203 
1352	 0.307350040006703 
1353	 0.307403267390143 
1354	 0.307474819849557 
1355	 0.307524811204467 
1356	 0.307570212388568 
1357	 0.307600193346539 
1358	 0.307614631034095 
1359	 0.307633692641135 
1360	 0.30764620661194 
1361	 0.307646814104222 
1362	 0.307654302939121 
1363	 0.307638858029628 
1364	 0.307594651476208 
1365	 0.307555365034658 
1366	 0.307513139804365 
1367	 0.307466200066962 
1368	 0.30739516265561 
1369	 0.307323687071724 
1370	 0.307229262811454 
1371	 0.307108879438357 
1372	 0.306979350038145 
1373	 0.306835381569865 
1374	 0.306668305261021 
1375	 0.306485576742855 
1376	 0.306262457723064 
1377	 0.306025041459865 
1378	 0.305735609857988 
1379	 0.305414973845736 
1380	 0.305041953895164 
1381	 0.30462521075372 
1382	 0.304162167567993 
1383	 0.303645775367067 
1384	 0.303090226657044 
1385	 0.302513680450378 
1386	 0.30186735373958 
1387	 0.301177615732907 
1388	 0.300434028367516 
1389	 0.29964453309395 
1390	 0.298769486252865 
1391	 0.29784649297804 
1392	 0.296858883519558 
1393	 0.295829410620028 
1394	 0.294757147325009 
1395	 0.293638136065448 
1396	 0.292492353595024 
1397	 0.291335100973565 
1398	 0.290131665994213 
1399	 0.288954917665152 
1400	 0.287766557711203 
1401	 0.286605052108033 
1402	 0.285435864048384 
1403	 0.284307650436701 
1404	 0.28320594001286 
1405	 0.282135307299379 
1406	 0.281080076679397 
1407	 0.280072017044141 
1408	 0.279073796156258 
1409	 0.278156560985988 
1410	 0.277273112006597 
1411	 0.276483386351031 
1412	 0.275758620047316 
1413	 0.275130945950338 
1414	 0.274583356972412 
1415	 0.274087054926319 
1416	 0.273672990621951 
1417	 0.273301405568977 
1418	 0.27297817185697 
1419	 0.27269783518532 
1420	 0.272426112284878 
1421	 0.272176270872461 
1422	 0.2719256674391 
1423	 0.271689210062693 
1424	 0.271464770841785 
1425	 0.271253155593573 
1426	 0.271054210695589 
1427	 0.270865965018335 
1428	 0.270689758384423 
1429	 0.270524741072435 
1430	 0.270377913362841 
1431	 0.270243346429602 
1432	 0.270124883506846 
1433	 0.270029262488383 
1434	 0.269934806976795 
1435	 0.269850510294629 
1436	 0.269774419048936 
1437	 0.269698802124895 
1438	 0.269645841029067 
1439	 0.269604082774087 
1440	 0.269583089392456 
1441	 0.269578572689156 
1442	 0.269576015481871 
1443	 0.269583612486863 
1444	 0.269597228170372 
1445	 0.269627326533502 
1446	 0.269664651886523 
1447	 0.269694845012741 
1448	 0.269724536168089 
1449	 0.269751386417339 
1450	 0.269782914116693 
1451	 0.269820734663641 
1452	 0.269872879873545 
1453	 0.269914205300963 
1454	 0.269946990508715 
1455	 0.269993563167875 
1456	 0.270031782328535 
1457	 0.270101307700708 
1458	 0.270191696110595 
1459	 0.270291209569661 
1460	 0.270414344142485 
1461	 0.270534618096984 
1462	 0.270649124603078 
1463	 0.270791091917544 
1464	 0.270947460132169 
1465	 0.271120548652287 
1466	 0.271314491957768 
1467	 0.271523519481394 
1468	 0.271732980013873 
1469	 0.271975909644219 
1470	 0.272248084538764 
1471	 0.27254376562664 
1472	 0.272845608555366 
1473	 0.273151490717558 
1474	 0.273451228449517 
1475	 0.273756796338994 
1476	 0.274085423621443 
1477	 0.274427286826952 
1478	 0.274773236846799 
1479	 0.275117327975171 
1480	 0.275455857966519 
1481	 0.2758011879086 
1482	 0.276149135455962 
1483	 0.276498024243221 
1484	 0.276861920441988 
1485	 0.277234896584319 
1486	 0.277609084812098 
1487	 0.278003526966736 
1488	 0.27837630405441 
1489	 0.278747139481082 
1490	 0.279100658469777 
1491	 0.279430573029524 
1492	 0.279777353207319 
1493	 0.280118471732207 
1494	 0.280463728506702 
1495	 0.28082360930506 
1496	 0.281172546821711 
1497	 0.281520230613369 
1498	 0.281860628458877 
1499	 0.282193697734767 
1500	 0.282526029312346 
1501	 0.282850967447897 
1502	 0.283170349164178 
1503	 0.283483032150693 
1504	 0.283808122273093 
1505	 0.284112129610379 
1506	 0.284413519667941 
1507	 0.284720521388338 
1508	 0.285005577641341 
1509	 0.285280076598466 
1510	 0.285551920402724 
1511	 0.285819681764708 
1512	 0.286094798003485 
1513	 0.286377253935402 
1514	 0.286666411473484 
1515	 0.286938191389017 
1516	 0.287202059058772 
1517	 0.287470483727934 
1518	 0.287739267893433 
1519	 0.287994908102976 
1520	 0.288252921991799 
1521	 0.288491259573634 
1522	 0.288704476214946 
1523	 0.288932070597013 
1524	 0.289153557524456 
1525	 0.289383877540724 
1526	 0.289621819139151 
1527	 0.289855206814416 
1528	 0.2900989491682 
1529	 0.290321787641184 
1530	 0.290535061558182 
1531	 0.290746905605455 
1532	 0.29094859812912 
1533	 0.291142392659894 
1534	 0.291327162396639 
1535	 0.29151449918709 
1536	 0.291686273846552 
1537	 0.291873183362444 
1538	 0.292084369383379 
1539	 0.292270475175391 
1540	 0.292442173766688 
1541	 0.292623803574777 
1542	 0.292801887318952 
1543	 0.292972043305814 
1544	 0.293147669455576 
1545	 0.293317151420543 
1546	 0.293475578455765 
1547	 0.293622589108952 
1548	 0.293781893316163 
1549	 0.293946398302929 
1550	 0.294108188244928 
1551	 0.294276171310836 
1552	 0.294458652278116 
1553	 0.294630572984138 
1554	 0.294788697655582 
1555	 0.294947961670959 
1556	 0.295090009270566 
1557	 0.29522112922719 
1558	 0.295341388576865 
1559	 0.295457816603797 
1560	 0.295578203149655 
1561	 0.295690478089216 
1562	 0.295811049420958 
1563	 0.295940303274395 
1564	 0.296061740323108 
1565	 0.296178504801966 
1566	 0.296303289551331 
1567	 0.29643212161369 
1568	 0.296559383515102 
1569	 0.296693920999865 
1570	 0.296813848869776 
1571	 0.296922894373036 
1572	 0.297037221964589 
1573	 0.297147836791353 
1574	 0.297259719308777 
1575	 0.297381912347434 
1576	 0.297486449708395 
1577	 0.297580863661125 
1578	 0.297672280407545 
1579	 0.297758961629629 
1580	 0.297831753299629 
1581	 0.297890200097057 
1582	 0.297956033612331 
1583	 0.298006752776988 
1584	 0.298072044921651 
1585	 0.298145013369431 
1586	 0.298228775009321 
1587	 0.298323293834168 
1588	 0.2984167426733 
1589	 0.298536275583452 
1590	 0.298620302537378 
1591	 0.298672951087665 
1592	 0.298748083066933 
1593	 0.298813855106168 
1594	 0.29888759483792 
1595	 0.298982967737064 
1596	 0.299071319798404 
1597	 0.299166360722217 
1598	 0.299239763971033 
1599	 0.29930216417778 
1600	 0.299363962044002 
1601	 0.299399777266583 
1602	 0.299446950789228 
1603	 0.299508243512241 
1604	 0.299559861991372 
1605	 0.299603370027978 
1606	 0.299653763423812 
1607	 0.29969965022791 
1608	 0.299759988057013 
1609	 0.299810085140014 
1610	 0.299858864460564 
1611	 0.299915242359065 
1612	 0.299952683046794 
1613	 0.300000537968371 
1614	 0.300061737371234 
1615	 0.300095465934436 
1616	 0.300133820466189 
1617	 0.300159557882874 
1618	 0.300161390523431 
1619	 0.300194572617781 
1620	 0.30022996818268 
1621	 0.300262671035735 
1622	 0.300312158640147 
1623	 0.30033459016307 
1624	 0.300334957406757 
1625	 0.300356042431183 
1626	 0.30037574121332 
1627	 0.300400152790821 
1628	 0.300441072428846 
1629	 0.300458853727071 
1630	 0.300460800987469 
1631	 0.300480993270732 
1632	 0.300495799140089 
1633	 0.300524615313181 
1634	 0.300569400722191 
1635	 0.300610053610589 
1636	 0.300658123547147 
1637	 0.300693917346578 
1638	 0.300736923189386 
1639	 0.30075246409464 
1640	 0.3007497765169 
1641	 0.300741550162072 
1642	 0.300707778265232 
1643	 0.300698940115962 
1644	 0.300691274918456 
1645	 0.300690398801641 
1646	 0.300707060958321 
1647	 0.300710724301124 
1648	 0.300701464118886 
1649	 0.300715901664748 
1650	 0.300752552316358 
1651	 0.300754468996569 
1652	 0.300743382658358 
1653	 0.300756046710194 
1654	 0.300755992529437 
1655	 0.300764429963168 
1656	 0.300815037701087 
1657	 0.300820920747313 
1658	 0.300786449233029 
1659	 0.300778878911554 
1660	 0.300777220082583 
1661	 0.30076461600436 
1662	 0.30075574982024 
1663	 0.30073933947064 
1664	 0.300711648179571 
1665	 0.300681981542972 
1666	 0.300645034993793 
1667	 0.300620394692244 
1668	 0.300586633307007 
1669	 0.30057429915126 
1670	 0.300582036024991 
1671	 0.300589443153059 
1672	 0.300614236242715 
1673	 0.300619704166514 
1674	 0.300635182648864 
1675	 0.30061721381697 
1676	 0.300566792095833 
1677	 0.300530073761304 
1678	 0.300470990123621 
1679	 0.300436802611317 
1680	 0.300426382233203 
1681	 0.300396202909008 
1682	 0.300359515741371 
1683	 0.300334180077826 
1684	 0.300310387960568 
1685	 0.300280011304203 
1686	 0.30025810320303 
1687	 0.3002280245575 
1688	 0.300185714843644 
1689	 0.300142515168396 
1690	 0.300094424637063 
1691	 0.300059907095866 
1692	 0.300009834496823 
1693	 0.299994999885618 
1694	 0.300034154220325 
1695	 0.300017326422319 
1696	 0.300000233453577 
1697	 0.299955676354843 
1698	 0.299854513111161 
1699	 0.299788928621677 
1700	 0.299729769495462 
1701	 0.299671563739671 
1702	 0.299629143368344 
1703	 0.29956657671156 
1704	 0.299489561200361 
1705	 0.299425101147375 
1706	 0.299353950486686 
1707	 0.299292158102491 
1708	 0.29924552833983 
1709	 0.299187555708157 
1710	 0.299114951658622 
1711	 0.299070769467382 
1712	 0.299042682262547 
1713	 0.299005183962276 
1714	 0.298988826330289 
1715	 0.298948049501263 
1716	 0.298880795966703 
1717	 0.298834772995214 
1718	 0.298808171193124 
1719	 0.298741162121511 
1720	 0.298668282924149 
1721	 0.298574828280033 
1722	 0.298426096487706 
1723	 0.298330397143396 
1724	 0.29826255206267 
1725	 0.298164560291707 
1726	 0.298076631592879 
1727	 0.297972893724404 
1728	 0.297835993412834 
1729	 0.297723773071079 
1730	 0.297627608461223 
1731	 0.297512797137657 
1732	 0.297395628920591 
1733	 0.297269849108982 
1734	 0.297129722868017 
1735	 0.297000669167355 
1736	 0.296871392028566 
1737	 0.296745751632019 
1738	 0.296628155602923 
1739	 0.296496210852088 
1740	 0.296362187577011 
1741	 0.296219592047354 
1742	 0.296061004175888 
1743	 0.295915989697029 
1744	 0.295775695787594 
1745	 0.29562733600176 
1746	 0.295484705166581 
1747	 0.295316053154249 
1748	 0.295144762843195 
1749	 0.295015816104953 
1750	 0.294886601350278 
1751	 0.294746550868795 
1752	 0.294614813298716 
1753	 0.294468985828778 
1754	 0.294321686312593 
1755	 0.294213391539184 
1756	 0.294105128441774 
1757	 0.293952624882425 
1758	 0.293801879607088 
1759	 0.293660038566902 
1760	 0.293523488707769 
1761	 0.293407633632029 
1762	 0.293281779168887 
1763	 0.293149080885137 
1764	 0.293012688955658 
1765	 0.292864562261775 
1766	 0.292721590426167 
1767	 0.292548751943856 
1768	 0.29237192617578 
1769	 0.292220947561085 
1770	 0.292062003354009 
1771	 0.29195773905661 
1772	 0.291876570783577 
1773	 0.291772438645289 
1774	 0.291710250444691 
1775	 0.291633260118254 
1776	 0.2914984610117 
1777	 0.291368713286885 
1778	 0.291237858552708 
1779	 0.291121020182613 
1780	 0.29103206517695 
1781	 0.290935373615501 
1782	 0.290866764191698 
1783	 0.29076039550427 
1784	 0.290694989270202 
1785	 0.29069228915862 
1786	 0.290654199467091 
1787	 0.29062136682645 
1788	 0.290582465045014 
1789	 0.290529743222218 
1790	 0.290474275741429 
1791	 0.290416361099328 
1792	 0.290349456844819 
1793	 0.290259995185938 
1794	 0.290196292907912 
1795	 0.290146733671853 
1796	 0.290085111640815 
1797	 0.290030951183482 
1798	 0.289964087749612 
1799	 0.289871080321637 
1800	 0.289818554498209 
1801	 0.286381273842063 
1802	 0.28632906724381 
1803	 0.286286586910981 
1804	 0.286255256243294 
1805	 0.286260144778089 
1806	 0.286249609626821 
1807	 0.286224905617774 
1808	 0.286219039244131 
1809	 0.286238553276121 
1810	 0.286227910642535 
1811	 0.286205568637439 
1812	 0.286194646208358 
1813	 0.286179644206594 
1814	 0.286136978685137 
1815	 0.286127234902464 
1816	 0.28614846226374 
1817	 0.286152378406565 
1818	 0.286176013425809 
1819	 0.286151912103189 
1820	 0.286112952229626 
1821	 0.286054717215707 
1822	 0.285953909531602 
1823	 0.285886484055766 
1824	 0.285846037352097 
1825	 0.285780570439761 
1826	 0.285717012847219 
1827	 0.285648255643951 
1828	 0.285570412134679 
1829	 0.285467357697604 
1830	 0.285386713122054 
1831	 0.285320042679794 
1832	 0.285239503975027 
1833	 0.285145816053486 
1834	 0.285041421329529 
1835	 0.284931681761838 
1836	 0.284807509301038 
1837	 0.284675402301109 
1838	 0.284544981905274 
1839	 0.284406026852967 
1840	 0.284247504743229 
1841	 0.284096819586183 
1842	 0.283970918012876 
1843	 0.28383420239513 
1844	 0.283677812005269 
1845	 0.283506145790719 
1846	 0.283305516109851 
1847	 0.28310318475463 
1848	 0.282890813123382 
1849	 0.282659563337438 
1850	 0.282414249752096 
1851	 0.282158659752988 
1852	 0.28186836411097 
1853	 0.281564059794539 
1854	 0.281243180669249 
1855	 0.28090852503272 
1856	 0.280563163269407 
1857	 0.280180460783023 
1858	 0.279756837080198 
1859	 0.279298945945777 
1860	 0.278795835824239 
1861	 0.278246120984544 
1862	 0.277659551234533 
1863	 0.277020672605039 
1864	 0.276297505504639 
1865	 0.275512880718909 
1866	 0.274665718935641 
1867	 0.27377027907265 
1868	 0.272837060331615 
1869	 0.271822087758757 
1870	 0.270720064343551 
1871	 0.269516125143257 
1872	 0.26821788505192 
1873	 0.266839297828632 
1874	 0.265381852851805 
1875	 0.263825414219864 
1876	 0.26221725416106 
1877	 0.260483481388149 
1878	 0.258584389713863 
1879	 0.256581429244617 
1880	 0.254466370950907 
1881	 0.252187110235623 
1882	 0.249850738141172 
1883	 0.247439530902652 
1884	 0.244893810460391 
1885	 0.242236987258645 
1886	 0.239473085921518 
1887	 0.236578989110645 
1888	 0.233614631024737 
1889	 0.23059720557425 
1890	 0.227533866926354 
1891	 0.224505385181768 
1892	 0.221429671019176 
1893	 0.218419581723029 
1894	 0.215419799201605 
1895	 0.212490784497074 
1896	 0.209559325291013 
1897	 0.206718299757674 
1898	 0.203934758380885 
1899	 0.201221301014459 
1900	 0.198653738311256 
1901	 0.196205111833511 
1902	 0.193879609443556 
1903	 0.191697525888211 
1904	 0.18962134253345 
1905	 0.187656501183394 
1906	 0.185819414448559 
1907	 0.184105196148134 
1908	 0.182527973432871 
1909	 0.181065056985192 
1910	 0.179686375058622 
1911	 0.178437786517926 
1912	 0.177275546071304 
1913	 0.176199467909069 
1914	 0.175242409357082 
1915	 0.174340571264303 
1916	 0.173516841535543 
1917	 0.172750069238682 
1918	 0.17206460272481 
1919	 0.171441941357172 
1920	 0.170895757869498 
1921	 0.170437484047606 
1922	 0.170057421473493 
1923	 0.169735692852887 
1924	 0.169468779915664 
1925	 0.169284432783498 
1926	 0.169126394834895 
1927	 0.16901808574256 
1928	 0.168939609843934 
1929	 0.168903231766027 
1930	 0.168903276953427 
1931	 0.168953699901875 
1932	 0.16906013403386 
1933	 0.169212530774646 
1934	 0.169392316007637 
1935	 0.16960090327851 
1936	 0.169842710835016 
1937	 0.17011294460324 
1938	 0.170405667312337 
1939	 0.170739189504256 
1940	 0.171123240771264 
1941	 0.171499776947994 
1942	 0.171910954137931 
1943	 0.172363889590297 
1944	 0.172812012637652 
1945	 0.173297093909259 
1946	 0.173790110452209 
1947	 0.174299052474028 
1948	 0.174823121011966 
1949	 0.175366551636727 
1950	 0.175921238568267 
1951	 0.176490871981908 
1952	 0.177077058544701 
1953	 0.177677801301314 
1954	 0.178287710613818 
1955	 0.178910230874236 
1956	 0.179529913155065 
1957	 0.180148935972115 
1958	 0.180761935876589 
1959	 0.181389360550758 
1960	 0.182014991574929 
1961	 0.182661486449472 
1962	 0.183329361068703 
1963	 0.183999975250076 
1964	 0.184681363362193 
1965	 0.185365727241305 
1966	 0.186066518565644 
1967	 0.186760237905545 
1968	 0.18746060917063 
1969	 0.188168988531882 
1970	 0.188877072986575 
1971	 0.189588172236198 
1972	 0.190301536290289 
1973	 0.191020483421677 
1974	 0.191734003601997 
1975	 0.192451052174384 
1976	 0.193156970138635 
1977	 0.193869919869057 
1978	 0.194586961749563 
1979	 0.195292373303174 
1980	 0.196005008155669 
1981	 0.196729509800615 
1982	 0.197456324234111 
1983	 0.198189303147994 
1984	 0.198941793669053 
1985	 0.199686227944157 
1986	 0.200432437600691 
1987	 0.20116864953964 
1988	 0.201901288262638 
1989	 0.202642457666329 
1990	 0.20335317506261 
1991	 0.204063392182646 
1992	 0.204776840925085 
1993	 0.205484926234698 
1994	 0.206194291059737 
1995	 0.206918849072952 
1996	 0.207617695135597 
1997	 0.208299049407235 
1998	 0.208985272284927 
1999	 0.209650092250535 
2000	 0.210332528102609 
2001	 0.211034531642184 
2002	 0.211727187900692 
2003	 0.212410556998395 
2004	 0.213073379430048 
2005	 0.213728523691248 
2006	 0.214358650492323 
2007	 0.215001059816863 
2008	 0.215631095714524 
2009	 0.216279047112229 
2010	 0.216935041732629 
2011	 0.217587480554034 
2012	 0.218267366223041 
2013	 0.218919457451163 
2014	 0.219552666641615 
2015	 0.22018396368817 
2016	 0.220817912196517 
2017	 0.221424086979888 
2018	 0.222030000670931 
2019	 0.222639511336407 
2020	 0.223224914777378 
2021	 0.223775185408294 
2022	 0.224352237791964 
2023	 0.224936025619624 
2024	 0.225509430948266 
2025	 0.22608017929866 
2026	 0.226659737238947 
2027	 0.227248560197157 
2028	 0.227815531713649 
2029	 0.228374581541811 
2030	 0.228948146577647 
2031	 0.229482270313247 
2032	 0.229966323511464 
2033	 0.23049210518393 
2034	 0.231022907206772 
2035	 0.231549665896933 
2036	 0.232101941355051 
2037	 0.232623315483178 
2038	 0.233130251845997 
2039	 0.233623957215534 
2040	 0.234108045368052 
2041	 0.234567951377215 
2042	 0.235023934088362 
2043	 0.235468868373523 
2044	 0.235922805074649 
2045	 0.236369585467035 
2046	 0.236833865089449 
2047	 0.23731655291138 
2048	 0.237782366967919 
2049	 0.238262798469483 
2050	 0.238715117264253 
2051	 0.239148910555748 
2052	 0.239571723398544 
2053	 0.239968163496508 
2054	 0.240372420047056 
2055	 0.240772516302772 
2056	 0.241168549470618 
2057	 0.241558466275611 
2058	 0.241945999357834 
2059	 0.242338597375748 
2060	 0.242717234712766 
2061	 0.243114304564614 
2062	 0.243529238591449 
2063	 0.243936247034347 
2064	 0.244353122568864 
2065	 0.244756279841975 
2066	 0.245169994270455 
2067	 0.245552227676754 
2068	 0.245905195089572 
2069	 0.246260078552358 
2070	 0.24661087246014 
2071	 0.246941784125043 
2072	 0.247281140781608 
2073	 0.247616029706757 
2074	 0.247970964901668 
2075	 0.248329569572677 
2076	 0.248692006424256 
2077	 0.249091174143326 
2078	 0.249451338078081 
2079	 0.249790386702365 
2080	 0.250128125970844 
2081	 0.250458762803778 
2082	 0.250773149157815 
2083	 0.251070012825122 
2084	 0.251369003452931 
2085	 0.251667239178413 
2086	 0.251940815880166 
2087	 0.252250743334682 
2088	 0.252587332578595 
2089	 0.252904978590102 
2090	 0.253229471551733 
2091	 0.25354928043963 
2092	 0.253867962039557 
2093	 0.25417283085399 
2094	 0.254477086126867 
2095	 0.254770044905507 
2096	 0.255035902007332 
2097	 0.255315440767581 
2098	 0.255588368435024 
2099	 0.255880397981647 
2100	 0.256164420572048 
2101	 0.256454526263976 
2102	 0.256733624283619 
2103	 0.257007027218104 
2104	 0.257281029772803 
2105	 0.257541855750566 
2106	 0.257823565464282 
2107	 0.258116998924219 
2108	 0.258409067781379 
2109	 0.258714931092978 
2110	 0.259013661972403 
2111	 0.259296677450995 
2112	 0.259598534408126 
2113	 0.259908432942903 
2114	 0.260231030981646 
2115	 0.26053812319793 
2116	 0.260855959554156 
2117	 0.261151378272307 
2118	 0.261441290352674 
2119	 0.261698831915501 
2120	 0.261925358913787 
2121	 0.262172558128882 
2122	 0.262395117655448 
2123	 0.262635283483569 
2124	 0.262906133954293 
2125	 0.263154792097056 
2126	 0.263392901639175 
2127	 0.263627275515645 
2128	 0.263851301093576 
2129	 0.264077990488789 
2130	 0.264314709963432 
2131	 0.264534399816694 
2132	 0.264725721774405 
2133	 0.264912831674239 
2134	 0.265066844183603 
2135	 0.265184650318682 
2136	 0.265290075418355 
2137	 0.265366962647101 
2138	 0.265450550075184 
2139	 0.265527764230013 
2140	 0.265577163048321 
2141	 0.265621298208743 
2142	 0.265646933076804 
2143	 0.265620387593721 
2144	 0.265619195755027 
2145	 0.265621897028952 
2146	 0.265625109522713 
2147	 0.26563982092336 
2148	 0.265653971672137 
2149	 0.265636867416005 
2150	 0.265611011102951 
2151	 0.265565126980496 
2152	 0.265492469838892 
2153	 0.265412365894556 
2154	 0.265323041619627 
2155	 0.265218264628365 
2156	 0.265104137548327 
2157	 0.264960904397747 
2158	 0.264780983493528 
2159	 0.264616012897614 
2160	 0.264433577872646 
2161	 0.264251841810274 
2162	 0.264091204214682 
2163	 0.263907763326795 
2164	 0.263699426202894 
2165	 0.263474377503472 
2166	 0.263302588147508 
2167	 0.263159808649937 
2168	 0.262973568326569 
2169	 0.262811390069452 
2170	 0.262615378998015 
2171	 0.262361792349825 
2172	 0.262139998899045 
2173	 0.261944876225561 
2174	 0.261718858353045 
2175	 0.261479744744676 
2176	 0.26122709880234 
2177	 0.260952858568961 
2178	 0.260680058574465 
2179	 0.260408498725043 
2180	 0.260116388330301 
2181	 0.259803284491764 
2182	 0.259496157069565 
2183	 0.259183777951819 
2184	 0.258852588645884 
2185	 0.258523260518665 
2186	 0.258191408339154 
2187	 0.257874192610178 
2188	 0.257538685145917 
2189	 0.257239149424596 
2190	 0.256968157963952 
2191	 0.256701733171166 
2192	 0.256435067908638 
2193	 0.256207467422125 
2194	 0.25599997510951 
2195	 0.255818133207426 
2196	 0.255693276217905 
2197	 0.255542834802961 
2198	 0.255398912933895 
2199	 0.255259185133446 
2200	 0.255098578767511 
2201	 0.254964487533455 
2202	 0.254835143580363 
2203	 0.25473446231187 
2204	 0.254677042058688 
2205	 0.254643819864156 
2206	 0.254649756463086 
2207	 0.254719403588905 
2208	 0.25476557982485 
2209	 0.254822234058989 
2210	 0.254904095557172 
2211	 0.25499028054498 
2212	 0.255107618784094 
2213	 0.255285220531389 
2214	 0.255416062304633 
2215	 0.255555170933622 
2216	 0.25566744236007 
2217	 0.255756547670056 
2218	 0.255829792208004 
2219	 0.255883974557958 
2220	 0.255932179110343 
2221	 0.255971899885688 
2222	 0.255980144079894 
2223	 0.255982479491667 
2224	 0.255991101052398 
2225	 0.255978350321273 
2226	 0.255945820071338 
2227	 0.255912171712403 
2228	 0.25587452450837 
2229	 0.255814823851614 
2230	 0.255732637875071 
2231	 0.255663356398991 
2232	 0.255570226729933 
2233	 0.255511562449406 
2234	 0.255490853650579 
2235	 0.255433385624862 
2236	 0.255387315160471 
2237	 0.255310367287264 
2238	 0.255202216120076 
2239	 0.255083697560133 
2240	 0.25492889125899 
2241	 0.254798838336907 
2242	 0.254653732114974 
2243	 0.254531321178301 
2244	 0.254436996388 
2245	 0.254355233550328 
2246	 0.254227515217194 
2247	 0.254113551530775 
2248	 0.253995848177748 
2249	 0.253851672643135 
2250	 0.253743684224954 
2251	 0.25365592640215 
2252	 0.253573521714477 
2253	 0.253519738112931 
2254	 0.253422865523413 
2255	 0.253308715183354 
2256	 0.253217912821576 
2257	 0.253093783538486 
2258	 0.25302057346026 
2259	 0.25300115787851 
2260	 0.252959356559057 
2261	 0.252936475602424 
2262	 0.252890364731611 
2263	 0.252820217635504 
2264	 0.252771219054132 
2265	 0.252739657253555 
2266	 0.252676504292691 
2267	 0.252604637432369 
2268	 0.252541842985626 
2269	 0.252459799070622 
2270	 0.252368001130177 
2271	 0.252334864428263 
2272	 0.252260960641431 
2273	 0.2521545644538 
2274	 0.252085805392988 
2275	 0.252023594881128 
2276	 0.251965057246492 
2277	 0.251911990429227 
2278	 0.251886097083222 
2279	 0.251834186293504 
2280	 0.251760679815591 
2281	 0.251705109198824 
2282	 0.251663763380125 
2283	 0.251602507065629 
2284	 0.251533426043022 
2285	 0.251472847748965 
2286	 0.251401509470521 
2287	 0.251336620012078 
2288	 0.251294203777664 
2289	 0.251224355582943 
2290	 0.251126230046349 
2291	 0.25105371989763 
2292	 0.250985140825096 
2293	 0.250912989214058 
2294	 0.250868991224987 
2295	 0.250791341877706 
2296	 0.250674169186734 
2297	 0.250590808929229 
2298	 0.250482730527764 
2299	 0.250337896547554 
2300	 0.250234728962373 
2301	 0.250099992146195 
2302	 0.249975795056631 
2303	 0.249918930253076 
2304	 0.249816038563421 
2305	 0.249664624995616 
2306	 0.249504361728536 
2307	 0.249292653327721 
2308	 0.249117167917172 
2309	 0.248943760701361 
2310	 0.248785101392873 
2311	 0.248656376332901 
2312	 0.248492405770933 
2313	 0.248312070091432 
2314	 0.248123240001978 
2315	 0.247920758350805 
2316	 0.247715995887842 
2317	 0.247489851203018 
2318	 0.247298273637529 
2319	 0.247114541035298 
2320	 0.246929051436072 
2321	 0.246771380048521 
2322	 0.246609887758314 
2323	 0.24643899304542 
2324	 0.246265223694003 
2325	 0.246114963769772 
2326	 0.245923023762214 
2327	 0.245687625654446 
2328	 0.245485592161218 
2329	 0.245271540097875 
2330	 0.245060844594579 
2331	 0.244881105531529 
2332	 0.244711367892031 
2333	 0.244503944364728 
2334	 0.244289252953211 
2335	 0.244084218724641 
2336	 0.243833324801503 
2337	 0.243588070375175 
2338	 0.24337514199856 
2339	 0.243159613632552 
2340	 0.242910162135084 
2341	 0.242625739499372 
2342	 0.242386936550562 
2343	 0.242120813145017 
2344	 0.241844368292471 
2345	 0.241589895397266 
2346	 0.241389377831601 
2347	 0.241088138708618 
2348	 0.240750208199139 
2349	 0.240403150014409 
2350	 0.239978512228214 
2351	 0.239599932180609 
2352	 0.239219822896145 
2353	 0.238899276553196 
2354	 0.238624493648639 
2355	 0.238345983338519 
2356	 0.238132791197844 
2357	 0.237820118737002 
2358	 0.237422542670064 
2359	 0.237100648434771 
2360	 0.236788605712922 
2361	 0.236474925647378 
2362	 0.236237468380774 
2363	 0.235901390406735 
2364	 0.235451021341022 
2365	 0.235082079918459 
2366	 0.234713481027858 
2367	 0.234367460010006 
2368	 0.234100402263848 
2369	 0.233769616477394 
2370	 0.233407640268852 
2371	 0.233047170316439 
2372	 0.232645531288144 
2373	 0.232247269876256 
2374	 0.231855519171687 
2375	 0.231405708023952 
2376	 0.230952873560206 
2377	 0.230525159947256 
2378	 0.230090520886933 
2379	 0.229692322606977 
2380	 0.229319197723639 
2381	 0.22892724522749 
2382	 0.228512628038606 
2383	 0.228122720107141 
2384	 0.227742317294514 
2385	 0.227311594845597 
2386	 0.226864024200735 
2387	 0.226395099493285 
2388	 0.225916258398376 
2389	 0.225473317248131 
2390	 0.225052756872436 
2391	 0.224626363318787 
2392	 0.224231159838395 
2393	 0.223814552824389 
2394	 0.223377673502594 
2395	 0.222984759189979 
2396	 0.222503728326439 
2397	 0.221961599918069 
2398	 0.221460519662347 
2399	 0.220884472519265 
2400	 0.220356997075407 
2401	 0.219953330402518 
2402	 0.219538919142474 
2403	 0.219167228193905 
2404	 0.218760143390047 
2405	 0.218294013688113 
2406	 0.217792812931269 
2407	 0.217266989068769 
2408	 0.216681794276864 
2409	 0.216062843389582 
2410	 0.215599586902256 
2411	 0.215171169623984 
2412	 0.21474137474581 
2413	 0.214290391300345 
2414	 0.21373086245674 
2415	 0.213119114074367 
2416	 0.212581021101093 
2417	 0.212095954112732 
2418	 0.211628029635508 
2419	 0.211228358758258 
2420	 0.210764644533205 
2421	 0.210320473385833 
2422	 0.209788863900902 
2423	 0.209104918561879 
2424	 0.208548286486629 
2425	 0.208007936571089 
2426	 0.2075097823581 
2427	 0.207161247165111 
2428	 0.206714843111258 
2429	 0.206213745006476 
2430	 0.205699656928775 
2431	 0.205129880968268 
2432	 0.204603017279764 
2433	 0.204083060655865 
2434	 0.203579689101615 
2435	 0.20306739671481 
2436	 0.20266035985769 
2437	 0.202366095572291 
2438	 0.201922267143401 
2439	 0.201535402230924 
2440	 0.201033775684614 
2441	 0.200299741051784 
2442	 0.199726504530255 
2443	 0.199173915538363 
2444	 0.198679776899901 
2445	 0.198334358461199 
2446	 0.197855306067993 
2447	 0.197350038972088 
2448	 0.196828274676046 
2449	 0.196184360356604 
2450	 0.195626485701769 
2451	 0.195138443488943 
2452	 0.194620083953394 
2453	 0.194068474172743 
2454	 0.193574930399807 
2455	 0.193177130166144 
2456	 0.192697778228139 
2457	 0.192171383452726 
2458	 0.191676571246608 
2459	 0.19117166958737 
2460	 0.190624521095104 
2461	 0.190065420715903 
2462	 0.189561188745494 
2463	 0.18899014465844 
2464	 0.188508790187475 
2465	 0.188179889990518 
2466	 0.187751013155982 
2467	 0.187310110312693 
2468	 0.186828036161111 
2469	 0.186293382154222 
2470	 0.185816944909056 
2471	 0.185345939402162 
2472	 0.184927259339881 
2473	 0.184424716435443 
2474	 0.183912266998204 
2475	 0.183389776157354 
2476	 0.182877414193201 
2477	 0.182371306455458 
2478	 0.181908103584146 
2479	 0.181757916902194 
2480	 0.18145852014991 
2481	 0.181016762588317 
2482	 0.180793627787392 
2483	 0.180198193305894 
2484	 0.179640730844626 
2485	 0.179318551177648 
2486	 0.178799548022875 
2487	 0.17843597413287 
2488	 0.178037755779579 
2489	 0.177606487794756 
2490	 0.177183324016356 
2491	 0.176637265635395 
2492	 0.176345265118325 
2493	 0.176040291532623 
2494	 0.175679767304056 
2495	 0.175528246701576 
2496	 0.175192334310864 
2497	 0.174619479207419 
2498	 0.174130288327605 
2499	 0.173682336134028 
2500	 0.173193680706161 
