Wavelength	MM300001.asd
350	 6.61884723449694E-02 
351	 0.060560944856594 
352	 5.57452762834551E-02 
353	 5.95681682988591E-02 
354	 5.74009185063286E-02 
355	 5.43908951090698E-02 
356	 5.53712023062705E-02 
357	 6.17994262678501E-02 
358	 6.36783545615523E-02 
359	 6.39091169701891E-02 
360	 6.31573990010062E-02 
361	 6.05894918095082E-02 
362	 5.79942748212319E-02 
363	 5.77829333581759E-02 
364	 5.93151121248522E-02 
365	 5.72727556161762E-02 
366	 5.71190436948844E-02 
367	 5.84749283373077E-02 
368	 5.92796612545044E-02 
369	 5.74741128920688E-02 
370	 5.78147612057112E-02 
371	 5.97851434246994E-02 
372	 5.94744079567388E-02 
373	 5.86880743614003E-02 
374	 6.01198614398773E-02 
375	 0.063126109717237 
376	 6.12174520624304E-02 
377	 5.93453198728302E-02 
378	 5.98950580392435E-02 
379	 6.28157322919548E-02 
380	 6.18422080991772E-02 
381	 5.91378069227578E-02 
382	 5.87352764189076E-02 
383	 0.064557743108556 
384	 6.39071110618314E-02 
385	 6.21949636797869E-02 
386	 6.34873731841414E-02 
387	 6.42433236135488E-02 
388	 6.41636990844047E-02 
389	 6.41308810887075E-02 
390	 6.50369203522382E-02 
391	 6.54612683202599E-02 
392	 6.55669433539837E-02 
393	 6.63562779230499E-02 
394	 6.91192871087476E-02 
395	 6.88879736139853E-02 
396	 6.81531889648973E-02 
397	 6.89108147009232E-02 
398	 6.94913142064672E-02 
399	 6.91108973218403E-02 
400	 6.93237763534686E-02 
401	 7.15332386710819E-02 
402	 7.11604158831193E-02 
403	 7.02596944476628E-02 
404	 7.01740789620953E-02 
405	 0.071021608045771 
406	 7.19315310088284E-02 
407	 7.28507085657822E-02 
408	 7.35186292043795E-02 
409	 7.24072643435904E-02 
410	 7.25543338358131E-02 
411	 7.37974453583171E-02 
412	 7.44834063565608E-02 
413	 7.43104269045547E-02 
414	 7.40163001767584E-02 
415	 7.41173538701955E-02 
416	 7.47345108325931E-02 
417	 7.46607898804055E-02 
418	 7.47502162543536E-02 
419	 7.56107842354118E-02 
420	 7.52718364146585E-02 
421	 7.45807770591843E-02 
422	 7.43474455464219E-02 
423	 7.51211851007747E-02 
424	 7.53400714112632E-02 
425	 7.53265304771923E-02 
426	 7.53341547140275E-02 
427	 7.49631699742591E-02 
428	 7.48899988995876E-02 
429	 7.49906387292391E-02 
430	 0.074943331444237 
431	 7.48532913145751E-02 
432	 7.49103391761531E-02 
433	 0.075008169422754 
434	 7.47826909678219E-02 
435	 7.46651331824902E-02 
436	 7.45836981672875E-02 
437	 7.44650828286287E-02 
438	 7.44813970913069E-02 
439	 7.47056666765054E-02 
440	 7.50444242400954E-02 
441	 7.53096734177117E-02 
442	 7.53148542858408E-02 
443	 7.54414429262692E-02 
444	 7.57493909634656E-02 
445	 7.57277605578185E-02 
446	 7.59952846894518E-02 
447	 7.62807829097975E-02 
448	 7.62791214208449E-02 
449	 7.66899540219261E-02 
450	 7.70104523331597E-02 
451	 7.71201807037727E-02 
452	 7.72551013457584E-02 
453	 7.74713181660084E-02 
454	 0.077675945750103 
455	 7.78051989468199E-02 
456	 7.79523127096624E-02 
457	 7.79543514143676E-02 
458	 7.80365300709794E-02 
459	 7.84802387557258E-02 
460	 7.86153063528797E-02 
461	 7.85248464945055E-02 
462	 7.84205437016189E-02 
463	 7.85885213728822E-02 
464	 7.85932270232287E-02 
465	 7.86970861894571E-02 
466	 0.079119986524196 
467	 7.91193779978931E-02 
468	 7.91608295755647E-02 
469	 7.92981823123133E-02 
470	 7.92594479174422E-02 
471	 7.94945934616751E-02 
472	 0.079619224858144 
473	 7.94479648633853E-02 
474	 0.079603880767316 
475	 0.079617402353352 
476	 7.95422214554773E-02 
477	 7.96262655697735E-02 
478	 7.97679960853682E-02 
479	 7.98931790370094E-02 
480	 7.99780812159976E-02 
481	 8.00649796872913E-02 
482	 8.01606713061052E-02 
483	 8.01631007012303E-02 
484	 8.00570250493611E-02 
485	 8.03223093341348E-02 
486	 8.03562209988077E-02 
487	 8.01520982646005E-02 
488	 8.02024053716022E-02 
489	 8.03912381976826E-02 
490	 8.04621657432704E-02 
491	 0.080341688749472 
492	 8.04901319984654E-02 
493	 8.04268228971097E-02 
494	 8.03334795184215E-02 
495	 8.06044524868945E-02 
496	 8.07112649260893E-02 
497	 8.07376574867691E-02 
498	 8.07553915154413E-02 
499	 8.07218615571687E-02 
500	 8.07617106536293E-02 
501	 8.08041186985151E-02 
502	 8.07850979201614E-02 
503	 8.09578268184628E-02 
504	 8.10498656103543E-02 
505	 8.10523472597391E-02 
506	 8.11981483708271E-02 
507	 8.12801061877277E-02 
508	 0.081341042690449 
509	 8.14073186314224E-02 
510	 8.13217593174654E-02 
511	 8.12241686339407E-02 
512	 8.12464258002016E-02 
513	 8.14599922705388E-02 
514	 8.14574998856425E-02 
515	 8.14470876469329E-02 
516	 8.15552472528515E-02 
517	 8.16543120539244E-02 
518	 8.17097424953475E-02 
519	 8.17281518996927E-02 
520	 8.17448221620122E-02 
521	 8.18415306969116E-02 
522	 8.18677620728641E-02 
523	 8.18351925799912E-02 
524	 8.19323410851746E-02 
525	 8.20065713999408E-02 
526	 8.20437239746619E-02 
527	 8.20709926154183E-02 
528	 8.21468411132999E-02 
529	 8.22000934539548E-02 
530	 8.22436644947779E-02 
531	 8.23379583575873E-02 
532	 8.23922991357391E-02 
533	 8.24978092667091E-02 
534	 8.26587639840608E-02 
535	 8.26350486713698E-02 
536	 8.26377500177873E-02 
537	 8.27225942008938E-02 
538	 8.28704645139683E-02 
539	 8.30165080434707E-02 
540	 8.30434290710552E-02 
541	 8.30089783589822E-02 
542	 8.32048287135543E-02 
543	 8.32618230665187E-02 
544	 8.32838700507719E-02 
545	 8.34336283772654E-02 
546	 8.35631789171347E-02 
547	 8.36916529039348E-02 
548	 0.083818964751072 
549	 8.39280212320777E-02 
550	 8.40615310787973E-02 
551	 8.41748689837531E-02 
552	 8.42582013009813E-02 
553	 8.44386257495029E-02 
554	 8.46044081868892E-02 
555	 8.47413578428994E-02 
556	 8.48901796762729E-02 
557	 8.50864196634486E-02 
558	 8.53095603938844E-02 
559	 8.55454309768434E-02 
560	 8.58073674551603E-02 
561	 0.086043495226824 
562	 8.62801471512015E-02 
563	 8.65575257854619E-02 
564	 8.68288729721868E-02 
565	 8.70869838950802E-02 
566	 8.73508136546958E-02 
567	 8.76651578185604E-02 
568	 8.81051729906529E-02 
569	 8.85309538692997E-02 
570	 8.88417594997113E-02 
571	 8.92476065782935E-02 
572	 8.96849711899151E-02 
573	 9.01139303851262E-02 
574	 9.05164632280349E-02 
575	 9.09208793978271E-02 
576	 9.13580766826824E-02 
577	 9.18224720945166E-02 
578	 9.22155463668455E-02 
579	 9.27056859912739E-02 
580	 9.32865497309189E-02 
581	 9.38843429312314E-02 
582	 9.45441929189109E-02 
583	 9.52165773743832E-02 
584	 9.58618127629085E-02 
585	 0.096464806098723 
586	 9.70880559538244E-02 
587	 9.76758882417877E-02 
588	 9.81948247695944E-02 
589	 9.88631104030755E-02 
590	 9.95627425040932E-02 
591	 0.100221844823436 
592	 0.100828070877489 
593	 0.101435765997904 
594	 0.102054799484311 
595	 0.102694733959178 
596	 0.103403935101294 
597	 0.104080635154764 
598	 0.104751410127709 
599	 0.105495889809234 
600	 0.106163654412198 
601	 0.106801739788867 
602	 0.107437754856106 
603	 0.108025670381814 
604	 0.108566111198927 
605	 0.109114703188395 
606	 0.109718910155372 
607	 0.110263033418191 
608	 0.110780129697246 
609	 0.111288446074824 
610	 0.111780465149081 
611	 0.112287751837483 
612	 0.112800482331717 
613	 0.113289094107025 
614	 0.113701752135203 
615	 0.114103855163924 
616	 0.114498316248712 
617	 0.114848368066739 
618	 0.115230513094305 
619	 0.115571678150646 
620	 0.115844508891219 
621	 0.116168705884137 
622	 0.116446935951663 
623	 0.116716746865962 
624	 0.117041414747087 
625	 0.117275699714941 
626	 0.117512823785108 
627	 0.117780984714733 
628	 0.117997573817666 
629	 0.118253097111793 
630	 0.118520087209429 
631	 0.118746081291184 
632	 0.118905662677411 
633	 0.119098533239196 
634	 0.119331384002182 
635	 0.119535749670608 
636	 0.119765971262655 
637	 0.120000844324666 
638	 0.120211839495566 
639	 0.120376905678803 
640	 0.120578356111505 
641	 0.120827212601358 
642	 0.121088074993006 
643	 0.121272773315495 
644	 0.121466080411917 
645	 0.121691214437946 
646	 0.121855191872434 
647	 0.122079000139639 
648	 0.122306329773497 
649	 0.122476794931689 
650	 0.12274645216662 
651	 0.12300125037507 
652	 0.123190184022686 
653	 0.123335284220745 
654	 0.123627943907021 
655	 0.123893060329052 
656	 0.124031330584847 
657	 0.124306233631224 
658	 0.124588870129034 
659	 0.124857670074695 
660	 0.125133762762916 
661	 0.125387762168742 
662	 0.12565083861364 
663	 0.125938875261818 
664	 0.126238603459851 
665	 0.126514581713134 
666	 0.126786201641675 
667	 0.127078237505254 
668	 0.127359125536463 
669	 0.127644967827189 
670	 0.127949097565159 
671	 0.128279061225164 
672	 0.128619577153787 
673	 0.128967681528838 
674	 0.129320042263336 
675	 0.129668380395286 
676	 0.129994017534276 
677	 0.130319619093876 
678	 0.130677296320683 
679	 0.131016217946227 
680	 0.131399977056684 
681	 0.131830178733078 
682	 0.13221785871444 
683	 0.132557551793255 
684	 0.132927280431359 
685	 0.133381609803123 
686	 0.133806654682045 
687	 0.134232248023511 
688	 0.134672864539848 
689	 0.135123755235258 
690	 0.135489649179611 
691	 0.135871239926855 
692	 0.136336096135677 
693	 0.136838890280433 
694	 0.137283634156081 
695	 0.137692419179335 
696	 0.138127119225476 
697	 0.138573271597073 
698	 0.139063367178016 
699	 0.139567282140216 
700	 0.139992025014011 
701	 0.140435459409006 
702	 0.140912587916853 
703	 0.141411589392628 
704	 0.14190613353004 
705	 0.142368330739143 
706	 0.14283377267512 
707	 0.143354829665481 
708	 0.143824328122793 
709	 0.144281390668175 
710	 0.144756404438068 
711	 0.1452469479061 
712	 0.145704604213321 
713	 0.146156941214529 
714	 0.146633930438279 
715	 0.147082849498682 
716	 0.147523669322751 
717	 0.147962963756417 
718	 0.148395082215318 
719	 0.14881087943482 
720	 0.149226070701543 
721	 0.149647383507849 
722	 0.15006013183914 
723	 0.150455259434714 
724	 0.150828152449902 
725	 0.151178583766187 
726	 0.1515120461706 
727	 0.151840566323014 
728	 0.152156739979134 
729	 0.152438559156073 
730	 0.152760314969507 
731	 0.153059758471854 
732	 0.153297433881671 
733	 0.15354841009838 
734	 0.153780761648896 
735	 0.153983531740714 
736	 0.154154364074562 
737	 0.154287336800934 
738	 0.154450770218495 
739	 0.154636185530042 
740	 0.154749304759181 
741	 0.154856608076651 
742	 0.154940767944449 
743	 0.154980161337641 
744	 0.154984757728761 
745	 0.154982208002648 
746	 0.154992116749131 
747	 0.155018046695962 
748	 0.154998827387812 
749	 0.154956499155169 
750	 0.154899691871701 
751	 0.154811821441149 
752	 0.154723931157231 
753	 0.154610849876481 
754	 0.154454465909588 
755	 0.154292216791347 
756	 0.154143585551977 
757	 0.153979942643485 
758	 0.153764284548728 
759	 0.153603576883007 
760	 0.153411387220719 
761	 0.153172201485277 
762	 0.152979204428406 
763	 0.152719247981749 
764	 0.152446473863885 
765	 0.152216761699695 
766	 0.151976935028221 
767	 0.151702240811999 
768	 0.151390933182904 
769	 0.151064725545899 
770	 0.15079745488051 
771	 0.150540614294185 
772	 0.150258019534124 
773	 0.149944286094047 
774	 0.149646559242964 
775	 0.149334169781647 
776	 0.148988676652569 
777	 0.148676236323632 
778	 0.148340062369488 
779	 0.14801237919316 
780	 0.147742805197688 
781	 0.147419283869931 
782	 0.147114532526268 
783	 0.146833570278264 
784	 0.146500190331785 
785	 0.146164481152021 
786	 0.145844686635468 
787	 0.145541150796478 
788	 0.1452258844857 
789	 0.144923763635933 
790	 0.144612783841643 
791	 0.144272428484852 
792	 0.143984663778759 
793	 0.143692786601426 
794	 0.143381087624104 
795	 0.143078148772856 
796	 0.14282218959991 
797	 0.142525184862125 
798	 0.142166894410607 
799	 0.141882134495184 
800	 0.141658829976266 
801	 0.141421665434027 
802	 0.141116108609886 
803	 0.140854461034283 
804	 0.140608523112843 
805	 0.140350943692058 
806	 0.140065088971597 
807	 0.139804278494784 
808	 0.139555068650448 
809	 0.139318097929028 
810	 0.139119549975921 
811	 0.138870322801657 
812	 0.138605800722028 
813	 0.138372382711233 
814	 0.138165678326087 
815	 0.137957655013303 
816	 0.137741622722842 
817	 0.137528194068893 
818	 0.137362761586132 
819	 0.137179971016402 
820	 0.136961335334436 
821	 0.136738946538271 
822	 0.136570529549196 
823	 0.136394557959794 
824	 0.136187103701208 
825	 0.136015376826614 
826	 0.135889814440692 
827	 0.135758814999405 
828	 0.135581766331742 
829	 0.135409998064802 
830	 0.135250173923303 
831	 0.135116612918136 
832	 0.135015624450471 
833	 0.134901328537506 
834	 0.134765625805584 
835	 0.134615082664191 
836	 0.134468768024068 
837	 0.134351498372193 
838	 0.134269061421115 
839	 0.134201460648547 
840	 0.134094392969237 
841	 0.133981399182382 
842	 0.133870287538681 
843	 0.133773257335693 
844	 0.133743928350125 
845	 0.133676049999743 
846	 0.13357569515771 
847	 0.133500382312387 
848	 0.133457039689304 
849	 0.133398171201832 
850	 0.133329112698782 
851	 0.133298441475686 
852	 0.133276340828748 
853	 0.1332537298515 
854	 0.133219290336832 
855	 0.133156316202478 
856	 0.133127311066761 
857	 0.133124599409215 
858	 0.133121632026487 
859	 0.133087840007607 
860	 0.133090664979922 
861	 0.133112526385111 
862	 0.133124749720438 
863	 0.133207981772537 
864	 0.133203047481412 
865	 0.133136988198016 
866	 0.133140227493098 
867	 0.133142474348308 
868	 0.133188430737751 
869	 0.133273219071901 
870	 0.133334492932027 
871	 0.133351870252395 
872	 0.133388218270715 
873	 0.133464865140724 
874	 0.133514084345703 
875	 0.13356180913445 
876	 0.133632052019589 
877	 0.133723048754189 
878	 0.133759321724675 
879	 0.133871816754613 
880	 0.133992238181945 
881	 0.134032020130138 
882	 0.134128296998743 
883	 0.134245438142789 
884	 0.134367626669953 
885	 0.134488375403795 
886	 0.134578837639779 
887	 0.134699369602654 
888	 0.134831600235149 
889	 0.134901537330298 
890	 0.135025753331257 
891	 0.135167523409761 
892	 0.135318657318463 
893	 0.135524230765847 
894	 0.1356625574553 
895	 0.135770591510695 
896	 0.135905050953724 
897	 0.136095587187058 
898	 0.13628453781801 
899	 0.136440294520755 
900	 0.136579086218693 
901	 0.136821991976483 
902	 0.13702900741369 
903	 0.137200752687326 
904	 0.13737889943112 
905	 0.137552005554127 
906	 0.137768521696206 
907	 0.137990226520834 
908	 0.138175612619138 
909	 0.13849820691525 
910	 0.13877378103556 
911	 0.138999722892527 
912	 0.139284373297974 
913	 0.139520005216719 
914	 0.139752195455407 
915	 0.139979192031848 
916	 0.140164227888344 
917	 0.140442206075688 
918	 0.140781551595718 
919	 0.141105204527735 
920	 0.141331837122794 
921	 0.141674256744377 
922	 0.142023228430111 
923	 0.142314528683313 
924	 0.142630949825092 
925	 0.142889207858257 
926	 0.143181837309524 
927	 0.143539476968001 
928	 0.143815514506192 
929	 0.144149819319584 
930	 0.144544084861864 
931	 0.144942171524876 
932	 0.145242270708064 
933	 0.145645483399657 
934	 0.146056659694777 
935	 0.146380072451999 
936	 0.146788638844557 
937	 0.147118594640416 
938	 0.147464288655925 
939	 0.147936803471215 
940	 0.148405543078843 
941	 0.148812204843564 
942	 0.149237670312043 
943	 0.14974599428703 
944	 0.150094557200672 
945	 0.150482282670968 
946	 0.150899503425763 
947	 0.151276145827131 
948	 0.151746409627679 
949	 0.152266050757893 
950	 0.152755796068969 
951	 0.153167283308906 
952	 0.153655118913318 
953	 0.154164844381541 
954	 0.154657333469883 
955	 0.155123893824703 
956	 0.155633435333416 
957	 0.156107844175295 
958	 0.156570821870337 
959	 0.157091242976413 
960	 0.157580555937317 
961	 0.158168056333228 
962	 0.158777734605751 
963	 0.159251389468714 
964	 0.159817094189707 
965	 0.16042096074961 
966	 0.161034796301592 
967	 0.16165300985235 
968	 0.162215683302842 
969	 0.16276800942994 
970	 0.163327712992831 
971	 0.163892630598652 
972	 0.164517586830637 
973	 0.16508208275115 
974	 0.165636831886461 
975	 0.166313505301303 
976	 0.166951451319727 
977	 0.16764212577215 
978	 0.168275144197702 
979	 0.168704300721844 
980	 0.169364895912374 
981	 0.170126603041387 
982	 0.170839833987373 
983	 0.171417902797397 
984	 0.172005150224768 
985	 0.172670372286723 
986	 0.1733359049457 
987	 0.173906338476032 
988	 0.174624109970721 
989	 0.175357082116537 
990	 0.176006999258177 
991	 0.176570381905766 
992	 0.17730467394704 
993	 0.177960312492289 
994	 0.178575352004831 
995	 0.179262989072071 
996	 0.17981964351588 
997	 0.180544913828976 
998	 0.181299005286546 
999	 0.181896963181931 
1000	 0.182665968077094 
1001	 0.184819971498273 
1002	 0.185495736052917 
1003	 0.186154451545561 
1004	 0.186825056033008 
1005	 0.18754232675342 
1006	 0.188209595502605 
1007	 0.18886355115908 
1008	 0.189486538193802 
1009	 0.190072472577519 
1010	 0.190621483375346 
1011	 0.191271218895776 
1012	 0.191956641873676 
1013	 0.192585196057962 
1014	 0.193239325295788 
1015	 0.19387598331319 
1016	 0.194444370298959 
1017	 0.195064020779782 
1018	 0.195743501537938 
1019	 0.196366554466991 
1020	 0.196921635686364 
1021	 0.197551963038725 
1022	 0.198106498546616 
1023	 0.198673592614582 
1024	 0.199273643157692 
1025	 0.199790685299688 
1026	 0.20033530673939 
1027	 0.200913670041103 
1028	 0.201459135700443 
1029	 0.201994410474686 
1030	 0.202536634157599 
1031	 0.203064851635713 
1032	 0.203564432960011 
1033	 0.204072903901884 
1034	 0.204619672948332 
1035	 0.20513327913125 
1036	 0.205653716811882 
1037	 0.206213357062968 
1038	 0.206732917602992 
1039	 0.207247925472282 
1040	 0.207769301377363 
1041	 0.208260795178864 
1042	 0.208785158351365 
1043	 0.20935077026895 
1044	 0.209872913135798 
1045	 0.210384737550656 
1046	 0.210882666771355 
1047	 0.21137601275871 
1048	 0.2118688428425 
1049	 0.212429100894221 
1050	 0.212992503918303 
1051	 0.213489098260686 
1052	 0.213954534813874 
1053	 0.214432964461176 
1054	 0.214932478102814 
1055	 0.215455229719449 
1056	 0.215988515343443 
1057	 0.216488629702118 
1058	 0.216920924396542 
1059	 0.217405834535633 
1060	 0.21790433319391 
1061	 0.218405427157372 
1062	 0.218919704173115 
1063	 0.219427892577514 
1064	 0.219912226676275 
1065	 0.220417355578857 
1066	 0.220919450861784 
1067	 0.22139861561119 
1068	 0.221884893483916 
1069	 0.22234885125982 
1070	 0.222834602092466 
1071	 0.223337730998364 
1072	 0.223836697977825 
1073	 0.224357668581912 
1074	 0.224841888086684 
1075	 0.225308830465737 
1076	 0.225728249771485 
1077	 0.226195313481707 
1078	 0.226702934444512 
1079	 0.227200639915957 
1080	 0.227701675747642 
1081	 0.228151757374147 
1082	 0.228571862731547 
1083	 0.229041484621576 
1084	 0.229532609143008 
1085	 0.230014484034226 
1086	 0.230533122512341 
1087	 0.231012021135536 
1088	 0.231463497623701 
1089	 0.231911153874588 
1090	 0.232361411463927 
1091	 0.232808025704792 
1092	 0.23325929456734 
1093	 0.233755098437042 
1094	 0.234261549119331 
1095	 0.23474223510005 
1096	 0.235240464036103 
1097	 0.235700895280539 
1098	 0.236184011597141 
1099	 0.236676931321285 
1100	 0.23717572071795 
1101	 0.237674524921753 
1102	 0.238187268872034 
1103	 0.238715844522724 
1104	 0.239219524208397 
1105	 0.239741917056206 
1106	 0.240323172067398 
1107	 0.240890850617583 
1108	 0.241419180604129 
1109	 0.241970507536681 
1110	 0.242495036737683 
1111	 0.243061346033997 
1112	 0.24367106612988 
1113	 0.244246736844765 
1114	 0.244823735984727 
1115	 0.24540494748181 
1116	 0.245966610203357 
1117	 0.246534933834916 
1118	 0.24712273872929 
1119	 0.247694920689442 
1120	 0.248263121074638 
1121	 0.248832660644451 
1122	 0.249413178065844 
1123	 0.250036245004534 
1124	 0.250635012942325 
1125	 0.251235084885626 
1126	 0.251832504191063 
1127	 0.252417110089829 
1128	 0.253014674013363 
1129	 0.253628016298141 
1130	 0.254227004640283 
1131	 0.254825268976433 
1132	 0.255419808481963 
1133	 0.256009340558851 
1134	 0.256587712389019 
1135	 0.257152278054824 
1136	 0.257736054248621 
1137	 0.258292634005303 
1138	 0.258844434976339 
1139	 0.259412620033646 
1140	 0.259993995178328 
1141	 0.260553110510263 
1142	 0.261113511145003 
1143	 0.261671876929066 
1144	 0.262220307399015 
1145	 0.262758443300184 
1146	 0.263287871227823 
1147	 0.263825429248271 
1148	 0.264354207540847 
1149	 0.264886039247963 
1150	 0.265425643724872 
1151	 0.265975346028121 
1152	 0.266489506376335 
1153	 0.267011254949119 
1154	 0.267550847450596 
1155	 0.268107965184878 
1156	 0.268636766023701 
1157	 0.269164221096182 
1158	 0.269695891605334 
1159	 0.270212807041691 
1160	 0.27073120807382 
1161	 0.271269277873327 
1162	 0.27179066656553 
1163	 0.272298156486885 
1164	 0.272800411472008 
1165	 0.273296523436753 
1166	 0.2737912984228 
1167	 0.274293839933106 
1168	 0.274780237425592 
1169	 0.275268579273779 
1170	 0.275764813020088 
1171	 0.276248926891003 
1172	 0.276716147929599 
1173	 0.277195801517579 
1174	 0.277687188307856 
1175	 0.278162963359888 
1176	 0.278637670937407 
1177	 0.279103968611662 
1178	 0.279556813068294 
1179	 0.280011074447433 
1180	 0.280471393707086 
1181	 0.28091632563623 
1182	 0.281352957319594 
1183	 0.281781115490276 
1184	 0.282211810773925 
1185	 0.282637811342016 
1186	 0.283054002160083 
1187	 0.283469185909947 
1188	 0.283877945232721 
1189	 0.284277023412807 
1190	 0.284668707679705 
1191	 0.285061592377051 
1192	 0.285442714551741 
1193	 0.285806677900988 
1194	 0.286171592788129 
1195	 0.286526716421061 
1196	 0.28688894620371 
1197	 0.287245098281235 
1198	 0.287610369654212 
1199	 0.287981781153586 
1200	 0.288373817127257 
1201	 0.288727630957744 
1202	 0.28907046680422 
1203	 0.289415271296094 
1204	 0.289745904438797 
1205	 0.290069287649487 
1206	 0.290396212808917 
1207	 0.290712701893957 
1208	 0.29100904672037 
1209	 0.291307365838461 
1210	 0.291609533516266 
1211	 0.291903933430273 
1212	 0.292190095281382 
1213	 0.292470495248194 
1214	 0.292742523503884 
1215	 0.293017882042204 
1216	 0.293291350429407 
1217	 0.293553385884446 
1218	 0.293834298363213 
1219	 0.294140399372438 
1220	 0.294404185079686 
1221	 0.29465994996566 
1222	 0.294907110462016 
1223	 0.295116495323754 
1224	 0.295352502888859 
1225	 0.295605022272547 
1226	 0.295845615327594 
1227	 0.296096640278895 
1228	 0.296325566561887 
1229	 0.296528314369826 
1230	 0.296746977161952 
1231	 0.296972673956734 
1232	 0.297181310107675 
1233	 0.297385227768499 
1234	 0.297594427410958 
1235	 0.297794317896351 
1236	 0.297968349849244 
1237	 0.29816822259836 
1238	 0.298404045261552 
1239	 0.298584993853875 
1240	 0.29874555872753 
1241	 0.298905044674202 
1242	 0.299013201243603 
1243	 0.299167136944464 
1244	 0.299353526059641 
1245	 0.299524519443297 
1246	 0.299705335844472 
1247	 0.299882007626406 
1248	 0.300056552456611 
1249	 0.300224990152076 
1250	 0.300386701312472 
1251	 0.300530898429678 
1252	 0.300668907208024 
1253	 0.300782998750456 
1254	 0.300906871711356 
1255	 0.301030937835308 
1256	 0.301154260253122 
1257	 0.301275274534408 
1258	 0.301393999421813 
1259	 0.301507693141488 
1260	 0.301627217876124 
1261	 0.301749405065397 
1262	 0.301866707788214 
1263	 0.30199592502191 
1264	 0.302108995050025 
1265	 0.302209555139028 
1266	 0.30230621507002 
1267	 0.302389937106768 
1268	 0.302472106077276 
1269	 0.302564714571178 
1270	 0.302652685947798 
1271	 0.302755731923184 
1272	 0.302873885691518 
1273	 0.30298592186078 
1274	 0.303104505966195 
1275	 0.303218662788385 
1276	 0.303333816114793 
1277	 0.303444454051312 
1278	 0.303542525887369 
1279	 0.303657469119369 
1280	 0.3037926117906 
1281	 0.303902969161605 
1282	 0.304006351147655 
1283	 0.304112987832619 
1284	 0.304213689986661 
1285	 0.304297799411675 
1286	 0.304380307653643 
1287	 0.304478045840796 
1288	 0.304560416765879 
1289	 0.304623508507175 
1290	 0.30469841630166 
1291	 0.304782253365408 
1292	 0.304852760006062 
1293	 0.304919195034926 
1294	 0.304977423141104 
1295	 0.30502883033729 
1296	 0.305076211321461 
1297	 0.30511578736693 
1298	 0.305153179023545 
1299	 0.305199224497004 
1300	 0.30521768829374 
1301	 0.305214972123907 
1302	 0.305212489880672 
1303	 0.305189809369842 
1304	 0.305163913182314 
1305	 0.30516579221781 
1306	 0.305172143234425 
1307	 0.305183562061796 
1308	 0.305206554923102 
1309	 0.305190171629512 
1310	 0.305148733423429 
1311	 0.305115636365266 
1312	 0.30505182867927 
1313	 0.305021860412979 
1314	 0.305008900692798 
1315	 0.30500002914845 
1316	 0.30501423719603 
1317	 0.30500693367691 
1318	 0.304994988383601 
1319	 0.304981048262351 
1320	 0.304946374001292 
1321	 0.304930969806396 
1322	 0.304921367782188 
1323	 0.304923096518827 
1324	 0.304936005298212 
1325	 0.30494408052951 
1326	 0.304939584607867 
1327	 0.304940619591598 
1328	 0.304934233686353 
1329	 0.304931595669775 
1330	 0.304949499512689 
1331	 0.304981500708307 
1332	 0.305013152887114 
1333	 0.305074235076442 
1334	 0.305098272544486 
1335	 0.30509155317295 
1336	 0.305122880464856 
1337	 0.305153462309212 
1338	 0.305188214609915 
1339	 0.305250649739372 
1340	 0.305301568230285 
1341	 0.305344503597494 
1342	 0.30538973227206 
1343	 0.305432929553827 
1344	 0.305489372188523 
1345	 0.305547614660421 
1346	 0.305596513532869 
1347	 0.305656763461809 
1348	 0.305718785903594 
1349	 0.305761058955413 
1350	 0.305811588840786 
1351	 0.305865257927689 
1352	 0.305927685833795 
1353	 0.305963499184804 
1354	 0.305987994072901 
1355	 0.306022936473348 
1356	 0.306044930959147 
1357	 0.306076054486141 
1358	 0.306123391094071 
1359	 0.306160160365448 
1360	 0.306196756172008 
1361	 0.306216557183343 
1362	 0.306233277597342 
1363	 0.30624325844189 
1364	 0.306246473734174 
1365	 0.306224112150871 
1366	 0.306195806858246 
1367	 0.306147659456413 
1368	 0.306062396060149 
1369	 0.305981755712075 
1370	 0.30588953448335 
1371	 0.305781718112138 
1372	 0.305664807302318 
1373	 0.305519408035176 
1374	 0.305358173710323 
1375	 0.305186158050986 
1376	 0.304978953391184 
1377	 0.304750096529693 
1378	 0.30448372423123 
1379	 0.304199957185622 
1380	 0.303856120729511 
1381	 0.30347985281838 
1382	 0.3030463255952 
1383	 0.30255206448766 
1384	 0.302023618640185 
1385	 0.301464136404546 
1386	 0.30084760819616 
1387	 0.300196423526179 
1388	 0.299485302119953 
1389	 0.298730056864977 
1390	 0.297894131763366 
1391	 0.296999254227375 
1392	 0.296048778146845 
1393	 0.295052072852532 
1394	 0.294030960504216 
1395	 0.292964128682719 
1396	 0.291870485552897 
1397	 0.290763825537269 
1398	 0.2896099761017 
1399	 0.288471718847062 
1400	 0.287315343075321 
1401	 0.286196491832603 
1402	 0.285073057281058 
1403	 0.283990161697687 
1404	 0.282940375054391 
1405	 0.281913035786377 
1406	 0.280895004899796 
1407	 0.279914686742851 
1408	 0.278949074182815 
1409	 0.278047516171959 
1410	 0.277152700102358 
1411	 0.276372682814089 
1412	 0.27566417415026 
1413	 0.275034504799432 
1414	 0.274515119797721 
1415	 0.274052509518861 
1416	 0.273653329603406 
1417	 0.273312156850799 
1418	 0.273006630481979 
1419	 0.272740194696014 
1420	 0.272501063781924 
1421	 0.272271402184522 
1422	 0.272051674622544 
1423	 0.271849977683264 
1424	 0.271633630716292 
1425	 0.27141219610878 
1426	 0.271206500926281 
1427	 0.270987746762299 
1428	 0.270805734401362 
1429	 0.270651498549023 
1430	 0.270506243252759 
1431	 0.270371066068475 
1432	 0.270259205576457 
1433	 0.270172790650296 
1434	 0.270085565174671 
1435	 0.270020147565134 
1436	 0.269953618602717 
1437	 0.269878827368319 
1438	 0.269824244877571 
1439	 0.269784722528636 
1440	 0.26974868024294 
1441	 0.269722300739679 
1442	 0.269715069947524 
1443	 0.26972319900921 
1444	 0.269736870035687 
1445	 0.269765500213194 
1446	 0.26979037882449 
1447	 0.269808483326683 
1448	 0.269835605670192 
1449	 0.269864335137914 
1450	 0.269904677150296 
1451	 0.269940511389181 
1452	 0.269973901228826 
1453	 0.270023295327203 
1454	 0.270078158836209 
1455	 0.270131949044458 
1456	 0.270194109205767 
1457	 0.270265570634843 
1458	 0.270331076989795 
1459	 0.270421605146204 
1460	 0.270531056853119 
1461	 0.270650294528232 
1462	 0.270779014381339 
1463	 0.270921773739017 
1464	 0.271077501049938 
1465	 0.27124909820302 
1466	 0.271433954651104 
1467	 0.271638518354409 
1468	 0.271870338657638 
1469	 0.272101731148169 
1470	 0.272343597156333 
1471	 0.27258963857835 
1472	 0.272854347444198 
1473	 0.273134621638667 
1474	 0.27344314556456 
1475	 0.273756257530637 
1476	 0.27406539068025 
1477	 0.274387546867349 
1478	 0.274725296050102 
1479	 0.275061949149711 
1480	 0.275394740693192 
1481	 0.27573986351368 
1482	 0.276081504224924 
1483	 0.276412882062869 
1484	 0.276763199176926 
1485	 0.277127936222761 
1486	 0.277485725298205 
1487	 0.277851100281959 
1488	 0.278206471715787 
1489	 0.278558497009609 
1490	 0.278907214815031 
1491	 0.279254339506798 
1492	 0.279594827720594 
1493	 0.279937130840042 
1494	 0.280264468801711 
1495	 0.280569243257107 
1496	 0.280887315908234 
1497	 0.281200498613697 
1498	 0.281520119142942 
1499	 0.281854036598205 
1500	 0.282178990854099 
1501	 0.282504425463921 
1502	 0.2828207352682 
1503	 0.283131990187891 
1504	 0.283440604640082 
1505	 0.28373506543434 
1506	 0.284012795877633 
1507	 0.284283364857766 
1508	 0.284558385257237 
1509	 0.28482191717078 
1510	 0.285089301467162 
1511	 0.285370199191768 
1512	 0.28564470564561 
1513	 0.285925223360854 
1514	 0.286205326103034 
1515	 0.286473572839794 
1516	 0.28673529082101 
1517	 0.286987994888226 
1518	 0.28723448278237 
1519	 0.287473290119411 
1520	 0.287704334505052 
1521	 0.287920473530377 
1522	 0.288118353029919 
1523	 0.288335635225286 
1524	 0.288541547865479 
1525	 0.288767526506131 
1526	 0.289020032871643 
1527	 0.289251497069413 
1528	 0.289486087515879 
1529	 0.289705998696907 
1530	 0.289918199611412 
1531	 0.290119996609674 
1532	 0.290308085426873 
1533	 0.290493234379101 
1534	 0.29065405810777 
1535	 0.29084283051234 
1536	 0.291051287594459 
1537	 0.291238783858407 
1538	 0.291433373841264 
1539	 0.291619612903702 
1540	 0.291786467360869 
1541	 0.29196011133277 
1542	 0.292145962390632 
1543	 0.292313285165584 
1544	 0.292466691226372 
1545	 0.292615194465365 
1546	 0.292747321002844 
1547	 0.292887268166911 
1548	 0.293037501952277 
1549	 0.293179847518261 
1550	 0.293335445349416 
1551	 0.293496331271404 
1552	 0.293647877976652 
1553	 0.293810791722704 
1554	 0.293969475839443 
1555	 0.294108930466265 
1556	 0.294238148073645 
1557	 0.294355469924466 
1558	 0.294456217041711 
1559	 0.294577332215562 
1560	 0.294703754479863 
1561	 0.29483993812316 
1562	 0.294968325291771 
1563	 0.295104415247139 
1564	 0.295227177091583 
1565	 0.295333667312398 
1566	 0.295463731167796 
1567	 0.295609789527442 
1568	 0.295731442046752 
1569	 0.29585785798467 
1570	 0.295965903210117 
1571	 0.296046723855695 
1572	 0.296139827275385 
1573	 0.296230251409404 
1574	 0.296327944487089 
1575	 0.296424850420859 
1576	 0.29652579701245 
1577	 0.296640353535903 
1578	 0.296740527361363 
1579	 0.296834741608042 
1580	 0.296926896885275 
1581	 0.297016072976851 
1582	 0.297097270709726 
1583	 0.297174760994029 
1584	 0.297250146723709 
1585	 0.297302320084013 
1586	 0.297382896249873 
1587	 0.297486732979589 
1588	 0.297570466033881 
1589	 0.29766588712579 
1590	 0.297745695590304 
1591	 0.297801448177113 
1592	 0.297864853010597 
1593	 0.297925818954005 
1594	 0.297989548944715 
1595	 0.298052797684921 
1596	 0.29811719479462 
1597	 0.298196619861788 
1598	 0.298253691742619 
1599	 0.298290837146061 
1600	 0.298338419962187 
1601	 0.298373216809986 
1602	 0.298417606309746 
1603	 0.298484936944242 
1604	 0.298536045134681 
1605	 0.298578904163475 
1606	 0.298618932901351 
1607	 0.298646296327365 
1608	 0.298680303350971 
1609	 0.298711380042117 
1610	 0.29874801269431 
1611	 0.298810435529881 
1612	 0.298873263613403 
1613	 0.298950499312289 
1614	 0.299044594453108 
1615	 0.299106826602256 
1616	 0.299152039960055 
1617	 0.29919436972293 
1618	 0.299226609162965 
1619	 0.29926653121365 
1620	 0.299311332789622 
1621	 0.299340755614521 
1622	 0.299358780004295 
1623	 0.299380207125795 
1624	 0.299394273601445 
1625	 0.299416413112143 
1626	 0.299445325101935 
1627	 0.299460176938839 
1628	 0.299475489198367 
1629	 0.299476609839812 
1630	 0.29945827822275 
1631	 0.299458888873835 
1632	 0.299450996425845 
1633	 0.299471869159679 
1634	 0.299520537677561 
1635	 0.299544569664406 
1636	 0.299579001959338 
1637	 0.299592758807208 
1638	 0.299580458054629 
1639	 0.299587796788267 
1640	 0.299597880197841 
1641	 0.299608759200054 
1642	 0.299628712296682 
1643	 0.299635174622339 
1644	 0.299637243143618 
1645	 0.299633829468401 
1646	 0.299614482936953 
1647	 0.299614992844713 
1648	 0.299619091789549 
1649	 0.299629344841472 
1650	 0.299660745406738 
1651	 0.29966781532236 
1652	 0.29966242689341 
1653	 0.299665758059276 
1654	 0.299657141864004 
1655	 0.299666271096324 
1656	 0.299695940054694 
1657	 0.299706822094442 
1658	 0.299720195693008 
1659	 0.299719606653715 
1660	 0.299702965941462 
1661	 0.299690989431479 
1662	 0.29967787598544 
1663	 0.299655655493088 
1664	 0.29962397437004 
1665	 0.29960052256242 
1666	 0.299574344795708 
1667	 0.299547202104108 
1668	 0.299520899296388 
1669	 0.299503053646456 
1670	 0.299479476441035 
1671	 0.299470541999623 
1672	 0.299481691237288 
1673	 0.299483969183686 
1674	 0.299491825162694 
1675	 0.299489365142526 
1676	 0.299479195393109 
1677	 0.299474752632972 
1678	 0.299470781771753 
1679	 0.2994597858505 
1680	 0.29945729301221 
1681	 0.299433147863252 
1682	 0.29938817114946 
1683	 0.299349266772421 
1684	 0.299290973380001 
1685	 0.299261803042027 
1686	 0.299253689865573 
1687	 0.299228897038035 
1688	 0.299211058692318 
1689	 0.299189299059023 
1690	 0.299157580135074 
1691	 0.299126214655478 
1692	 0.299103261323571 
1693	 0.299067769535958 
1694	 0.299006452012437 
1695	 0.298974959399719 
1696	 0.2989683254924 
1697	 0.298933616366092 
1698	 0.298904569241306 
1699	 0.298857970406964 
1700	 0.29878655309333 
1701	 0.298714437900411 
1702	 0.298641845667577 
1703	 0.298557606130876 
1704	 0.298435109516519 
1705	 0.298362724835662 
1706	 0.298310362588982 
1707	 0.298259931672173 
1708	 0.298253219300387 
1709	 0.298203839713646 
1710	 0.298113162517036 
1711	 0.298072341110604 
1712	 0.298045868599456 
1713	 0.298011147500454 
1714	 0.298016742883331 
1715	 0.297975152509566 
1716	 0.297886881720298 
1717	 0.297833587026901 
1718	 0.297794220257497 
1719	 0.297726229244465 
1720	 0.297663968593733 
1721	 0.297576355875029 
1722	 0.297452374735544 
1723	 0.297343666441472 
1724	 0.297219733852976 
1725	 0.297132613398091 
1726	 0.297069538680329 
1727	 0.296975440543624 
1728	 0.296892570548021 
1729	 0.296798541858172 
1730	 0.296691976643012 
1731	 0.296553659043127 
1732	 0.296400158018199 
1733	 0.296260631473185 
1734	 0.296080101854939 
1735	 0.295939083664073 
1736	 0.295843064021784 
1737	 0.295720658312137 
1738	 0.295580169710602 
1739	 0.295471474209352 
1740	 0.295391436414651 
1741	 0.295264741792335 
1742	 0.295127704508441 
1743	 0.294992824730621 
1744	 0.294832080612098 
1745	 0.294687039894444 
1746	 0.294559886861426 
1747	 0.294411126226782 
1748	 0.29425738518732 
1749	 0.294128230790538 
1750	 0.29400395019685 
1751	 0.29386960324129 
1752	 0.293725785894003 
1753	 0.293542519574692 
1754	 0.293372873379539 
1755	 0.293224539264855 
1756	 0.293089478954729 
1757	 0.292983794546949 
1758	 0.292854945294312 
1759	 0.292733224429037 
1760	 0.292617317304393 
1761	 0.292476175590554 
1762	 0.292364741699692 
1763	 0.29227170227605 
1764	 0.292150061508174 
1765	 0.292032060327691 
1766	 0.291906057980353 
1767	 0.291727607699488 
1768	 0.291573342684369 
1769	 0.291447935003785 
1770	 0.291323909613984 
1771	 0.291224259589619 
1772	 0.291110558208924 
1773	 0.290999314179047 
1774	 0.290920410629954 
1775	 0.290852821497631 
1776	 0.290749306927979 
1777	 0.29062799805469 
1778	 0.290511142927764 
1779	 0.290368320817855 
1780	 0.29022234360434 
1781	 0.290075873645365 
1782	 0.289948127695347 
1783	 0.289874116117384 
1784	 0.289820048375934 
1785	 0.289840905092875 
1786	 0.289818839319569 
1787	 0.289779555713939 
1788	 0.289753092464921 
1789	 0.289718322810312 
1790	 0.289672051310716 
1791	 0.289631006981231 
1792	 0.289588146970563 
1793	 0.289534383597766 
1794	 0.289499871524926 
1795	 0.289496023145641 
1796	 0.289432608864169 
1797	 0.289322307603614 
1798	 0.289249549370402 
1799	 0.28914831049619 
1800	 0.289094278860469 
1801	 0.285543642431611 
1802	 0.285505470431326 
1803	 0.285471417482552 
1804	 0.285481270227885 
1805	 0.285450945816043 
1806	 0.285422424820156 
1807	 0.285421516340219 
1808	 0.285420936768496 
1809	 0.285445639404369 
1810	 0.285449378405047 
1811	 0.285451736025631 
1812	 0.285442396643742 
1813	 0.285431645139577 
1814	 0.285407877325797 
1815	 0.28537210938146 
1816	 0.285364621949021 
1817	 0.285351347440049 
1818	 0.285330375606728 
1819	 0.285308169024761 
1820	 0.285300224395293 
1821	 0.285283052705382 
1822	 0.285218015708604 
1823	 0.285161087945982 
1824	 0.285110413178809 
1825	 0.285007596647162 
1826	 0.284882978157841 
1827	 0.284789218184223 
1828	 0.284686352110265 
1829	 0.28455919166632 
1830	 0.284450731175853 
1831	 0.284354485659416 
1832	 0.284263103947451 
1833	 0.284175410717923 
1834	 0.28407270527622 
1835	 0.283997829595496 
1836	 0.283895334241642 
1837	 0.283771038603822 
1838	 0.283681365458417 
1839	 0.28356039731958 
1840	 0.283418574607203 
1841	 0.283275517483662 
1842	 0.283149688287499 
1843	 0.282989345231715 
1844	 0.282834047141202 
1845	 0.282676131248817 
1846	 0.282456842148509 
1847	 0.282242357859077 
1848	 0.282036940656749 
1849	 0.281805873963105 
1850	 0.281577684243897 
1851	 0.281371963534531 
1852	 0.28113128876397 
1853	 0.280841450545115 
1854	 0.280543590480843 
1855	 0.280201655269171 
1856	 0.27983027626138 
1857	 0.279460023271356 
1858	 0.279070921875713 
1859	 0.278650589823621 
1860	 0.278179670989334 
1861	 0.277676643289581 
1862	 0.277125928178523 
1863	 0.276510021758107 
1864	 0.275838965100571 
1865	 0.275132216059097 
1866	 0.274354974663853 
1867	 0.273502573162403 
1868	 0.272596833322665 
1869	 0.271628541611959 
1870	 0.270567561455826 
1871	 0.269412523570542 
1872	 0.268180105673024 
1873	 0.26686870511926 
1874	 0.265461473344474 
1875	 0.263967864709969 
1876	 0.262402798936212 
1877	 0.260725182869763 
1878	 0.258920541733785 
1879	 0.256998619535287 
1880	 0.254968633143892 
1881	 0.252810919075788 
1882	 0.250574456530984 
1883	 0.248243087808556 
1884	 0.24577644665502 
1885	 0.243231496482932 
1886	 0.240533109884198 
1887	 0.23771835275199 
1888	 0.234845397539795 
1889	 0.231885469158218 
1890	 0.228905764682427 
1891	 0.225948874489225 
1892	 0.222931493140056 
1893	 0.219978582265908 
1894	 0.217035770801571 
1895	 0.214157832859501 
1896	 0.211288033024864 
1897	 0.208531600551873 
1898	 0.205827790126465 
1899	 0.203181792468439 
1900	 0.200658187229851 
1901	 0.198207372459792 
1902	 0.195904704088194 
1903	 0.193753106516626 
1904	 0.191698241047784 
1905	 0.189751848447603 
1906	 0.187946772945355 
1907	 0.186237288490442 
1908	 0.184633798309385 
1909	 0.183175854970274 
1910	 0.181813563108936 
1911	 0.180552743935983 
1912	 0.179385856072135 
1913	 0.178289557574149 
1914	 0.177249736832425 
1915	 0.176327943328263 
1916	 0.175515325507857 
1917	 0.174767977075278 
1918	 0.174089499648574 
1919	 0.173471471452201 
1920	 0.17292084273621 
1921	 0.172443646115637 
1922	 0.172054750408671 
1923	 0.171734190838037 
1924	 0.171449292136813 
1925	 0.171220071998734 
1926	 0.171035226649789 
1927	 0.170894612755271 
1928	 0.170792045791764 
1929	 0.17076965027262 
1930	 0.170772503480973 
1931	 0.170813821612489 
1932	 0.170924474993142 
1933	 0.171064150785122 
1934	 0.171242036705512 
1935	 0.171452622912942 
1936	 0.171708382317784 
1937	 0.171988354069629 
1938	 0.172297555623119 
1939	 0.172633940865983 
1940	 0.173003389214761 
1941	 0.173403118991368 
1942	 0.173820585282463 
1943	 0.174257667568316 
1944	 0.174708214975792 
1945	 0.175172577177065 
1946	 0.175649577282171 
1947	 0.176130282819091 
1948	 0.176643088437201 
1949	 0.177178891700545 
1950	 0.177730085036546 
1951	 0.178308782394392 
1952	 0.178906698597319 
1953	 0.179483687762481 
1954	 0.180064026680841 
1955	 0.18065749271619 
1956	 0.181247084127908 
1957	 0.181848317668355 
1958	 0.182463349188062 
1959	 0.18308950498688 
1960	 0.183719012561004 
1961	 0.18435739868243 
1962	 0.185018561558361 
1963	 0.185681500283514 
1964	 0.186350695052315 
1965	 0.187017135335302 
1966	 0.187688694981059 
1967	 0.188356704359641 
1968	 0.189045396360205 
1969	 0.189736147759861 
1970	 0.190442219561554 
1971	 0.191189809803051 
1972	 0.191904727133657 
1973	 0.192614658781502 
1974	 0.193311577630389 
1975	 0.193994876647529 
1976	 0.194662054185687 
1977	 0.195357298021484 
1978	 0.196067155619029 
1979	 0.196766684041185 
1980	 0.197501008733205 
1981	 0.198226682635852 
1982	 0.198939503700109 
1983	 0.19966750279622 
1984	 0.200431760437447 
1985	 0.201159482010332 
1986	 0.201877798046443 
1987	 0.202590421167756 
1988	 0.203282030864797 
1989	 0.203971961082249 
1990	 0.204687053180381 
1991	 0.205381692367824 
1992	 0.206084463806292 
1993	 0.206800509616011 
1994	 0.207499706494037 
1995	 0.208189152370208 
1996	 0.208878390336951 
1997	 0.209566183227915 
1998	 0.21025231894882 
1999	 0.210932074553151 
2000	 0.211610310172628 
2001	 0.212303829062337 
2002	 0.212965130621956 
2003	 0.213606078907136 
2004	 0.214261205707684 
2005	 0.214898264502826 
2006	 0.215510487933648 
2007	 0.21613793854359 
2008	 0.216762860015761 
2009	 0.217395422811663 
2010	 0.218036558141237 
2011	 0.218673105375276 
2012	 0.21931490347182 
2013	 0.219951373387625 
2014	 0.220582700793024 
2015	 0.221217640233405 
2016	 0.221850808266265 
2017	 0.222465835367037 
2018	 0.223066033262838 
2019	 0.223643413013478 
2020	 0.224232901929821 
2021	 0.224814533710796 
2022	 0.225392277021248 
2023	 0.225975937502037 
2024	 0.226548525031373 
2025	 0.227096058487857 
2026	 0.22766270420824 
2027	 0.228236887041238 
2028	 0.228818932865731 
2029	 0.229379920295632 
2030	 0.229952778499904 
2031	 0.230479320654822 
2032	 0.230969798118873 
2033	 0.231469331635567 
2034	 0.231932929539469 
2035	 0.232431048773884 
2036	 0.232953941252906 
2037	 0.233455006999372 
2038	 0.233969776235229 
2039	 0.234462038463659 
2040	 0.234933996559752 
2041	 0.235393963023895 
2042	 0.23585921701958 
2043	 0.236312378385471 
2044	 0.236756071443837 
2045	 0.237189070331857 
2046	 0.237623596600428 
2047	 0.238045082790863 
2048	 0.238473306041404 
2049	 0.238900430505774 
2050	 0.23933682439864 
2051	 0.239786278639624 
2052	 0.240217915320128 
2053	 0.240661566811027 
2054	 0.241080814163929 
2055	 0.241477191289535 
2056	 0.241863621732321 
2057	 0.242242690610648 
2058	 0.242604904074653 
2059	 0.242976509886803 
2060	 0.243335597506273 
2061	 0.243710151986782 
2062	 0.244090125045492 
2063	 0.244476945814313 
2064	 0.244879700136271 
2065	 0.245272129833869 
2066	 0.245687246468652 
2067	 0.246063352032826 
2068	 0.246408195601961 
2069	 0.246758283975029 
2070	 0.24710013004302 
2071	 0.247416393111032 
2072	 0.247750313692181 
2073	 0.248094696032304 
2074	 0.248427693890499 
2075	 0.248743517098817 
2076	 0.249083891555532 
2077	 0.249445054127671 
2078	 0.249783978832035 
2079	 0.25013283422627 
2080	 0.25046559348723 
2081	 0.250768317239934 
2082	 0.251081050687332 
2083	 0.25139562537839 
2084	 0.251710437786789 
2085	 0.252018589080012 
2086	 0.252318673439243 
2087	 0.252634584809554 
2088	 0.252960192366777 
2089	 0.253267813863828 
2090	 0.253579381781069 
2091	 0.253881656207827 
2092	 0.254166087830571 
2093	 0.254453185457641 
2094	 0.254745200541088 
2095	 0.255028717301536 
2096	 0.255283524337462 
2097	 0.255567151890524 
2098	 0.255880363371684 
2099	 0.256169139829807 
2100	 0.256456092052361 
2101	 0.256762915088429 
2102	 0.25703412722757 
2103	 0.25725512810478 
2104	 0.257530806329257 
2105	 0.257817676508677 
2106	 0.258107759238494 
2107	 0.258427792336993 
2108	 0.258736510880817 
2109	 0.259036758123666 
2110	 0.259344610998614 
2111	 0.25967785840595 
2112	 0.259981199668336 
2113	 0.260263495245975 
2114	 0.26055516667675 
2115	 0.260833385714158 
2116	 0.261089686105122 
2117	 0.261355016547993 
2118	 0.261629958492471 
2119	 0.261883689826925 
2120	 0.26212413048258 
2121	 0.262364279899434 
2122	 0.262589116849198 
2123	 0.262823121478318 
2124	 0.263055826814597 
2125	 0.263292579722606 
2126	 0.263538833494973 
2127	 0.263776469673634 
2128	 0.264019836196817 
2129	 0.264248460182431 
2130	 0.264481378358931 
2131	 0.264691325486302 
2132	 0.264862586959067 
2133	 0.265007812986528 
2134	 0.26513696937084 
2135	 0.265222918642067 
2136	 0.265316970657288 
2137	 0.265405053316533 
2138	 0.265481350362264 
2139	 0.265534926026552 
2140	 0.26559698379017 
2141	 0.265660118262082 
2142	 0.265712373442524 
2143	 0.26577726787425 
2144	 0.265810778339246 
2145	 0.265823612411726 
2146	 0.265824502928193 
2147	 0.265802005985885 
2148	 0.265764294813144 
2149	 0.265729888923474 
2150	 0.265693128048622 
2151	 0.265634389876042 
2152	 0.265576361677997 
2153	 0.265481526182705 
2154	 0.265349634557939 
2155	 0.265227320690006 
2156	 0.265097898511478 
2157	 0.264943470969195 
2158	 0.264774997961735 
2159	 0.264598656321496 
2160	 0.264376461607035 
2161	 0.264186628913735 
2162	 0.264013154300142 
2163	 0.263838573355699 
2164	 0.263675458485797 
2165	 0.263515408816289 
2166	 0.263338734934455 
2167	 0.263162561131867 
2168	 0.262960266554573 
2169	 0.262733551252169 
2170	 0.262517237755729 
2171	 0.262289866794407 
2172	 0.262063969588987 
2173	 0.261851415024742 
2174	 0.26161426832273 
2175	 0.261360017959516 
2176	 0.261100489920392 
2177	 0.26082790998351 
2178	 0.260550887568467 
2179	 0.260278050912695 
2180	 0.259981998164836 
2181	 0.259648763278945 
2182	 0.259336426484832 
2183	 0.259023303387442 
2184	 0.25869812160523 
2185	 0.258396225547973 
2186	 0.258129193241191 
2187	 0.257826038883996 
2188	 0.257503642760187 
2189	 0.257201662668698 
2190	 0.256877770135682 
2191	 0.256597436153841 
2192	 0.256335246094128 
2193	 0.256106824416946 
2194	 0.255914318821704 
2195	 0.255728807679586 
2196	 0.255590537877654 
2197	 0.255425752881862 
2198	 0.255237054414927 
2199	 0.255086001831573 
2200	 0.254933764927645 
2201	 0.254811675737004 
2202	 0.25473009973619 
2203	 0.254659793533127 
2204	 0.254606389478394 
2205	 0.254558113641663 
2206	 0.254557792604213 
2207	 0.25459027123517 
2208	 0.254640559482755 
2209	 0.254736370044784 
2210	 0.254825090965157 
2211	 0.254928585355207 
2212	 0.255035788618759 
2213	 0.255158360886271 
2214	 0.255272163735355 
2215	 0.255409879109407 
2216	 0.255504604705058 
2217	 0.255579849575013 
2218	 0.255645065876386 
2219	 0.255659703919613 
2220	 0.255704220921615 
2221	 0.255764507075869 
2222	 0.255821820798159 
2223	 0.255841332069058 
2224	 0.25588009987171 
2225	 0.255899535227637 
2226	 0.255896889125133 
2227	 0.255877836562574 
2228	 0.255865532910613 
2229	 0.255813843470363 
2230	 0.255708404361537 
2231	 0.255630814558028 
2232	 0.255543390025963 
2233	 0.255472301910761 
2234	 0.255413841581242 
2235	 0.255347608696368 
2236	 0.255297281782457 
2237	 0.255219134870105 
2238	 0.255130850077098 
2239	 0.255024714876182 
2240	 0.254884825006822 
2241	 0.254761864321759 
2242	 0.254616468713817 
2243	 0.254499065059546 
2244	 0.254405849620402 
2245	 0.254325915207 
2246	 0.254202017121788 
2247	 0.254088404943854 
2248	 0.253974874061124 
2249	 0.253828237794526 
2250	 0.253728560844529 
2251	 0.253669117345874 
2252	 0.253584096622134 
2253	 0.253508536518342 
2254	 0.253410151467483 
2255	 0.253285681573095 
2256	 0.253194410366652 
2257	 0.253101944080469 
2258	 0.253023314292635 
2259	 0.252963742689787 
2260	 0.252913650750266 
2261	 0.252888376729514 
2262	 0.252835800590451 
2263	 0.252789971203264 
2264	 0.252729522353319 
2265	 0.25263479466739 
2266	 0.25255493591295 
2267	 0.252473494746724 
2268	 0.252407194561359 
2269	 0.252359486482184 
2270	 0.252287611690399 
2271	 0.252247763563882 
2272	 0.252193912058085 
2273	 0.252113671393035 
2274	 0.252077082510328 
2275	 0.252021899404727 
2276	 0.251956194913545 
2277	 0.251915919194291 
2278	 0.251891636922731 
2279	 0.251853023973219 
2280	 0.251830171991382 
2281	 0.251787797604135 
2282	 0.251719151392045 
2283	 0.251673454282869 
2284	 0.251643873268354 
2285	 0.251592034335844 
2286	 0.251542806836688 
2287	 0.251474433024269 
2288	 0.251370407638485 
2289	 0.251299521123678 
2290	 0.251244826537278 
2291	 0.251174132542739 
2292	 0.251100009346555 
2293	 0.25103000910216 
2294	 0.250972265725962 
2295	 0.250884984890032 
2296	 0.250778448158495 
2297	 0.250693811407953 
2298	 0.25057933023846 
2299	 0.250461157344443 
2300	 0.250386660288884 
2301	 0.250271642877545 
2302	 0.250132878995618 
2303	 0.25000299182543 
2304	 0.24984089936767 
2305	 0.249687719686857 
2306	 0.249517295659966 
2307	 0.249314122307657 
2308	 0.249149013793639 
2309	 0.248994416175289 
2310	 0.248835159126569 
2311	 0.248711333903252 
2312	 0.248548690594736 
2313	 0.248352879199125 
2314	 0.248178014375945 
2315	 0.247989500718565 
2316	 0.247829191519444 
2317	 0.247697883310651 
2318	 0.247535785217335 
2319	 0.247374282456541 
2320	 0.247207847826598 
2321	 0.247015652538118 
2322	 0.246851085324968 
2323	 0.246709091515011 
2324	 0.2465492698028 
2325	 0.246396110658937 
2326	 0.246225058000539 
2327	 0.246030620456493 
2328	 0.245853089760021 
2329	 0.245682743668698 
2330	 0.245471311656043 
2331	 0.245251292969407 
2332	 0.2450453431243 
2333	 0.244790283001271 
2334	 0.244572581553745 
2335	 0.244401229405274 
2336	 0.24419255596103 
2337	 0.244000879665723 
2338	 0.243813169831565 
2339	 0.243565726008315 
2340	 0.243310412298644 
2341	 0.243061885359884 
2342	 0.242798700322982 
2343	 0.242547424936724 
2344	 0.242289462696656 
2345	 0.242005595633155 
2346	 0.241700015124008 
2347	 0.241378054070882 
2348	 0.241015553263668 
2349	 0.240698265332133 
2350	 0.240380975188473 
2351	 0.240085757891725 
2352	 0.23984449997168 
2353	 0.239561816866253 
2354	 0.239261116732205 
2355	 0.238965328697708 
2356	 0.238669164336271 
2357	 0.238336598707931 
2358	 0.237981673236809 
2359	 0.237636149481565 
2360	 0.237249217320707 
2361	 0.236913071353029 
2362	 0.236632126217857 
2363	 0.236310082693141 
2364	 0.235977319903557 
2365	 0.235672777385185 
2366	 0.235337153367217 
2367	 0.235038164635947 
2368	 0.234840303965292 
2369	 0.234525149736305 
2370	 0.234148998633215 
2371	 0.233815004754749 
2372	 0.23333274272112 
2373	 0.232834263226645 
2374	 0.232441576778449 
2375	 0.232027827719136 
2376	 0.231660807424343 
2377	 0.231320128083709 
2378	 0.230936267536567 
2379	 0.230581375434961 
2380	 0.230215664594736 
2381	 0.229837469099754 
2382	 0.229443214072855 
2383	 0.229027400890591 
2384	 0.228638863053866 
2385	 0.228206011273219 
2386	 0.227761971232771 
2387	 0.227258152438424 
2388	 0.226702847310852 
2389	 0.226299392712308 
2390	 0.225874183850256 
2391	 0.225431289895519 
2392	 0.225052868723986 
2393	 0.224560213274176 
2394	 0.224053447122782 
2395	 0.223546243865152 
2396	 0.223061614966373 
2397	 0.222622612515153 
2398	 0.222171655968302 
2399	 0.221779858949083 
2400	 0.221311381857282 
2401	 0.220802486320196 
2402	 0.220347745486961 
2403	 0.219794165034343 
2404	 0.219292977404111 
2405	 0.21886953643135 
2406	 0.218378958300182 
2407	 0.217968688705015 
2408	 0.217517823196541 
2409	 0.216977096508111 
2410	 0.216490100758785 
2411	 0.215995149568531 
2412	 0.215519967887476 
2413	 0.215069539157936 
2414	 0.214613062526641 
2415	 0.214207522601909 
2416	 0.213748887628276 
2417	 0.213246689915893 
2418	 0.212742735865358 
2419	 0.212249306730849 
2420	 0.211703031107002 
2421	 0.211139030212042 
2422	 0.210604002997134 
2423	 0.209963249282564 
2424	 0.209437682416717 
2425	 0.209027948058915 
2426	 0.208567399394506 
2427	 0.20817552253661 
2428	 0.207674927755678 
2429	 0.207063450731699 
2430	 0.206542812620006 
2431	 0.206006314311082 
2432	 0.205518974824206 
2433	 0.205127179850337 
2434	 0.204646432625844 
2435	 0.204131713274544 
2436	 0.203622159040284 
2437	 0.203054746498903 
2438	 0.202596340284653 
2439	 0.20222516365689 
2440	 0.201783710666062 
2441	 0.201373797117477 
2442	 0.200904602754943 
2443	 0.200329886893573 
2444	 0.199830497116594 
2445	 0.199381253167174 
2446	 0.198963693536853 
2447	 0.198598420667987 
2448	 0.198093454969235 
2449	 0.197564201967782 
2450	 0.196987742226374 
2451	 0.196285603205805 
2452	 0.195675908196296 
2453	 0.195036991539453 
2454	 0.194521840457855 
2455	 0.194070475444427 
2456	 0.193627997032295 
2457	 0.193359638102156 
2458	 0.192937839158913 
2459	 0.192431632407449 
2460	 0.191998352937935 
2461	 0.191529784760352 
2462	 0.191055775050241 
2463	 0.190643198823851 
2464	 0.190127601577703 
2465	 0.189542338913814 
2466	 0.18897661887473 
2467	 0.188308662484657 
2468	 0.187784627177233 
2469	 0.187308644715024 
2470	 0.186917342698865 
2471	 0.186682712738089 
2472	 0.186355390225402 
2473	 0.185802421043368 
2474	 0.185233438357615 
2475	 0.184677976082139 
2476	 0.184168494027239 
2477	 0.183825788790241 
2478	 0.183464498900968 
2479	 0.18307849452574 
2480	 0.182622618010406 
2481	 0.182039589696389 
2482	 0.181542303328466 
2483	 0.181067825147754 
2484	 0.18054425768821 
2485	 0.180067074964286 
2486	 0.179744122599176 
2487	 0.179531020476645 
2488	 0.179305841926684 
2489	 0.179066921616598 
2490	 0.178675324476943 
2491	 0.178143035157047 
2492	 0.177786406455405 
2493	 0.177481012443156 
2494	 0.177025784163245 
2495	 0.176586588660776 
2496	 0.176070986613524 
2497	 0.175638599209857 
2498	 0.175387026000386 
2499	 0.175067089245846 
2500	 0.174725638039044 
