Wavelength	MM300000.asd
350	 5.20179655632834E-02 
351	 5.79145682840601E-02 
352	 5.93309221344639E-02 
353	 5.60726676388392E-02 
354	 5.87977925027099E-02 
355	 6.32719832475596E-02 
356	 6.40485055146971E-02 
357	 5.94790439515623E-02 
358	 6.27975703904158E-02 
359	 6.14809654786987E-02 
360	 5.72998290694931E-02 
361	 6.01299503570713E-02 
362	 0.057580788050518 
363	 5.35677069271125E-02 
364	 5.20835819785941E-02 
365	 5.41828297864638E-02 
366	 0.059335406428625 
367	 6.19228654868357E-02 
368	 5.84997338434563E-02 
369	 5.87002353820616E-02 
370	 5.77788036665727E-02 
371	 5.62882596923248E-02 
372	 5.81718447373937E-02 
373	 6.04608144507134E-02 
374	 6.19519795032998E-02 
375	 6.21481603200281E-02 
376	 6.12979572994152E-02 
377	 5.80203779565617E-02 
378	 0.056386955383837 
379	 5.96900488975308E-02 
380	 6.14386030736728E-02 
381	 6.16740338433115E-02 
382	 6.19043810174872E-02 
383	 6.41919066480689E-02 
384	 6.51281582275158E-02 
385	 6.39361513225233E-02 
386	 6.19530460446696E-02 
387	 6.37164230797867E-02 
388	 6.47687353802587E-02 
389	 6.42644339070777E-02 
390	 6.30925954156356E-02 
391	 6.41008453497396E-02 
392	 6.56278455944208E-02 
393	 6.70062925103722E-02 
394	 6.85337496153413E-02 
395	 6.85287799089795E-02 
396	 6.80278458215985E-02 
397	 6.79809191765716E-02 
398	 6.81583015575918E-02 
399	 6.82709531480637E-02 
400	 6.92950506515962E-02 
401	 7.17829653391876E-02 
402	 7.14405825020486E-02 
403	 7.12211149188297E-02 
404	 7.17270455516643E-02 
405	 7.08441637982537E-02 
406	 7.11311571588579E-02 
407	 7.21285228939973E-02 
408	 7.29073340885384E-02 
409	 7.29641483247541E-02 
410	 0.072497292700432 
411	 7.24170291178158E-02 
412	 0.073562774454531 
413	 7.39221177917484E-02 
414	 7.39374373154207E-02 
415	 7.40102702523846E-02 
416	 7.41688325075163E-02 
417	 0.074613772540936 
418	 7.49500388076287E-02 
419	 7.48627584114025E-02 
420	 7.47469448366973E-02 
421	 7.47932708158768E-02 
422	 7.49746082550663E-02 
423	 7.51253222928088E-02 
424	 7.52822272767547E-02 
425	 7.50463256551823E-02 
426	 7.45233168589511E-02 
427	 7.48624291162473E-02 
428	 7.46627571920982E-02 
429	 7.42926555464065E-02 
430	 7.44772983760689E-02 
431	 7.47773806135486E-02 
432	 0.074492781177042 
433	 7.39488963355386E-02 
434	 7.43668839864581E-02 
435	 7.45045464234267E-02 
436	 7.44351919983486E-02 
437	 7.43558515868882E-02 
438	 7.40010160444073E-02 
439	 7.41542368015904E-02 
440	 7.46733345221356E-02 
441	 0.074971428792648 
442	 7.50469495370617E-02 
443	 7.52551511698471E-02 
444	 7.56039664604707E-02 
445	 7.55126033226692E-02 
446	 7.58010759721973E-02 
447	 7.61866460019128E-02 
448	 7.62505052428563E-02 
449	 7.64234332672192E-02 
450	 7.66712174850631E-02 
451	 7.68667976310033E-02 
452	 7.68554266459472E-02 
453	 7.73003007304933E-02 
454	 7.75519169089252E-02 
455	 7.72734791909957E-02 
456	 7.74293708331955E-02 
457	 7.77646439454844E-02 
458	 7.79903949641524E-02 
459	 7.78867084714323E-02 
460	 7.80422452249449E-02 
461	 7.81615350346226E-02 
462	 7.81680841777674E-02 
463	 7.84081211401007E-02 
464	 7.84267356344519E-02 
465	 0.078496909099653 
466	 7.88653109564195E-02 
467	 0.078819262342149 
468	 7.89700747621558E-02 
469	 7.92550646721075E-02 
470	 7.90965949970833E-02 
471	 7.91345389481492E-02 
472	 7.92100885163182E-02 
473	 7.91783602963324E-02 
474	 0.079249503965808 
475	 0.0793430889118 
476	 7.94198189001674E-02 
477	 7.94656974114354E-02 
478	 7.95290669973345E-02 
479	 7.96677974791225E-02 
480	 7.97992397282849E-02 
481	 7.96407488103963E-02 
482	 7.97948957488281E-02 
483	 8.00036564660148E-02 
484	 0.079939543087234 
485	 8.00338143738056E-02 
486	 0.080108978847692 
487	 0.080105538616678 
488	 8.00780324062119E-02 
489	 8.00914089655712E-02 
490	 8.01481314121119E-02 
491	 8.02211187493311E-02 
492	 8.02387495294055E-02 
493	 8.03288955126689E-02 
494	 8.04150378424553E-02 
495	 0.080360205204985 
496	 8.03643564615998E-02 
497	 0.08036988639423 
498	 8.03842467986331E-02 
499	 8.05579062843825E-02 
500	 8.05565737649688E-02 
501	 8.05785605536781E-02 
502	 8.08339649822346E-02 
503	 8.08703077080023E-02 
504	 8.07654526812024E-02 
505	 8.07126809744019E-02 
506	 8.09611014152831E-02 
507	 8.10166930935572E-02 
508	 0.081056689005264 
509	 0.081198310224986 
510	 8.09837406987447E-02 
511	 8.11017807106839E-02 
512	 8.13650939274123E-02 
513	 8.12099929459938E-02 
514	 8.12864420722109E-02 
515	 8.13556931292583E-02 
516	 8.13217609228199E-02 
517	 8.15134351487406E-02 
518	 8.16012174105824E-02 
519	 8.15756288926464E-02 
520	 8.15528875050734E-02 
521	 8.17116869285495E-02 
522	 8.18093361770623E-02 
523	 8.17744536953336E-02 
524	 8.17396764713348E-02 
525	 8.18483340502366E-02 
526	 8.19408774712531E-02 
527	 8.18958627800278E-02 
528	 0.081938669392542 
529	 8.20236291315476E-02 
530	 8.21077037210868E-02 
531	 8.21562402488275E-02 
532	 8.22164305175975E-02 
533	 0.082323803266977 
534	 8.24507270885086E-02 
535	 8.24233853221134E-02 
536	 8.25197016947634E-02 
537	 8.26730285519568E-02 
538	 8.27110946791468E-02 
539	 8.27555474835503E-02 
540	 0.082833737481876 
541	 8.29259528854971E-02 
542	 8.29605199762552E-02 
543	 8.29992580411985E-02 
544	 8.31041929142571E-02 
545	 8.32861815171135E-02 
546	 8.33572751911176E-02 
547	 8.34670647950156E-02 
548	 8.36251610555232E-02 
549	 8.37210544343685E-02 
550	 8.38451320813653E-02 
551	 8.39585734904463E-02 
552	 8.40400566471283E-02 
553	 8.41662071975711E-02 
554	 8.43628843973988E-02 
555	 8.45868318597493E-02 
556	 8.47654160982429E-02 
557	 8.49485594718324E-02 
558	 8.51324647404034E-02 
559	 8.53309297060009E-02 
560	 8.56051646641689E-02 
561	 8.58350141821264E-02 
562	 0.086062197381129 
563	 8.63543929787154E-02 
564	 8.65847991366574E-02 
565	 0.086833949468541 
566	 8.71425044288447E-02 
567	 8.74930546610921E-02 
568	 8.79082242258699E-02 
569	 8.82857470787641E-02 
570	 8.85762100667799E-02 
571	 8.90044813867665E-02 
572	 8.94451570574293E-02 
573	 8.98635124250003E-02 
574	 9.02892585521145E-02 
575	 9.06785847928944E-02 
576	 9.10862601831052E-02 
577	 0.09154472438499 
578	 9.20041363055004E-02 
579	 9.24913094673711E-02 
580	 9.30256595448364E-02 
581	 9.36239110208401E-02 
582	 9.43076180882901E-02 
583	 9.49840672399747E-02 
584	 9.56097971409016E-02 
585	 9.62256659165552E-02 
586	 9.68180877948378E-02 
587	 9.73926717902937E-02 
588	 9.79668433806696E-02 
589	 0.09858448181046 
590	 0.099222441092991 
591	 0.099875557856064 
592	 0.100554462543593 
593	 0.10113711364982 
594	 0.101748059495504 
595	 0.102464419438403 
596	 0.103104325132794 
597	 0.103787051730156 
598	 0.104501345930171 
599	 0.105175524089433 
600	 0.105849898733594 
601	 0.106483366960273 
602	 0.107071710439784 
603	 0.1076984157743 
604	 0.108267914722099 
605	 0.108799224939708 
606	 0.109344766624598 
607	 0.109899951968079 
608	 0.11042208055086 
609	 0.11091918456251 
610	 0.111458930375031 
611	 0.111972531848019 
612	 0.112465549357302 
613	 0.112943810269286 
614	 0.113359464411471 
615	 0.113730898957998 
616	 0.114091240754518 
617	 0.114477704581627 
618	 0.114867301076747 
619	 0.115203452739712 
620	 0.115472775366756 
621	 0.115755150742734 
622	 0.116062999662511 
623	 0.116366083396726 
624	 0.116624065290288 
625	 0.116884441164489 
626	 0.117135187821412 
627	 0.117373121980429 
628	 0.117612575258207 
629	 0.11785391713671 
630	 0.11809945339584 
631	 0.118342452036439 
632	 0.11853670578097 
633	 0.118750539378935 
634	 0.118979017484423 
635	 0.119160787264537 
636	 0.119367096367152 
637	 0.119592338176363 
638	 0.119816979224112 
639	 0.1200272534579 
640	 0.120190214300589 
641	 0.120355405068947 
642	 0.120597158906047 
643	 0.120856301638025 
644	 0.121055470173859 
645	 0.121207246066312 
646	 0.121455709486416 
647	 0.121664594303158 
648	 0.121856336379507 
649	 0.122084067448815 
650	 0.122328915222178 
651	 0.122560129364391 
652	 0.122771179111328 
653	 0.122979407836213 
654	 0.123217897770214 
655	 0.123452890137837 
656	 0.123669652393404 
657	 0.123936666224777 
658	 0.124177567544482 
659	 0.124411248381168 
660	 0.124693002661733 
661	 0.12498780037888 
662	 0.125262882358947 
663	 0.125510817202619 
664	 0.125759148679531 
665	 0.126007393087897 
666	 0.126291086870677 
667	 0.126626232747377 
668	 0.126911910074211 
669	 0.12720159235638 
670	 0.127529515624635 
671	 0.127900418095722 
672	 0.128178109779808 
673	 0.128462355827486 
674	 0.128827980969567 
675	 0.129193892588885 
676	 0.129558986269572 
677	 0.129902952017925 
678	 0.130212347718032 
679	 0.13055173730692 
680	 0.130930841993646 
681	 0.131338218727623 
682	 0.131743520216956 
683	 0.132113007160807 
684	 0.13248849932808 
685	 0.132908984609533 
686	 0.133322178797399 
687	 0.133755050263896 
688	 0.134205667999194 
689	 0.134645155105704 
690	 0.134979616680124 
691	 0.135349971605935 
692	 0.135835033005371 
693	 0.136329963350746 
694	 0.136804158950628 
695	 0.137235967260403 
696	 0.137632194970647 
697	 0.138092824020182 
698	 0.138576651726724 
699	 0.139049868242856 
700	 0.139497663951932 
701	 0.139981447134098 
702	 0.140451426220959 
703	 0.140884571806197 
704	 0.14140934226095 
705	 0.141904494098661 
706	 0.142350608725452 
707	 0.142789107341809 
708	 0.143277476098701 
709	 0.143776959428809 
710	 0.144256967835589 
711	 0.14471648938563 
712	 0.145178508273217 
713	 0.145659235376434 
714	 0.146157139056457 
715	 0.146617989451497 
716	 0.147039729968806 
717	 0.147448499479432 
718	 0.147885741224798 
719	 0.148336349414148 
720	 0.148759736236071 
721	 0.149142842706279 
722	 0.149529818475586 
723	 0.14994403493599 
724	 0.150343112887744 
725	 0.15067839098434 
726	 0.151000648181234 
727	 0.151306673441029 
728	 0.151608646592499 
729	 0.151931639219707 
730	 0.1522474356382 
731	 0.152534880712589 
732	 0.152790339626869 
733	 0.153050309256492 
734	 0.15325926027945 
735	 0.153445562258958 
736	 0.15365358584729 
737	 0.153789258628758 
738	 0.153944255145042 
739	 0.154119148154316 
740	 0.154205675490307 
741	 0.154326026478466 
742	 0.154420104327014 
743	 0.154438683512989 
744	 0.154467835251419 
745	 0.154470640145351 
746	 0.154471751528832 
747	 0.15450592876954 
748	 0.154472826027751 
749	 0.154418335733176 
750	 0.154366510544138 
751	 0.154298694871255 
752	 0.154208736592249 
753	 0.154088563173147 
754	 0.153938558154242 
755	 0.153777906068943 
756	 0.15363329216024 
757	 0.153468809892546 
758	 0.153237721760351 
759	 0.153073669383836 
760	 0.152885201838441 
761	 0.152649736900837 
762	 0.152455213207722 
763	 0.152207606214847 
764	 0.151945300644818 
765	 0.151709018722784 
766	 0.15145328446811 
767	 0.15119065817442 
768	 0.150903790974388 
769	 0.150573387894933 
770	 0.150265582623339 
771	 0.149998661882423 
772	 0.149746001193421 
773	 0.149437173921502 
774	 0.149170643461879 
775	 0.148865790690264 
776	 0.148481924511142 
777	 0.148199922678259 
778	 0.147881430762277 
779	 0.147536041475123 
780	 0.147230822836465 
781	 0.146935431395877 
782	 0.146654272947966 
783	 0.146362874970198 
784	 0.146011186771761 
785	 0.145687600864395 
786	 0.145377612021761 
787	 0.145060874387104 
788	 0.144756847875958 
789	 0.144429622784183 
790	 0.14409286346404 
791	 0.143780605864245 
792	 0.14352729724388 
793	 0.143235275224723 
794	 0.142903644941431 
795	 0.142617225005417 
796	 0.142345501984352 
797	 0.142042020837379 
798	 0.141711035868788 
799	 0.141451973622096 
800	 0.141218305860549 
801	 0.140950902079305 
802	 0.140628346898803 
803	 0.140390065590396 
804	 0.14013566715715 
805	 0.139854965857411 
806	 0.139595022954634 
807	 0.139336374322149 
808	 0.139085590205125 
809	 0.138847366372841 
810	 0.138619903532196 
811	 0.138388932649703 
812	 0.138149698255471 
813	 0.13790952616223 
814	 0.137701675390545 
815	 0.137491939680709 
816	 0.137279394450227 
817	 0.137078878533412 
818	 0.136912264630522 
819	 0.136715333304605 
820	 0.136485426853447 
821	 0.13627660151388 
822	 0.13609980766982 
823	 0.135937323315262 
824	 0.135768502022288 
825	 0.135576746621311 
826	 0.135438706639931 
827	 0.135309734236763 
828	 0.135136584232772 
829	 0.134950353113084 
830	 0.134761384367144 
831	 0.134624097051361 
832	 0.134577343337987 
833	 0.134455544350107 
834	 0.13430409840708 
835	 0.134156741711616 
836	 0.134020859879699 
837	 0.133902882138512 
838	 0.133807959431005 
839	 0.133735164550101 
840	 0.133676558924902 
841	 0.133579664256872 
842	 0.133456480911581 
843	 0.133347394218566 
844	 0.133321729958879 
845	 0.133246797611019 
846	 0.13314322687294 
847	 0.133088793809571 
848	 0.133025706788091 
849	 0.132959030000367 
850	 0.132911711901022 
851	 0.132910764128578 
852	 0.132899329526023 
853	 0.132857690586625 
854	 0.132794573648889 
855	 0.132749172475299 
856	 0.13269202152718 
857	 0.132682914481274 
858	 0.132729827535555 
859	 0.132651840837858 
860	 0.132646237662173 
861	 0.132685185386697 
862	 0.132689134563571 
863	 0.132738525120455 
864	 0.132762492904784 
865	 0.132740980410733 
866	 0.132700361573897 
867	 0.132716189650371 
868	 0.132756786015251 
869	 0.132806615381637 
870	 0.132873859966618 
871	 0.13290285087952 
872	 0.13291671077257 
873	 0.132958431777662 
874	 0.133076765830499 
875	 0.133131128067505 
876	 0.133189377931632 
877	 0.133303151965229 
878	 0.133329419343636 
879	 0.133443687926121 
880	 0.133560367485787 
881	 0.1335720958481 
882	 0.133680561469673 
883	 0.133809251613927 
884	 0.133922351783705 
885	 0.134017216593424 
886	 0.134118478825519 
887	 0.134270323927861 
888	 0.134413279743191 
889	 0.134432608416443 
890	 0.134556849226527 
891	 0.134724426798616 
892	 0.134885763509801 
893	 0.135053764537349 
894	 0.135164018794768 
895	 0.135291373379812 
896	 0.135480041220782 
897	 0.135669854032785 
898	 0.135874459323003 
899	 0.136035260649475 
900	 0.136145340284499 
901	 0.136377391189712 
902	 0.136596635252946 
903	 0.136766354659221 
904	 0.136901901136784 
905	 0.137066822460762 
906	 0.137267838370521 
907	 0.137486202390657 
908	 0.137712660398027 
909	 0.138068698268825 
910	 0.138317229053476 
911	 0.138501869051569 
912	 0.138815082337346 
913	 0.139012092455308 
914	 0.139223088037709 
915	 0.139492636405157 
916	 0.1397606160188 
917	 0.140007690044778 
918	 0.140291828348637 
919	 0.140607114053098 
920	 0.14087205184518 
921	 0.141187202868283 
922	 0.141525028329992 
923	 0.141850476364679 
924	 0.142154640265151 
925	 0.142470929265114 
926	 0.142802130235813 
927	 0.143124396735701 
928	 0.143380168169475 
929	 0.143712424404631 
930	 0.144084180112587 
931	 0.144438511102145 
932	 0.144789308544983 
933	 0.145161221290619 
934	 0.145541367199182 
935	 0.145916541351298 
936	 0.14631071236129 
937	 0.146671884634538 
938	 0.147039814854684 
939	 0.147467091188086 
940	 0.147946279129991 
941	 0.148342802559749 
942	 0.148712784277314 
943	 0.149149940833106 
944	 0.149555868129996 
945	 0.149976055013876 
946	 0.150414378121286 
947	 0.150856026529411 
948	 0.151299147103515 
949	 0.151770764915033 
950	 0.152257041028834 
951	 0.152731544628953 
952	 0.153221348775968 
953	 0.153681902974804 
954	 0.154133756277656 
955	 0.154628515766229 
956	 0.155166758508758 
957	 0.15564880582515 
958	 0.156103238331934 
959	 0.156614835637184 
960	 0.157070240412428 
961	 0.157645042756484 
962	 0.158286674421863 
963	 0.158816937637596 
964	 0.159313572997526 
965	 0.159950304114249 
966	 0.160621836223683 
967	 0.161102463234619 
968	 0.161648130745563 
969	 0.162258109332773 
970	 0.162910198470967 
971	 0.163555604279073 
972	 0.164045443908837 
973	 0.164540274200469 
974	 0.165096336887612 
975	 0.165699220792237 
976	 0.166499621802012 
977	 0.167170115300515 
978	 0.167709182798262 
979	 0.168330021588376 
980	 0.168998201522263 
981	 0.169637480412176 
982	 0.170245106546969 
983	 0.170864888253995 
984	 0.171498591097865 
985	 0.172092749976999 
986	 0.172687167248668 
987	 0.173354023096544 
988	 0.174042296046939 
989	 0.17471277043018 
990	 0.17537995450366 
991	 0.176086192034123 
992	 0.176872608768174 
993	 0.177484331159383 
994	 0.178033354611432 
995	 0.178713976830163 
996	 0.179279615562339 
997	 0.180007821637642 
998	 0.180737482666425 
999	 0.181293782507901 
1000	 0.182106757224889 
1001	 0.184287316161811 
1002	 0.184967032367273 
1003	 0.185679125719827 
1004	 0.18636538152263 
1005	 0.187031198732877 
1006	 0.18769623444711 
1007	 0.18837047988563 
1008	 0.18902106213666 
1009	 0.189636635326224 
1010	 0.190250768105013 
1011	 0.190867778709677 
1012	 0.191482317159061 
1013	 0.19210741630293 
1014	 0.192794791410178 
1015	 0.193427982014472 
1016	 0.194004388471577 
1017	 0.194606376039832 
1018	 0.195200883788036 
1019	 0.195749873125689 
1020	 0.196357935085101 
1021	 0.196969187125988 
1022	 0.1975278020993 
1023	 0.19813941046215 
1024	 0.198701358637999 
1025	 0.1992458120414 
1026	 0.199862457336392 
1027	 0.200417537418589 
1028	 0.200948985292738 
1029	 0.201537015451846 
1030	 0.20208786407904 
1031	 0.202617164061897 
1032	 0.203127659233903 
1033	 0.203648718843432 
1034	 0.20415894652924 
1035	 0.204677513883551 
1036	 0.205219974244324 
1037	 0.205755132657488 
1038	 0.206262688774138 
1039	 0.206738859661057 
1040	 0.207200395567035 
1041	 0.207668949151262 
1042	 0.208148357982605 
1043	 0.208719426141767 
1044	 0.209261947002118 
1045	 0.209824869375162 
1046	 0.210347580454052 
1047	 0.210882282236582 
1048	 0.211367884669475 
1049	 0.211866347301291 
1050	 0.212435999186768 
1051	 0.213007940110924 
1052	 0.213524042702554 
1053	 0.214034630031663 
1054	 0.214535893497821 
1055	 0.2149904405102 
1056	 0.21547437887651 
1057	 0.215976552793641 
1058	 0.216471614657765 
1059	 0.216984824831617 
1060	 0.217532994095777 
1061	 0.218080217842072 
1062	 0.218608724649055 
1063	 0.219092644036073 
1064	 0.219539528427763 
1065	 0.220031148949044 
1066	 0.220563296897779 
1067	 0.221099911545773 
1068	 0.221614679259563 
1069	 0.222073266753759 
1070	 0.222540412685511 
1071	 0.222936853381175 
1072	 0.223383037918136 
1073	 0.223874620202173 
1074	 0.224351061591651 
1075	 0.22482144344016 
1076	 0.22526361164938 
1077	 0.225736439711942 
1078	 0.226191357065254 
1079	 0.226644823996183 
1080	 0.227129302785838 
1081	 0.227606940357323 
1082	 0.228094701112419 
1083	 0.228578230519841 
1084	 0.2290639097496 
1085	 0.229527472027317 
1086	 0.229976584546453 
1087	 0.230447711978491 
1088	 0.230914586905801 
1089	 0.231370804844967 
1090	 0.231873925137013 
1091	 0.232350383521268 
1092	 0.232830761053891 
1093	 0.233363572820651 
1094	 0.233874299142748 
1095	 0.23435894182791 
1096	 0.234813383383434 
1097	 0.23526033943693 
1098	 0.23573905977751 
1099	 0.236221364428871 
1100	 0.236724266067538 
1101	 0.237270186630189 
1102	 0.2377894804974 
1103	 0.238289281186263 
1104	 0.238828540456514 
1105	 0.239365531688013 
1106	 0.23990696396101 
1107	 0.240487255847574 
1108	 0.241036342081769 
1109	 0.241580268457671 
1110	 0.242120669656123 
1111	 0.242663586939086 
1112	 0.243201142690053 
1113	 0.243745990515376 
1114	 0.24427203859386 
1115	 0.244851563552941 
1116	 0.245475116293726 
1117	 0.246066643677533 
1118	 0.246680541150582 
1119	 0.247279875482764 
1120	 0.247854288246494 
1121	 0.248411504964626 
1122	 0.248988734753149 
1123	 0.249605241361545 
1124	 0.250201156727962 
1125	 0.250793227729603 
1126	 0.251384246933315 
1127	 0.251978666183831 
1128	 0.252568694560837 
1129	 0.253144066377406 
1130	 0.253736869084721 
1131	 0.254336364562254 
1132	 0.25493413745866 
1133	 0.255567994902687 
1134	 0.25615849603396 
1135	 0.256718535436051 
1136	 0.25728228819022 
1137	 0.257844166686459 
1138	 0.258378747464994 
1139	 0.258945407495911 
1140	 0.259547095588061 
1141	 0.260113864718328 
1142	 0.260676440107459 
1143	 0.261230510367186 
1144	 0.2617748537037 
1145	 0.262307561202643 
1146	 0.262809054898702 
1147	 0.263345181757797 
1148	 0.263906692780322 
1149	 0.264442229720266 
1150	 0.2649842587985 
1151	 0.265517954115359 
1152	 0.26603205454128 
1153	 0.266531248824067 
1154	 0.267072923766897 
1155	 0.267660103170915 
1156	 0.268198033832623 
1157	 0.268734221626365 
1158	 0.269262070191641 
1159	 0.269754828295926 
1160	 0.270269289062024 
1161	 0.270804281221032 
1162	 0.271325130971548 
1163	 0.271849220573601 
1164	 0.272359365012541 
1165	 0.272855912682782 
1166	 0.273355700082491 
1167	 0.273852052291247 
1168	 0.274330853312533 
1169	 0.27481381834475 
1170	 0.275295833734043 
1171	 0.275775708377025 
1172	 0.276247631589123 
1173	 0.276727045813361 
1174	 0.27721749420422 
1175	 0.277694635482224 
1176	 0.278174591272578 
1177	 0.278641684038979 
1178	 0.279099670255358 
1179	 0.279547229449725 
1180	 0.279977411866457 
1181	 0.280415150079739 
1182	 0.280838486938789 
1183	 0.281279794247902 
1184	 0.281724282721087 
1185	 0.282189274893932 
1186	 0.282619021115182 
1187	 0.283051326331466 
1188	 0.283455246878173 
1189	 0.283822567900118 
1190	 0.284204819398023 
1191	 0.284579453067203 
1192	 0.284954333720208 
1193	 0.285329969745321 
1194	 0.285703987564568 
1195	 0.286074367255887 
1196	 0.286443905615124 
1197	 0.286819679882712 
1198	 0.287183817267166 
1199	 0.287541887963469 
1200	 0.2878912169295 
1201	 0.288249028052975 
1202	 0.288607870189793 
1203	 0.288955380557971 
1204	 0.28931250522753 
1205	 0.289643680639024 
1206	 0.289955158357439 
1207	 0.290262611892434 
1208	 0.290552923809207 
1209	 0.290849556255474 
1210	 0.291140679684981 
1211	 0.291431752819821 
1212	 0.291728538724314 
1213	 0.292016658850469 
1214	 0.292299196658518 
1215	 0.292578311620078 
1216	 0.292853326688847 
1217	 0.293127227067022 
1218	 0.293387317451126 
1219	 0.29364315662119 
1220	 0.293886203787132 
1221	 0.294103712715946 
1222	 0.294346362990432 
1223	 0.29459368104155 
1224	 0.294838590751864 
1225	 0.295094087674741 
1226	 0.295346212999566 
1227	 0.295611234147169 
1228	 0.295844758642518 
1229	 0.296067442643432 
1230	 0.296283635419299 
1231	 0.296462023434162 
1232	 0.296655175289648 
1233	 0.296852509642258 
1234	 0.297056597220195 
1235	 0.297260820891104 
1236	 0.297472238613365 
1237	 0.297671711122979 
1238	 0.297878551863018 
1239	 0.298063201448578 
1240	 0.298226781830624 
1241	 0.298399376045693 
1242	 0.298562922503011 
1243	 0.298729950330227 
1244	 0.298898823478588 
1245	 0.299070323707889 
1246	 0.299248704419564 
1247	 0.299416158005977 
1248	 0.299593846398356 
1249	 0.299750577572669 
1250	 0.299886529900908 
1251	 0.300003162064627 
1252	 0.30014179883821 
1253	 0.300274231083532 
1254	 0.30041697336492 
1255	 0.300591555980316 
1256	 0.300721989760372 
1257	 0.300822626819487 
1258	 0.300944231053458 
1259	 0.301055918175742 
1260	 0.301171891231553 
1261	 0.301314571572305 
1262	 0.301427455106579 
1263	 0.301504458390743 
1264	 0.301607084666414 
1265	 0.301720653236382 
1266	 0.301820331675696 
1267	 0.301919727303688 
1268	 0.302034674555314 
1269	 0.302121428089857 
1270	 0.302173008066293 
1271	 0.302266110974533 
1272	 0.302363712962205 
1273	 0.302474293126544 
1274	 0.302614846396038 
1275	 0.302734692597421 
1276	 0.302849679760583 
1277	 0.302969238320324 
1278	 0.303085057277862 
1279	 0.303204152522271 
1280	 0.303339111564739 
1281	 0.303455288694161 
1282	 0.30355440902092 
1283	 0.303661610305101 
1284	 0.303770792895959 
1285	 0.303870595448163 
1286	 0.303952644550793 
1287	 0.304048554366887 
1288	 0.304133401698761 
1289	 0.304199398454927 
1290	 0.304276544145119 
1291	 0.304365963429424 
1292	 0.304438653791309 
1293	 0.304496773892464 
1294	 0.304565010809915 
1295	 0.304647854885147 
1296	 0.304699341605717 
1297	 0.304750694798455 
1298	 0.304774994391496 
1299	 0.304750220945491 
1300	 0.304747189371379 
1301	 0.304741041220084 
1302	 0.304736320429631 
1303	 0.304732794457481 
1304	 0.304741006057897 
1305	 0.304736501447182 
1306	 0.304720404247596 
1307	 0.304718145649071 
1308	 0.30471048624056 
1309	 0.304696976481391 
1310	 0.304684837914938 
1311	 0.30466376378823 
1312	 0.304622882643069 
1313	 0.304607147830605 
1314	 0.304600255716572 
1315	 0.304589661101395 
1316	 0.304589667623113 
1317	 0.304585979084553 
1318	 0.304581106013419 
1319	 0.304570256541098 
1320	 0.304559792286498 
1321	 0.304549439128617 
1322	 0.304529852992022 
1323	 0.304509090085543 
1324	 0.304514400626681 
1325	 0.304527376806249 
1326	 0.304543315453074 
1327	 0.304572580026393 
1328	 0.304570413886928 
1329	 0.30456310951558 
1330	 0.304578296587513 
1331	 0.304589906434735 
1332	 0.30461587690233 
1333	 0.304677144828561 
1334	 0.304704135934767 
1335	 0.304709039149527 
1336	 0.304740600094149 
1337	 0.304769265364798 
1338	 0.304808918326433 
1339	 0.304876922104743 
1340	 0.304923431216915 
1341	 0.304961968183835 
1342	 0.305003205905531 
1343	 0.305042369433345 
1344	 0.305073604615199 
1345	 0.305116969544149 
1346	 0.305152536831875 
1347	 0.305191933536859 
1348	 0.305247159131949 
1349	 0.305300520136956 
1350	 0.305372917747062 
1351	 0.305436548510566 
1352	 0.30551170452192 
1353	 0.305559644361388 
1354	 0.305596239020749 
1355	 0.305625210531223 
1356	 0.305631022033331 
1357	 0.305657267826708 
1358	 0.305685921152537 
1359	 0.305719063688625 
1360	 0.305770601294592 
1361	 0.305799125600523 
1362	 0.30582475815434 
1363	 0.305837295973437 
1364	 0.305843825645832 
1365	 0.305826745094292 
1366	 0.305795156406933 
1367	 0.305752403747642 
1368	 0.305674745558103 
1369	 0.305591222631733 
1370	 0.30551184309428 
1371	 0.305414388476626 
1372	 0.305299771167499 
1373	 0.305161901525931 
1374	 0.305002010272832 
1375	 0.304813659351249 
1376	 0.304606799708847 
1377	 0.304391495107172 
1378	 0.30413599929775 
1379	 0.303866695910946 
1380	 0.30352827257237 
1381	 0.303150028134468 
1382	 0.302717499732518 
1383	 0.302223974336177 
1384	 0.301699945427053 
1385	 0.301146714625004 
1386	 0.300539677746583 
1387	 0.29989571195544 
1388	 0.299192719064951 
1389	 0.29843755374473 
1390	 0.297632704973848 
1391	 0.296775990524679 
1392	 0.295848612913419 
1393	 0.294880427577967 
1394	 0.293880836435359 
1395	 0.292822737059145 
1396	 0.291750926755081 
1397	 0.290663905669425 
1398	 0.289540374490873 
1399	 0.288422105892222 
1400	 0.287277849460718 
1401	 0.286172423173157 
1402	 0.285063107453484 
1403	 0.283988162025843 
1404	 0.282936057359224 
1405	 0.281919041493903 
1406	 0.280921449804318 
1407	 0.279950398153347 
1408	 0.278982785179269 
1409	 0.278099234294786 
1410	 0.277227621678249 
1411	 0.276469175332193 
1412	 0.275795202232993 
1413	 0.275205089282121 
1414	 0.274708473315313 
1415	 0.274249237319856 
1416	 0.273850090160956 
1417	 0.273498248428718 
1418	 0.273171571633042 
1419	 0.272894767637496 
1420	 0.272638191461843 
1421	 0.272416907474183 
1422	 0.272221565866396 
1423	 0.272007591732904 
1424	 0.271803746818977 
1425	 0.271613478422839 
1426	 0.271420378788425 
1427	 0.271213568589629 
1428	 0.271039248639444 
1429	 0.27087577065704 
1430	 0.270730965090593 
1431	 0.270609307465334 
1432	 0.270495904702206 
1433	 0.270395726546583 
1434	 0.270304992348906 
1435	 0.270233618974058 
1436	 0.270157802658419 
1437	 0.270072387274953 
1438	 0.27002254623226 
1439	 0.269992037747403 
1440	 0.269963684996888 
1441	 0.269950215115115 
1442	 0.269953744584724 
1443	 0.26996253621754 
1444	 0.269964228324092 
1445	 0.269998449270121 
1446	 0.270052334061657 
1447	 0.270074384027906 
1448	 0.270099976789435 
1449	 0.270120325416228 
1450	 0.270126482287205 
1451	 0.270160412928497 
1452	 0.270210188819752 
1453	 0.270258063156721 
1454	 0.270320105801169 
1455	 0.270374736577973 
1456	 0.270415864741832 
1457	 0.270482003024608 
1458	 0.27055406610197 
1459	 0.270651187831089 
1460	 0.270769781056856 
1461	 0.270892939519055 
1462	 0.271032781572804 
1463	 0.271179707479777 
1464	 0.27133665388851 
1465	 0.271502186796536 
1466	 0.271668056650854 
1467	 0.271861875145441 
1468	 0.272071041156653 
1469	 0.272290191818084 
1470	 0.272528765745011 
1471	 0.272789404243786 
1472	 0.273047398634635 
1473	 0.273326863962521 
1474	 0.273626076145653 
1475	 0.273923218534467 
1476	 0.274233411628188 
1477	 0.274562319740571 
1478	 0.274886594750009 
1479	 0.275203008436857 
1480	 0.275526579164106 
1481	 0.27584754180512 
1482	 0.276177210370992 
1483	 0.276522262027986 
1484	 0.276862134185908 
1485	 0.277196751861164 
1486	 0.27754192261976 
1487	 0.277895080929165 
1488	 0.278242264513192 
1489	 0.278597308227236 
1490	 0.278942824085858 
1491	 0.279286094455849 
1492	 0.279620934636721 
1493	 0.279946750693734 
1494	 0.280274050406421 
1495	 0.280590337363605 
1496	 0.28091218134555 
1497	 0.281241666536371 
1498	 0.281567570689427 
1499	 0.281901831422592 
1500	 0.282218171654434 
1501	 0.282518253876042 
1502	 0.282820339454468 
1503	 0.283113236890663 
1504	 0.28340681123263 
1505	 0.28369792319517 
1506	 0.28399441582395 
1507	 0.284270833611613 
1508	 0.284536827172771 
1509	 0.284801479006197 
1510	 0.285056184723455 
1511	 0.285323140925849 
1512	 0.285592658902425 
1513	 0.28585333566595 
1514	 0.286130635994711 
1515	 0.286400216770654 
1516	 0.286650887824758 
1517	 0.286896002341028 
1518	 0.287130693677798 
1519	 0.28736867096118 
1520	 0.287603749584381 
1521	 0.287828384320112 
1522	 0.288047458669226 
1523	 0.288270579120532 
1524	 0.288479399497261 
1525	 0.288706255207754 
1526	 0.288949723108303 
1527	 0.28917969435047 
1528	 0.289416483833102 
1529	 0.289629677707044 
1530	 0.289834526106812 
1531	 0.290032628219631 
1532	 0.290206878871492 
1533	 0.290389979083507 
1534	 0.290567653534207 
1535	 0.290748587045148 
1536	 0.290937417433569 
1537	 0.291117634383921 
1538	 0.291302110219435 
1539	 0.291472029718076 
1540	 0.291623305721247 
1541	 0.29178494759626 
1542	 0.291943988312119 
1543	 0.292096284179671 
1544	 0.29225431247705 
1545	 0.292403163948224 
1546	 0.292529274932628 
1547	 0.292677672068838 
1548	 0.292827967033561 
1549	 0.292980673271117 
1550	 0.293138729951757 
1551	 0.293283021767581 
1552	 0.293434077071193 
1553	 0.293581814309178 
1554	 0.293714567651503 
1555	 0.29385075643647 
1556	 0.293993073966877 
1557	 0.294123881534984 
1558	 0.294244467291204 
1559	 0.294368191793028 
1560	 0.294484752311886 
1561	 0.29457470375913 
1562	 0.294700002972212 
1563	 0.294849935167554 
1564	 0.294968460420547 
1565	 0.295085254256661 
1566	 0.295203771710839 
1567	 0.295304791580316 
1568	 0.295422445549049 
1569	 0.29556094095207 
1570	 0.295670897809648 
1571	 0.295766681102668 
1572	 0.295867074891047 
1573	 0.29595591578882 
1574	 0.296053157862893 
1575	 0.296151784696961 
1576	 0.296259145656348 
1577	 0.296386093831457 
1578	 0.29648424710844 
1579	 0.296579727460692 
1580	 0.296657493470621 
1581	 0.296694440320162 
1582	 0.296761042052854 
1583	 0.296829929606319 
1584	 0.296912891865677 
1585	 0.297025026244689 
1586	 0.297113064886862 
1587	 0.297200444384073 
1588	 0.29727922106887 
1589	 0.29733531271657 
1590	 0.297403012778316 
1591	 0.29747479054896 
1592	 0.297544749137529 
1593	 0.297617916005465 
1594	 0.297687937414539 
1595	 0.297751979536802 
1596	 0.29782284412905 
1597	 0.2979106097671 
1598	 0.29797324438298 
1599	 0.298021222751034 
1600	 0.298072280321428 
1601	 0.298108330699863 
1602	 0.298143933374672 
1603	 0.298183135497223 
1604	 0.298224068383979 
1605	 0.298247685530507 
1606	 0.298289412900517 
1607	 0.298353516186599 
1608	 0.29840635439497 
1609	 0.298458967676479 
1610	 0.298517284772563 
1611	 0.298577479532351 
1612	 0.298641836905135 
1613	 0.298698095949634 
1614	 0.298766243694807 
1615	 0.29883216454009 
1616	 0.298876354700099 
1617	 0.298897287645049 
1618	 0.298902402693108 
1619	 0.298910535524035 
1620	 0.298916062613776 
1621	 0.298945917856269 
1622	 0.299016472236846 
1623	 0.299045978468928 
1624	 0.299067261326731 
1625	 0.299076983085819 
1626	 0.299064438766402 
1627	 0.299069924530443 
1628	 0.299073703282603 
1629	 0.299083906134494 
1630	 0.299103390741413 
1631	 0.299120668792411 
1632	 0.299131049858972 
1633	 0.299160745830026 
1634	 0.299205844406 
1635	 0.299241584603745 
1636	 0.299283458000465 
1637	 0.299323830722633 
1638	 0.299370347969224 
1639	 0.299383850329053 
1640	 0.299386761117444 
1641	 0.29939038360918 
1642	 0.299366531201142 
1643	 0.299356475242252 
1644	 0.299359524573531 
1645	 0.299351211462664 
1646	 0.299325355426906 
1647	 0.299320312793907 
1648	 0.299320179706106 
1649	 0.299334432592337 
1650	 0.299369867657768 
1651	 0.299386351000956 
1652	 0.299406642690605 
1653	 0.299422088158461 
1654	 0.299426429309795 
1655	 0.299430856382425 
1656	 0.299435700153728 
1657	 0.299442715889333 
1658	 0.299453182167988 
1659	 0.299443329773587 
1660	 0.299432356250912 
1661	 0.299408815365059 
1662	 0.299354717251538 
1663	 0.299320728602963 
1664	 0.299287826036982 
1665	 0.299266133974334 
1666	 0.299249649750404 
1667	 0.299241421301669 
1668	 0.29925422458618 
1669	 0.299246996983198 
1670	 0.299228691431293 
1671	 0.299226335611903 
1672	 0.299222935385761 
1673	 0.299222714304642 
1674	 0.299245504250246 
1675	 0.299242721671343 
1676	 0.29922048429937 
1677	 0.299207537013825 
1678	 0.299194298832509 
1679	 0.299173091194116 
1680	 0.299155723590559 
1681	 0.299122517509024 
1682	 0.299060302341375 
1683	 0.299028556444206 
1684	 0.299007694583064 
1685	 0.298982757352402 
1686	 0.298983410779232 
1687	 0.298950247340021 
1688	 0.298888148017419 
1689	 0.298842368646426 
1690	 0.298786567907467 
1691	 0.298744079161558 
1692	 0.298705522101668 
1693	 0.298684433576665 
1694	 0.298677398188437 
1695	 0.298669980026358 
1696	 0.298695253647863 
1697	 0.298676433826164 
1698	 0.298642250951089 
1699	 0.298589041212173 
1700	 0.298502691894587 
1701	 0.29842566726917 
1702	 0.298331497337761 
1703	 0.298254338261779 
1704	 0.298185755865959 
1705	 0.298112278816998 
1706	 0.298036769197927 
1707	 0.297976314711306 
1708	 0.297920634590847 
1709	 0.297864421808863 
1710	 0.297812611338655 
1711	 0.297778279197552 
1712	 0.297751705922659 
1713	 0.297723621599962 
1714	 0.297723142899831 
1715	 0.297691491252189 
1716	 0.297648989881182 
1717	 0.297587081676018 
1718	 0.297503779845414 
1719	 0.29742541976588 
1720	 0.297329121512981 
1721	 0.297236017416878 
1722	 0.297138594016023 
1723	 0.297060207640771 
1724	 0.296992749882775 
1725	 0.296909250970447 
1726	 0.296844225146654 
1727	 0.296749219945312 
1728	 0.296625018104817 
1729	 0.296502953927138 
1730	 0.296373243242563 
1731	 0.296234551062732 
1732	 0.296078273142978 
1733	 0.295936523940095 
1734	 0.295798299377915 
1735	 0.295660415956484 
1736	 0.29551927207877 
1737	 0.295394647404424 
1738	 0.295273931617032 
1739	 0.295162662299592 
1740	 0.295080444029856 
1741	 0.29496805066973 
1742	 0.294846434928941 
1743	 0.294714385584447 
1744	 0.294561773031084 
1745	 0.294423648718336 
1746	 0.29428286748683 
1747	 0.294151131043189 
1748	 0.294045803875357 
1749	 0.293926791776634 
1750	 0.29377673636848 
1751	 0.293619700744254 
1752	 0.293439063696251 
1753	 0.293281490793475 
1754	 0.293148519737391 
1755	 0.293015659847721 
1756	 0.292894215522696 
1757	 0.292768848085369 
1758	 0.292653825879298 
1759	 0.292548915945095 
1760	 0.292433131321995 
1761	 0.29229555627201 
1762	 0.292142686870171 
1763	 0.291997036095662 
1764	 0.291858001134628 
1765	 0.291726109848388 
1766	 0.29160345112425 
1767	 0.291467275281879 
1768	 0.291326429023828 
1769	 0.291208080586205 
1770	 0.291092238394197 
1771	 0.291010375035213 
1772	 0.290955813138367 
1773	 0.290851441406052 
1774	 0.290734336759153 
1775	 0.290617484720861 
1776	 0.290460637095804 
1777	 0.290312209150048 
1778	 0.290206812768783 
1779	 0.290089228836997 
1780	 0.289967622200038 
1781	 0.289884546933268 
1782	 0.289814608952028 
1783	 0.289748813065485 
1784	 0.289696883759527 
1785	 0.289671637185276 
1786	 0.289626053442542 
1787	 0.289575663865782 
1788	 0.289537239579166 
1789	 0.289504033998612 
1790	 0.289458175186355 
1791	 0.289399361072193 
1792	 0.289358401199089 
1793	 0.289321045308942 
1794	 0.289280747793297 
1795	 0.289283896168703 
1796	 0.2892356633107 
1797	 0.289115413336804 
1798	 0.289056192936268 
1799	 0.28899966365086 
1800	 0.288965929655688 
1801	 0.285285237411192 
1802	 0.285284666720142 
1803	 0.285278935327839 
1804	 0.285262581954569 
1805	 0.285268146541315 
1806	 0.285261680676307 
1807	 0.285245113964541 
1808	 0.285248840068143 
1809	 0.285270181006639 
1810	 0.285276007567082 
1811	 0.285287105128682 
1812	 0.28529608305761 
1813	 0.285302588045273 
1814	 0.285272441464494 
1815	 0.285212346097689 
1816	 0.285196609732017 
1817	 0.285160343717558 
1818	 0.285098971929568 
1819	 0.285054248723556 
1820	 0.285029846532015 
1821	 0.284972108571288 
1822	 0.284914168699742 
1823	 0.284879782197915 
1824	 0.284822727775458 
1825	 0.284744180981488 
1826	 0.284663193918989 
1827	 0.284579676992249 
1828	 0.284491930983039 
1829	 0.284402703014251 
1830	 0.284315794438723 
1831	 0.284229906616021 
1832	 0.284124718780912 
1833	 0.284036670840579 
1834	 0.283945678956648 
1835	 0.283846489102635 
1836	 0.283730060210464 
1837	 0.283597880178643 
1838	 0.283496616998119 
1839	 0.283381113879592 
1840	 0.283265983251267 
1841	 0.283135760075932 
1842	 0.283014666483987 
1843	 0.282871557153939 
1844	 0.282723055720021 
1845	 0.28258186182133 
1846	 0.282416592144449 
1847	 0.282217611003065 
1848	 0.282001712049485 
1849	 0.281790746888968 
1850	 0.281550705564822 
1851	 0.281298790541313 
1852	 0.281013527392425 
1853	 0.280732889384687 
1854	 0.280438178502457 
1855	 0.280123480109033 
1856	 0.279818526990651 
1857	 0.279471160695582 
1858	 0.279054618173175 
1859	 0.278615683722625 
1860	 0.278150061666005 
1861	 0.277655930980915 
1862	 0.277124246077973 
1863	 0.27654337336358 
1864	 0.275901542036986 
1865	 0.275207105033528 
1866	 0.274435453506528 
1867	 0.273608437546551 
1868	 0.27274057145618 
1869	 0.271786481430556 
1870	 0.270744226134065 
1871	 0.26960940545354 
1872	 0.268388068369085 
1873	 0.267099247296906 
1874	 0.265733270869399 
1875	 0.264258219832457 
1876	 0.262729547390174 
1877	 0.261084620049602 
1878	 0.25927972684643 
1879	 0.257407678295555 
1880	 0.255424321555313 
1881	 0.253314028909125 
1882	 0.251111534590645 
1883	 0.248835555099686 
1884	 0.246382127960031 
1885	 0.243830313953844 
1886	 0.241183329005676 
1887	 0.238398932158028 
1888	 0.235577138112627 
1889	 0.23268472057947 
1890	 0.229739865865976 
1891	 0.226822153082862 
1892	 0.223845382068692 
1893	 0.220934272293484 
1894	 0.218038154239026 
1895	 0.215184828405445 
1896	 0.212330935442456 
1897	 0.209579013583679 
1898	 0.206855444216268 
1899	 0.204203771044385 
1900	 0.201698677758935 
1901	 0.199278902902059 
1902	 0.19698933870269 
1903	 0.194842890063155 
1904	 0.192796882133865 
1905	 0.190853522347884 
1906	 0.189043614489929 
1907	 0.18735215169078 
1908	 0.185776426409346 
1909	 0.184313784481383 
1910	 0.182952923454194 
1911	 0.181697010701273 
1912	 0.180527799751982 
1913	 0.179434795260636 
1914	 0.178423041248964 
1915	 0.177499204091422 
1916	 0.17666145968194 
1917	 0.175894724360329 
1918	 0.175222172037121 
1919	 0.174624852281809 
1920	 0.174082580634155 
1921	 0.173612738859196 
1922	 0.173204634506517 
1923	 0.172840238725955 
1924	 0.172544102274062 
1925	 0.172325278753525 
1926	 0.172141676167321 
1927	 0.172000283025434 
1928	 0.171928525527914 
1929	 0.171927760574257 
1930	 0.171946929021012 
1931	 0.172004309043384 
1932	 0.172111370496591 
1933	 0.172221898806479 
1934	 0.172366661572426 
1935	 0.172561408560151 
1936	 0.172805830814721 
1937	 0.173081420451386 
1938	 0.173401081908092 
1939	 0.173744105210538 
1940	 0.17413242983794 
1941	 0.174538699551547 
1942	 0.174938133854904 
1943	 0.175354208601177 
1944	 0.175787315965296 
1945	 0.17623870840998 
1946	 0.176702630974897 
1947	 0.177194135587983 
1948	 0.177695736288142 
1949	 0.178195014739364 
1950	 0.178724378728497 
1951	 0.179278193800162 
1952	 0.179856611120035 
1953	 0.180441138284408 
1954	 0.18104415752152 
1955	 0.181641767062665 
1956	 0.18223072756206 
1957	 0.182836409545431 
1958	 0.183444221739126 
1959	 0.184064125582077 
1960	 0.184704767098483 
1961	 0.185337668324723 
1962	 0.185969208317321 
1963	 0.186615548615925 
1964	 0.187257142090347 
1965	 0.187913828681957 
1966	 0.188624925162041 
1967	 0.189332186284551 
1968	 0.190031575799735 
1969	 0.190750090925119 
1970	 0.191454067959739 
1971	 0.192142136133415 
1972	 0.192832538590105 
1973	 0.193531036186367 
1974	 0.194220677203397 
1975	 0.194892643649409 
1976	 0.195571223948378 
1977	 0.19628047195674 
1978	 0.196985039057324 
1979	 0.197691923188298 
1980	 0.198414906807424 
1981	 0.199137558818465 
1982	 0.199855165350746 
1983	 0.200581355710112 
1984	 0.201331066712555 
1985	 0.202060738264019 
1986	 0.202789211689663 
1987	 0.203503808242695 
1988	 0.204213099546486 
1989	 0.204904229265267 
1990	 0.205583489386782 
1991	 0.206254407722797 
1992	 0.206943866199259 
1993	 0.207638780435524 
1994	 0.208333033273493 
1995	 0.209050042113239 
1996	 0.209735753233279 
1997	 0.210398889428252 
1998	 0.211074780150107 
1999	 0.211744323687361 
2000	 0.212412780497135 
2001	 0.213096843829263 
2002	 0.213759641571828 
2003	 0.214415161574497 
2004	 0.215059299622958 
2005	 0.215692072661126 
2006	 0.216307365708576 
2007	 0.216934922525672 
2008	 0.217548791095037 
2009	 0.218177573014983 
2010	 0.218830372503519 
2011	 0.219461034590332 
2012	 0.220087092489418 
2013	 0.220707709589977 
2014	 0.221326998652439 
2015	 0.221918619777437 
2016	 0.222520131044866 
2017	 0.223123980895334 
2018	 0.22372785156631 
2019	 0.224338215041249 
2020	 0.224932508423323 
2021	 0.225525693191162 
2022	 0.226108050611578 
2023	 0.226680669403565 
2024	 0.227244145479214 
2025	 0.227791910412799 
2026	 0.228341776607914 
2027	 0.228893390101016 
2028	 0.229425717939676 
2029	 0.229951675416462 
2030	 0.230479780803248 
2031	 0.230989070873631 
2032	 0.231471368031348 
2033	 0.231970706849598 
2034	 0.232463508196273 
2035	 0.232965562292264 
2036	 0.233486045580946 
2037	 0.233983472193742 
2038	 0.234476709803336 
2039	 0.234963493426654 
2040	 0.235450334211183 
2041	 0.23590391322301 
2042	 0.23635916440722 
2043	 0.236814337932628 
2044	 0.237245451639264 
2045	 0.237639652763341 
2046	 0.238072286394179 
2047	 0.238512201763247 
2048	 0.238943092181099 
2049	 0.239390904758041 
2050	 0.239827440543527 
2051	 0.240253192682164 
2052	 0.240669740917909 
2053	 0.241081722905903 
2054	 0.241494212621151 
2055	 0.241892586575059 
2056	 0.242302103261916 
2057	 0.242685937827005 
2058	 0.243064449345257 
2059	 0.243439912625347 
2060	 0.243786435337096 
2061	 0.244153773630018 
2062	 0.244536117683024 
2063	 0.244913047111995 
2064	 0.245303009037168 
2065	 0.245667979504685 
2066	 0.246020637169844 
2067	 0.24637150454387 
2068	 0.24671112482976 
2069	 0.247032430171473 
2070	 0.247368036179603 
2071	 0.247710798725343 
2072	 0.24804763901126 
2073	 0.248379567778168 
2074	 0.248716137355647 
2075	 0.249050052244836 
2076	 0.249393037015641 
2077	 0.249746219080548 
2078	 0.250092000276437 
2079	 0.250457761335084 
2080	 0.250792657408507 
2081	 0.251104939957193 
2082	 0.251415466286489 
2083	 0.251714674311614 
2084	 0.251991212892553 
2085	 0.252292107806339 
2086	 0.252597094918772 
2087	 0.252908903151862 
2088	 0.253234134824942 
2089	 0.253549636488912 
2090	 0.253873409895328 
2091	 0.254179671020482 
2092	 0.25448165605637 
2093	 0.254769872942237 
2094	 0.255037896276756 
2095	 0.255310649141706 
2096	 0.255566703233947 
2097	 0.255836432591501 
2098	 0.256111875091776 
2099	 0.256394357357644 
2100	 0.256669596338407 
2101	 0.256957578912476 
2102	 0.257218893176495 
2103	 0.257450219472586 
2104	 0.257718337349458 
2105	 0.257981296210729 
2106	 0.258265237867997 
2107	 0.258590801648689 
2108	 0.258891401602962 
2109	 0.259189656553443 
2110	 0.259485552505281 
2111	 0.259768521326678 
2112	 0.260062073225611 
2113	 0.260363471935265 
2114	 0.260663214776435 
2115	 0.260950627738673 
2116	 0.261245530333879 
2117	 0.261510691155688 
2118	 0.261753951600945 
2119	 0.261995659625808 
2120	 0.262218689768712 
2121	 0.262449039657606 
2122	 0.262659883514531 
2123	 0.262901130388901 
2124	 0.263164073485296 
2125	 0.263415295594243 
2126	 0.263702254079665 
2127	 0.263945687402111 
2128	 0.264145810988735 
2129	 0.264361651339735 
2130	 0.264582549013579 
2131	 0.264778290054441 
2132	 0.264952688061828 
2133	 0.265126943281108 
2134	 0.265273532860638 
2135	 0.265380718286681 
2136	 0.265487010574623 
2137	 0.26559251138251 
2138	 0.265673874528268 
2139	 0.265733314036943 
2140	 0.265773667389151 
2141	 0.265784404066077 
2142	 0.265803417630525 
2143	 0.265801061237628 
2144	 0.265806553243727 
2145	 0.265819680944702 
2146	 0.265830797059949 
2147	 0.265859883506295 
2148	 0.265855451379285 
2149	 0.26583218057725 
2150	 0.265804689865386 
2151	 0.265745260661329 
2152	 0.26564945267695 
2153	 0.265547269957974 
2154	 0.265423093769689 
2155	 0.265300708161411 
2156	 0.265159730832709 
2157	 0.265018876533553 
2158	 0.264889003858235 
2159	 0.26473342637067 
2160	 0.264560037606118 
2161	 0.264378945963213 
2162	 0.264166613482513 
2163	 0.263971418705294 
2164	 0.263781133569747 
2165	 0.263587150563425 
2166	 0.263387358284827 
2167	 0.263199776731093 
2168	 0.262984674466431 
2169	 0.262738490153732 
2170	 0.262521204998476 
2171	 0.262317000026681 
2172	 0.262085475786017 
2173	 0.261853130854241 
2174	 0.261616773194807 
2175	 0.261354393038638 
2176	 0.261101547686521 
2177	 0.260872398435884 
2178	 0.260612499927373 
2179	 0.260340599802724 
2180	 0.260050395995276 
2181	 0.259717546865665 
2182	 0.259409406713726 
2183	 0.25911332467249 
2184	 0.25878807808564 
2185	 0.258483474355215 
2186	 0.258209550234291 
2187	 0.257891120975153 
2188	 0.257534030657952 
2189	 0.257222780405188 
2190	 0.256891440678272 
2191	 0.256613147414161 
2192	 0.256375829275789 
2193	 0.256157958506307 
2194	 0.255979962396558 
2195	 0.255798085757393 
2196	 0.255643180839496 
2197	 0.255482541947257 
2198	 0.255309626570931 
2199	 0.255161843963268 
2200	 0.255024262830802 
2201	 0.254906798724943 
2202	 0.254811686484274 
2203	 0.254722804897246 
2204	 0.254667360463451 
2205	 0.254630099169263 
2206	 0.254624491104149 
2207	 0.25463970726867 
2208	 0.254703030843606 
2209	 0.254826976678918 
2210	 0.254920201621148 
2211	 0.255042261715034 
2212	 0.255156244061449 
2213	 0.255264762521881 
2214	 0.255359945472404 
2215	 0.255459022794934 
2216	 0.25555672698499 
2217	 0.25564399922041 
2218	 0.255716675785581 
2219	 0.255799268936447 
2220	 0.255861280059219 
2221	 0.255895438557621 
2222	 0.255918292916412 
2223	 0.255944385754628 
2224	 0.255968592198542 
2225	 0.255968461142648 
2226	 0.255954553606672 
2227	 0.255925807087389 
2228	 0.255879429700453 
2229	 0.255815705142233 
2230	 0.255723802357963 
2231	 0.255651574882297 
2232	 0.255563505225854 
2233	 0.255498867179896 
2234	 0.255468953914096 
2235	 0.255402594420219 
2236	 0.255330862253052 
2237	 0.255243594964423 
2238	 0.255127131199306 
2239	 0.255019111887255 
2240	 0.25490801572518 
2241	 0.254795696463978 
2242	 0.254671014938853 
2243	 0.254559885336435 
2244	 0.254460062600898 
2245	 0.254350878026421 
2246	 0.254236464873055 
2247	 0.254154619890812 
2248	 0.254070330347305 
2249	 0.253998202634502 
2250	 0.25389797620436 
2251	 0.253794331598932 
2252	 0.253702471281345 
2253	 0.253583845775289 
2254	 0.253493242348688 
2255	 0.253434453235333 
2256	 0.253359562161831 
2257	 0.253290730222491 
2258	 0.253210297344625 
2259	 0.253112702342388 
2260	 0.253042900877281 
2261	 0.252979118753848 
2262	 0.252908343586126 
2263	 0.252850536656696 
2264	 0.252797729470266 
2265	 0.252734448436367 
2266	 0.252683247235619 
2267	 0.252667386622759 
2268	 0.252625337671328 
2269	 0.252568072704313 
2270	 0.252513315830707 
2271	 0.252431147021559 
2272	 0.252347160881236 
2273	 0.252287082601738 
2274	 0.252223402105486 
2275	 0.252172882987562 
2276	 0.252131858541894 
2277	 0.252119735739278 
2278	 0.25214438644199 
2279	 0.25211482171168 
2280	 0.252094481287143 
2281	 0.252049056678659 
2282	 0.25193157014607 
2283	 0.251879477115152 
2284	 0.251874863126356 
2285	 0.251831038394307 
2286	 0.251797098129733 
2287	 0.251735100735471 
2288	 0.251631772588778 
2289	 0.251547969387062 
2290	 0.251464187391859 
2291	 0.251381439866964 
2292	 0.251288020249101 
2293	 0.251215435393653 
2294	 0.251158421948072 
2295	 0.251090593754007 
2296	 0.251031607932195 
2297	 0.250983114654771 
2298	 0.250903231035214 
2299	 0.250828636318223 
2300	 0.250686633541052 
2301	 0.250542362418933 
2302	 0.25041865908996 
2303	 0.250262565657528 
2304	 0.250145646406546 
2305	 0.250027188252836 
2306	 0.249910006305314 
2307	 0.249793104148643 
2308	 0.249650394980081 
2309	 0.249513415970354 
2310	 0.249349363701531 
2311	 0.249139415687537 
2312	 0.24894541853721 
2313	 0.248760666973359 
2314	 0.248555474511726 
2315	 0.248308400442917 
2316	 0.248111050692556 
2317	 0.247914564733128 
2318	 0.247755325720392 
2319	 0.247667543067371 
2320	 0.247530857005629 
2321	 0.247404208142367 
2322	 0.247240177568363 
2323	 0.247027620318911 
2324	 0.246839041731963 
2325	 0.246637393044206 
2326	 0.2464425256176 
2327	 0.246263936826513 
2328	 0.246068683335633 
2329	 0.245872207234871 
2330	 0.245697730084266 
2331	 0.245530016511972 
2332	 0.245371059476011 
2333	 0.245200838660691 
2334	 0.245011399779416 
2335	 0.244800555832619 
2336	 0.24455393738463 
2337	 0.244301221413479 
2338	 0.244091943782674 
2339	 0.243943292107108 
2340	 0.243794481691032 
2341	 0.243593097362409 
2342	 0.243375761690558 
2343	 0.243073150168575 
2344	 0.242734498111882 
2345	 0.24242396206912 
2346	 0.242111227220611 
2347	 0.241793487676469 
2348	 0.241489187559753 
2349	 0.241162188070497 
2350	 0.2408103291237 
2351	 0.240493187275441 
2352	 0.240152784510521 
2353	 0.239873688386088 
2354	 0.239680925588535 
2355	 0.23941620720336 
2356	 0.239163920647689 
2357	 0.238873075922793 
2358	 0.238496763385461 
2359	 0.238184054407823 
2360	 0.237903628308263 
2361	 0.237593185454867 
2362	 0.237301126549561 
2363	 0.236979566274188 
2364	 0.236611215520183 
2365	 0.236277543293244 
2366	 0.235948355222622 
2367	 0.235621146262696 
2368	 0.235318569762069 
2369	 0.234994219099692 
2370	 0.234668247024954 
2371	 0.234331249564202 
2372	 0.233913498867436 
2373	 0.233523349092489 
2374	 0.233188299810491 
2375	 0.23278872035207 
2376	 0.23239522690641 
2377	 0.231975439838465 
2378	 0.23150049645499 
2379	 0.231050963844002 
2380	 0.23066758551998 
2381	 0.23035166986474 
2382	 0.22999102387941 
2383	 0.229595669098223 
2384	 0.229225680301038 
2385	 0.228797846030719 
2386	 0.228357319939819 
2387	 0.227980902845146 
2388	 0.227547605473052 
2389	 0.227093289829202 
2390	 0.226649765569328 
2391	 0.22611163683975 
2392	 0.225586877223021 
2393	 0.225144798576714 
2394	 0.22472486704592 
2395	 0.224305715171689 
2396	 0.223875636879094 
2397	 0.223378538378997 
2398	 0.222873871202195 
2399	 0.222440697195511 
2400	 0.22195648515199 
2401	 0.221456646246395 
2402	 0.221015714783653 
2403	 0.220488462900373 
2404	 0.219964918427238 
2405	 0.219587414101019 
2406	 0.219113090875307 
2407	 0.218624184276351 
2408	 0.218262080787202 
2409	 0.217795080061808 
2410	 0.217400392046865 
2411	 0.217068484794962 
2412	 0.216604981961271 
2413	 0.216106092774695 
2414	 0.215527738378484 
2415	 0.214944280494725 
2416	 0.214396269293032 
2417	 0.213879169526992 
2418	 0.213361243180484 
2419	 0.212827288360874 
2420	 0.212345466794853 
2421	 0.211930461200055 
2422	 0.211468728941641 
2423	 0.211051667587828 
2424	 0.210541350054809 
2425	 0.209892660926307 
2426	 0.209410214059634 
2427	 0.208971014090337 
2428	 0.208551609218405 
2429	 0.20826523412331 
2430	 0.207873790148892 
2431	 0.207458942528309 
2432	 0.206971647383132 
2433	 0.206436240760294 
2434	 0.20588147056325 
2435	 0.205201032567405 
2436	 0.204645846953328 
2437	 0.204131015864964 
2438	 0.203619154578121 
2439	 0.203187617329276 
2440	 0.2027430359557 
2441	 0.202299431416787 
2442	 0.201837318927422 
2443	 0.201376556215844 
2444	 0.200842007865713 
2445	 0.200290124104856 
2446	 0.199735201819949 
2447	 0.199086488091423 
2448	 0.198562079020846 
2449	 0.198122353868537 
2450	 0.197588486372158 
2451	 0.197108399974197 
2452	 0.196523290828266 
2453	 0.19569752153097 
2454	 0.195139405280807 
2455	 0.194737675516099 
2456	 0.194261806977132 
2457	 0.193923290279301 
2458	 0.193524442815256 
2459	 0.193009248112345 
2460	 0.19252145960661 
2461	 0.192102846524166 
2462	 0.191662053079313 
2463	 0.191183593693021 
2464	 0.190718749458428 
2465	 0.190220187876481 
2466	 0.189737868932621 
2467	 0.189239760109505 
2468	 0.188793085764921 
2469	 0.188442665930731 
2470	 0.188025409310837 
2471	 0.187640509752452 
2472	 0.187180531142771 
2473	 0.186650575388296 
2474	 0.186146282989337 
2475	 0.185513325516848 
2476	 0.184852136439385 
2477	 0.184424099980262 
2478	 0.184085833162647 
2479	 0.183780331067845 
2480	 0.183525291306868 
2481	 0.183094546446007 
2482	 0.182582086246588 
2483	 0.182169724613568 
2484	 0.181787614223939 
2485	 0.181408552054145 
2486	 0.181048901375622 
2487	 0.180716744501703 
2488	 0.180101798560154 
2489	 0.17942731617717 
2490	 0.179049941813015 
2491	 0.178506693615334 
2492	 0.178066527922764 
2493	 0.178051385123775 
2494	 0.177922173957167 
2495	 0.177723297738702 
2496	 0.177570650658703 
2497	 0.177210264307443 
2498	 0.176562728205363 
2499	 0.175929947890111 
2500	 0.175501605509143 
