Wavelength	MM300002.asd
350	 6.42206270536812E-02 
351	 6.39410206697344E-02 
352	 6.35509054970223E-02 
353	 5.78050578512468E-02 
354	 5.84054899134255E-02 
355	 5.94170287987988E-02 
356	 6.12295230888699E-02 
357	 6.45418233529452E-02 
358	 6.54588827144148E-02 
359	 0.062416417045606 
360	 5.78523089136416E-02 
361	 5.65145628939452E-02 
362	 6.04068857162235E-02 
363	 6.15192358492142E-02 
364	 5.75095191924428E-02 
365	 5.60582391446805E-02 
366	 5.57415161567892E-02 
367	 5.66334081484766E-02 
368	 5.87140306333101E-02 
369	 6.13609562194305E-02 
370	 6.09772960035747E-02 
371	 5.92495303075329E-02 
372	 0.060725979894281 
373	 5.77600628410036E-02 
374	 5.98647760181796E-02 
375	 6.81976447826076E-02 
376	 6.62411473975301E-02 
377	 6.14544162932009E-02 
378	 5.82550476438064E-02 
379	 5.91790970876227E-02 
380	 6.25199873822689E-02 
381	 6.31631627235671E-02 
382	 6.20036849139621E-02 
383	 6.40832988099073E-02 
384	 6.53274207866485E-02 
385	 6.50814999081971E-02 
386	 6.36759823247701E-02 
387	 6.18823879459517E-02 
388	 6.40927008753208E-02 
389	 6.59427561120886E-02 
390	 6.28992599578043E-02 
391	 6.39283006495982E-02 
392	 6.58732878435231E-02 
393	 0.067109976012769 
394	 6.78559203669026E-02 
395	 0.068443268891943 
396	 6.85461747684443E-02 
397	 6.83417226932973E-02 
398	 6.93876208000401E-02 
399	 7.00373762978341E-02 
400	 7.06385587734665E-02 
401	 7.17896707787654E-02 
402	 7.12021460724799E-02 
403	 7.03943330982131E-02 
404	 7.03618493008737E-02 
405	 7.12665946700588E-02 
406	 7.26076207560487E-02 
407	 7.32523437500242E-02 
408	 7.25740036326875E-02 
409	 7.10338598374632E-02 
410	 7.14700800739259E-02 
411	 0.073089788200679 
412	 7.36487235991795E-02 
413	 7.43952450626719E-02 
414	 7.44477112305119E-02 
415	 7.39486670032988E-02 
416	 7.45305249617578E-02 
417	 7.44568493065399E-02 
418	 7.43359286173999E-02 
419	 0.074871755195439 
420	 7.52068432881979E-02 
421	 7.48916429553207E-02 
422	 0.07463970185747 
423	 7.56310639053574E-02 
424	 7.55417494422114E-02 
425	 0.075325101119999 
426	 7.55492080485608E-02 
427	 7.52731066263127E-02 
428	 7.52721917022833E-02 
429	 0.075579560941146 
430	 7.58719300558714E-02 
431	 7.53575979601124E-02 
432	 0.07471249631735 
433	 7.44316750016507E-02 
434	 7.47192054239977E-02 
435	 7.47018099284993E-02 
436	 7.48240287762763E-02 
437	 7.52661643502529E-02 
438	 7.47256651468809E-02 
439	 7.46374709345388E-02 
440	 7.50106901512613E-02 
441	 7.51659193674772E-02 
442	 7.51570568714597E-02 
443	 7.53785220189595E-02 
444	 7.57842520105883E-02 
445	 7.56047357333252E-02 
446	 0.075790846542862 
447	 7.62703742398562E-02 
448	 7.66576702926908E-02 
449	 7.65667132983036E-02 
450	 7.67683257536907E-02 
451	 7.72926532836725E-02 
452	 7.75322858868646E-02 
453	 7.76510686714412E-02 
454	 0.077703723147173 
455	 7.77479642500118E-02 
456	 7.78661487147703E-02 
457	 0.07811163526321 
458	 7.82774580550793E-02 
459	 7.81528902269802E-02 
460	 7.84768808908537E-02 
461	 7.86849860531436E-02 
462	 7.86008764903867E-02 
463	 7.87468728280913E-02 
464	 7.89626123081572E-02 
465	 7.90829946753699E-02 
466	 7.90396070263644E-02 
467	 7.91833874268157E-02 
468	 7.92830132107448E-02 
469	 7.92707428325456E-02 
470	 7.92345107663071E-02 
471	 0.079367315726578 
472	 7.94966648546544E-02 
473	 7.95120803638937E-02 
474	 7.95934278025044E-02 
475	 7.97510895077367E-02 
476	 7.98465240322463E-02 
477	 7.97259273013606E-02 
478	 7.96301428720818E-02 
479	 7.97693874296393E-02 
480	 8.00975643804342E-02 
481	 8.02414964300189E-02 
482	 8.00710295955362E-02 
483	 7.99679443825853E-02 
484	 0.080255524726726 
485	 8.04137162419094E-02 
486	 8.04370482398726E-02 
487	 8.03492139525978E-02 
488	 8.02088148525924E-02 
489	 8.03890911009197E-02 
490	 8.05987292756429E-02 
491	 8.05912989270035E-02 
492	 8.05102094453197E-02 
493	 8.05004336933218E-02 
494	 8.05108281252338E-02 
495	 8.04394777567296E-02 
496	 8.06457682459448E-02 
497	 0.080706562370213 
498	 8.05609859910989E-02 
499	 8.07930962805767E-02 
500	 8.09171592352764E-02 
501	 8.09011153320546E-02 
502	 8.08607778351231E-02 
503	 8.09469410087925E-02 
504	 8.09522591968885E-02 
505	 8.09142854559817E-02 
506	 8.10858373818395E-02 
507	 8.11983575381554E-02 
508	 8.12649496251146E-02 
509	 8.13241647909889E-02 
510	 8.13171386816032E-02 
511	 0.081370236888348 
512	 0.081462945984932 
513	 8.15026103539948E-02 
514	 0.081524410892433 
515	 8.15815785457856E-02 
516	 8.16638241428698E-02 
517	 0.08164356462075 
518	 8.16952135375131E-02 
519	 8.17682862961493E-02 
520	 8.17760474665168E-02 
521	 8.18548235253703E-02 
522	 8.19554136902132E-02 
523	 8.19882394004125E-02 
524	 8.18407697893778E-02 
525	 8.19512892121288E-02 
526	 8.21096786518248E-02 
527	 8.21037139860304E-02 
528	 8.22131030450161E-02 
529	 8.22775128097141E-02 
530	 8.22919029336631E-02 
531	 0.082350364363096 
532	 8.24179785050198E-02 
533	 8.25264487056506E-02 
534	 8.26645728748325E-02 
535	 8.27105709554588E-02 
536	 8.27652890928944E-02 
537	 8.28563642862199E-02 
538	 8.29716079195526E-02 
539	 8.30406110315496E-02 
540	 8.30805794314631E-02 
541	 8.31142316702599E-02 
542	 8.31587599354476E-02 
543	 8.32657734931665E-02 
544	 8.34035725459708E-02 
545	 8.35250118519712E-02 
546	 8.36315681901375E-02 
547	 8.37087402774132E-02 
548	 0.08380861664581 
549	 0.084025148278333 
550	 0.084129075945947 
551	 8.42115998361437E-02 
552	 0.084371876279121 
553	 8.45829045378827E-02 
554	 8.47176601791953E-02 
555	 8.48133317885641E-02 
556	 8.49884960681508E-02 
557	 8.52099357500972E-02 
558	 8.54405063531762E-02 
559	 8.56652970498846E-02 
560	 8.59141775979957E-02 
561	 8.61070371145108E-02 
562	 8.63058349746225E-02 
563	 8.65986227116402E-02 
564	 8.69284081127847E-02 
565	 8.72192275875433E-02 
566	 8.74713092437215E-02 
567	 8.77697784419368E-02 
568	 8.81457612184843E-02 
569	 8.85437515573562E-02 
570	 0.088921826769269 
571	 8.93761840489789E-02 
572	 8.97818178841562E-02 
573	 9.01582920908393E-02 
574	 9.06181015975439E-02 
575	 9.10377698796437E-02 
576	 9.14456094175636E-02 
577	 9.18766750972322E-02 
578	 9.23235919036026E-02 
579	 9.28254977924275E-02 
580	 9.33925173904465E-02 
581	 9.40161899961285E-02 
582	 9.46733059769614E-02 
583	 9.53282930762913E-02 
584	 9.59508277095659E-02 
585	 0.096516932358979 
586	 9.71261293326675E-02 
587	 9.77581203308065E-02 
588	 9.83680999729805E-02 
589	 9.89789676197899E-02 
590	 9.96126294270624E-02 
591	 0.100276872407804 
592	 0.100964289167982 
593	 0.101576762885161 
594	 0.102195343856127 
595	 0.102882637358461 
596	 0.103557455081387 
597	 0.104250012446601 
598	 0.104934708030296 
599	 0.10557129337568 
600	 0.106245971675908 
601	 0.10691824111909 
602	 0.107544695882232 
603	 0.108101503365374 
604	 0.108669306056071 
605	 0.109246652668198 
606	 0.109808081469342 
607	 0.11037925023825 
608	 0.110923682988063 
609	 0.111434185887928 
610	 0.111941426703822 
611	 0.112435375895854 
612	 0.112920062218268 
613	 0.113396998489385 
614	 0.113867244517992 
615	 0.114240003574417 
616	 0.114568577287279 
617	 0.114989924339358 
618	 0.115357083586819 
619	 0.115643945939408 
620	 0.115887709783674 
621	 0.116219570859985 
622	 0.116558870710655 
623	 0.116868654186564 
624	 0.117133811825887 
625	 0.117378109378877 
626	 0.117632786798987 
627	 0.117891360143162 
628	 0.118096935922154 
629	 0.118364036008958 
630	 0.118644141843652 
631	 0.118866531872998 
632	 0.119054398354209 
633	 0.119273710115626 
634	 0.119520569047526 
635	 0.119734632129688 
636	 0.119938140233145 
637	 0.12013501108133 
638	 0.120324847684681 
639	 0.120495694395275 
640	 0.120728642147045 
641	 0.120987364568608 
642	 0.121188484043446 
643	 0.121364424243102 
644	 0.121560202838636 
645	 0.121789065206672 
646	 0.12201686640684 
647	 0.122242201046769 
648	 0.122430910385315 
649	 0.122579204167298 
650	 0.122842966174523 
651	 0.123086805827308 
652	 0.123279368916455 
653	 0.123487865803907 
654	 0.123726223526621 
655	 0.123968377888242 
656	 0.12419865384132 
657	 0.124448001386257 
658	 0.124703239211067 
659	 0.124966222570763 
660	 0.125238961031217 
661	 0.125476195666878 
662	 0.125725759685331 
663	 0.126012211683665 
664	 0.126314221901517 
665	 0.126614868313445 
666	 0.126901494231626 
667	 0.127173514260191 
668	 0.127460249925429 
669	 0.127767944343081 
670	 0.128089927054817 
671	 0.128408988032478 
672	 0.128721006877548 
673	 0.129066368448478 
674	 0.129451076898315 
675	 0.129779525015852 
676	 0.130126995363316 
677	 0.130482226535697 
678	 0.130809486000264 
679	 0.131175506758063 
680	 0.131561517147305 
681	 0.13194773042767 
682	 0.132323848571866 
683	 0.132668341546055 
684	 0.133046507889835 
685	 0.133505210703431 
686	 0.133947686194774 
687	 0.134371709992766 
688	 0.1347834187992 
689	 0.135193324224419 
690	 0.135576728974321 
691	 0.135978870450283 
692	 0.13643119036422 
693	 0.136927055468982 
694	 0.137382666447606 
695	 0.137802552377924 
696	 0.138226284944519 
697	 0.138666886769138 
698	 0.139132787059502 
699	 0.139619392296838 
700	 0.140108217596004 
701	 0.140569226089274 
702	 0.141037536517617 
703	 0.141534718099397 
704	 0.142004025826433 
705	 0.142480651071485 
706	 0.142958752510981 
707	 0.143417677515125 
708	 0.143903066329188 
709	 0.144402120134906 
710	 0.144890503344225 
711	 0.145338236200482 
712	 0.145792476945659 
713	 0.146247516468349 
714	 0.146694393665611 
715	 0.147171712828624 
716	 0.14763293287387 
717	 0.148060793311038 
718	 0.148465973857412 
719	 0.148912223157593 
720	 0.149351700382384 
721	 0.149753781361478 
722	 0.150156459576384 
723	 0.150525076969747 
724	 0.15087768511427 
725	 0.151244320249883 
726	 0.15162474470005 
727	 0.151949187707059 
728	 0.152222462675137 
729	 0.152519109557733 
730	 0.152839483551173 
731	 0.153143342290026 
732	 0.153407816694423 
733	 0.153672739971057 
734	 0.153909690147198 
735	 0.154118558472637 
736	 0.154306305733058 
737	 0.154441973275413 
738	 0.154597503339084 
739	 0.154762862604315 
740	 0.1548363579605 
741	 0.154966212781996 
742	 0.155072100918844 
743	 0.155085365980421 
744	 0.155100099963585 
745	 0.155115026415491 
746	 0.155131915442438 
747	 0.155144322409292 
748	 0.155100910186841 
749	 0.155052686511539 
750	 0.155011864646273 
751	 0.154933300103253 
752	 0.154825753253749 
753	 0.15471322692228 
754	 0.15460069649139 
755	 0.154421442826831 
756	 0.154252929821335 
757	 0.154093917416361 
758	 0.153907892898429 
759	 0.153729851441693 
760	 0.153530204784888 
761	 0.153307614361089 
762	 0.15310170387776 
763	 0.15283561192953 
764	 0.152550032226939 
765	 0.152297330686968 
766	 0.152086869526751 
767	 0.151821346704815 
768	 0.151496241967059 
769	 0.151164889531885 
770	 0.150895911589301 
771	 0.150634488926389 
772	 0.150341469210121 
773	 0.150013776578825 
774	 0.149747591749034 
775	 0.149468283713573 
776	 0.149122642488328 
777	 0.148828122016782 
778	 0.148505377057543 
779	 0.148167823297399 
780	 0.147860015299035 
781	 0.147537063800814 
782	 0.147233060063823 
783	 0.146942114023334 
784	 0.146614599271284 
785	 0.146294968218474 
786	 0.145986703407813 
787	 0.145679554107668 
788	 0.145346784687494 
789	 0.145037385919051 
790	 0.14473389958141 
791	 0.144408475704113 
792	 0.144125665315116 
793	 0.143826694620535 
794	 0.14350323219107 
795	 0.143197028919099 
796	 0.142931483920544 
797	 0.142635866582986 
798	 0.142297861357376 
799	 0.142037017735708 
800	 0.141798968105989 
801	 0.14151597213027 
802	 0.141172401289439 
803	 0.140971714982019 
804	 0.14073287659411 
805	 0.140438555312024 
806	 0.140175975042888 
807	 0.139913291541051 
808	 0.139675108399843 
809	 0.139464076213422 
810	 0.139247631831664 
811	 0.138989108921727 
812	 0.138730783955451 
813	 0.138511507541238 
814	 0.138312837322558 
815	 0.138089271093062 
816	 0.137866062667581 
817	 0.137684285406738 
818	 0.137493332256147 
819	 0.137276142045043 
820	 0.137046732877041 
821	 0.136843904280826 
822	 0.136687405471758 
823	 0.13651206366447 
824	 0.136298123584468 
825	 0.136119456814925 
826	 0.135998612321756 
827	 0.135886836023045 
828	 0.135735394868487 
829	 0.135568704504193 
830	 0.135377043907833 
831	 0.135208919725305 
832	 0.135116745219758 
833	 0.135004367831657 
834	 0.134881084234472 
835	 0.134751612682036 
836	 0.134610783586496 
837	 0.134461700975596 
838	 0.134354548044329 
839	 0.134293814983457 
840	 0.134196267605595 
841	 0.134124217824905 
842	 0.134024047745664 
843	 0.133874185597384 
844	 0.133855319202755 
845	 0.133799318549336 
846	 0.133706665159699 
847	 0.133648382793738 
848	 0.133598905446092 
849	 0.133525852616188 
850	 0.133464120670682 
851	 0.133486930521423 
852	 0.133437571878118 
853	 0.133373039183623 
854	 0.133338321458678 
855	 0.133314283820468 
856	 0.133272457552584 
857	 0.13324831124501 
858	 0.133256335978732 
859	 0.133212568027599 
860	 0.133214706603109 
861	 0.13324981212653 
862	 0.133276527563503 
863	 0.133325589241315 
864	 0.133339637964656 
865	 0.133315078914375 
866	 0.133289312212766 
867	 0.133308597720101 
868	 0.133333963747304 
869	 0.133377037465259 
870	 0.133494987139899 
871	 0.133531703724226 
872	 0.133526749403366 
873	 0.133547440724217 
874	 0.133645257696193 
875	 0.13371141977907 
876	 0.133767260114812 
877	 0.133848341985336 
878	 0.133937055411873 
879	 0.134022028677966 
880	 0.134098278122271 
881	 0.134169147743939 
882	 0.134251911424904 
883	 0.134369344955715 
884	 0.13449913509244 
885	 0.134604937258616 
886	 0.134736224365462 
887	 0.134855905410707 
888	 0.134957902959578 
889	 0.135069021728073 
890	 0.135214518767737 
891	 0.135328396928275 
892	 0.135431050536192 
893	 0.135650121276218 
894	 0.135800469775096 
895	 0.135910045419851 
896	 0.136043681098229 
897	 0.136250367819217 
898	 0.136454904320349 
899	 0.136622691540414 
900	 0.136760809936638 
901	 0.136950102113679 
902	 0.137133410621511 
903	 0.137308413513389 
904	 0.137494518639139 
905	 0.137721395526127 
906	 0.137911742087102 
907	 0.138086731182716 
908	 0.138318906130027 
909	 0.138674536355383 
910	 0.138954597885773 
911	 0.139157977786293 
912	 0.139410324855904 
913	 0.139649558223371 
914	 0.139883764308469 
915	 0.140116929576129 
916	 0.140347111956826 
917	 0.140573817960959 
918	 0.14089935930241 
919	 0.141268354237586 
920	 0.141463395526444 
921	 0.141779661257807 
922	 0.142115955002101 
923	 0.142407303789416 
924	 0.142740277379398 
925	 0.143081300967993 
926	 0.143414248437303 
927	 0.143725166053304 
928	 0.143998374821832 
929	 0.144300355674247 
930	 0.144666064709081 
931	 0.145075344716926 
932	 0.145414331020738 
933	 0.145749070073139 
934	 0.146135703560583 
935	 0.146571981138045 
936	 0.146901757350191 
937	 0.147238720604599 
938	 0.147617236477367 
939	 0.148047762806044 
940	 0.148571916789678 
941	 0.148980132449368 
942	 0.14933204479239 
943	 0.149762875541485 
944	 0.150227625670766 
945	 0.150629445547268 
946	 0.151000145015708 
947	 0.151425460533597 
948	 0.151932619702784 
949	 0.152388585507021 
950	 0.152831401571236 
951	 0.153360812830454 
952	 0.153897063974699 
953	 0.154328536896678 
954	 0.154720293743413 
955	 0.155215469510944 
956	 0.155780622913699 
957	 0.156326529067535 
958	 0.156789712652224 
959	 0.157180140161066 
960	 0.157755276371485 
961	 0.158320592378332 
962	 0.158853686875578 
963	 0.159447956137696 
964	 0.160053087221548 
965	 0.160649692874676 
966	 0.161219201076605 
967	 0.161750611894817 
968	 0.162238520276008 
969	 0.162859791201672 
970	 0.163529529209202 
971	 0.164036835167562 
972	 0.1646093746009 
973	 0.165212330700084 
974	 0.165802359622268 
975	 0.166377879391505 
976	 0.167147563487716 
977	 0.167815604419664 
978	 0.168375931538232 
979	 0.169009361791905 
980	 0.169635782072483 
981	 0.170274994596314 
982	 0.170922268390407 
983	 0.17155713862981 
984	 0.17217306309863 
985	 0.172813969046991 
986	 0.173421722239175 
987	 0.173949995689954 
988	 0.174706734065613 
989	 0.175401286281649 
990	 0.176064157341958 
991	 0.176838394375517 
992	 0.177510660205367 
993	 0.178054471479708 
994	 0.178600672734844 
995	 0.179292979294645 
996	 0.180038625366537 
997	 0.180728351846918 
998	 0.181388386191673 
999	 0.182098127422203 
1000	 0.182899185054805 
1001	 0.185086580147558 
1002	 0.185778105884793 
1003	 0.186439083625667 
1004	 0.187102928329708 
1005	 0.187833855495936 
1006	 0.188493158300232 
1007	 0.189094962676344 
1008	 0.189700567842192 
1009	 0.190316109949302 
1010	 0.190922695168963 
1011	 0.191536791949191 
1012	 0.192218216468162 
1013	 0.192914567261715 
1014	 0.193536049121381 
1015	 0.194095226614155 
1016	 0.194634808378497 
1017	 0.195213874160964 
1018	 0.195763290859665 
1019	 0.196357972290913 
1020	 0.19701590749858 
1021	 0.197642646178997 
1022	 0.198223259494163 
1023	 0.198819065758832 
1024	 0.199385943308764 
1025	 0.199939748579865 
1026	 0.200437122453699 
1027	 0.200931269865765 
1028	 0.20150498630074 
1029	 0.202050073601734 
1030	 0.202611830260827 
1031	 0.203157701242389 
1032	 0.203699378197565 
1033	 0.204198622377266 
1034	 0.20475695451868 
1035	 0.205297868727743 
1036	 0.205821852260925 
1037	 0.206357021433739 
1038	 0.206862131543303 
1039	 0.207333276009109 
1040	 0.207861754788002 
1041	 0.208431524009026 
1042	 0.20894634377163 
1043	 0.209467801407446 
1044	 0.209980343412025 
1045	 0.210491500380325 
1046	 0.210949008776828 
1047	 0.211430144045248 
1048	 0.21193755659813 
1049	 0.212459964050065 
1050	 0.212984604044154 
1051	 0.213450645439297 
1052	 0.213933913341228 
1053	 0.214461018828517 
1054	 0.214938746999142 
1055	 0.215451278175701 
1056	 0.216033587806273 
1057	 0.216570400566406 
1058	 0.217066621821858 
1059	 0.217580417829292 
1060	 0.218111281488036 
1061	 0.218609911653612 
1062	 0.219082155288378 
1063	 0.219559664411326 
1064	 0.220060351180268 
1065	 0.220542061411913 
1066	 0.221007322111343 
1067	 0.221522243740882 
1068	 0.222010538554602 
1069	 0.222467580501257 
1070	 0.222945375950504 
1071	 0.223417898920194 
1072	 0.223887013300825 
1073	 0.224378978469034 
1074	 0.224862302770252 
1075	 0.225324057650414 
1076	 0.225804591080521 
1077	 0.226316537903875 
1078	 0.226742098431759 
1079	 0.227179619821271 
1080	 0.227675136614351 
1081	 0.228167995193129 
1082	 0.228667669053177 
1083	 0.229126710683513 
1084	 0.229543978963474 
1085	 0.230015928784056 
1086	 0.230483557445817 
1087	 0.230949618467863 
1088	 0.23145649392373 
1089	 0.231943399328099 
1090	 0.232376355444113 
1091	 0.232817196172095 
1092	 0.233262092445798 
1093	 0.233744996052723 
1094	 0.234243828219399 
1095	 0.234717269534693 
1096	 0.235223547151521 
1097	 0.235745312145996 
1098	 0.236259587500217 
1099	 0.236798898182221 
1100	 0.237298866019267 
1101	 0.2377501186932 
1102	 0.238250128576821 
1103	 0.238750665181008 
1104	 0.239273440576073 
1105	 0.239793819329631 
1106	 0.240339331317456 
1107	 0.240867951718038 
1108	 0.241370223208929 
1109	 0.241929549879563 
1110	 0.242504176170369 
1111	 0.24306911174891 
1112	 0.243640422744141 
1113	 0.244211340099965 
1114	 0.24477468748113 
1115	 0.245357851746463 
1116	 0.245967959440787 
1117	 0.246554248846632 
1118	 0.247146511303406 
1119	 0.247708266924911 
1120	 0.248288953273718 
1121	 0.24885187526047 
1122	 0.249440635979826 
1123	 0.250056580980399 
1124	 0.250647471259625 
1125	 0.251224664408705 
1126	 0.251826435105918 
1127	 0.252443237918082 
1128	 0.253034386222202 
1129	 0.25362588529585 
1130	 0.254216042742133 
1131	 0.254770805264035 
1132	 0.255356614450128 
1133	 0.255984624039927 
1134	 0.256578252677136 
1135	 0.257157090627446 
1136	 0.257745516990786 
1137	 0.258322320703368 
1138	 0.258880920709053 
1139	 0.259450122910198 
1140	 0.260036651923868 
1141	 0.260593083142279 
1142	 0.261125059321049 
1143	 0.261679162955016 
1144	 0.262240546232926 
1145	 0.262778232396957 
1146	 0.263305567867154 
1147	 0.263848098468852 
1148	 0.264386089322444 
1149	 0.264916730293643 
1150	 0.265454231385279 
1151	 0.266002995285554 
1152	 0.266519109577588 
1153	 0.267004749066436 
1154	 0.267526502501623 
1155	 0.268062381066904 
1156	 0.268584067611072 
1157	 0.269110561178038 
1158	 0.269642464693348 
1159	 0.270170786825609 
1160	 0.270702243985939 
1161	 0.271257278532476 
1162	 0.271783065593624 
1163	 0.272292365968627 
1164	 0.272798234972574 
1165	 0.273286713104243 
1166	 0.27378050905258 
1167	 0.274280985483316 
1168	 0.27478924080738 
1169	 0.275276968156737 
1170	 0.275763983677068 
1171	 0.276240234292782 
1172	 0.276696134097122 
1173	 0.277159274014658 
1174	 0.277625087959327 
1175	 0.278085369855048 
1176	 0.278536269829874 
1177	 0.278998067261489 
1178	 0.279472899720093 
1179	 0.279928979691331 
1180	 0.280389242982085 
1181	 0.280835048117861 
1182	 0.281251362192944 
1183	 0.281678496014403 
1184	 0.282115466534061 
1185	 0.282566367283724 
1186	 0.282986552275356 
1187	 0.283413692117922 
1188	 0.283810669626485 
1189	 0.284163001013997 
1190	 0.284543728409475 
1191	 0.284923150627326 
1192	 0.28530807677882 
1193	 0.285713973648972 
1194	 0.286096551279375 
1195	 0.28645949900877 
1196	 0.286836869659085 
1197	 0.287221026524772 
1198	 0.287589524486634 
1199	 0.287954163211647 
1200	 0.288330253594714 
1201	 0.28868021723573 
1202	 0.289000747457479 
1203	 0.289342237484089 
1204	 0.289697685946307 
1205	 0.290022249781628 
1206	 0.290334205017224 
1207	 0.290648314620051 
1208	 0.290944282399311 
1209	 0.291242658705739 
1210	 0.291560894476455 
1211	 0.291849499357076 
1212	 0.292093162252581 
1213	 0.292371133160241 
1214	 0.292665927511256 
1215	 0.292943812393052 
1216	 0.293222012644973 
1217	 0.293518042050614 
1218	 0.293796470691484 
1219	 0.294056961249142 
1220	 0.294316963775649 
1221	 0.294588811817682 
1222	 0.294835057609532 
1223	 0.295044854885163 
1224	 0.295284816978559 
1225	 0.295532805451666 
1226	 0.29577446885997 
1227	 0.29604330581648 
1228	 0.296276965578539 
1229	 0.296481139573576 
1230	 0.296691924566884 
1231	 0.296880806037287 
1232	 0.297081741913004 
1233	 0.297287724570313 
1234	 0.297508662934912 
1235	 0.297705094660618 
1236	 0.29789840233062 
1237	 0.298084677214922 
1238	 0.298255131816839 
1239	 0.298429457240362 
1240	 0.298599093235217 
1241	 0.298776823354213 
1242	 0.298962434756755 
1243	 0.299132591838715 
1244	 0.299296245211611 
1245	 0.29946653162088 
1246	 0.299630028522174 
1247	 0.299792978608252 
1248	 0.299968074651073 
1249	 0.300142246108812 
1250	 0.300283118403096 
1251	 0.300397148320639 
1252	 0.300532534815344 
1253	 0.300658899231865 
1254	 0.300789283967081 
1255	 0.300936950692159 
1256	 0.30106420397117 
1257	 0.301172166424028 
1258	 0.301291627581736 
1259	 0.301411277916462 
1260	 0.301531548989993 
1261	 0.301657917935433 
1262	 0.301773696357976 
1263	 0.301894148033171 
1264	 0.301999111512725 
1265	 0.302075490518711 
1266	 0.302173382327962 
1267	 0.302284142450097 
1268	 0.302370043263499 
1269	 0.302476708555866 
1270	 0.302610958594517 
1271	 0.302713989703368 
1272	 0.302796673463976 
1273	 0.302899810768759 
1274	 0.302995023319842 
1275	 0.303102689133268 
1276	 0.303229012067337 
1277	 0.303351245781764 
1278	 0.303475002956766 
1279	 0.303599889797502 
1280	 0.303739405551297 
1281	 0.303859998493196 
1282	 0.303974894936317 
1283	 0.304079733619939 
1284	 0.304173231071998 
1285	 0.304252863394633 
1286	 0.304335909949257 
1287	 0.304419945780122 
1288	 0.304505957106872 
1289	 0.304597021127637 
1290	 0.304677622998537 
1291	 0.304758362909019 
1292	 0.304829550384735 
1293	 0.304891387506974 
1294	 0.304954796816423 
1295	 0.30502205852883 
1296	 0.305065844709748 
1297	 0.305101297375331 
1298	 0.305123291675139 
1299	 0.305122463916646 
1300	 0.305125059940484 
1301	 0.305113739650402 
1302	 0.305111709365983 
1303	 0.305111369501498 
1304	 0.305106149706271 
1305	 0.305114078892678 
1306	 0.305114480332809 
1307	 0.305118580953867 
1308	 0.305120990656066 
1309	 0.305114564216502 
1310	 0.305109354369932 
1311	 0.305091676221882 
1312	 0.305056820337741 
1313	 0.305030194323059 
1314	 0.304992108776395 
1315	 0.304972349208603 
1316	 0.304967515456134 
1317	 0.304956027612188 
1318	 0.304953508438718 
1319	 0.304944023108926 
1320	 0.304920974822569 
1321	 0.30490910236614 
1322	 0.304906499319299 
1323	 0.304893062987634 
1324	 0.304889528202077 
1325	 0.304896782820505 
1326	 0.304901469695404 
1327	 0.304910132683254 
1328	 0.304910454846593 
1329	 0.304915539761431 
1330	 0.304931728358995 
1331	 0.304948666200261 
1332	 0.304976895060194 
1333	 0.305032797111671 
1334	 0.305057851671526 
1335	 0.305063007016154 
1336	 0.305090195646228 
1337	 0.305112186642593 
1338	 0.305142493122047 
1339	 0.305187526114634 
1340	 0.305238075356712 
1341	 0.305294770496434 
1342	 0.305345605230932 
1343	 0.305407549706672 
1344	 0.305465029330182 
1345	 0.305498990935017 
1346	 0.305524070270349 
1347	 0.305551254951543 
1348	 0.305589212378807 
1349	 0.305640317014871 
1350	 0.305701395673493 
1351	 0.305763859724521 
1352	 0.30584327648038 
1353	 0.305895805707286 
1354	 0.305944779010256 
1355	 0.305986522338554 
1356	 0.306007701873929 
1357	 0.306042158016989 
1358	 0.306085210738065 
1359	 0.30611307899037 
1360	 0.306143464642713 
1361	 0.306157451636281 
1362	 0.306162682275367 
1363	 0.306150097619026 
1364	 0.306116815787711 
1365	 0.306082894744763 
1366	 0.306038857200614 
1367	 0.305988795869314 
1368	 0.305929534316433 
1369	 0.305878192879055 
1370	 0.305801745924546 
1371	 0.305692668604027 
1372	 0.30557611980496 
1373	 0.305434388641079 
1374	 0.305272756191181 
1375	 0.305095338770274 
1376	 0.304893377965337 
1377	 0.304678296723551 
1378	 0.304413180661811 
1379	 0.304136714217403 
1380	 0.303784046912226 
1381	 0.303373942002511 
1382	 0.302923422862603 
1383	 0.302417943194717 
1384	 0.301873195717752 
1385	 0.301305525408818 
1386	 0.300670073941545 
1387	 0.299979724935641 
1388	 0.299244004459489 
1389	 0.298463637446307 
1390	 0.297616205047126 
1391	 0.296715410790936 
1392	 0.295762855941995 
1393	 0.294758022187599 
1394	 0.293717798675325 
1395	 0.29264068679875 
1396	 0.291540473351437 
1397	 0.290421346166263 
1398	 0.289262844189705 
1399	 0.288110592801301 
1400	 0.286929229694754 
1401	 0.285786962285295 
1402	 0.284630834410005 
1403	 0.283531221388611 
1404	 0.282464870332213 
1405	 0.281431537754958 
1406	 0.280433664323193 
1407	 0.279457296878205 
1408	 0.278485049021739 
1409	 0.277587059493502 
1410	 0.276700916651179 
1411	 0.275918522062299 
1412	 0.275207314514132 
1413	 0.274579099632381 
1414	 0.274041040512174 
1415	 0.273554291507045 
1416	 0.27314192048938 
1417	 0.272786272189105 
1418	 0.272466186942204 
1419	 0.272194936503232 
1420	 0.271940096199041 
1421	 0.2717090818758 
1422	 0.271496770753215 
1423	 0.271279684919968 
1424	 0.271063549001216 
1425	 0.270846908396513 
1426	 0.270649481849391 
1427	 0.270448600911292 
1428	 0.270280113812054 
1429	 0.270136546106398 
1430	 0.270003117409149 
1431	 0.269890994140197 
1432	 0.269779607826064 
1433	 0.269678884564026 
1434	 0.269588021008374 
1435	 0.269506880419854 
1436	 0.269428224209469 
1437	 0.269356833423748 
1438	 0.269297011900645 
1439	 0.269239049351402 
1440	 0.269190297695685 
1441	 0.269171434772242 
1442	 0.269164760097959 
1443	 0.269173086853663 
1444	 0.269193765431118 
1445	 0.269230383595763 
1446	 0.269259465151585 
1447	 0.269279845306233 
1448	 0.269307124436363 
1449	 0.269319275631294 
1450	 0.269342659848564 
1451	 0.269373537658079 
1452	 0.269412402302778 
1453	 0.269457624008326 
1454	 0.26950992151993 
1455	 0.269565964648706 
1456	 0.26962615590349 
1457	 0.269700005252829 
1458	 0.269776325696935 
1459	 0.269870573548011 
1460	 0.26998245116933 
1461	 0.270100192882792 
1462	 0.270226421337929 
1463	 0.270368976273578 
1464	 0.270520391820215 
1465	 0.27069091270167 
1466	 0.270873854031778 
1467	 0.271078465613681 
1468	 0.271301811339295 
1469	 0.271540425903428 
1470	 0.271804811257927 
1471	 0.272076160580451 
1472	 0.272353975895201 
1473	 0.272647471947321 
1474	 0.272947465367083 
1475	 0.27326138664128 
1476	 0.273590190432664 
1477	 0.273930720698183 
1478	 0.274270797118049 
1479	 0.274605631298374 
1480	 0.27494481325929 
1481	 0.275289128429144 
1482	 0.275638100516507 
1483	 0.275999788019111 
1484	 0.276358973004539 
1485	 0.276714655321066 
1486	 0.277074843147363 
1487	 0.27744297980331 
1488	 0.277805432718121 
1489	 0.27817767717093 
1490	 0.278529980724119 
1491	 0.278869264695549 
1492	 0.279209933802657 
1493	 0.279532639354589 
1494	 0.279868724318578 
1495	 0.280220191245765 
1496	 0.280556171254332 
1497	 0.280890174906357 
1498	 0.281216997537664 
1499	 0.281527429297471 
1500	 0.281849082401188 
1501	 0.282176434480152 
1502	 0.282494119031021 
1503	 0.282813711513374 
1504	 0.283129192615658 
1505	 0.283426467915098 
1506	 0.283720067524903 
1507	 0.284021135075874 
1508	 0.284300477406797 
1509	 0.284563113904905 
1510	 0.284840619537015 
1511	 0.285104824739348 
1512	 0.28535225833007 
1513	 0.285616242047832 
1514	 0.285884912224255 
1515	 0.286155204547949 
1516	 0.286442876008203 
1517	 0.286705194957337 
1518	 0.286959382468831 
1519	 0.287207053501749 
1520	 0.287441647426279 
1521	 0.287666108813717 
1522	 0.287878821016999 
1523	 0.28810602930201 
1524	 0.288322552482587 
1525	 0.288554779455212 
1526	 0.288809253802555 
1527	 0.289045958955859 
1528	 0.289283215929982 
1529	 0.289506433365715 
1530	 0.289730805976101 
1531	 0.289930083172485 
1532	 0.290096575607585 
1533	 0.290281886101764 
1534	 0.290452416512354 
1535	 0.290638182938276 
1536	 0.2908465822447 
1537	 0.291042465331297 
1538	 0.291245309485604 
1539	 0.291430582810593 
1540	 0.291599576118158 
1541	 0.291771433521356 
1542	 0.291928565408806 
1543	 0.292092791514777 
1544	 0.292277749084638 
1545	 0.292439160848278 
1546	 0.292590227708036 
1547	 0.29272579240753 
1548	 0.292864246908663 
1549	 0.293013577538639 
1550	 0.29317608436123 
1551	 0.29334357977856 
1552	 0.293502884984985 
1553	 0.293650036520835 
1554	 0.293806073269976 
1555	 0.293953099324234 
1556	 0.294092016363872 
1557	 0.294222545928631 
1558	 0.294331961132309 
1559	 0.29446751194843 
1560	 0.294598673296573 
1561	 0.294735549878268 
1562	 0.294868096764689 
1563	 0.294999380411663 
1564	 0.295128025751352 
1565	 0.295262100456316 
1566	 0.295382282757221 
1567	 0.295491631950519 
1568	 0.295612775951372 
1569	 0.295734877096612 
1570	 0.295844605643502 
1571	 0.295960471826189 
1572	 0.296062103776549 
1573	 0.296139433983174 
1574	 0.296231996722846 
1575	 0.296323232628985 
1576	 0.296424220166346 
1577	 0.296539804008581 
1578	 0.296638170672908 
1579	 0.296735931925605 
1580	 0.296829069081958 
1581	 0.296914576240952 
1582	 0.296992440279279 
1583	 0.297065493460924 
1584	 0.297140198877865 
1585	 0.297199153120638 
1586	 0.297269888873818 
1587	 0.297345086083763 
1588	 0.297428774656567 
1589	 0.297532950790977 
1590	 0.297612776806459 
1591	 0.297678613007135 
1592	 0.297760373592558 
1593	 0.297840310701478 
1594	 0.297911370552283 
1595	 0.298002289212882 
1596	 0.298071324612771 
1597	 0.298111444776744 
1598	 0.298157494681709 
1599	 0.298198067737863 
1600	 0.298242019695827 
1601	 0.298279820002086 
1602	 0.298324477520979 
1603	 0.298377155948983 
1604	 0.298425741533499 
1605	 0.298475746818243 
1606	 0.29852795041675 
1607	 0.298575096992144 
1608	 0.298635364413122 
1609	 0.298692540465913 
1610	 0.298725571827974 
1611	 0.298770071746673 
1612	 0.298818368139266 
1613	 0.298865299085765 
1614	 0.298940589322899 
1615	 0.299016041580371 
1616	 0.299064896100218 
1617	 0.299102555547996 
1618	 0.299133203012424 
1619	 0.299164260665979 
1620	 0.299193060453541 
1621	 0.299220302251739 
1622	 0.299257821370424 
1623	 0.299283422431806 
1624	 0.299293642994206 
1625	 0.299316564501476 
1626	 0.299345772993823 
1627	 0.299368284079652 
1628	 0.299392658407834 
1629	 0.29940634660428 
1630	 0.299415598555264 
1631	 0.299423070714406 
1632	 0.299410915661454 
1633	 0.299433267476869 
1634	 0.299468491135478 
1635	 0.299504185626831 
1636	 0.29956896258922 
1637	 0.299600627777272 
1638	 0.299626537913927 
1639	 0.299628777879809 
1640	 0.299602132647335 
1641	 0.299594840721226 
1642	 0.299573041552039 
1643	 0.299569724168607 
1644	 0.299582093393952 
1645	 0.299593024720195 
1646	 0.299611705924656 
1647	 0.299619357534223 
1648	 0.299625173046887 
1649	 0.299636363547438 
1650	 0.299646570694179 
1651	 0.299648023780488 
1652	 0.29964595957757 
1653	 0.299657138672534 
1654	 0.299664238155407 
1655	 0.299674919832751 
1656	 0.299712198976632 
1657	 0.299716579005322 
1658	 0.299693907545673 
1659	 0.299688002898983 
1660	 0.299685853667232 
1661	 0.29966797931413 
1662	 0.299651121628494 
1663	 0.299622281635915 
1664	 0.299565272610634 
1665	 0.299531552721768 
1666	 0.299505256215831 
1667	 0.299479431126547 
1668	 0.299457587791231 
1669	 0.299442829909159 
1670	 0.299429223064207 
1671	 0.299425114522168 
1672	 0.299439412564074 
1673	 0.299438459900745 
1674	 0.299434821498278 
1675	 0.299432215087643 
1676	 0.299429694704943 
1677	 0.299414569374325 
1678	 0.299401306083798 
1679	 0.299372621455831 
1680	 0.299322091743805 
1681	 0.299278495244682 
1682	 0.299216538862463 
1683	 0.299187138411774 
1684	 0.299174086365758 
1685	 0.299160772199467 
1686	 0.29918056095777 
1687	 0.299165035773455 
1688	 0.299125953319825 
1689	 0.299098433616308 
1690	 0.299060524914684 
1691	 0.299031686402153 
1692	 0.299010919820948 
1693	 0.298987563355238 
1694	 0.298966998965617 
1695	 0.298940838327418 
1696	 0.298925272085898 
1697	 0.298884665167576 
1698	 0.298826985772617 
1699	 0.298765927189463 
1700	 0.298680811686808 
1701	 0.2986136574153 
1702	 0.298560444584404 
1703	 0.298487892568775 
1704	 0.298402745629762 
1705	 0.29833685945863 
1706	 0.298264718913415 
1707	 0.298201266846481 
1708	 0.298160124809971 
1709	 0.298108264985614 
1710	 0.298037018040029 
1711	 0.297997969375246 
1712	 0.297987555667569 
1713	 0.297959355974843 
1714	 0.297942051659367 
1715	 0.29790996364237 
1716	 0.297872369155221 
1717	 0.297805356551777 
1718	 0.297730210098997 
1719	 0.297634385312978 
1720	 0.297502888334384 
1721	 0.297378268573505 
1722	 0.297223408581094 
1723	 0.297124326250628 
1724	 0.297048174492522 
1725	 0.29696131418515 
1726	 0.296915296782926 
1727	 0.296837163013868 
1728	 0.296731581226801 
1729	 0.296629521562661 
1730	 0.29653274901194 
1731	 0.296415346648943 
1732	 0.296279128281054 
1733	 0.296144812638031 
1734	 0.295997252332953 
1735	 0.295871248317668 
1736	 0.295747418494301 
1737	 0.29563223730767 
1738	 0.295535470159698 
1739	 0.295422128697254 
1740	 0.295309665137511 
1741	 0.295177885165495 
1742	 0.295027756288738 
1743	 0.294904775342328 
1744	 0.294786365761634 
1745	 0.294651124761201 
1746	 0.294529202199379 
1747	 0.294357012915655 
1748	 0.294202259631748 
1749	 0.294019732777435 
1750	 0.29385842414729 
1751	 0.293740306114218 
1752	 0.293588739597038 
1753	 0.293451453722715 
1754	 0.29331766766224 
1755	 0.293154131164517 
1756	 0.292999031930743 
1757	 0.292872662385335 
1758	 0.292767155674479 
1759	 0.292658221969147 
1760	 0.292540734753384 
1761	 0.292400698779618 
1762	 0.292252423086208 
1763	 0.292121499850384 
1764	 0.291970212623938 
1765	 0.291828584279098 
1766	 0.291710721682249 
1767	 0.291553906932515 
1768	 0.291413134599507 
1769	 0.291297417526704 
1770	 0.291150168840419 
1771	 0.291033294146884 
1772	 0.290938677003151 
1773	 0.29081458253774 
1774	 0.290729115046115 
1775	 0.29066352476638 
1776	 0.290545191524467 
1777	 0.290439380955725 
1778	 0.290331559898222 
1779	 0.29017534171611 
1780	 0.290064268892435 
1781	 0.289981513534512 
1782	 0.289878363961915 
1783	 0.289819839060841 
1784	 0.289761479467355 
1785	 0.289719692257687 
1786	 0.28967070475798 
1787	 0.289612865935091 
1788	 0.289570068946598 
1789	 0.2895386734219 
1790	 0.289493444421656 
1791	 0.289455398023725 
1792	 0.289418029460689 
1793	 0.289356790774672 
1794	 0.289319722039382 
1795	 0.289323973305567 
1796	 0.289277449091552 
1797	 0.289205003726983 
1798	 0.289143338555611 
1799	 0.28905069555777 
1800	 0.288992155070111 
1801	 0.285411809899396 
1802	 0.285392130998602 
1803	 0.285362897477435 
1804	 0.285332067856592 
1805	 0.285290616573415 
1806	 0.285241810455958 
1807	 0.285204893588843 
1808	 0.285187317933931 
1809	 0.285207666679082 
1810	 0.285205381613955 
1811	 0.285205087072262 
1812	 0.285197494314857 
1813	 0.285201358164429 
1814	 0.285167819832854 
1815	 0.285148776008213 
1816	 0.285152450236129 
1817	 0.285146307854644 
1818	 0.285155211800663 
1819	 0.285134420901838 
1820	 0.285110162528148 
1821	 0.285059741405272 
1822	 0.284973300442898 
1823	 0.284909106612238 
1824	 0.284873936425913 
1825	 0.284814801220742 
1826	 0.28474011986298 
1827	 0.284645894746564 
1828	 0.284552393438091 
1829	 0.284422202482068 
1830	 0.284319192177773 
1831	 0.284238896196779 
1832	 0.284140637330937 
1833	 0.284034302161949 
1834	 0.283937308636373 
1835	 0.283825308331032 
1836	 0.283724386343959 
1837	 0.283617518681304 
1838	 0.28350674776633 
1839	 0.283386351347103 
1840	 0.283267987255039 
1841	 0.28311963856041 
1842	 0.282964644957057 
1843	 0.282800043081117 
1844	 0.282615582672469 
1845	 0.282446881371639 
1846	 0.28226583684799 
1847	 0.282066429363135 
1848	 0.281865421067093 
1849	 0.281641254252636 
1850	 0.281400404886314 
1851	 0.281148453262664 
1852	 0.280871967676351 
1853	 0.280581482828281 
1854	 0.280294085287391 
1855	 0.27997482818409 
1856	 0.279628055213592 
1857	 0.279254616926337 
1858	 0.278840078375663 
1859	 0.278387441893924 
1860	 0.277890927151859 
1861	 0.277358721203498 
1862	 0.276791120972625 
1863	 0.276173973137555 
1864	 0.2755178193701 
1865	 0.274819969157416 
1866	 0.274025659918706 
1867	 0.273165898176629 
1868	 0.272246599712478 
1869	 0.27124224956927 
1870	 0.270175295031082 
1871	 0.26899921293437 
1872	 0.267731485817381 
1873	 0.266370114753912 
1874	 0.264945037037057 
1875	 0.263422401361927 
1876	 0.261828635872747 
1877	 0.260131037141403 
1878	 0.258301295125063 
1879	 0.256351650295336 
1880	 0.254287965445548 
1881	 0.252087053375533 
1882	 0.249817535249576 
1883	 0.247452500611024 
1884	 0.244946510449148 
1885	 0.242381824170159 
1886	 0.239682498587416 
1887	 0.23684363461299 
1888	 0.233967413609206 
1889	 0.231001012494249 
1890	 0.227983087818671 
1891	 0.225002248774664 
1892	 0.221957007410179 
1893	 0.218988831436672 
1894	 0.216041134357265 
1895	 0.213162500770759 
1896	 0.210271751755422 
1897	 0.207475775766376 
1898	 0.204730449743866 
1899	 0.20205955882044 
1900	 0.199544369969527 
1901	 0.197138575856977 
1902	 0.194846730245265 
1903	 0.192687573413205 
1904	 0.190632978197445 
1905	 0.18867807243876 
1906	 0.18686809810925 
1907	 0.185157690749109 
1908	 0.183563340236593 
1909	 0.182080514077838 
1910	 0.180683731891423 
1911	 0.179428546312374 
1912	 0.178267200036776 
1913	 0.177179798459992 
1914	 0.176197668114956 
1915	 0.175275146987989 
1916	 0.174416971203806 
1917	 0.173644670392457 
1918	 0.172948381898684 
1919	 0.172328250610246 
1920	 0.171796386745629 
1921	 0.171328990498444 
1922	 0.170930332783194 
1923	 0.170588991918042 
1924	 0.17031065781399 
1925	 0.170109889321093 
1926	 0.169940364312056 
1927	 0.169829979104276 
1928	 0.169750862285773 
1929	 0.169705967100702 
1930	 0.169709468057929 
1931	 0.169756384623828 
1932	 0.169854133009106 
1933	 0.170021287363609 
1934	 0.170198136478 
1935	 0.170406650696962 
1936	 0.170658438388962 
1937	 0.170934461296791 
1938	 0.171223026715754 
1939	 0.171558488932444 
1940	 0.171943104693968 
1941	 0.172338293752715 
1942	 0.172767050960682 
1943	 0.17320656919523 
1944	 0.173646237618315 
1945	 0.174113785681134 
1946	 0.174591258766187 
1947	 0.175074216358371 
1948	 0.175592379903506 
1949	 0.176133366006803 
1950	 0.176690270690775 
1951	 0.177282807271938 
1952	 0.177880281944197 
1953	 0.178462268512242 
1954	 0.179062982860562 
1955	 0.179667963711441 
1956	 0.180270202440826 
1957	 0.180885031396067 
1958	 0.181515498787549 
1959	 0.182143608704641 
1960	 0.182768540179855 
1961	 0.18341147353347 
1962	 0.184074766940017 
1963	 0.184734668975941 
1964	 0.185398613356366 
1965	 0.186065912733585 
1966	 0.186752541951582 
1967	 0.187438613737143 
1968	 0.188129535629617 
1969	 0.188832751056515 
1970	 0.189539968057666 
1971	 0.190256530383275 
1972	 0.190961892903187 
1973	 0.191674813578204 
1974	 0.192383487123649 
1975	 0.193091489288104 
1976	 0.193772704382015 
1977	 0.194463888224401 
1978	 0.195170341622947 
1979	 0.195871039395569 
1980	 0.196589371258326 
1981	 0.197321037491294 
1982	 0.198086772672248 
1983	 0.198821199040707 
1984	 0.19955535810134 
1985	 0.200285301582833 
1986	 0.201001507462514 
1987	 0.20171771118985 
1988	 0.202431729821196 
1989	 0.203154621826042 
1990	 0.203864561734219 
1991	 0.20455989226958 
1992	 0.205253848686987 
1993	 0.205935714611689 
1994	 0.206632524161298 
1995	 0.20733507248759 
1996	 0.20802682276097 
1997	 0.208725773014785 
1998	 0.209420215904557 
1999	 0.210097533417461 
2000	 0.210782300319621 
2001	 0.211495670679414 
2002	 0.212167385661867 
2003	 0.212827751672625 
2004	 0.213490691616032 
2005	 0.214131968582567 
2006	 0.214743577668892 
2007	 0.215376493784169 
2008	 0.215992815065193 
2009	 0.216636728309053 
2010	 0.217313392873363 
2011	 0.217964965353931 
2012	 0.218627804444841 
2013	 0.219270551778431 
2014	 0.21989022380787 
2015	 0.220508997645381 
2016	 0.221122461915388 
2017	 0.22174150345262 
2018	 0.222335528088179 
2019	 0.222912718709871 
2020	 0.223491074968955 
2021	 0.224051789002598 
2022	 0.224616598799069 
2023	 0.225185960648347 
2024	 0.225749770554988 
2025	 0.226298713583573 
2026	 0.226857751280693 
2027	 0.227426666457094 
2028	 0.227989146855208 
2029	 0.228541446839126 
2030	 0.229093353237609 
2031	 0.229636184643027 
2032	 0.23016980715483 
2033	 0.230695714788553 
2034	 0.231209465246414 
2035	 0.231731830157213 
2036	 0.232259464357347 
2037	 0.232766852424146 
2038	 0.23327328246784 
2039	 0.233768762705399 
2040	 0.234259108454298 
2041	 0.234709337225602 
2042	 0.235167391600999 
2043	 0.235640458569863 
2044	 0.236083875980042 
2045	 0.23650318952891 
2046	 0.2369389288761 
2047	 0.237358057033233 
2048	 0.237795987378613 
2049	 0.238260875666268 
2050	 0.238701258146374 
2051	 0.239136985616035 
2052	 0.239569944496527 
2053	 0.239996395507649 
2054	 0.240410931650723 
2055	 0.2408172817758 
2056	 0.241224988905825 
2057	 0.241620907834113 
2058	 0.24200437720722 
2059	 0.242383113543459 
2060	 0.242745805412511 
2061	 0.243127950509558 
2062	 0.24351147912932 
2063	 0.243893242455774 
2064	 0.244291543227876 
2065	 0.244678438698368 
2066	 0.245060880848471 
2067	 0.245431390674703 
2068	 0.245796168657653 
2069	 0.246158152979953 
2070	 0.24650551660989 
2071	 0.246828364694528 
2072	 0.247172489573422 
2073	 0.247525708299011 
2074	 0.247859399242326 
2075	 0.248184545263747 
2076	 0.248521708629372 
2077	 0.2488443490668 
2078	 0.249182542890249 
2079	 0.249554841884059 
2080	 0.249897732235626 
2081	 0.250235428674707 
2082	 0.250557911484667 
2083	 0.250846070402029 
2084	 0.25115990408195 
2085	 0.251459486213285 
2086	 0.251745448153703 
2087	 0.252044775503497 
2088	 0.252350495642278 
2089	 0.252650014500087 
2090	 0.252939573638811 
2091	 0.253253760770124 
2092	 0.253587956278673 
2093	 0.253901738237422 
2094	 0.254239705251997 
2095	 0.254542663751678 
2096	 0.254798914509297 
2097	 0.255077904646447 
2098	 0.255353075646253 
2099	 0.255630244519144 
2100	 0.255910062895826 
2101	 0.256201919673936 
2102	 0.256482107209625 
2103	 0.256747880579672 
2104	 0.257035649633464 
2105	 0.257332603350199 
2106	 0.257627272265636 
2107	 0.257931285595205 
2108	 0.258235531824586 
2109	 0.258551287352544 
2110	 0.258848195176567 
2111	 0.25913463459258 
2112	 0.259426826895148 
2113	 0.259714423873317 
2114	 0.25998719833922 
2115	 0.260273634088052 
2116	 0.260579566224476 
2117	 0.260859077231015 
2118	 0.261138750374582 
2119	 0.261385708039837 
2120	 0.261594974824242 
2121	 0.261833098285603 
2122	 0.262044830379158 
2123	 0.262294686504577 
2124	 0.262595523803659 
2125	 0.262862840785571 
2126	 0.263147296448858 
2127	 0.263395513757493 
2128	 0.263604708651093 
2129	 0.263820596473169 
2130	 0.264024043394901 
2131	 0.264225936382769 
2132	 0.264399022561536 
2133	 0.264568144861784 
2134	 0.264710574955521 
2135	 0.26482836593806 
2136	 0.264917983983229 
2137	 0.264973582675938 
2138	 0.26504407173631 
2139	 0.26508750202546 
2140	 0.265138492145404 
2141	 0.265218769001587 
2142	 0.265261010100821 
2143	 0.265272783922931 
2144	 0.265284687983299 
2145	 0.26527476684278 
2146	 0.265271098929367 
2147	 0.265265656672424 
2148	 0.265263598857064 
2149	 0.265245248756159 
2150	 0.265233162697294 
2151	 0.265182025823963 
2152	 0.265110890471449 
2153	 0.265019584158716 
2154	 0.264890023761966 
2155	 0.264774890553943 
2156	 0.26465803017331 
2157	 0.264520083580922 
2158	 0.264365418979077 
2159	 0.264216956360083 
2160	 0.264063658886378 
2161	 0.263893907069068 
2162	 0.263716588694087 
2163	 0.263542963524332 
2164	 0.26336342286203 
2165	 0.263157971969925 
2166	 0.262971863784687 
2167	 0.262812825793132 
2168	 0.262606655276631 
2169	 0.262369994819433 
2170	 0.26215527397409 
2171	 0.261932163097325 
2172	 0.261704235765317 
2173	 0.26149905254939 
2174	 0.261258245825689 
2175	 0.260980103494965 
2176	 0.260715274560009 
2177	 0.260449035598892 
2178	 0.260169364400519 
2179	 0.259896751684226 
2180	 0.259598875716083 
2181	 0.259256028201818 
2182	 0.258939720486801 
2183	 0.258636224530447 
2184	 0.258310249674801 
2185	 0.257988360360126 
2186	 0.25767595308844 
2187	 0.257360331210425 
2188	 0.257007019096285 
2189	 0.256723308540594 
2190	 0.256495153629461 
2191	 0.256225664493068 
2192	 0.255946077739723 
2193	 0.255715645697999 
2194	 0.25547313915451 
2195	 0.255274599212736 
2196	 0.25515873116274 
2197	 0.255015178104552 
2198	 0.254862882477809 
2199	 0.254726594381276 
2200	 0.254586867117187 
2201	 0.254478492113829 
2202	 0.254370384290851 
2203	 0.254321554495069 
2204	 0.254278835060548 
2205	 0.254267511462073 
2206	 0.254266121126247 
2207	 0.254274880411511 
2208	 0.25432111037331 
2209	 0.25439715522471 
2210	 0.254489423670721 
2211	 0.254629924993593 
2212	 0.254744679802015 
2213	 0.254879292523978 
2214	 0.254981884297392 
2215	 0.255058833721661 
2216	 0.255144170133962 
2217	 0.255232306045247 
2218	 0.255297023327844 
2219	 0.255342545300489 
2220	 0.255397299364558 
2221	 0.255452080826488 
2222	 0.255476686813905 
2223	 0.255497504958598 
2224	 0.255551530079772 
2225	 0.255567164821664 
2226	 0.255559924870454 
2227	 0.255543495182131 
2228	 0.25552469849288 
2229	 0.255470454702964 
2230	 0.25538044227443 
2231	 0.255299687129552 
2232	 0.255180462094118 
2233	 0.255115395282633 
2234	 0.255095692917556 
2235	 0.255023565771344 
2236	 0.254964016407606 
2237	 0.25487290833238 
2238	 0.254723573028117 
2239	 0.254597654425683 
2240	 0.254478549129517 
2241	 0.254352227925172 
2242	 0.254197274080222 
2243	 0.254074870058821 
2244	 0.253973757251332 
2245	 0.253873194125904 
2246	 0.253756085897313 
2247	 0.25367873249863 
2248	 0.253576033612663 
2249	 0.253444181175125 
2250	 0.253355972208792 
2251	 0.25330782917308 
2252	 0.253196975155938 
2253	 0.253061649672767 
2254	 0.252959424389726 
2255	 0.252825864065784 
2256	 0.252736777919238 
2257	 0.252704288056191 
2258	 0.252642429824685 
2259	 0.252565663971507 
2260	 0.252508596996368 
2261	 0.252490562549819 
2262	 0.25242961902152 
2263	 0.252334102863482 
2264	 0.252269732299641 
2265	 0.252191827724 
2266	 0.252120290261494 
2267	 0.252077507494454 
2268	 0.252036627004072 
2269	 0.251989595885734 
2270	 0.251949440999985 
2271	 0.251917615258345 
2272	 0.251870962868283 
2273	 0.25180362514308 
2274	 0.251731057007993 
2275	 0.251683108887949 
2276	 0.251650919179519 
2277	 0.251618794654293 
2278	 0.251604104168435 
2279	 0.25156469131287 
2280	 0.251514767815247 
2281	 0.25146468280117 
2282	 0.25140526941985 
2283	 0.251356451863367 
2284	 0.251313270306134 
2285	 0.251264414883731 
2286	 0.251217075130004 
2287	 0.251156740967057 
2288	 0.251102912160327 
2289	 0.251024240251954 
2290	 0.250917792382033 
2291	 0.250821085130491 
2292	 0.250691924195728 
2293	 0.250597548999375 
2294	 0.25054376440625 
2295	 0.250462561537785 
2296	 0.250384961113001 
2297	 0.250306871464222 
2298	 0.250207027994733 
2299	 0.250068794577639 
2300	 0.249948231641298 
2301	 0.249825656677977 
2302	 0.249692860794614 
2303	 0.249584641039039 
2304	 0.249456627842437 
2305	 0.249310309162369 
2306	 0.249168375562539 
2307	 0.249021147767328 
2308	 0.248853128891604 
2309	 0.248674958862801 
2310	 0.248496757591667 
2311	 0.248298187873386 
2312	 0.248099390747269 
2313	 0.247897496417009 
2314	 0.247710248620593 
2315	 0.247524607562285 
2316	 0.247336003717434 
2317	 0.247147044838001 
2318	 0.246978418299486 
2319	 0.246819332223028 
2320	 0.246639965700385 
2321	 0.24647057368283 
2322	 0.2463113055913 
2323	 0.246128252628975 
2324	 0.245959686783775 
2325	 0.245837116040318 
2326	 0.24568000861956 
2327	 0.245487807076118 
2328	 0.245332172053914 
2329	 0.24515662244967 
2330	 0.244945278908772 
2331	 0.244748653955497 
2332	 0.244532851468497 
2333	 0.244288060546205 
2334	 0.244040513087881 
2335	 0.243887439499327 
2336	 0.243722300538892 
2337	 0.243475770476983 
2338	 0.243299243207079 
2339	 0.243094663375929 
2340	 0.242807960300081 
2341	 0.242560609844017 
2342	 0.242316271092403 
2343	 0.242031611434973 
2344	 0.241728540447952 
2345	 0.241423081822909 
2346	 0.241148666132732 
2347	 0.240822738366261 
2348	 0.240431821333305 
2349	 0.240093580449041 
2350	 0.239760876396967 
2351	 0.239440784070824 
2352	 0.239139894081683 
2353	 0.238835401984676 
2354	 0.238541665706437 
2355	 0.238250382554411 
2356	 0.237985034332552 
2357	 0.237681726322474 
2358	 0.237326815301017 
2359	 0.237023871730712 
2360	 0.236753501046644 
2361	 0.236427882345577 
2362	 0.236112539757557 
2363	 0.235799691447393 
2364	 0.235432986158662 
2365	 0.235078144552557 
2366	 0.234766110542183 
2367	 0.234412134786707 
2368	 0.233973458891208 
2369	 0.233625101180844 
2370	 0.233325446025185 
2371	 0.233022958610417 
2372	 0.232714976932562 
2373	 0.232386083600479 
2374	 0.232011592791446 
2375	 0.23157060279254 
2376	 0.231168978319234 
2377	 0.230763514142188 
2378	 0.230310579443683 
2379	 0.229906671978059 
2380	 0.229460706969613 
2381	 0.229031231574345 
2382	 0.22862942952628 
2383	 0.228198837692186 
2384	 0.227856193505555 
2385	 0.227462624500527 
2386	 0.22700990843346 
2387	 0.226637511814106 
2388	 0.226169580169075 
2389	 0.225687933996699 
2390	 0.225335862631421 
2391	 0.224883318536221 
2392	 0.224313451957497 
2393	 0.223824105145517 
2394	 0.223292063733194 
2395	 0.222754993066176 
2396	 0.222396400084917 
2397	 0.221920007956485 
2398	 0.221364492702864 
2399	 0.220879364767156 
2400	 0.220293636965549 
2401	 0.219764354032108 
2402	 0.219345750201111 
2403	 0.218879397386942 
2404	 0.218455441140263 
2405	 0.218102135521092 
2406	 0.217670346724941 
2407	 0.217241921094494 
2408	 0.216808269025956 
2409	 0.216256165631118 
2410	 0.215784877936507 
2411	 0.215374287658598 
2412	 0.214907056122396 
2413	 0.214454114473836 
2414	 0.213918219078219 
2415	 0.213254457058547 
2416	 0.21266220186309 
2417	 0.212062932054473 
2418	 0.211516369273074 
2419	 0.211015182737773 
2420	 0.210524802343721 
2421	 0.21003754669191 
2422	 0.209553317950859 
2423	 0.209139581058896 
2424	 0.208614459187329 
2425	 0.208048057099734 
2426	 0.207504802290499 
2427	 0.20686216159838 
2428	 0.206347577837067 
2429	 0.205904276308405 
2430	 0.205448934700003 
2431	 0.20510596735087 
2432	 0.204606154155903 
2433	 0.204006719315199 
2434	 0.203460628059984 
2435	 0.202799409843597 
2436	 0.202311367445085 
2437	 0.202013738029945 
2438	 0.201564922361756 
2439	 0.201086058634543 
2440	 0.200685723579116 
2441	 0.200282852902469 
2442	 0.199839237093679 
2443	 0.199460310942362 
2444	 0.198990162145125 
2445	 0.198342605107434 
2446	 0.197867272907974 
2447	 0.197517197296359 
2448	 0.197041080804449 
2449	 0.196584226292545 
2450	 0.19614008908243 
2451	 0.195613537009879 
2452	 0.195119297837325 
2453	 0.194701958020915 
2454	 0.194119230797283 
2455	 0.19338133674486 
2456	 0.192793400728738 
2457	 0.19221984465064 
2458	 0.191717755596417 
2459	 0.191358263347692 
2460	 0.190903142075352 
2461	 0.19039568594369 
2462	 0.189875123954622 
2463	 0.189357303221041 
2464	 0.188871424250194 
2465	 0.188328932597832 
2466	 0.187888203241764 
2467	 0.187516414842043 
2468	 0.187042116538286 
2469	 0.186682607531065 
2470	 0.186026259374056 
2471	 0.185392243284834 
2472	 0.184897608033228 
2473	 0.184399889478685 
2474	 0.184016514514375 
2475	 0.183589518762311 
2476	 0.183056891711376 
2477	 0.182402691968499 
2478	 0.181780760181771 
2479	 0.181512022636275 
2480	 0.181198340226231 
2481	 0.18073329502817 
2482	 0.180476004024975 
2483	 0.180004461115326 
2484	 0.179491773986238 
2485	 0.179310407043082 
2486	 0.178915794796589 
2487	 0.178400338011467 
2488	 0.177919992135187 
2489	 0.177222439354183 
2490	 0.176715412618995 
2491	 0.176602747099101 
2492	 0.176363155690592 
2493	 0.176084382203893 
2494	 0.175993626028979 
2495	 0.175614183285155 
2496	 0.175083752786357 
2497	 0.174815965400525 
2498	 0.174480773512851 
2499	 0.173990372316632 
2500	 0.173660506824367 
