Wavelength	MM300006.asd
350	 5.58433846655278E-02 
351	 0.059980954462684 
352	 5.81023050544826E-02 
353	 5.30569732972101E-02 
354	 5.80615293822965E-02 
355	 5.93648162380294E-02 
356	 5.80354230622297E-02 
357	 5.83056492364761E-02 
358	 6.14389560100765E-02 
359	 5.97716573486274E-02 
360	 5.68543988681185E-02 
361	 6.18954286685252E-02 
362	 6.28420314871047E-02 
363	 5.82605551659678E-02 
364	 5.21485156105293E-02 
365	 5.45335468329083E-02 
366	 5.73714583912409E-02 
367	 5.91726802969167E-02 
368	 5.99329870836967E-02 
369	 5.77579956357276E-02 
370	 5.66324123285273E-02 
371	 5.70357779332192E-02 
372	 5.70693088466848E-02 
373	 5.85078527085834E-02 
374	 5.94669852165112E-02 
375	 5.93454299522621E-02 
376	 6.06447009750117E-02 
377	 5.87987629547292E-02 
378	 0.059185149232983 
379	 6.57782231910073E-02 
380	 6.44518474323157E-02 
381	 6.08409313771312E-02 
382	 5.97906235163416E-02 
383	 6.39836841082671E-02 
384	 6.34915253613815E-02 
385	 6.22896298720371E-02 
386	 6.34934642725777E-02 
387	 6.48100673837679E-02 
388	 6.40961129516621E-02 
389	 6.40898209486247E-02 
390	 6.71172132123895E-02 
391	 6.52744797214402E-02 
392	 6.47657362693106E-02 
393	 6.68545522638608E-02 
394	 0.068111728660207 
395	 6.70737301679993E-02 
396	 6.69516237422295E-02 
397	 6.90281233780411E-02 
398	 6.87451524969094E-02 
399	 0.06908916544576 
400	 6.97591804212922E-02 
401	 6.97118895325412E-02 
402	 7.07273471416165E-02 
403	 7.14546518310702E-02 
404	 0.071582747620026 
405	 7.20165082562977E-02 
406	 7.25841634699378E-02 
407	 7.30475535783103E-02 
408	 7.31536027817944E-02 
409	 7.25281125320996E-02 
410	 7.24665609096581E-02 
411	 7.31010213051561E-02 
412	 7.39122829781976E-02 
413	 7.42779476308707E-02 
414	 7.43822950881155E-02 
415	 7.46631536484306E-02 
416	 7.58029333396547E-02 
417	 7.52741778549352E-02 
418	 7.45927677176513E-02 
419	 7.52972510430807E-02 
420	 7.55984206795318E-02 
421	 7.52484638388541E-02 
422	 7.50434813587078E-02 
423	 7.61092904220238E-02 
424	 7.54487701105192E-02 
425	 7.48961843705802E-02 
426	 0.07544026180984 
427	 7.54668485934752E-02 
428	 7.53681073161492E-02 
429	 7.51069902747631E-02 
430	 7.47077691722628E-02 
431	 7.50209042272827E-02 
432	 7.51011155886304E-02 
433	 0.074798585160561 
434	 7.47788058872791E-02 
435	 7.47692407996391E-02 
436	 7.47923155519487E-02 
437	 7.48708596475166E-02 
438	 7.48745871896656E-02 
439	 7.50779573185629E-02 
440	 7.53940908846761E-02 
441	 7.55722893612503E-02 
442	 7.56401077490015E-02 
443	 7.58093223146896E-02 
444	 7.60755043722618E-02 
445	 0.076079051579465 
446	 7.62728585719563E-02 
447	 7.65869176172665E-02 
448	 7.68527458136775E-02 
449	 0.077201397932189 
450	 7.73929661373579E-02 
451	 7.74556284452507E-02 
452	 7.76406544928472E-02 
453	 0.077839817436394 
454	 7.80127913559526E-02 
455	 7.81558581909964E-02 
456	 7.83206489945932E-02 
457	 7.86067439544251E-02 
458	 7.87283356998236E-02 
459	 7.83970291119169E-02 
460	 7.87124427056482E-02 
461	 0.078909932638698 
462	 7.87350238674849E-02 
463	 7.88746032745119E-02 
464	 7.90757648223446E-02 
465	 7.92410305636853E-02 
466	 7.93511275676047E-02 
467	 7.95801852543193E-02 
468	 7.97082594052445E-02 
469	 7.96539399687492E-02 
470	 0.079484155495909 
471	 0.07962211056384 
472	 7.97678579152619E-02 
473	 7.97181071313402E-02 
474	 7.98035518213398E-02 
475	 0.079849911756002 
476	 0.079820640016117 
477	 7.97597021157522E-02 
478	 7.98226084263614E-02 
479	 8.00295853708661E-02 
480	 8.02513894287647E-02 
481	 8.01724952244392E-02 
482	 8.02433911786185E-02 
483	 8.03853997430908E-02 
484	 8.04282639912795E-02 
485	 8.04758501974693E-02 
486	 0.080477541116286 
487	 8.04666343105063E-02 
488	 8.05386790383619E-02 
489	 8.05935081457004E-02 
490	 8.05807323242962E-02 
491	 8.05380506127743E-02 
492	 8.07066434894556E-02 
493	 0.080819688599016 
494	 0.080840420393968 
495	 8.08467664651875E-02 
496	 8.08852903240644E-02 
497	 8.09380148381282E-02 
498	 8.09887150037311E-02 
499	 8.10332035240443E-02 
500	 8.11415502625581E-02 
501	 8.12195460766414E-02 
502	 0.081187098401011 
503	 8.12504586359251E-02 
504	 8.12787173938522E-02 
505	 8.12747265711409E-02 
506	 8.13649801960536E-02 
507	 8.14293482478295E-02 
508	 8.15025584451784E-02 
509	 8.15962868734493E-02 
510	 8.15769555294943E-02 
511	 8.15347086325446E-02 
512	 8.15684488719859E-02 
513	 8.17427591667375E-02 
514	 8.17757122745301E-02 
515	 8.17940279948445E-02 
516	 8.19061741922349E-02 
517	 8.21354284608794E-02 
518	 8.20792948179422E-02 
519	 0.081923106021308 
520	 8.19809361174022E-02 
521	 8.20991125748771E-02 
522	 8.22157362958867E-02 
523	 8.22754055859123E-02 
524	 8.22291442222366E-02 
525	 8.21512732305861E-02 
526	 8.21926780896049E-02 
527	 8.23908113520698E-02 
528	 0.082384462345539 
529	 8.24491975495143E-02 
530	 8.25806114287583E-02 
531	 8.26034266021155E-02 
532	 8.26517333661823E-02 
533	 8.27686183002364E-02 
534	 8.29205113161234E-02 
535	 8.29369182538787E-02 
536	 8.29574136719986E-02 
537	 8.30555103278158E-02 
538	 8.32343553152658E-02 
539	 8.32104832534389E-02 
540	 8.32137084628631E-02 
541	 8.33380994627758E-02 
542	 8.34472288079498E-02 
543	 8.34888812221791E-02 
544	 8.35503008949271E-02 
545	 8.37080745716216E-02 
546	 8.38237292857044E-02 
547	 8.39180572890188E-02 
548	 8.40374566243297E-02 
549	 8.42364776953136E-02 
550	 8.43562799418624E-02 
551	 8.44547104604553E-02 
552	 0.084598380395045 
553	 8.47746821178986E-02 
554	 8.49040283164736E-02 
555	 8.50228409318479E-02 
556	 8.52165946348593E-02 
557	 8.53895887349302E-02 
558	 8.56047156423694E-02 
559	 8.58658708439905E-02 
560	 8.60411194829178E-02 
561	 8.62265005200486E-02 
562	 8.64832223848408E-02 
563	 8.68252710099046E-02 
564	 8.70883323637493E-02 
565	 8.73218500384089E-02 
566	 8.75898098261941E-02 
567	 8.79545093672923E-02 
568	 8.83356851696791E-02 
569	 8.87310008116366E-02 
570	 8.91408981775871E-02 
571	 8.95063823739788E-02 
572	 8.99036343882957E-02 
573	 9.03366111359575E-02 
574	 9.07554894147711E-02 
575	 9.11318964787079E-02 
576	 0.091526221585242 
577	 9.19707460752867E-02 
578	 0.092396572210228 
579	 9.29037804393825E-02 
580	 9.34914463297443E-02 
581	 9.41138922804634E-02 
582	 9.47586436644894E-02 
583	 9.54054796552357E-02 
584	 9.60389024973863E-02 
585	 9.66503065468095E-02 
586	 9.72717099824695E-02 
587	 9.78693567925145E-02 
588	 9.84209851604342E-02 
589	 9.90392067796106E-02 
590	 9.96842008132786E-02 
591	 0.100326436292257 
592	 0.100954729228224 
593	 0.101602172126182 
594	 0.102241094155309 
595	 0.102870991631394 
596	 0.103608189727965 
597	 0.104318721375458 
598	 0.104983852201838 
599	 0.105650204182748 
600	 0.106314350381353 
601	 0.106990041441459 
602	 0.107644185747637 
603	 0.108150101747137 
604	 0.108716949237996 
605	 0.109326764156012 
606	 0.109889107498224 
607	 0.110402508494227 
608	 0.110916283105705 
609	 0.111448990468314 
610	 0.111980502634255 
611	 0.112439383787917 
612	 0.112898261501319 
613	 0.113411983663992 
614	 0.113862295245088 
615	 0.114244488769442 
616	 0.114603373504085 
617	 0.115009637302996 
618	 0.115412631356379 
619	 0.115741496241311 
620	 0.115984252627529 
621	 0.11624929168304 
622	 0.116545866238611 
623	 0.116856722060779 
624	 0.117147391344497 
625	 0.117391653301456 
626	 0.117615532516463 
627	 0.117853077993321 
628	 0.118142517380085 
629	 0.118422741825621 
630	 0.118661062546187 
631	 0.118849771666124 
632	 0.119030161608517 
633	 0.119236931453666 
634	 0.11947030946221 
635	 0.119701515574498 
636	 0.119925503906922 
637	 0.120140015154919 
638	 0.12033967792886 
639	 0.120504377186271 
640	 0.120681055170163 
641	 0.120894046745946 
642	 0.121143579624843 
643	 0.121353094383031 
644	 0.121535938856805 
645	 0.121723648815696 
646	 0.121959913665127 
647	 0.122198358350755 
648	 0.122401847165809 
649	 0.122569916987854 
650	 0.122842582105792 
651	 0.123079934354235 
652	 0.123259017106717 
653	 0.12346447844742 
654	 0.123685854689757 
655	 0.123907813857099 
656	 0.124128762825511 
657	 0.124389448885741 
658	 0.124632987859259 
659	 0.124898149879427 
660	 0.125240109976994 
661	 0.125473829922834 
662	 0.125703367301636 
663	 0.125980680832148 
664	 0.12624036448984 
665	 0.126531979297388 
666	 0.126841204150344 
667	 0.12714057389854 
668	 0.127423051616334 
669	 0.127716311564718 
670	 0.12803695192195 
671	 0.128385105934874 
672	 0.12867924839758 
673	 0.128986849624963 
674	 0.129353834541943 
675	 0.129718010669 
676	 0.130044726449191 
677	 0.130364776951259 
678	 0.130729018937796 
679	 0.131084952854208 
680	 0.131454538894841 
681	 0.131838047621292 
682	 0.132199990453277 
683	 0.132593905456125 
684	 0.133001587700343 
685	 0.133403244601441 
686	 0.133846168611302 
687	 0.134294415587522 
688	 0.134734308342347 
689	 0.13516533907164 
690	 0.135520764605006 
691	 0.135914865182765 
692	 0.136400851632151 
693	 0.136863191085339 
694	 0.137321409006564 
695	 0.137766681788267 
696	 0.138193955449625 
697	 0.138649358439452 
698	 0.13913081021905 
699	 0.139615972761556 
700	 0.140066537583561 
701	 0.140533109043255 
702	 0.141007995039986 
703	 0.141478284291816 
704	 0.141955002130955 
705	 0.142433947604017 
706	 0.1429229599963 
707	 0.143429288862097 
708	 0.143911138460886 
709	 0.144380329752333 
710	 0.144848655716343 
711	 0.145320493024073 
712	 0.145795564515683 
713	 0.146265833069193 
714	 0.146726310880468 
715	 0.147192376365532 
716	 0.147628698820657 
717	 0.148039994035482 
718	 0.148460116736168 
719	 0.148903597810369 
720	 0.14931775353742 
721	 0.149692762056053 
722	 0.150121826227039 
723	 0.150551785943168 
724	 0.150938693089114 
725	 0.15126566524928 
726	 0.151639508917957 
727	 0.15195552619129 
728	 0.152223976387629 
729	 0.15256323026145 
730	 0.152907537880625 
731	 0.15320090948594 
732	 0.153431655647252 
733	 0.15368994511818 
734	 0.1539045725369 
735	 0.154088521265422 
736	 0.154280254220681 
737	 0.154446518023916 
738	 0.154613981723882 
739	 0.154765839225665 
740	 0.154838242915835 
741	 0.154964358144373 
742	 0.155072240725853 
743	 0.155092667277089 
744	 0.155080790557303 
745	 0.155078350524677 
746	 0.155102206811005 
747	 0.155142549696005 
748	 0.1551299342282 
749	 0.155074191390555 
750	 0.154999205235243 
751	 0.15493438511567 
752	 0.154814840513139 
753	 0.154683797515464 
754	 0.154577153148843 
755	 0.154435313529652 
756	 0.154266796356063 
757	 0.154073611987831 
758	 0.153862712066699 
759	 0.153690903559907 
760	 0.153497486122387 
761	 0.153269849616294 
762	 0.153067948158192 
763	 0.152797956984177 
764	 0.152522420327484 
765	 0.152300530320503 
766	 0.152074410723686 
767	 0.151829012209029 
768	 0.151540103318273 
769	 0.151199438563938 
770	 0.15092063186923 
771	 0.150654510292378 
772	 0.150352539305356 
773	 0.149989809446231 
774	 0.149708374555446 
775	 0.14943698490424 
776	 0.149108191417868 
777	 0.14880579177463 
778	 0.148486962065391 
779	 0.148163377464218 
780	 0.147859650385144 
781	 0.147516535162717 
782	 0.147209996010618 
783	 0.146935280110785 
784	 0.146598990899855 
785	 0.146296195053287 
786	 0.145990241730192 
787	 0.145652917266477 
788	 0.145335765217013 
789	 0.145023818141881 
790	 0.144711695187756 
791	 0.14439951834116 
792	 0.144106143247411 
793	 0.14379691133303 
794	 0.143480946506488 
795	 0.143202134903339 
796	 0.142902993402605 
797	 0.142597914318357 
798	 0.142304732761851 
799	 0.142024252286261 
800	 0.141780215679767 
801	 0.141510750751335 
802	 0.141178590773244 
803	 0.140945238162718 
804	 0.140689485842691 
805	 0.140401473486779 
806	 0.140141720056617 
807	 0.139887401687117 
808	 0.139641617919475 
809	 0.139408791875909 
810	 0.139190942960451 
811	 0.138960300671559 
812	 0.138713374836289 
813	 0.138464475613378 
814	 0.138258283957038 
815	 0.138056401809245 
816	 0.13785018608661 
817	 0.137643976658881 
818	 0.137439151837017 
819	 0.137247020744035 
820	 0.137054965081894 
821	 0.136835328097411 
822	 0.136632774841815 
823	 0.136455804668499 
824	 0.136291650537667 
825	 0.136102209230573 
826	 0.135990062351012 
827	 0.135885028305204 
828	 0.135708259702959 
829	 0.135507712776921 
830	 0.135330335256116 
831	 0.135190521052268 
832	 0.135078614850933 
833	 0.134974974449585 
834	 0.134846194840084 
835	 0.134692177767477 
836	 0.134545443784337 
837	 0.134417673448254 
838	 0.134335025202887 
839	 0.134281440193491 
840	 0.134169819199583 
841	 0.134078981353516 
842	 0.13397589613698 
843	 0.133843365028439 
844	 0.13381573074615 
845	 0.133756915938945 
846	 0.133659801997862 
847	 0.133577091068404 
848	 0.133510178915188 
849	 0.133461082329426 
850	 0.133429820626152 
851	 0.133412669825174 
852	 0.133389498256882 
853	 0.133327615868085 
854	 0.133254134652733 
855	 0.133277665597225 
856	 0.133239634901084 
857	 0.13319773416464 
858	 0.13320130490514 
859	 0.13313712166161 
860	 0.133120521365277 
861	 0.133169065755281 
862	 0.133244066195074 
863	 0.133247493074411 
864	 0.133213303591247 
865	 0.133189305820384 
866	 0.133212334232421 
867	 0.133197685345568 
868	 0.133210955035777 
869	 0.13328036217984 
870	 0.133377792238111 
871	 0.133453440397326 
872	 0.133482106223222 
873	 0.133489444146766 
874	 0.133567257714536 
875	 0.133667342005211 
876	 0.133744737319518 
877	 0.133788306852671 
878	 0.133871366429009 
879	 0.133968997185537 
880	 0.134048156108764 
881	 0.13409617204085 
882	 0.134194351249142 
883	 0.134314912965542 
884	 0.134426986648914 
885	 0.134514016660304 
886	 0.134646725518505 
887	 0.134777551520674 
888	 0.134871948825748 
889	 0.134930764156236 
890	 0.135094547841971 
891	 0.135250906068985 
892	 0.13537222714846 
893	 0.135569095610341 
894	 0.135693565534476 
895	 0.13581071469304 
896	 0.135991567210893 
897	 0.136240775422063 
898	 0.136421978461876 
899	 0.136559933354323 
900	 0.136718096003633 
901	 0.136935686669508 
902	 0.137126410681345 
903	 0.137295900526535 
904	 0.137478475991668 
905	 0.137677441336972 
906	 0.137896475462778 
907	 0.138122440281314 
908	 0.138350010317686 
909	 0.138662638599706 
910	 0.13891366822906 
911	 0.139109654273245 
912	 0.139351562283367 
913	 0.139571879278042 
914	 0.139796424092309 
915	 0.140040763746233 
916	 0.140300696802805 
917	 0.140527684587096 
918	 0.140840218959688 
919	 0.141196732348075 
920	 0.14138166704308 
921	 0.141723715643221 
922	 0.142063056969213 
923	 0.142320492245989 
924	 0.142652690301305 
925	 0.142992451383459 
926	 0.143344203543564 
927	 0.14369260100937 
928	 0.143965098167224 
929	 0.144205502342651 
930	 0.144518484970284 
931	 0.144937388923243 
932	 0.145304506267292 
933	 0.145729447476417 
934	 0.146127371628698 
935	 0.146448114081404 
936	 0.146904525198645 
937	 0.147278237602634 
938	 0.147620443495422 
939	 0.148029161142774 
940	 0.148426935673381 
941	 0.148850098189017 
942	 0.149322390262798 
943	 0.149814702468541 
944	 0.150121089995023 
945	 0.150477932659736 
946	 0.15092456564635 
947	 0.151390197875369 
948	 0.151797266856484 
949	 0.152277287642457 
950	 0.152784660549806 
951	 0.153221584465608 
952	 0.153732900654176 
953	 0.154231166347759 
954	 0.154709260365428 
955	 0.155197910818607 
956	 0.155624585102372 
957	 0.15613729418848 
958	 0.156728082263158 
959	 0.157285590838948 
960	 0.157760562927256 
961	 0.15829403292882 
962	 0.158866907855595 
963	 0.159373277376869 
964	 0.159913160408201 
965	 0.160468266973152 
966	 0.161049771258589 
967	 0.161669722421884 
968	 0.162186765430361 
969	 0.162796762172996 
970	 0.163455376664496 
971	 0.163984082629134 
972	 0.164551657945082 
973	 0.165178528026512 
974	 0.165787080263873 
975	 0.166305988296882 
976	 0.167049915653361 
977	 0.16780167100606 
978	 0.16843306969875 
979	 0.168947988501222 
980	 0.169523538639877 
981	 0.170186601892155 
982	 0.170896779451408 
983	 0.171574874906903 
984	 0.172156257638247 
985	 0.172721711680786 
986	 0.173357210955851 
987	 0.17410870736598 
988	 0.174902935082357 
989	 0.175491049218635 
990	 0.176008433826005 
991	 0.176713414978482 
992	 0.177424951046119 
993	 0.178011326074122 
994	 0.178676977481508 
995	 0.179589705476307 
996	 0.180141832629465 
997	 0.180831740141652 
998	 0.181554042544911 
999	 0.182111632669536 
1000	 0.182909122592211 
1001	 0.185188536205544 
1002	 0.18589830784885 
1003	 0.186624436099962 
1004	 0.187302856446542 
1005	 0.187994205741823 
1006	 0.188661884684132 
1007	 0.189284881365261 
1008	 0.189893400261564 
1009	 0.190537682210838 
1010	 0.191175472041596 
1011	 0.191825186936925 
1012	 0.192490292367806 
1013	 0.193162951073806 
1014	 0.193796392155795 
1015	 0.194380213488534 
1016	 0.195001673270118 
1017	 0.195598781896185 
1018	 0.196165687026714 
1019	 0.196722232507364 
1020	 0.197356151595043 
1021	 0.197982848207819 
1022	 0.198578703105449 
1023	 0.199198908466595 
1024	 0.199788907896514 
1025	 0.200319122796368 
1026	 0.20086746608325 
1027	 0.201473801500373 
1028	 0.20206320020693 
1029	 0.20259007780286 
1030	 0.203148557869702 
1031	 0.203688403961007 
1032	 0.204212359923521 
1033	 0.2046959316043 
1034	 0.20523229133891 
1035	 0.20575025765095 
1036	 0.206269372208742 
1037	 0.206814841014725 
1038	 0.207365457361324 
1039	 0.20793142932194 
1040	 0.208428541166571 
1041	 0.208919609338887 
1042	 0.209465325122204 
1043	 0.209988485005323 
1044	 0.210501727073417 
1045	 0.211013307316031 
1046	 0.211581541665109 
1047	 0.212109560972774 
1048	 0.212569332791967 
1049	 0.213085233604415 
1050	 0.213626173598679 
1051	 0.214127810322048 
1052	 0.214618975871416 
1053	 0.215101868588902 
1054	 0.215594534549878 
1055	 0.216090704479238 
1056	 0.216625190425901 
1057	 0.217161453049566 
1058	 0.217739846859197 
1059	 0.218253909309577 
1060	 0.218751231108407 
1061	 0.219220655736709 
1062	 0.219665649136357 
1063	 0.220121434442949 
1064	 0.220622775677426 
1065	 0.221172638566141 
1066	 0.221712684891338 
1067	 0.222239899178779 
1068	 0.222764405861422 
1069	 0.223256849254373 
1070	 0.223746706585839 
1071	 0.224252804646611 
1072	 0.224729915119514 
1073	 0.225159426366846 
1074	 0.225622428768923 
1075	 0.226101516912416 
1076	 0.226517431884914 
1077	 0.226989071872372 
1078	 0.227477794311956 
1079	 0.2279395316859 
1080	 0.228418163020125 
1081	 0.228896578409712 
1082	 0.229367755141488 
1083	 0.229841945587632 
1084	 0.230324670767708 
1085	 0.230802494325661 
1086	 0.231264386314318 
1087	 0.23173886115198 
1088	 0.232216883098328 
1089	 0.232689636927521 
1090	 0.23317957489878 
1091	 0.233695222707218 
1092	 0.234171286689031 
1093	 0.234646682889395 
1094	 0.23515311357901 
1095	 0.235605433679127 
1096	 0.23607629213017 
1097	 0.236619949132663 
1098	 0.237134299557086 
1099	 0.237644573983637 
1100	 0.238161825706696 
1101	 0.238671202844288 
1102	 0.23919244706371 
1103	 0.239714065720412 
1104	 0.240264829254896 
1105	 0.240798886499849 
1106	 0.241369217288052 
1107	 0.241945600995569 
1108	 0.242490529207867 
1109	 0.243041841129656 
1110	 0.243591810958605 
1111	 0.244161557478182 
1112	 0.244736156960595 
1113	 0.245305363328548 
1114	 0.24588311449273 
1115	 0.246481261182173 
1116	 0.247088826360019 
1117	 0.247686398759164 
1118	 0.248312830537744 
1119	 0.248903410882783 
1120	 0.249498843222029 
1121	 0.250081076448923 
1122	 0.250626237100958 
1123	 0.251196989930681 
1124	 0.251784757828802 
1125	 0.252350109400113 
1126	 0.252950200782227 
1127	 0.253614695591605 
1128	 0.25422170223038 
1129	 0.254797649763988 
1130	 0.255396877980802 
1131	 0.255994138017257 
1132	 0.256592484241926 
1133	 0.257210055429704 
1134	 0.257804581865978 
1135	 0.258373033631021 
1136	 0.258953753674924 
1137	 0.259569457998431 
1138	 0.260143630365655 
1139	 0.260713589861512 
1140	 0.261297925498153 
1141	 0.261850322708404 
1142	 0.26234729398994 
1143	 0.262898714752291 
1144	 0.263473240496075 
1145	 0.264026087080897 
1146	 0.264584504624327 
1147	 0.265142445120991 
1148	 0.265699573650032 
1149	 0.266243136104526 
1150	 0.266782281828291 
1151	 0.267328861658805 
1152	 0.267854988181824 
1153	 0.268343085266175 
1154	 0.268878653211373 
1155	 0.269436713148638 
1156	 0.269976361516936 
1157	 0.270539485425934 
1158	 0.271071976146232 
1159	 0.271571075590499 
1160	 0.272089916806311 
1161	 0.272610860148419 
1162	 0.27312837468648 
1163	 0.273657741622504 
1164	 0.274173086011726 
1165	 0.274671425104395 
1166	 0.27518030777932 
1167	 0.275702144982444 
1168	 0.276205637130617 
1169	 0.2767070867773 
1170	 0.277211248278835 
1171	 0.277710820016355 
1172	 0.278202969310983 
1173	 0.278688659457348 
1174	 0.279174942871342 
1175	 0.279657496377759 
1176	 0.28013051930205 
1177	 0.280600584460587 
1178	 0.281072836308743 
1179	 0.281540864333717 
1180	 0.282005463099093 
1181	 0.282458412611376 
1182	 0.282899332130213 
1183	 0.283350454749598 
1184	 0.283795298390092 
1185	 0.284233844098156 
1186	 0.284669010551605 
1187	 0.2851125875454 
1188	 0.285534306460201 
1189	 0.2859491481339 
1190	 0.286339000181605 
1191	 0.286696337564238 
1192	 0.287077830039118 
1193	 0.28745272536762 
1194	 0.287827874582636 
1195	 0.288217056620166 
1196	 0.288600346025535 
1197	 0.2889760371295 
1198	 0.289346739456866 
1199	 0.289715966062369 
1200	 0.290097924560834 
1201	 0.290449506667952 
1202	 0.290783591267271 
1203	 0.29111576148923 
1204	 0.291435991748947 
1205	 0.291752068863666 
1206	 0.292051816639163 
1207	 0.2923688694883 
1208	 0.292687822442138 
1209	 0.293006610908047 
1210	 0.293351577419008 
1211	 0.293665205801143 
1212	 0.293955961775802 
1213	 0.294250871845033 
1214	 0.294535228484682 
1215	 0.294815751051131 
1216	 0.295093626747363 
1217	 0.295377931524132 
1218	 0.295642118199569 
1219	 0.295894040621569 
1220	 0.29614195888569 
1221	 0.296371156599481 
1222	 0.29661923593182 
1223	 0.296870570681503 
1224	 0.297121068872442 
1225	 0.297393060024845 
1226	 0.29763764248835 
1227	 0.297864213396782 
1228	 0.298093814762107 
1229	 0.29830717132756 
1230	 0.298529341912236 
1231	 0.298767478468032 
1232	 0.298988225149681 
1233	 0.299201868729886 
1234	 0.299413205634158 
1235	 0.299613554808255 
1236	 0.299796907751978 
1237	 0.299987246149559 
1238	 0.300177752476358 
1239	 0.300362012671029 
1240	 0.300543716721143 
1241	 0.300721374025451 
1242	 0.300892967035301 
1243	 0.301063780897371 
1244	 0.301226258740537 
1245	 0.301398405646142 
1246	 0.30157529228983 
1247	 0.301749533226195 
1248	 0.301942083518856 
1249	 0.302114241531672 
1250	 0.302250852709204 
1251	 0.302392375604518 
1252	 0.302540407284293 
1253	 0.302679067329297 
1254	 0.302815052902396 
1255	 0.302971662736722 
1256	 0.303096386424619 
1257	 0.303185576581607 
1258	 0.303297575772879 
1259	 0.303406632655539 
1260	 0.303522010926211 
1261	 0.303653190646376 
1262	 0.303768122415233 
1263	 0.30387145437535 
1264	 0.303986909094601 
1265	 0.304108382026624 
1266	 0.3042191847841 
1267	 0.30433900498303 
1268	 0.304442854550379 
1269	 0.3045438846651 
1270	 0.304622424839182 
1271	 0.304729616490716 
1272	 0.304846601021402 
1273	 0.304961980726446 
1274	 0.305089499157627 
1275	 0.305207333655012 
1276	 0.305329173203455 
1277	 0.305436992800951 
1278	 0.305532238826996 
1279	 0.305634451088694 
1280	 0.305733255360429 
1281	 0.305823806790013 
1282	 0.305908522242473 
1283	 0.306003390856226 
1284	 0.306100485323484 
1285	 0.306183609514833 
1286	 0.306280224450313 
1287	 0.30639846901096 
1288	 0.306500139186868 
1289	 0.306601979642557 
1290	 0.306687710167236 
1291	 0.306770583346623 
1292	 0.306834499234312 
1293	 0.306879914143977 
1294	 0.306919550493981 
1295	 0.306940491117485 
1296	 0.30697311382408 
1297	 0.307005042577472 
1298	 0.307029168138127 
1299	 0.307064461236869 
1300	 0.30707698952196 
1301	 0.307057297942542 
1302	 0.307056796996668 
1303	 0.307058168112736 
1304	 0.307056025245704 
1305	 0.307068495550191 
1306	 0.307062449372691 
1307	 0.307045616592692 
1308	 0.307046058375958 
1309	 0.307040342234455 
1310	 0.307039260615546 
1311	 0.307028207883161 
1312	 0.307012626538297 
1313	 0.306993277528346 
1314	 0.306963817409415 
1315	 0.306944807009943 
1316	 0.306927972812474 
1317	 0.306912779687592 
1318	 0.306903165868594 
1319	 0.306888115973836 
1320	 0.306868796464318 
1321	 0.306856100987545 
1322	 0.306838233450884 
1323	 0.306834482953431 
1324	 0.30684231278455 
1325	 0.306838267609939 
1326	 0.306851897127021 
1327	 0.306858810657515 
1328	 0.306845171234198 
1329	 0.306852570693492 
1330	 0.306865132270794 
1331	 0.306880309720039 
1332	 0.306893799240923 
1333	 0.306918827315628 
1334	 0.306935497434402 
1335	 0.306933934060541 
1336	 0.306961021124316 
1337	 0.307011304884563 
1338	 0.307046098429183 
1339	 0.307088166881357 
1340	 0.307120029006492 
1341	 0.307129332012644 
1342	 0.307162828313319 
1343	 0.307209651624829 
1344	 0.307253495116227 
1345	 0.307305758260661 
1346	 0.307349839579055 
1347	 0.307396485489843 
1348	 0.307453643380034 
1349	 0.307493675629093 
1350	 0.307543386934306 
1351	 0.307604240385957 
1352	 0.307666478294246 
1353	 0.30772218081623 
1354	 0.307802476573007 
1355	 0.307853370751312 
1356	 0.307891025231954 
1357	 0.307908869410345 
1358	 0.307900145223458 
1359	 0.307906019073673 
1360	 0.307902246282118 
1361	 0.307899519914709 
1362	 0.307921267863626 
1363	 0.307908411507738 
1364	 0.307863532239153 
1365	 0.307822603855019 
1366	 0.307773818174269 
1367	 0.307725480019146 
1368	 0.30764984199406 
1369	 0.307570048543993 
1370	 0.307471668943118 
1371	 0.307343948509657 
1372	 0.307204264945276 
1373	 0.307057782309694 
1374	 0.306880007247909 
1375	 0.306677503821387 
1376	 0.30644804925525 
1377	 0.306207254749244 
1378	 0.305909543421159 
1379	 0.305580547028615 
1380	 0.305203807033308 
1381	 0.304792553056885 
1382	 0.304318617885547 
1383	 0.303795201527193 
1384	 0.303221669986923 
1385	 0.30260218466783 
1386	 0.301924547620375 
1387	 0.30119653744651 
1388	 0.300426196962328 
1389	 0.29961121275538 
1390	 0.298725736543073 
1391	 0.297809198071674 
1392	 0.296828351393662 
1393	 0.295773890501212 
1394	 0.294693703053747 
1395	 0.293552963451461 
1396	 0.292385750743404 
1397	 0.29121236382222 
1398	 0.290001110361874 
1399	 0.288800195311624 
1400	 0.287582286581881 
1401	 0.286393932055591 
1402	 0.28519770101941 
1403	 0.284052318297695 
1404	 0.282926098374211 
1405	 0.281843731488926 
1406	 0.280802878050872 
1407	 0.279774533092866 
1408	 0.278745266960132 
1409	 0.277803587013183 
1410	 0.276871137384286 
1411	 0.276051582337988 
1412	 0.2753144302993 
1413	 0.2746647541782 
1414	 0.274114417104301 
1415	 0.273623717959195 
1416	 0.273216394899882 
1417	 0.272856002367371 
1418	 0.272522307864093 
1419	 0.27222801812328 
1420	 0.271941215379508 
1421	 0.271689041079745 
1422	 0.271444396702277 
1423	 0.271203224679505 
1424	 0.270974606098555 
1425	 0.270753570807333 
1426	 0.2705497677445 
1427	 0.270357174438673 
1428	 0.27017661338843 
1429	 0.270014431153679 
1430	 0.269862852049352 
1431	 0.269714044865989 
1432	 0.2695950966241 
1433	 0.269501285790554 
1434	 0.269405304445144 
1435	 0.269329538037402 
1436	 0.269252568769768 
1437	 0.269165466405415 
1438	 0.269110310616331 
1439	 0.26907002230578 
1440	 0.269045834414183 
1441	 0.269048325015148 
1442	 0.269061272464004 
1443	 0.269085674939503 
1444	 0.269114337624429 
1445	 0.269157225837687 
1446	 0.269193651970559 
1447	 0.269220756836551 
1448	 0.269248267044997 
1449	 0.269264272681778 
1450	 0.2692905175375 
1451	 0.269320163182843 
1452	 0.269357467841176 
1453	 0.269395505358662 
1454	 0.269426921225844 
1455	 0.269479203109108 
1456	 0.269539415867864 
1457	 0.269613900981364 
1458	 0.269706332511504 
1459	 0.269805351488351 
1460	 0.269907914604559 
1461	 0.270032096899633 
1462	 0.270170352446601 
1463	 0.270319840230995 
1464	 0.270484349414156 
1465	 0.270666196440987 
1466	 0.270857551512343 
1467	 0.271078161640015 
1468	 0.271321224948777 
1469	 0.27157804499807 
1470	 0.271863157134499 
1471	 0.27214913610833 
1472	 0.272442974589914 
1473	 0.272770338162163 
1474	 0.273094295359674 
1475	 0.27341488921725 
1476	 0.273748924579885 
1477	 0.274075599310908 
1478	 0.274409342992149 
1479	 0.274761945953801 
1480	 0.275108129875615 
1481	 0.275461964992438 
1482	 0.275823705884166 
1483	 0.276193561501536 
1484	 0.27656634749007 
1485	 0.276946310038368 
1486	 0.27732817570465 
1487	 0.277723945778599 
1488	 0.278093113979117 
1489	 0.278460644746178 
1490	 0.278815629082839 
1491	 0.279141660146161 
1492	 0.279485584169173 
1493	 0.27982625355536 
1494	 0.2801789172887 
1495	 0.280547677653995 
1496	 0.280904240268335 
1497	 0.281274971836199 
1498	 0.281621258775886 
1499	 0.281936866964002 
1500	 0.282270108722023 
1501	 0.282601013596731 
1502	 0.282929523971508 
1503	 0.283266219786414 
1504	 0.283605311496874 
1505	 0.283912514466134 
1506	 0.284225314559307 
1507	 0.284541792181218 
1508	 0.284837695852013 
1509	 0.285116704882814 
1510	 0.285387535042334 
1511	 0.2856536259771 
1512	 0.285920001259926 
1513	 0.286205565219725 
1514	 0.286499816209098 
1515	 0.286775161029999 
1516	 0.287038201482923 
1517	 0.287311912752476 
1518	 0.287592001337794 
1519	 0.28785667164175 
1520	 0.288124359346332 
1521	 0.288372606938572 
1522	 0.288598198210108 
1523	 0.288829362209761 
1524	 0.289045188593614 
1525	 0.289286646751544 
1526	 0.289540783739008 
1527	 0.289784509563921 
1528	 0.290047924601431 
1529	 0.290281637582305 
1530	 0.290502689104642 
1531	 0.290709803827092 
1532	 0.290892765093871 
1533	 0.291082207244475 
1534	 0.291246583945363 
1535	 0.291438979758423 
1536	 0.291660950223143 
1537	 0.291856507240805 
1538	 0.292053895684007 
1539	 0.292245037251663 
1540	 0.292406334139232 
1541	 0.292586800987662 
1542	 0.292787779922601 
1543	 0.292971048819186 
1544	 0.293153420809233 
1545	 0.293328739993144 
1546	 0.293491106308696 
1547	 0.29365028259236 
1548	 0.293816862605376 
1549	 0.293989487924434 
1550	 0.29416777997709 
1551	 0.294347385037652 
1552	 0.294523408067826 
1553	 0.294685181256185 
1554	 0.294839861705765 
1555	 0.294998708604612 
1556	 0.295158276110708 
1557	 0.295305666641768 
1558	 0.295422041171018 
1559	 0.295531505489414 
1560	 0.295648599716857 
1561	 0.29574411104949 
1562	 0.295869637634906 
1563	 0.2960182539995 
1564	 0.296157184968523 
1565	 0.296298036399321 
1566	 0.296439072998196 
1567	 0.296589272157876 
1568	 0.296723924790753 
1569	 0.296858971967643 
1570	 0.296977940614348 
1571	 0.297079348996384 
1572	 0.297182847547798 
1573	 0.297269511663476 
1574	 0.297377025511123 
1575	 0.297497655102268 
1576	 0.297602953115744 
1577	 0.29771682391132 
1578	 0.297816400801464 
1579	 0.297899826063392 
1580	 0.297984443837922 
1581	 0.298062963476319 
1582	 0.29814140493797 
1583	 0.298216419080837 
1584	 0.298287236403591 
1585	 0.298347417716326 
1586	 0.298427328239498 
1587	 0.298518985316592 
1588	 0.298598366346401 
1589	 0.29868664375972 
1590	 0.298771055855727 
1591	 0.298835937135115 
1592	 0.298914407493115 
1593	 0.299008131556001 
1594	 0.299093312525808 
1595	 0.299175207899886 
1596	 0.299259493058555 
1597	 0.299355116223015 
1598	 0.299430049325662 
1599	 0.299496985603776 
1600	 0.299557342568788 
1601	 0.29959086223467 
1602	 0.299638040162204 
1603	 0.299693610744077 
1604	 0.299741038033786 
1605	 0.299780321506264 
1606	 0.299834023659544 
1607	 0.299889514729008 
1608	 0.29995209737079 
1609	 0.300023599194558 
1610	 0.3000756786444 
1611	 0.300123796029986 
1612	 0.300178203456617 
1613	 0.300247722049116 
1614	 0.300326071652273 
1615	 0.300387024468122 
1616	 0.300434009122213 
1617	 0.300453915795057 
1618	 0.300453942497195 
1619	 0.300457995819156 
1620	 0.300463618495671 
1621	 0.300496257753482 
1622	 0.300559467664112 
1623	 0.300580968160921 
1624	 0.300601126670885 
1625	 0.30061730093655 
1626	 0.300603823533249 
1627	 0.300611260157252 
1628	 0.300636604292257 
1629	 0.300653833473115 
1630	 0.30066144900398 
1631	 0.300683394588207 
1632	 0.300710575208875 
1633	 0.300750862166963 
1634	 0.300809175483804 
1635	 0.30084044803706 
1636	 0.300878054811909 
1637	 0.300893002568626 
1638	 0.300872938422553 
1639	 0.300883681876133 
1640	 0.300909390604564 
1641	 0.30091272055315 
1642	 0.300916594767628 
1643	 0.300909374630545 
1644	 0.30086856675364 
1645	 0.300869290227731 
1646	 0.300885731934925 
1647	 0.300907000486337 
1648	 0.300959430827227 
1649	 0.300978456742486 
1650	 0.300988332295394 
1651	 0.300993073977305 
1652	 0.300977836564439 
1653	 0.300975448188881 
1654	 0.300977665554947 
1655	 0.300975458051193 
1656	 0.300970950912029 
1657	 0.300970224629714 
1658	 0.300971398596426 
1659	 0.300967200193035 
1660	 0.300972451144332 
1661	 0.300954550594214 
1662	 0.300914083639919 
1663	 0.30089008460642 
1664	 0.300862232090798 
1665	 0.300833814682899 
1666	 0.300813457988998 
1667	 0.300789348902887 
1668	 0.300747745900495 
1669	 0.300732125628035 
1670	 0.300729279014148 
1671	 0.300734082995305 
1672	 0.30075878838221 
1673	 0.300773064609986 
1674	 0.300799964299093 
1675	 0.300803483585742 
1676	 0.300802910618706 
1677	 0.300778227150954 
1678	 0.30072604396301 
1679	 0.30068095461532 
1680	 0.300614860930941 
1681	 0.300566759656292 
1682	 0.300525703946293 
1683	 0.30048752086171 
1684	 0.300452729777621 
1685	 0.300426687014318 
1686	 0.300420536854509 
1687	 0.300385166171494 
1688	 0.300338413163155 
1689	 0.300300649129748 
1690	 0.300243835730453 
1691	 0.300204413889445 
1692	 0.300181970407779 
1693	 0.300157853559656 
1694	 0.300137905522599 
1695	 0.300111597727431 
1696	 0.300094427733944 
1697	 0.300063631024173 
1698	 0.300025045265941 
1699	 0.299973511278369 
1700	 0.299912903269834 
1701	 0.299846153850748 
1702	 0.299753986811585 
1703	 0.29968725064795 
1704	 0.299624672984494 
1705	 0.299572186926182 
1706	 0.299546095168317 
1707	 0.299491586325138 
1708	 0.299425296393913 
1709	 0.299368291752906 
1710	 0.299286546941428 
1711	 0.29924949076406 
1712	 0.299252814119444 
1713	 0.299227391372261 
1714	 0.299214026840649 
1715	 0.29918253741722 
1716	 0.299130496506353 
1717	 0.299082398846815 
1718	 0.29904432182395 
1719	 0.298975467054253 
1720	 0.298883545871423 
1721	 0.298795192644999 
1722	 0.298687924021506 
1723	 0.298590873938982 
1724	 0.298499396217726 
1725	 0.298404328767596 
1726	 0.298306818537955 
1727	 0.298210156138929 
1728	 0.298121080832846 
1729	 0.298006658638909 
1730	 0.297885481305597 
1731	 0.297746296157879 
1732	 0.297572502126386 
1733	 0.297435197632361 
1734	 0.297304174767752 
1735	 0.297177799933392 
1736	 0.297077298926097 
1737	 0.296944991555819 
1738	 0.296786616878359 
1739	 0.296653860489456 
1740	 0.296532130453926 
1741	 0.296391492174076 
1742	 0.296251235330204 
1743	 0.296119112790269 
1744	 0.295976958216256 
1745	 0.295831316661754 
1746	 0.295699037441056 
1747	 0.295532652072944 
1748	 0.29537408451613 
1749	 0.295215261634062 
1750	 0.295077246599099 
1751	 0.294948054502408 
1752	 0.294800171685167 
1753	 0.294670129939696 
1754	 0.294548290991919 
1755	 0.29441333426213 
1756	 0.294275669709165 
1757	 0.294142412044414 
1758	 0.294014022883999 
1759	 0.293895026707618 
1760	 0.293768103248344 
1761	 0.293622315072347 
1762	 0.293478330088597 
1763	 0.293340747654568 
1764	 0.293212294056839 
1765	 0.293071035481529 
1766	 0.292922504797072 
1767	 0.292767848347994 
1768	 0.292604857042679 
1769	 0.292451093224755 
1770	 0.29230362512559 
1771	 0.292195003028068 
1772	 0.292096419119943 
1773	 0.292013537567005 
1774	 0.291942021196001 
1775	 0.291809086013286 
1776	 0.291657088364637 
1777	 0.29151279661827 
1778	 0.291380179735188 
1779	 0.291266406245323 
1780	 0.291171297812267 
1781	 0.291085885840259 
1782	 0.290989361881849 
1783	 0.290937698067288 
1784	 0.290869967522671 
1785	 0.290800587560342 
1786	 0.290739326027532 
1787	 0.290659088639897 
1788	 0.290610204293174 
1789	 0.290585180320178 
1790	 0.290567071357189 
1791	 0.290592765679466 
1792	 0.290570572039181 
1793	 0.290529873942946 
1794	 0.290485302976751 
1795	 0.290412974587882 
1796	 0.290347665454591 
1797	 0.290280222163764 
1798	 0.290215688751018 
1799	 0.290137275550857 
1800	 0.290081161381936 
1801	 0.286593472034341 
1802	 0.286593512232701 
1803	 0.286596512322488 
1804	 0.286557383582426 
1805	 0.286519602666453 
1806	 0.286494787169728 
1807	 0.286462273557437 
1808	 0.286452462694858 
1809	 0.286497984012668 
1810	 0.286503989187239 
1811	 0.286503234064555 
1812	 0.28648704248522 
1813	 0.286454066503397 
1814	 0.286396487356167 
1815	 0.286354361137082 
1816	 0.286321589116023 
1817	 0.286293757786354 
1818	 0.286297021331268 
1819	 0.286273127828387 
1820	 0.286248335656189 
1821	 0.286196683235729 
1822	 0.286115697966956 
1823	 0.286048915416495 
1824	 0.285995623213335 
1825	 0.285930304371238 
1826	 0.285896516044532 
1827	 0.285832658620766 
1828	 0.285747138752599 
1829	 0.285625230922278 
1830	 0.285524962638865 
1831	 0.28540712661168 
1832	 0.285313441482871 
1833	 0.285239288177216 
1834	 0.28514454077519 
1835	 0.285068216298346 
1836	 0.284981256108794 
1837	 0.284866519204399 
1838	 0.284744320025664 
1839	 0.284600379995817 
1840	 0.284429372132101 
1841	 0.284253805432133 
1842	 0.284082566458997 
1843	 0.283904911143695 
1844	 0.283736362891955 
1845	 0.283550151778896 
1846	 0.283352555932328 
1847	 0.283150594956112 
1848	 0.282918409958526 
1849	 0.282689797783542 
1850	 0.2824411788991 
1851	 0.282176786187304 
1852	 0.281885658961244 
1853	 0.281589753985024 
1854	 0.281255867659241 
1855	 0.280905212222519 
1856	 0.28054134241294 
1857	 0.280166950374399 
1858	 0.279754448252236 
1859	 0.279275527952179 
1860	 0.278755002971378 
1861	 0.278192517055721 
1862	 0.277564544515317 
1863	 0.276876843704585 
1864	 0.276171712160232 
1865	 0.275406762045099 
1866	 0.274558543148008 
1867	 0.273661967387176 
1868	 0.272691130520794 
1869	 0.271633458394279 
1870	 0.270498558673446 
1871	 0.269263595174551 
1872	 0.26794301718116 
1873	 0.26654862046739 
1874	 0.265050726509493 
1875	 0.263428265082329 
1876	 0.261739628211359 
1877	 0.259922768322478 
1878	 0.257970843697467 
1879	 0.255933532737917 
1880	 0.253772543730911 
1881	 0.251473741570365 
1882	 0.249093113645873 
1883	 0.246618255017914 
1884	 0.24399133171438 
1885	 0.241282989938948 
1886	 0.238448091459229 
1887	 0.235494366501967 
1888	 0.23248186661013 
1889	 0.229397819913861 
1890	 0.226284468991103 
1891	 0.223199879828297 
1892	 0.220056209918539 
1893	 0.216989416075197 
1894	 0.213946173905793 
1895	 0.210955448344092 
1896	 0.207959427149115 
1897	 0.205084855516875 
1898	 0.202271248610447 
1899	 0.199541513957408 
1900	 0.196980335489505 
1901	 0.19451023347242 
1902	 0.192173619835451 
1903	 0.18998104063726 
1904	 0.187900133374025 
1905	 0.185926700319784 
1906	 0.184110689652976 
1907	 0.182395436729517 
1908	 0.180797593010895 
1909	 0.179337614454083 
1910	 0.177965612220781 
1911	 0.176708327085466 
1912	 0.1755561565885 
1913	 0.174474709958227 
1914	 0.173468546535054 
1915	 0.172552934452422 
1916	 0.171726872865449 
1917	 0.170980173897648 
1918	 0.170319642293711 
1919	 0.169721550340072 
1920	 0.169182428812144 
1921	 0.168706640445093 
1922	 0.168301377910317 
1923	 0.16795250573316 
1924	 0.167673549161923 
1925	 0.167491738646486 
1926	 0.16733100978733 
1927	 0.167217145452366 
1928	 0.167154502680971 
1929	 0.16712490025437 
1930	 0.167127066190459 
1931	 0.167185570937634 
1932	 0.167292251595079 
1933	 0.16746051760555 
1934	 0.167658956918641 
1935	 0.167882896725988 
1936	 0.16814409447191 
1937	 0.168436188760217 
1938	 0.168759056085992 
1939	 0.16910669462869 
1940	 0.169501368783951 
1941	 0.169883027858771 
1942	 0.170295628916613 
1943	 0.170738201753706 
1944	 0.171207509398997 
1945	 0.171718057128695 
1946	 0.172223632688708 
1947	 0.17274443674535 
1948	 0.173277487804367 
1949	 0.17380880014268 
1950	 0.174373195517845 
1951	 0.174966005481029 
1952	 0.175577629197514 
1953	 0.176194427971397 
1954	 0.176807184073919 
1955	 0.177409326133324 
1956	 0.178014271371956 
1957	 0.178627734026027 
1958	 0.179229461305555 
1959	 0.179868104965445 
1960	 0.180534452035491 
1961	 0.181196972341274 
1962	 0.181885967192194 
1963	 0.18256897925063 
1964	 0.183248535575127 
1965	 0.183926537595354 
1966	 0.184626469287423 
1967	 0.185323261603443 
1968	 0.186034333487026 
1969	 0.186753995793462 
1970	 0.187485879825874 
1971	 0.188250404005079 
1972	 0.188984928069719 
1973	 0.189712896429015 
1974	 0.190441124169983 
1975	 0.191161702678523 
1976	 0.191865351250526 
1977	 0.192578132530711 
1978	 0.193316653449836 
1979	 0.194037039800311 
1980	 0.194748711658306 
1981	 0.195479171880339 
1982	 0.196222374344285 
1983	 0.196954844200069 
1984	 0.197689139266833 
1985	 0.19843220196394 
1986	 0.19918108951095 
1987	 0.199921674875791 
1988	 0.20066257763682 
1989	 0.201415525627318 
1990	 0.202159711041703 
1991	 0.202869392196677 
1992	 0.203592008865276 
1993	 0.204310625580647 
1994	 0.205041535038627 
1995	 0.205783045255573 
1996	 0.206508718903174 
1997	 0.207249210724173 
1998	 0.207962241641326 
1999	 0.208637739533335 
2000	 0.209328718452613 
2001	 0.210029649141164 
2002	 0.210709615859329 
2003	 0.211373445929953 
2004	 0.212051708395689 
2005	 0.212715653464251 
2006	 0.213365221373895 
2007	 0.214011848366533 
2008	 0.214643370622637 
2009	 0.215297006035588 
2010	 0.215952909370554 
2011	 0.216608124612845 
2012	 0.217292593384122 
2013	 0.217954582287542 
2014	 0.218593939127628 
2015	 0.219234949235086 
2016	 0.21990429383335 
2017	 0.220555799304503 
2018	 0.221190413993045 
2019	 0.221824245308597 
2020	 0.222443487794974 
2021	 0.223037569275549 
2022	 0.223629405757084 
2023	 0.224222694930823 
2024	 0.224802679382927 
2025	 0.225349580187064 
2026	 0.225912767912952 
2027	 0.226478562619523 
2028	 0.227051043463806 
2029	 0.227609718279162 
2030	 0.228170795283111 
2031	 0.228722382085771 
2032	 0.22926132829985 
2033	 0.229800670684137 
2034	 0.230339993983301 
2035	 0.230873071730964 
2036	 0.231404512305457 
2037	 0.231922191659134 
2038	 0.232438598932436 
2039	 0.232937611795812 
2040	 0.2334282981058 
2041	 0.233891561033922 
2042	 0.234342308734584 
2043	 0.23479740659446 
2044	 0.235258862364052 
2045	 0.235721599963565 
2046	 0.236178078168855 
2047	 0.236639808706429 
2048	 0.237095759549931 
2049	 0.237539673983201 
2050	 0.237992591098644 
2051	 0.238459984669908 
2052	 0.238908480673333 
2053	 0.239350489594752 
2054	 0.239783950595713 
2055	 0.24019533233849 
2056	 0.240623907768069 
2057	 0.241036739583686 
2058	 0.241442255509766 
2059	 0.241848896604881 
2060	 0.242245738961333 
2061	 0.242649819047456 
2062	 0.24305101405199 
2063	 0.243465593312111 
2064	 0.243901636235149 
2065	 0.244313271982044 
2066	 0.244735588688258 
2067	 0.245130235044437 
2068	 0.245494390738187 
2069	 0.245859364862855 
2070	 0.24620883145484 
2071	 0.246533087264842 
2072	 0.246883067821332 
2073	 0.247234776862754 
2074	 0.247582225537689 
2075	 0.247945693447623 
2076	 0.248290744630817 
2077	 0.248606143269899 
2078	 0.248949545758135 
2079	 0.249311560239623 
2080	 0.249657847829961 
2081	 0.250027465087552 
2082	 0.250362933565628 
2083	 0.250652727072029 
2084	 0.250968929727363 
2085	 0.251275099033396 
2086	 0.251560010100914 
2087	 0.251873431222734 
2088	 0.252208273524533 
2089	 0.252523744440667 
2090	 0.252843937063427 
2091	 0.253155829051156 
2092	 0.253452982203122 
2093	 0.253757186212693 
2094	 0.254068086329846 
2095	 0.254368350125738 
2096	 0.254655285446568 
2097	 0.254955801973585 
2098	 0.255257897992487 
2099	 0.255560443325841 
2100	 0.255864700629226 
2101	 0.256186486411244 
2102	 0.256481120299093 
2103	 0.256757790538313 
2104	 0.257043922852625 
2105	 0.257318786377155 
2106	 0.257605362136572 
2107	 0.257902879819753 
2108	 0.258196154055102 
2109	 0.258485480315103 
2110	 0.258784809195834 
2111	 0.259084870929683 
2112	 0.259391612813838 
2113	 0.25972309564115 
2114	 0.260037272061839 
2115	 0.260332082902561 
2116	 0.260616592399863 
2117	 0.260904460388107 
2118	 0.261173449693958 
2119	 0.261447432014903 
2120	 0.261737880445314 
2121	 0.262002568680384 
2122	 0.262244030557466 
2123	 0.262492519187641 
2124	 0.262727906812843 
2125	 0.262974041454011 
2126	 0.263235140070038 
2127	 0.263478044016412 
2128	 0.26373018664542 
2129	 0.263957472989729 
2130	 0.264172953113219 
2131	 0.26436053000789 
2132	 0.264529430505405 
2133	 0.264666112546674 
2134	 0.264822220285739 
2135	 0.26498160355601 
2136	 0.265100545886554 
2137	 0.265216577831097 
2138	 0.265303945803283 
2139	 0.265334573894252 
2140	 0.265383496067905 
2141	 0.265442077965167 
2142	 0.265477371019981 
2143	 0.265495069275245 
2144	 0.265506552993366 
2145	 0.26548893790243 
2146	 0.265487786509305 
2147	 0.265479500483974 
2148	 0.265495957216978 
2149	 0.265492925588815 
2150	 0.265504394194516 
2151	 0.265477541187807 
2152	 0.265433298668378 
2153	 0.265369691168894 
2154	 0.265286664512193 
2155	 0.265188795161665 
2156	 0.265071856727575 
2157	 0.264940285296504 
2158	 0.264796115605105 
2159	 0.264627653957455 
2160	 0.264426668318942 
2161	 0.264231439775569 
2162	 0.264006391446846 
2163	 0.263799276620869 
2164	 0.263601333537236 
2165	 0.263400125244086 
2166	 0.26321725763472 
2167	 0.26305538673893 
2168	 0.262866054727609 
2169	 0.262685818548 
2170	 0.262480195670676 
2171	 0.262249034831932 
2172	 0.262019381569989 
2173	 0.261777571711343 
2174	 0.261539698702858 
2175	 0.261301029829292 
2176	 0.261050229334802 
2177	 0.260804672414787 
2178	 0.260536397407997 
2179	 0.260237848246689 
2180	 0.259951886573208 
2181	 0.259673257157057 
2182	 0.259370989818657 
2183	 0.259062343395968 
2184	 0.258734135429517 
2185	 0.258420518299999 
2186	 0.258088318195214 
2187	 0.257771764951489 
2188	 0.257468890541482 
2189	 0.257168761357656 
2190	 0.256845950844751 
2191	 0.256573761777223 
2192	 0.256332374335794 
2193	 0.25610376162937 
2194	 0.255893311881105 
2195	 0.255714839607331 
2196	 0.255577176474597 
2197	 0.255426180070392 
2198	 0.255304883924506 
2199	 0.255173113357344 
2200	 0.254990613477514 
2201	 0.254871584834469 
2202	 0.254787906849422 
2203	 0.25472231522486 
2204	 0.25468458843788 
2205	 0.254698255857712 
2206	 0.254705575481664 
2207	 0.25471780584438 
2208	 0.2547570065454 
2209	 0.254807847322242 
2210	 0.254898974085912 
2211	 0.255040347498855 
2212	 0.25515761369985 
2213	 0.255308033568527 
2214	 0.25542921849225 
2215	 0.25553769848813 
2216	 0.255630157494114 
2217	 0.255712334284834 
2218	 0.255785480698981 
2219	 0.255838948026028 
2220	 0.255880253064408 
2221	 0.255904430840822 
2222	 0.255937615089801 
2223	 0.255947433137497 
2224	 0.255965399890278 
2225	 0.25595867215197 
2226	 0.255947096438755 
2227	 0.255915909251213 
2228	 0.255855386786334 
2229	 0.255802112234084 
2230	 0.255740853168881 
2231	 0.255682520675056 
2232	 0.255626885221228 
2233	 0.255560086640467 
2234	 0.25548814429417 
2235	 0.255411489481887 
2236	 0.255330751273284 
2237	 0.255232859884196 
2238	 0.255124054475571 
2239	 0.25501314004867 
2240	 0.254892158147786 
2241	 0.25475849900029 
2242	 0.254599584326665 
2243	 0.254470401852719 
2244	 0.254337209601269 
2245	 0.254225656780355 
2246	 0.254112483275678 
2247	 0.253978810619949 
2248	 0.253872351288664 
2249	 0.253744111974847 
2250	 0.253659913800633 
2251	 0.253644777208154 
2252	 0.253551915314702 
2253	 0.253425095327346 
2254	 0.253326616103142 
2255	 0.253187602300736 
2256	 0.25310792780056 
2257	 0.253108037684779 
2258	 0.253034758304857 
2259	 0.252923634801099 
2260	 0.252857008415867 
2261	 0.252782583879529 
2262	 0.252711068200306 
2263	 0.252684247848918 
2264	 0.252634135290609 
2265	 0.252544138690392 
2266	 0.252480309578689 
2267	 0.252459138301888 
2268	 0.252400085502623 
2269	 0.252336367540036 
2270	 0.252236946799768 
2271	 0.252147823767117 
2272	 0.252059058739812 
2273	 0.251953836453004 
2274	 0.251897725164562 
2275	 0.25182959634491 
2276	 0.251748835672913 
2277	 0.251684908623901 
2278	 0.251656563203543 
2279	 0.251585034445229 
2280	 0.251484503690374 
2281	 0.251419167822222 
2282	 0.251348523047423 
2283	 0.251288015861818 
2284	 0.251272926547711 
2285	 0.251208692882154 
2286	 0.25109818412381 
2287	 0.251035286669491 
2288	 0.250998680482517 
2289	 0.250919924993501 
2290	 0.250840547108259 
2291	 0.25076140503077 
2292	 0.250637725132912 
2293	 0.250538971409169 
2294	 0.250475364605404 
2295	 0.250398840766058 
2296	 0.250325527886261 
2297	 0.250222933827292 
2298	 0.250128753258959 
2299	 0.250046782642681 
2300	 0.249927888308871 
2301	 0.249791545003938 
2302	 0.249656444295854 
2303	 0.249492685234144 
2304	 0.249317535748855 
2305	 0.249162449777878 
2306	 0.249027822605665 
2307	 0.248925275869625 
2308	 0.24876553267048 
2309	 0.248607529417762 
2310	 0.248428280811917 
2311	 0.248185403889277 
2312	 0.24798172278382 
2313	 0.247794974397145 
2314	 0.247604243031759 
2315	 0.247421670897429 
2316	 0.247227501571593 
2317	 0.247019722809235 
2318	 0.246844153217526 
2319	 0.246684088577827 
2320	 0.246499400845601 
2321	 0.246347890363837 
2322	 0.246155139128305 
2323	 0.245900179379586 
2324	 0.245675408541658 
2325	 0.245436599812953 
2326	 0.245225386382356 
2327	 0.245029638492993 
2328	 0.244855994430588 
2329	 0.244713535518439 
2330	 0.244545435720115 
2331	 0.244310563615909 
2332	 0.244076822315039 
2333	 0.24384874414806 
2334	 0.243597655719806 
2335	 0.243387535854917 
2336	 0.243194882319617 
2337	 0.242997319683368 
2338	 0.24279424737946 
2339	 0.242604391284511 
2340	 0.242439592224352 
2341	 0.242178869632102 
2342	 0.241887903947463 
2343	 0.241566372528602 
2344	 0.24123331712259 
2345	 0.240952235179862 
2346	 0.240729746063866 
2347	 0.240415904927839 
2348	 0.240098299889884 
2349	 0.239741387808016 
2350	 0.239262960649222 
2351	 0.238940364708181 
2352	 0.238716241810288 
2353	 0.238423896375257 
2354	 0.238170669132222 
2355	 0.237883064272491 
2356	 0.237524261639198 
2357	 0.237206079898678 
2358	 0.236925744790618 
2359	 0.236619730491522 
2360	 0.236312796644782 
2361	 0.235982583111497 
2362	 0.235642979244716 
2363	 0.23529362510615 
2364	 0.234897131855346 
2365	 0.234531221067311 
2366	 0.234188939874536 
2367	 0.233822236693253 
2368	 0.233457793659783 
2369	 0.233093367134412 
2370	 0.232713362996117 
2371	 0.232326516186787 
2372	 0.231969596027747 
2373	 0.231601152598604 
2374	 0.231261397151982 
2375	 0.230908552441921 
2376	 0.23051142255479 
2377	 0.230123905067317 
2378	 0.229672493884781 
2379	 0.229191223131392 
2380	 0.228744113526316 
2381	 0.228290417920019 
2382	 0.227864290395934 
2383	 0.227476106298954 
2384	 0.227131724301805 
2385	 0.226719103035696 
2386	 0.226210417216011 
2387	 0.225707025722801 
2388	 0.225158021702826 
2389	 0.22467872935106 
2390	 0.224315257703167 
2391	 0.223886686362006 
2392	 0.223442870563892 
2393	 0.222976649128492 
2394	 0.222409900378543 
2395	 0.221934669003956 
2396	 0.221455527390203 
2397	 0.2209034500847 
2398	 0.220451072307445 
2399	 0.219986630026054 
2400	 0.219520837176473 
2401	 0.219118068842948 
2402	 0.218725817282599 
2403	 0.218278195786136 
2404	 0.21777351658938 
2405	 0.217271512571541 
2406	 0.21675444189568 
2407	 0.216289489476888 
2408	 0.215825847149575 
2409	 0.215322745364068 
2410	 0.214843217056019 
2411	 0.214302051732215 
2412	 0.213780030930092 
2413	 0.213362858788097 
2414	 0.212874226606367 
2415	 0.212298035928697 
2416	 0.211765197973643 
2417	 0.211209845847215 
2418	 0.210697064106868 
2419	 0.210227789625005 
2420	 0.209730228901228 
2421	 0.209259358892807 
2422	 0.208738921271433 
2423	 0.208183263505311 
2424	 0.207650822352484 
2425	 0.207074296084903 
2426	 0.206568595750497 
2427	 0.206104677718223 
2428	 0.20556408157764 
2429	 0.205012894712988 
2430	 0.204559519707691 
2431	 0.20415310802505 
2432	 0.203654588442919 
2433	 0.203204747573695 
2434	 0.202716396265493 
2435	 0.2020777653733 
2436	 0.201536928948091 
2437	 0.201081246184428 
2438	 0.200589301321994 
2439	 0.20009828194706 
2440	 0.199572096798857 
2441	 0.199055944520629 
2442	 0.198534751524123 
2443	 0.197938637522521 
2444	 0.197382075960968 
2445	 0.196861859776552 
2446	 0.196337819198513 
2447	 0.195822253104697 
2448	 0.195312434412228 
2449	 0.194799462751071 
2450	 0.194307413326567 
2451	 0.193828176287976 
2452	 0.193341680204192 
2453	 0.192889617425164 
2454	 0.192397583787209 
2455	 0.191864379671363 
2456	 0.191376150872389 
2457	 0.190900225739272 
2458	 0.190438081978461 
2459	 0.190079102567137 
2460	 0.189561559891118 
2461	 0.188847239633707 
2462	 0.188358230879606 
2463	 0.187908571545743 
2464	 0.187412551748975 
2465	 0.187094503690325 
2466	 0.186678816721975 
2467	 0.186160949633996 
2468	 0.185677301755185 
2469	 0.18516661833404 
2470	 0.184603432926013 
2471	 0.184107002299764 
2472	 0.183501293494781 
2473	 0.182965310165811 
2474	 0.18254184197442 
2475	 0.181967729314669 
2476	 0.181406738234714 
2477	 0.181052255825584 
2478	 0.180547462869713 
2479	 0.180032653826293 
2480	 0.179676383915235 
2481	 0.17916767382222 
2482	 0.178773319715288 
2483	 0.178360882150127 
2484	 0.177734572987599 
2485	 0.177295148087357 
2486	 0.176848201515428 
2487	 0.176514722862959 
2488	 0.176417988261796 
2489	 0.176156348145063 
2490	 0.175891654171787 
2491	 0.175420957279224 
2492	 0.17486714516334 
2493	 0.174521065138591 
2494	 0.173983566131975 
2495	 0.173668799409431 
2496	 0.173449518696298 
2497	 0.17300925797003 
2498	 0.172699780385774 
2499	 0.172377092921243 
2500	 0.172113619069968 
