Wavelength	MM400008.asd
350	 3.53309399698889E-02 
351	 3.67759990783428E-02 
352	 0.039533790918521 
353	 3.97831605238672E-02 
354	 3.69919304053057E-02 
355	 3.49407392420647E-02 
356	 3.51292495826123E-02 
357	 3.76369213877398E-02 
358	 4.10117904936415E-02 
359	 4.19772579622905E-02 
360	 4.09629478419661E-02 
361	 4.04234530478032E-02 
362	 3.62719209080126E-02 
363	 3.76941329660407E-02 
364	 4.40775565169366E-02 
365	 0.037169616183744 
366	 3.74586180611513E-02 
367	 4.26967604498321E-02 
368	 4.52661024832606E-02 
369	 4.33357965378042E-02 
370	 4.02064360852507E-02 
371	 3.93682634423555E-02 
372	 4.30550234176905E-02 
373	 4.00483905577943E-02 
374	 0.038666253616683 
375	 4.28431043931585E-02 
376	 4.49092497668006E-02 
377	 4.33334265592535E-02 
378	 4.17768717962616E-02 
379	 4.39823437148826E-02 
380	 4.67003117226964E-02 
381	 4.55255398018595E-02 
382	 0.043119913624869 
383	 4.65069998272777E-02 
384	 4.66858473303647E-02 
385	 4.46760105593188E-02 
386	 4.31387995442446E-02 
387	 0.045017733711842 
388	 4.62865004999814E-02 
389	 4.62527874766964E-02 
390	 4.53822131473693E-02 
391	 4.36063043264547E-02 
392	 4.31101614988944E-02 
393	 0.044300457841346 
394	 4.59760819499379E-02 
395	 4.75949263178784E-02 
396	 0.047510515019776 
397	 0.046055913966596 
398	 4.81828137298662E-02 
399	 4.88281487122937E-02 
400	 4.85810377024892E-02 
401	 4.94861297569665E-02 
402	 4.92884342275836E-02 
403	 0.048876794342265 
404	 0.048629932793244 
405	 4.82352093024028E-02 
406	 0.04860387776869 
407	 4.93002527994474E-02 
408	 4.96732862727967E-02 
409	 4.91652820347732E-02 
410	 4.86956290567778E-02 
411	 4.88823163554866E-02 
412	 0.049930714068343 
413	 5.05875460100828E-02 
414	 0.050687175426361 
415	 5.04036647845648E-02 
416	 5.01609443613223E-02 
417	 4.97421217902583E-02 
418	 4.99565014948928E-02 
419	 5.10969033489422E-02 
420	 5.10841980849758E-02 
421	 5.05427531383134E-02 
422	 5.02009861331873E-02 
423	 5.06562124093393E-02 
424	 5.06630508107589E-02 
425	 5.05950459335638E-02 
426	 5.06142531004997E-02 
427	 5.00132834995346E-02 
428	 5.01724643939284E-02 
429	 5.04840994278484E-02 
430	 5.00731276299115E-02 
431	 5.02035713697026E-02 
432	 5.02229951077563E-02 
433	 4.99983106875386E-02 
434	 4.99650916483563E-02 
435	 5.00008168839717E-02 
436	 5.01008067591398E-02 
437	 5.02088257237567E-02 
438	 5.00643715186462E-02 
439	 5.00515418203859E-02 
440	 5.01368214747587E-02 
441	 5.01027106666265E-02 
442	 5.00891507584639E-02 
443	 5.01657446700164E-02 
444	 5.03011431257867E-02 
445	 0.050335308677678 
446	 5.01726580742491E-02 
447	 5.01545940667024E-02 
448	 5.04957937565594E-02 
449	 5.02765711768415E-02 
450	 5.04489988209366E-02 
451	 5.09160830247002E-02 
452	 5.07153304482528E-02 
453	 5.06567933011321E-02 
454	 5.06340812216214E-02 
455	 0.050535715509931 
456	 5.06586730642313E-02 
457	 0.050603001575625 
458	 0.050515118576238 
459	 5.07192362517068E-02 
460	 0.050875177275838 
461	 5.08153111634943E-02 
462	 5.06597394099783E-02 
463	 5.08997000817122E-02 
464	 5.10762550845307E-02 
465	 5.10059865553553E-02 
466	 5.07338767120102E-02 
467	 5.08598424996244E-02 
468	 5.09363686912959E-02 
469	 5.08723341770336E-02 
470	 5.08840958284611E-02 
471	 5.09894846215235E-02 
472	 5.09734234288194E-02 
473	 5.07895158466649E-02 
474	 5.08771018044014E-02 
475	 5.10247977926608E-02 
476	 5.11027803449061E-02 
477	 5.10461130742247E-02 
478	 5.10401939309489E-02 
479	 5.09876532806961E-02 
480	 5.09076703893275E-02 
481	 5.10152465287011E-02 
482	 5.10605569279382E-02 
483	 5.11076941327976E-02 
484	 5.12517846684274E-02 
485	 5.13835132483935E-02 
486	 5.12330407434734E-02 
487	 5.09965489683536E-02 
488	 5.12020995885352E-02 
489	 5.11399228496796E-02 
490	 5.10034662646038E-02 
491	 5.10280664440348E-02 
492	 5.11877045656297E-02 
493	 5.11359908172272E-02 
494	 5.10163452056463E-02 
495	 5.11445943156992E-02 
496	 5.11531818872817E-02 
497	 5.11938987598622E-02 
498	 5.13109230230868E-02 
499	 5.13203920868987E-02 
500	 5.12493415253007E-02 
501	 5.12132060944878E-02 
502	 5.12812134730184E-02 
503	 0.051177746303954 
504	 5.11624482816021E-02 
505	 5.12377802743455E-02 
506	 5.11739483286053E-02 
507	 5.12813531324653E-02 
508	 5.14613630730681E-02 
509	 5.15692369250672E-02 
510	 5.15580716678889E-02 
511	 0.051470164492062 
512	 5.14061996887312E-02 
513	 5.14645598243107E-02 
514	 5.14261728077551E-02 
515	 0.051349400623975 
516	 5.13404051296599E-02 
517	 5.15540914404962E-02 
518	 5.15810182161353E-02 
519	 0.05150561500949 
520	 5.15382216685011E-02 
521	 5.16023361474846E-02 
522	 5.16062426914265E-02 
523	 5.15417528798445E-02 
524	 5.14884694459097E-02 
525	 0.051489903906426 
526	 5.15499761286762E-02 
527	 5.16389766063152E-02 
528	 5.16645764123816E-02 
529	 5.17107033978306E-02 
530	 5.17499122895415E-02 
531	 5.16987129525055E-02 
532	 5.17314086888862E-02 
533	 0.051812506925829 
534	 0.05188441721982 
535	 5.19042151401452E-02 
536	 5.19568602035848E-02 
537	 5.20033673549372E-02 
538	 5.19891148586942E-02 
539	 5.21097429768934E-02 
540	 5.22197190062492E-02 
541	 5.22537589497602E-02 
542	 5.22865115673206E-02 
543	 5.23392620711776E-02 
544	 5.24004975280059E-02 
545	 5.24524810030995E-02 
546	 5.25029872990275E-02 
547	 5.25493556935178E-02 
548	 5.26115355474462E-02 
549	 5.27224128580071E-02 
550	 5.27713507923108E-02 
551	 5.28372712430304E-02 
552	 5.29815210945724E-02 
553	 5.31424285495532E-02 
554	 5.32092078457672E-02 
555	 5.32507996602304E-02 
556	 5.34149996605407E-02 
557	 5.35986732740025E-02 
558	 5.37259610270413E-02 
559	 5.38274341657732E-02 
560	 5.41256133408685E-02 
561	 5.43199828435516E-02 
562	 5.44140053913167E-02 
563	 5.45331203760755E-02 
564	 5.48369283661326E-02 
565	 5.50640076995839E-02 
566	 5.52000975011979E-02 
567	 5.55278909574701E-02 
568	 5.58409905141052E-02 
569	 5.61137533217487E-02 
570	 5.63838354367156E-02 
571	 5.67642609477361E-02 
572	 5.70957815616078E-02 
573	 5.73851879522107E-02 
574	 5.77490646238831E-02 
575	 5.80610510460581E-02 
576	 5.84028980578046E-02 
577	 5.88077041047831E-02 
578	 5.91201993982652E-02 
579	 5.95161940634589E-02 
580	 5.99960143981512E-02 
581	 6.04914023428589E-02 
582	 0.061031486036654 
583	 6.15807574245177E-02 
584	 6.21164526799961E-02 
585	 6.26416388392229E-02 
586	 6.31632799791799E-02 
587	 6.36886906535907E-02 
588	 6.42209752661852E-02 
589	 6.47446503824353E-02 
590	 6.53024292925634E-02 
591	 6.58809206876859E-02 
592	 6.64198619450869E-02 
593	 6.69796540466455E-02 
594	 6.75456529926361E-02 
595	 6.81006989933862E-02 
596	 6.86643752714888E-02 
597	 6.92208938196555E-02 
598	 6.97951352696657E-02 
599	 7.04210312383719E-02 
600	 0.070988655307307 
601	 7.15151518406379E-02 
602	 7.20280639317708E-02 
603	 7.25493941774297E-02 
604	 7.30305922093094E-02 
605	 7.35022798741583E-02 
606	 7.40010413136451E-02 
607	 7.44263890413285E-02 
608	 7.48606459871259E-02 
609	 7.53133880637655E-02 
610	 7.57021381028214E-02 
611	 7.60927228796809E-02 
612	 7.65010736209353E-02 
613	 7.69179655886615E-02 
614	 7.73100885537662E-02 
615	 7.76064035578826E-02 
616	 7.78462630772013E-02 
617	 0.078140397056567 
618	 7.84647432141712E-02 
619	 7.87331372127707E-02 
620	 7.89233160271813E-02 
621	 7.91657064903391E-02 
622	 7.94283402338744E-02 
623	 0.079652760800253 
624	 7.97916352161797E-02 
625	 7.99737096733249E-02 
626	 8.01728242612378E-02 
627	 8.03681376999035E-02 
628	 8.05632784030533E-02 
629	 8.07702126005197E-02 
630	 8.09625058109338E-02 
631	 8.11193918034697E-02 
632	 8.12797142488809E-02 
633	 8.14525759729459E-02 
634	 8.16156284241774E-02 
635	 8.17304727622434E-02 
636	 8.19311411074262E-02 
637	 8.21383905109981E-02 
638	 8.22801594829432E-02 
639	 8.23890138541617E-02 
640	 8.25275072615781E-02 
641	 8.27061357656612E-02 
642	 8.29047093735431E-02 
643	 8.31055249753238E-02 
644	 8.32871236186599E-02 
645	 8.34535897596324E-02 
646	 8.36455912650509E-02 
647	 8.38030303856808E-02 
648	 8.39407960262557E-02 
649	 8.40967524979102E-02 
650	 8.43053929300716E-02 
651	 8.45035259546627E-02 
652	 8.46901960093098E-02 
653	 8.49167529111468E-02 
654	 8.51144891123547E-02 
655	 0.085297179271778 
656	 8.54981480608804E-02 
657	 0.085764681352808 
658	 8.60230704435867E-02 
659	 8.62388002066652E-02 
660	 8.64118413133464E-02 
661	 0.086637204365973 
662	 8.68965066182464E-02 
663	 8.71612507999689E-02 
664	 0.087406993730239 
665	 8.76316934733284E-02 
666	 8.78711309273137E-02 
667	 0.088152995570317 
668	 8.84183275416624E-02 
669	 8.87128743447699E-02 
670	 0.089030097003687 
671	 8.93201225368716E-02 
672	 8.96059544801556E-02 
673	 8.99218900034906E-02 
674	 9.02748273722412E-02 
675	 9.06067122852857E-02 
676	 0.090910625453839 
677	 9.12038584632853E-02 
678	 9.15186930633403E-02 
679	 9.18892720560568E-02 
680	 9.22576254078216E-02 
681	 9.26095391787191E-02 
682	 9.29983519715848E-02 
683	 9.33733293563004E-02 
684	 9.37249739382978E-02 
685	 9.40761280527859E-02 
686	 9.45252487167745E-02 
687	 9.49633399337669E-02 
688	 9.53685514456318E-02 
689	 9.57824611183111E-02 
690	 0.09617747253962 
691	 9.65914942515686E-02 
692	 9.70395345048943E-02 
693	 9.74758189147293E-02 
694	 9.79025478552731E-02 
695	 9.83336686857039E-02 
696	 9.87868188012508E-02 
697	 9.92660639965441E-02 
698	 9.97374167045142E-02 
699	 0.100196465627219 
700	 0.100670062870367 
701	 0.101117432324597 
702	 0.101592932322075 
703	 0.102119507576318 
704	 0.102576271659132 
705	 0.103053637217733 
706	 0.103547561292638 
707	 0.104012390554566 
708	 0.104497730066279 
709	 0.104998102856893 
710	 0.105502902587513 
711	 0.106005075153053 
712	 0.106498457121032 
713	 0.106976286959984 
714	 0.107438785277227 
715	 0.107905453724431 
716	 0.10836631720529 
717	 0.108829533239683 
718	 0.109311874439246 
719	 0.109777706940856 
720	 0.11022772315011 
721	 0.110657932796303 
722	 0.111039213183708 
723	 0.111468321015863 
724	 0.111895992379721 
725	 0.112252359738165 
726	 0.112642749050277 
727	 0.113017420782507 
728	 0.113366791207981 
729	 0.113721090514021 
730	 0.114020853111851 
731	 0.114298553106826 
732	 0.114584681519344 
733	 0.114866833812155 
734	 0.115120705743293 
735	 0.115341646071715 
736	 0.115534065886991 
737	 0.11568801075598 
738	 0.115860699693694 
739	 0.116047704002423 
740	 0.116174763108584 
741	 0.116289192462503 
742	 0.116361467321218 
743	 0.116384010783236 
744	 0.116452861405014 
745	 0.116486775990783 
746	 0.116491628354388 
747	 0.116504823949893 
748	 0.116472246621968 
749	 0.116411491763908 
750	 0.116336955402469 
751	 0.116251035224924 
752	 0.116157357039698 
753	 0.116038911237886 
754	 0.115891373347237 
755	 0.115763610692824 
756	 0.115602551608487 
757	 0.115412595159695 
758	 0.115224200577111 
759	 0.115017924705816 
760	 0.114799692248286 
761	 0.114579719151573 
762	 0.114369995658343 
763	 0.114141764532201 
764	 0.113884905769074 
765	 0.113605241458807 
766	 0.113336980677954 
767	 0.113075548653802 
768	 0.112799939207418 
769	 0.112488193682886 
770	 0.112177205660171 
771	 0.111875015386685 
772	 0.111576289632601 
773	 0.111263666387166 
774	 0.110965196953549 
775	 0.110655682563726 
776	 0.110314751831954 
777	 0.109960978083705 
778	 0.10964515570918 
779	 0.109359774730039 
780	 0.109064700609055 
781	 0.108717167541013 
782	 0.108408377669121 
783	 0.10812969906822 
784	 0.107764607797795 
785	 0.107421385052003 
786	 0.107104537518493 
787	 0.106797318209185 
788	 0.106482169716188 
789	 0.106175357977477 
790	 0.10586568694642 
791	 0.105543904032585 
792	 0.105270236688818 
793	 0.104965008366689 
794	 0.104624472088929 
795	 0.104315279535084 
796	 0.104030437102062 
797	 0.103757922626865 
798	 0.103484194693851 
799	 0.103195797919127 
800	 0.102913178304232 
801	 0.102633600853748 
802	 0.102350947985831 
803	 0.102073097717138 
804	 0.101816658171738 
805	 0.101566373152854 
806	 0.101293554258067 
807	 0.101037149194078 
808	 0.10079674170556 
809	 0.100571196900231 
810	 0.100363046576986 
811	 0.100145743989618 
812	 9.99100795892466E-02 
813	 9.96686501681125E-02 
814	 9.94826413019786E-02 
815	 9.92665186901848E-02 
816	 9.90438855030091E-02 
817	 9.88684911451026E-02 
818	 9.86940305093713E-02 
819	 9.84850205791808E-02 
820	 9.82650259473508E-02 
821	 9.81004971941799E-02 
822	 9.79441579951623E-02 
823	 9.77670318448199E-02 
824	 9.75676408859262E-02 
825	 0.097382812300396 
826	 9.72534989087687E-02 
827	 9.71480223300389E-02 
828	 9.70179504536222E-02 
829	 9.68318588999593E-02 
830	 9.66643926563901E-02 
831	 9.65344682962998E-02 
832	 9.64280605673819E-02 
833	 9.63370641924281E-02 
834	 0.096205360947606 
835	 0.096056481471884 
836	 9.59800653817677E-02 
837	 9.58720260700581E-02 
838	 9.57655959637005E-02 
839	 0.095680288810444 
840	 9.55740223854774E-02 
841	 9.54967205437462E-02 
842	 0.095428100326655 
843	 9.53498466877985E-02 
844	 9.53193366215649E-02 
845	 0.095250566444139 
846	 9.51627675536129E-02 
847	 9.51134609895847E-02 
848	 9.50632570230643E-02 
849	 9.50166930431364E-02 
850	 9.49812403779497E-02 
851	 0.094960345516315 
852	 0.094906295774875 
853	 9.48680098951352E-02 
854	 9.48618232168103E-02 
855	 9.48378358942943E-02 
856	 9.48093126053072E-02 
857	 9.48062520766907E-02 
858	 0.094831610707169 
859	 9.48052675006831E-02 
860	 9.48160261469241E-02 
861	 9.48620373425345E-02 
862	 9.49101337324046E-02 
863	 9.49535335352453E-02 
864	 9.49675313778997E-02 
865	 9.49712909886973E-02 
866	 9.49978744532894E-02 
867	 9.49658260960785E-02 
868	 9.49530222365468E-02 
869	 9.50183787560472E-02 
870	 9.51688697469564E-02 
871	 9.52084781715423E-02 
872	 9.52316168858008E-02 
873	 9.53128548016529E-02 
874	 9.54107776449783E-02 
875	 0.095482085981198 
876	 9.55501341548449E-02 
877	 0.095629820293636 
878	 9.56573072389391E-02 
879	 0.095740261500223 
880	 9.58606631886195E-02 
881	 9.59724836853206E-02 
882	 9.61260882439328E-02 
883	 0.096242867349397 
884	 9.63247765792814E-02 
885	 9.64222500520139E-02 
886	 9.65612126001193E-02 
887	 9.66957783793558E-02 
888	 9.68094355698809E-02 
889	 9.69200663303495E-02 
890	 9.70594839094212E-02 
891	 9.72280060270191E-02 
892	 9.74129439494698E-02 
893	 9.75916487880011E-02 
894	 9.77275835789343E-02 
895	 9.78530786340567E-02 
896	 9.80159243267452E-02 
897	 9.82628243282504E-02 
898	 9.84632341128031E-02 
899	 9.86107914215817E-02 
900	 9.87585090006892E-02 
901	 9.90216516386906E-02 
902	 9.92189368936216E-02 
903	 9.93691860198138E-02 
904	 9.95492328303323E-02 
905	 9.97577690268029E-02 
906	 0.100008217721549 
907	 0.10025937393443 
908	 0.100469944668507 
909	 0.100737406266845 
910	 0.10098688142411 
911	 0.101233391801243 
912	 0.101536953325589 
913	 0.101795236414762 
914	 0.102078311681838 
915	 0.102364471210283 
916	 0.10256452508891 
917	 0.1028546078406 
918	 0.103183050227496 
919	 0.103493217384306 
920	 0.103763725272393 
921	 0.104034737783327 
922	 0.104355833480934 
923	 0.104711721628056 
924	 0.105002817729868 
925	 0.105375203761136 
926	 0.105784937016537 
927	 0.106150655292508 
928	 0.106404473267728 
929	 0.106729176937502 
930	 0.107144051065883 
931	 0.107591812144856 
932	 0.107954647102826 
933	 0.108391164376058 
934	 0.108821068329186 
935	 0.10917643891726 
936	 0.109637509780708 
937	 0.110024594393341 
938	 0.110410694354687 
939	 0.110888357452382 
940	 0.111312253143194 
941	 0.111752782836232 
942	 0.112228910731262 
943	 0.112721125895046 
944	 0.113147578800676 
945	 0.113601052198664 
946	 0.114089674156089 
947	 0.114584489954606 
948	 0.115099808914227 
949	 0.115601763266767 
950	 0.116088851500306 
951	 0.116584354794093 
952	 0.117122520187579 
953	 0.117704448426445 
954	 0.118265391086277 
955	 0.118757889972999 
956	 0.119416182347872 
957	 0.120000127327735 
958	 0.120476534105254 
959	 0.1209655427568 
960	 0.121543231062338 
961	 0.122163364097394 
962	 0.122811898267001 
963	 0.123483740599108 
964	 0.124072642850407 
965	 0.124651638654283 
966	 0.125248358438116 
967	 0.125858629684859 
968	 0.126542524315385 
969	 0.1271597097378 
970	 0.127768221855963 
971	 0.12851243472995 
972	 0.129157481023927 
973	 0.129825489110803 
974	 0.130491231713232 
975	 0.131063899102448 
976	 0.131764598127055 
977	 0.13250623947983 
978	 0.133237824628332 
979	 0.133954907605981 
980	 0.134692228804931 
981	 0.135318889027942 
982	 0.135913238324971 
983	 0.136660236992274 
984	 0.137554183064879 
985	 0.138310938338937 
986	 0.13893179884999 
987	 0.139601599261705 
988	 0.140442632913868 
989	 0.141164417492129 
990	 0.141783512151069 
991	 0.142477245348094 
992	 0.143284786848228 
993	 0.144023063991685 
994	 0.144760616718717 
995	 0.14559312244492 
996	 0.146216426081113 
997	 0.146868749836807 
998	 0.147611276436346 
999	 0.148418784290781 
1000	 0.149277278457767 
1001	 0.150734529366473 
1002	 0.151500258055823 
1003	 0.15225867706493 
1004	 0.152998952072004 
1005	 0.153783139649138 
1006	 0.154526583723499 
1007	 0.155241838641655 
1008	 0.155905428511303 
1009	 0.156562911361672 
1010	 0.157207184122584 
1011	 0.157882263492605 
1012	 0.158577074484921 
1013	 0.159271365042944 
1014	 0.159961611115998 
1015	 0.160644507101307 
1016	 0.161241099419142 
1017	 0.161844616110943 
1018	 0.162433353687619 
1019	 0.163060620308527 
1020	 0.163613143450271 
1021	 0.164241925976966 
1022	 0.164976427527817 
1023	 0.165626363394189 
1024	 0.166221886702393 
1025	 0.166840483536676 
1026	 0.167418084544471 
1027	 0.167923850419879 
1028	 0.168484812443438 
1029	 0.169059918741968 
1030	 0.169572419886166 
1031	 0.170100050825572 
1032	 0.170640048126251 
1033	 0.171175872991167 
1034	 0.171706257272553 
1035	 0.17223570923545 
1036	 0.172761171943631 
1037	 0.173319929117098 
1038	 0.17384755293951 
1039	 0.17435417171468 
1040	 0.174868665573779 
1041	 0.175391795180597 
1042	 0.175932521435722 
1043	 0.176472382207132 
1044	 0.176998618822969 
1045	 0.177532601779195 
1046	 0.178041294450031 
1047	 0.178513502621562 
1048	 0.17901734006399 
1049	 0.179583987183589 
1050	 0.1800890414679 
1051	 0.180582427279534 
1052	 0.181105251135247 
1053	 0.181565813135428 
1054	 0.182055502302401 
1055	 0.18258624034701 
1056	 0.183094925892856 
1057	 0.183605212721482 
1058	 0.184132928304698 
1059	 0.184622887305162 
1060	 0.185087637874801 
1061	 0.185556821955467 
1062	 0.18603754233908 
1063	 0.186485600163378 
1064	 0.186933732214888 
1065	 0.187390712139012 
1066	 0.187863824210989 
1067	 0.188346895132752 
1068	 0.188825404406657 
1069	 0.189282026661936 
1070	 0.189724911724643 
1071	 0.190097609427019 
1072	 0.190541278699691 
1073	 0.191025254867653 
1074	 0.191487110433565 
1075	 0.191985048415724 
1076	 0.192407101457874 
1077	 0.192801582786129 
1078	 0.193231744043645 
1079	 0.193583370559331 
1080	 0.193969643515372 
1081	 0.194426089872293 
1082	 0.194835355920382 
1083	 0.19526611721159 
1084	 0.19574103727554 
1085	 0.196186179470009 
1086	 0.196623813822331 
1087	 0.197039600536119 
1088	 0.197429352058597 
1089	 0.197852495174877 
1090	 0.198276613187539 
1091	 0.198687941957064 
1092	 0.199127365183069 
1093	 0.199548915544152 
1094	 0.199932259272609 
1095	 0.200329648846442 
1096	 0.200776191496069 
1097	 0.201232910574271 
1098	 0.20166032951666 
1099	 0.202080267809337 
1100	 0.202505520376066 
1101	 0.202907323484368 
1102	 0.203325792896233 
1103	 0.203749827006052 
1104	 0.204213725624222 
1105	 0.204650708817086 
1106	 0.205094675088033 
1107	 0.20557324060741 
1108	 0.206021305161835 
1109	 0.206476990133989 
1110	 0.206938231804403 
1111	 0.207391587968935 
1112	 0.20783046495035 
1113	 0.208296142522324 
1114	 0.2087718593155 
1115	 0.209248317269914 
1116	 0.209748179269066 
1117	 0.210227086525381 
1118	 0.210701951736594 
1119	 0.211165190690037 
1120	 0.211617423173945 
1121	 0.212068244561321 
1122	 0.212520368919076 
1123	 0.212977056478874 
1124	 0.213442461500917 
1125	 0.213915856292713 
1126	 0.214391772064277 
1127	 0.214882650843533 
1128	 0.215349299777095 
1129	 0.215807337205293 
1130	 0.216269564097495 
1131	 0.216717204877163 
1132	 0.217174508760235 
1133	 0.217641309816835 
1134	 0.218101131482185 
1135	 0.218555283490735 
1136	 0.219023946429108 
1137	 0.219470248582435 
1138	 0.219899108119884 
1139	 0.220331221754477 
1140	 0.22075380386115 
1141	 0.221168108089403 
1142	 0.221576117020641 
1143	 0.221991722192956 
1144	 0.222406170446313 
1145	 0.222806778751423 
1146	 0.22321040269496 
1147	 0.223602879736833 
1148	 0.223977825328933 
1149	 0.224354378091437 
1150	 0.224723678784564 
1151	 0.22511111114294 
1152	 0.225470669032885 
1153	 0.225797228272086 
1154	 0.226156527460039 
1155	 0.226516970511815 
1156	 0.226871105247578 
1157	 0.227251282303955 
1158	 0.22760163539805 
1159	 0.227920710779924 
1160	 0.228259158191642 
1161	 0.228600560398971 
1162	 0.228934312208585 
1163	 0.229283608429349 
1164	 0.229608161608785 
1165	 0.229902837594413 
1166	 0.230217352074869 
1167	 0.230539005739522 
1168	 0.230839374749884 
1169	 0.231134373728471 
1170	 0.231423575845061 
1171	 0.231727185286876 
1172	 0.232028387703106 
1173	 0.232322868488383 
1174	 0.232641740563466 
1175	 0.232929391450855 
1176	 0.233180817693589 
1177	 0.233447413639386 
1178	 0.233725913011114 
1179	 0.233983374408403 
1180	 0.234220741176602 
1181	 0.23447152613073 
1182	 0.234713064114022 
1183	 0.234962673420769 
1184	 0.235210015303922 
1185	 0.235475000565114 
1186	 0.235715422750239 
1187	 0.235940636653576 
1188	 0.236168496470885 
1189	 0.236391509399573 
1190	 0.236612063754249 
1191	 0.236831593248679 
1192	 0.237044906166453 
1193	 0.237253085743784 
1194	 0.237459854549997 
1195	 0.237654491666388 
1196	 0.237859585102163 
1197	 0.238073641559677 
1198	 0.238279782896961 
1199	 0.238485008013603 
1200	 0.238697553389986 
1201	 0.23889531145718 
1202	 0.239087166874381 
1203	 0.239267101095892 
1204	 0.239437460409037 
1205	 0.239604802333349 
1206	 0.239758172973425 
1207	 0.239916749663187 
1208	 0.240069926059477 
1209	 0.240232453796376 
1210	 0.240402215879864 
1211	 0.240565361443204 
1212	 0.240737406975418 
1213	 0.240898023182593 
1214	 0.241044314449014 
1215	 0.241194545191284 
1216	 0.241343671022932 
1217	 0.241495946565609 
1218	 0.241630451515025 
1219	 0.241752341621528 
1220	 0.24188841322537 
1221	 0.242022545369304 
1222	 0.242149801988226 
1223	 0.242291720137349 
1224	 0.242413728079122 
1225	 0.242506251471638 
1226	 0.242617681577507 
1227	 0.242735658518832 
1228	 0.242849572970363 
1229	 0.242964341161637 
1230	 0.243081921972492 
1231	 0.243208601445576 
1232	 0.243320250005758 
1233	 0.243426282194437 
1234	 0.243527402170382 
1235	 0.24363717724936 
1236	 0.243742144155868 
1237	 0.243842269143029 
1238	 0.243959242576661 
1239	 0.244048326882345 
1240	 0.244105225376112 
1241	 0.244184185972617 
1242	 0.244261400587862 
1243	 0.244343764877045 
1244	 0.24443044161164 
1245	 0.244524420729914 
1246	 0.244635955027312 
1247	 0.244728253470166 
1248	 0.244815642320048 
1249	 0.244908926336677 
1250	 0.244979638843718 
1251	 0.245032956352184 
1252	 0.245110613444224 
1253	 0.245202104537967 
1254	 0.245275962768977 
1255	 0.245368763067002 
1256	 0.245417519043051 
1257	 0.245413632961739 
1258	 0.245457101612716 
1259	 0.245497259482271 
1260	 0.24554818432637 
1261	 0.245641474021176 
1262	 0.245706225459649 
1263	 0.245748622132945 
1264	 0.245801471795554 
1265	 0.245865940321318 
1266	 0.245911969704521 
1267	 0.245941704485551 
1268	 0.245974471341979 
1269	 0.246032886984311 
1270	 0.246093131280375 
1271	 0.2461556640709 
1272	 0.246244234483708 
1273	 0.246321716702279 
1274	 0.246374444646545 
1275	 0.246460004903118 
1276	 0.246576655383845 
1277	 0.246680247862102 
1278	 0.246786843076803 
1279	 0.246894905082854 
1280	 0.247011214460428 
1281	 0.24711214632291 
1282	 0.24721576525717 
1283	 0.247307611802505 
1284	 0.247378381422278 
1285	 0.24744885469546 
1286	 0.247545789399593 
1287	 0.247623219834537 
1288	 0.247698334777291 
1289	 0.247788314110041 
1290	 0.247841226580003 
1291	 0.247858343725845 
1292	 0.247897558409967 
1293	 0.247928220503146 
1294	 0.247966020948471 
1295	 0.248025940579428 
1296	 0.248057600136949 
1297	 0.24807788422543 
1298	 0.248087318934678 
1299	 0.248077707571352 
1300	 0.248066812967429 
1301	 0.248035456166446 
1302	 0.248023638324173 
1303	 0.24801768999172 
1304	 0.248015662926311 
1305	 0.248013700796332 
1306	 0.247999469694451 
1307	 0.247969790689617 
1308	 0.247942736042919 
1309	 0.24791796213363 
1310	 0.247898578955786 
1311	 0.247875388173937 
1312	 0.247843260946704 
1313	 0.24782506741468 
1314	 0.247814378021891 
1315	 0.247801098560133 
1316	 0.247796714137054 
1317	 0.247787140355661 
1318	 0.247772373403472 
1319	 0.247760340036835 
1320	 0.247736114460185 
1321	 0.2477394038269 
1322	 0.247763610242894 
1323	 0.247775419799803 
1324	 0.247807719119533 
1325	 0.247829217665949 
1326	 0.247840242444221 
1327	 0.247868742281158 
1328	 0.247898341141328 
1329	 0.247939312095852 
1330	 0.247994143528876 
1331	 0.248058972898459 
1332	 0.248127885363696 
1333	 0.248220359794009 
1334	 0.248291565821327 
1335	 0.248352294549751 
1336	 0.248419451658269 
1337	 0.248481539544364 
1338	 0.248549824206983 
1339	 0.248626976741431 
1340	 0.248697986808701 
1341	 0.248759114705547 
1342	 0.248836701074816 
1343	 0.248926463967519 
1344	 0.24900452924657 
1345	 0.249096228928662 
1346	 0.24918721652109 
1347	 0.249263897585057 
1348	 0.249365490061656 
1349	 0.249462706834141 
1350	 0.249555209479127 
1351	 0.24965881296404 
1352	 0.249767099796126 
1353	 0.249869712884035 
1354	 0.249983960773461 
1355	 0.250083188914443 
1356	 0.250171600404402 
1357	 0.250260852634532 
1358	 0.25034558282322 
1359	 0.250435172676582 
1360	 0.250526092844491 
1361	 0.250608498756545 
1362	 0.250689560438432 
1363	 0.250766662905523 
1364	 0.250842107155191 
1365	 0.250907294010669 
1366	 0.250973648247051 
1367	 0.251024899120185 
1368	 0.251058180578366 
1369	 0.251086559741893 
1370	 0.251111141125494 
1371	 0.251141579583713 
1372	 0.25115836640535 
1373	 0.25117007815092 
1374	 0.251178823779986 
1375	 0.251182475184418 
1376	 0.251174917341683 
1377	 0.251175061308468 
1378	 0.25113859241576 
1379	 0.251084450207835 
1380	 0.251009731172712 
1381	 0.250902988546359 
1382	 0.250796894205125 
1383	 0.250685440400253 
1384	 0.250548888331037 
1385	 0.25039684606505 
1386	 0.250230220922908 
1387	 0.250040096360903 
1388	 0.249844968325097 
1389	 0.249643661045937 
1390	 0.249432770541978 
1391	 0.249193642656562 
1392	 0.248934074785604 
1393	 0.248648081354934 
1394	 0.24835219608416 
1395	 0.24803116597888 
1396	 0.247682703107138 
1397	 0.247327850062787 
1398	 0.246944505523635 
1399	 0.246570243055407 
1400	 0.246186377036433 
1401	 0.245814794622078 
1402	 0.2454540954409 
1403	 0.245075561140104 
1404	 0.244689923194195 
1405	 0.244311147928528 
1406	 0.243919347708421 
1407	 0.243535387360286 
1408	 0.243155941243277 
1409	 0.242791833624597 
1410	 0.242412060912794 
1411	 0.242076430159659 
1412	 0.241771154123556 
1413	 0.241481436826143 
1414	 0.241220028137259 
1415	 0.240974596312398 
1416	 0.240730258169251 
1417	 0.240503250597111 
1418	 0.240299217764822 
1419	 0.240110091449219 
1420	 0.239935158682753 
1421	 0.239771494747466 
1422	 0.239615808321506 
1423	 0.239469641003719 
1424	 0.239328839834489 
1425	 0.239194302306099 
1426	 0.239083372691323 
1427	 0.238976831275428 
1428	 0.238896166587469 
1429	 0.23885015979643 
1430	 0.238795862542123 
1431	 0.238750727592234 
1432	 0.238710184026117 
1433	 0.238675840463774 
1434	 0.238641625008495 
1435	 0.238611307747461 
1436	 0.238589502611135 
1437	 0.238567583299205 
1438	 0.2385597979989 
1439	 0.238574474689598 
1440	 0.238569708546052 
1441	 0.238572111386765 
1442	 0.238585307741214 
1443	 0.238591618395704 
1444	 0.23861008716176 
1445	 0.238641784522941 
1446	 0.238661898800625 
1447	 0.23868587055407 
1448	 0.23871347799275 
1449	 0.238723600925635 
1450	 0.238745104487199 
1451	 0.238774923824875 
1452	 0.238807425589777 
1453	 0.238846705325317 
1454	 0.238902397542275 
1455	 0.238942120613642 
1456	 0.238973350836136 
1457	 0.23901589116156 
1458	 0.239057808163561 
1459	 0.239108296871296 
1460	 0.239175964709336 
1461	 0.239230287481487 
1462	 0.239271769613632 
1463	 0.239326193988643 
1464	 0.239371601540513 
1465	 0.239442077583289 
1466	 0.239540092293371 
1467	 0.239634270436366 
1468	 0.239736513628977 
1469	 0.239842263688782 
1470	 0.239952989895457 
1471	 0.240056176588012 
1472	 0.240171062036796 
1473	 0.240306349558946 
1474	 0.240447480939111 
1475	 0.240588833487712 
1476	 0.240736412060515 
1477	 0.240872029223771 
1478	 0.24099638417653 
1479	 0.241134289651345 
1480	 0.241267142827109 
1481	 0.241397448943041 
1482	 0.241519422803818 
1483	 0.2416257984977 
1484	 0.241750573989127 
1485	 0.241877871405886 
1486	 0.242011646699957 
1487	 0.242156837512609 
1488	 0.242304388270744 
1489	 0.242453449879325 
1490	 0.24260097098655 
1491	 0.242765341933615 
1492	 0.242908342166573 
1493	 0.243033649111709 
1494	 0.243171678991844 
1495	 0.243308196268027 
1496	 0.243439666755786 
1497	 0.243572852399581 
1498	 0.243706274078167 
1499	 0.243839944838204 
1500	 0.24396490723445 
1501	 0.244090595961903 
1502	 0.244211284934946 
1503	 0.244320014931118 
1504	 0.244422483277517 
1505	 0.244544847175629 
1506	 0.244668631410351 
1507	 0.244790481040885 
1508	 0.244913074601472 
1509	 0.245027712166168 
1510	 0.245149681401356 
1511	 0.245277148816476 
1512	 0.245393565213407 
1513	 0.245519977931551 
1514	 0.245647134855426 
1515	 0.245753776092783 
1516	 0.245867531741471 
1517	 0.245973524852719 
1518	 0.246066305146035 
1519	 0.246163121007391 
1520	 0.246261204588334 
1521	 0.246357330352819 
1522	 0.246448281103066 
1523	 0.246542438375435 
1524	 0.246640371465738 
1525	 0.246736570068581 
1526	 0.246839043804874 
1527	 0.246925480848697 
1528	 0.247000241550731 
1529	 0.247080564555289 
1530	 0.247148656800435 
1531	 0.247223323017771 
1532	 0.247317977289726 
1533	 0.247389184926306 
1534	 0.247432771504144 
1535	 0.24750741426756 
1536	 0.247585625576152 
1537	 0.247664446230468 
1538	 0.247773367695589 
1539	 0.247860731236726 
1540	 0.247925866926506 
1541	 0.24800459094302 
1542	 0.248092469311763 
1543	 0.248165043581495 
1544	 0.248243389058893 
1545	 0.24830554253836 
1546	 0.24834241178245 
1547	 0.248382468103061 
1548	 0.248437920943257 
1549	 0.248491273590299 
1550	 0.248576266602229 
1551	 0.248671589638856 
1552	 0.248741752038155 
1553	 0.248802935472725 
1554	 0.248854432100083 
1555	 0.248896189863199 
1556	 0.248938224332173 
1557	 0.248992280389798 
1558	 0.249049061023968 
1559	 0.249100123170508 
1560	 0.249146281035695 
1561	 0.249200010065979 
1562	 0.249234159487452 
1563	 0.249241082045267 
1564	 0.249280399362386 
1565	 0.249325998001004 
1566	 0.249379740530473 
1567	 0.249458345671272 
1568	 0.249515899192744 
1569	 0.249564293138701 
1570	 0.249618985428591 
1571	 0.249670191530173 
1572	 0.249723684444809 
1573	 0.249780883979433 
1574	 0.249834935380002 
1575	 0.249886496011054 
1576	 0.249941316327832 
1577	 0.250012410915398 
1578	 0.250052910428094 
1579	 0.25007460853043 
1580	 0.25010271172879 
1581	 0.250112882434851 
1582	 0.250128868418672 
1583	 0.250152062929754 
1584	 0.250172973356876 
1585	 0.250173217965444 
1586	 0.250207502670359 
1587	 0.250272866352259 
1588	 0.250322058960563 
1589	 0.250391860456627 
1590	 0.250433586614683 
1591	 0.250440014297725 
1592	 0.250470408643777 
1593	 0.250499406419367 
1594	 0.250535714314126 
1595	 0.250589649163423 
1596	 0.250637236561498 
1597	 0.250695176412936 
1598	 0.250734157342202 
1599	 0.250760078291318 
1600	 0.250787649564233 
1601	 0.250801610427305 
1602	 0.250815226148278 
1603	 0.250830407917985 
1604	 0.250847206013117 
1605	 0.250850300999118 
1606	 0.250869975248148 
1607	 0.250902968198659 
1608	 0.250939813926578 
1609	 0.250972002453916 
1610	 0.250997949070471 
1611	 0.251028810189526 
1612	 0.251058182294118 
1613	 0.251114230707416 
1614	 0.251181813488271 
1615	 0.251215263091435 
1616	 0.251247612207104 
1617	 0.251250368766044 
1618	 0.251236701870565 
1619	 0.251247205176074 
1620	 0.251258133165406 
1621	 0.251276411781018 
1622	 0.251305020898093 
1623	 0.251334221325858 
1624	 0.251371303535494 
1625	 0.251390165533256 
1626	 0.251406839162618 
1627	 0.251420274749967 
1628	 0.251420451207139 
1629	 0.251425342541345 
1630	 0.251445282090321 
1631	 0.251429344463837 
1632	 0.251381782738764 
1633	 0.251366942573845 
1634	 0.251342607496972 
1635	 0.25134014199638 
1636	 0.251364985034028 
1637	 0.25138338725906 
1638	 0.251410232444604 
1639	 0.251418880032102 
1640	 0.25142282044488 
1641	 0.251437274337112 
1642	 0.251440764036829 
1643	 0.251454019475467 
1644	 0.251484131889779 
1645	 0.251508261769803 
1646	 0.251525770579233 
1647	 0.251549238078942 
1648	 0.251584986087191 
1649	 0.251607871212214 
1650	 0.251624326947759 
1651	 0.251639221781125 
1652	 0.251640077286066 
1653	 0.251666751295454 
1654	 0.251708089826076 
1655	 0.25173722509254 
1656	 0.251782089780346 
1657	 0.251807143057889 
1658	 0.251811493537423 
1659	 0.251823385956848 
1660	 0.251845021833471 
1661	 0.251840345540725 
1662	 0.251826153308764 
1663	 0.251796504995143 
1664	 0.251728326230408 
1665	 0.251697147173602 
1666	 0.251666267076574 
1667	 0.251653476693785 
1668	 0.251670772992981 
1669	 0.251674702040437 
1670	 0.251676233265624 
1671	 0.25168853668447 
1672	 0.251711358910005 
1673	 0.251723019048295 
1674	 0.25174798821005 
1675	 0.251745240387412 
1676	 0.251721023361144 
1677	 0.251697986865112 
1678	 0.251649762135759 
1679	 0.251631278431343 
1680	 0.251629744761672 
1681	 0.251613211850876 
1682	 0.251602962408036 
1683	 0.251591161609077 
1684	 0.251557116316682 
1685	 0.251553759706159 
1686	 0.251572660376717 
1687	 0.251589204036231 
1688	 0.251615608444438 
1689	 0.25164461908029 
1690	 0.251697353487983 
1691	 0.25170491523016 
1692	 0.251688952335072 
1693	 0.251686775238309 
1694	 0.251652411504166 
1695	 0.25164863127074 
1696	 0.251686594549514 
1697	 0.251684732856329 
1698	 0.251666336422352 
1699	 0.251651059971983 
1700	 0.251625633292117 
1701	 0.251594723153627 
1702	 0.251563976642285 
1703	 0.251528121546234 
1704	 0.251473745926289 
1705	 0.251435085999553 
1706	 0.251401769621752 
1707	 0.251369905325561 
1708	 0.251337766737768 
1709	 0.251320164453782 
1710	 0.251311446346459 
1711	 0.251307007214658 
1712	 0.251313704617024 
1713	 0.251324078640004 
1714	 0.251349032002606 
1715	 0.251348656268551 
1716	 0.251350137267279 
1717	 0.251329788383389 
1718	 0.251279812813534 
1719	 0.25124202697917 
1720	 0.251197435897769 
1721	 0.251159414083803 
1722	 0.251127434447055 
1723	 0.251084370461323 
1724	 0.251026586289688 
1725	 0.250999001155105 
1726	 0.250987362192954 
1727	 0.25095603082888 
1728	 0.250936296814686 
1729	 0.250910342688047 
1730	 0.250865121410041 
1731	 0.25082451128567 
1732	 0.250799921593502 
1733	 0.250752704169488 
1734	 0.250684677253001 
1735	 0.250621431065044 
1736	 0.250547516555262 
1737	 0.250496979416156 
1738	 0.250452745077796 
1739	 0.250409297696567 
1740	 0.250392002836414 
1741	 0.250336310572791 
1742	 0.250266030057364 
1743	 0.25018253031928 
1744	 0.250069860750455 
1745	 0.249978935913722 
1746	 0.249887137101303 
1747	 0.249781331344519 
1748	 0.249704380200711 
1749	 0.249652258968002 
1750	 0.249569341349991 
1751	 0.249492374221847 
1752	 0.249449964549422 
1753	 0.249374716489298 
1754	 0.249318750091949 
1755	 0.249283582688823 
1756	 0.249222053191173 
1757	 0.249177460602548 
1758	 0.249130461431309 
1759	 0.249072266452686 
1760	 0.249016017013817 
1761	 0.248965459877399 
1762	 0.248919049235684 
1763	 0.248882825157732 
1764	 0.248848575390511 
1765	 0.248776610089064 
1766	 0.248688574328793 
1767	 0.248608465036524 
1768	 0.248555637317458 
1769	 0.24853925946209 
1770	 0.24854412453581 
1771	 0.248543509733944 
1772	 0.248492657002417 
1773	 0.248425820265982 
1774	 0.24837592395783 
1775	 0.248315524633447 
1776	 0.248288010687196 
1777	 0.248293032721088 
1778	 0.24824616344105 
1779	 0.248192414117998 
1780	 0.248148494705075 
1781	 0.248069276362654 
1782	 0.248037804313299 
1783	 0.24804915956276 
1784	 0.248032546754852 
1785	 0.248016753249845 
1786	 0.24799208633808 
1787	 0.247942378161865 
1788	 0.247919955641638 
1789	 0.247911111880736 
1790	 0.247915664115256 
1791	 0.247944181789207 
1792	 0.247949282386905 
1793	 0.247956030810895 
1794	 0.247956915149941 
1795	 0.247956377234844 
1796	 0.247938460619938 
1797	 0.247902729232193 
1798	 0.247867648968327 
1799	 0.247791314014098 
1800	 0.247775542907934 
1801	 0.244251850320402 
1802	 0.244268908033487 
1803	 0.2442827668202 
1804	 0.244265502299783 
1805	 0.244307651261517 
1806	 0.244349210332947 
1807	 0.244355975076594 
1808	 0.244371905402926 
1809	 0.244406883300012 
1810	 0.244416002467536 
1811	 0.244402413792117 
1812	 0.24439146197968 
1813	 0.244402285734702 
1814	 0.24441650455942 
1815	 0.244433717364744 
1816	 0.244462938481421 
1817	 0.244495238221023 
1818	 0.244544651199508 
1819	 0.244561017531712 
1820	 0.24457532120537 
1821	 0.244577961581198 
1822	 0.244536146270175 
1823	 0.244500110076706 
1824	 0.244522529448745 
1825	 0.244537055558498 
1826	 0.244557916387699 
1827	 0.244564785507076 
1828	 0.244562670170824 
1829	 0.24452739134784 
1830	 0.244514048619853 
1831	 0.244499185200566 
1832	 0.244518914768487 
1833	 0.244514735065039 
1834	 0.244497677648402 
1835	 0.244517288417096 
1836	 0.244506005958657 
1837	 0.244476448925353 
1838	 0.244458224071008 
1839	 0.244429796280914 
1840	 0.244383603842915 
1841	 0.244335805997686 
1842	 0.244303953662665 
1843	 0.24425998813956 
1844	 0.24422284115032 
1845	 0.244177613333052 
1846	 0.24410689406313 
1847	 0.244044867648035 
1848	 0.243971058185488 
1849	 0.24388209787398 
1850	 0.243771998967384 
1851	 0.243644823259206 
1852	 0.243508099631907 
1853	 0.243371511926034 
1854	 0.243226591921594 
1855	 0.243118351636092 
1856	 0.243030225004206 
1857	 0.24293173410748 
1858	 0.242813188776822 
1859	 0.242689198259782 
1860	 0.242549942567727 
1861	 0.242392702875663 
1862	 0.242218805025919 
1863	 0.242042116003582 
1864	 0.241812682647453 
1865	 0.241557743494054 
1866	 0.241280563663312 
1867	 0.240964073871139 
1868	 0.240634638263361 
1869	 0.240254306275817 
1870	 0.239825930591083 
1871	 0.239369657099393 
1872	 0.238879668738214 
1873	 0.238351278093887 
1874	 0.237791876080564 
1875	 0.237198617416665 
1876	 0.236560117670954 
1877	 0.23586869351035 
1878	 0.235122607176892 
1879	 0.234326309619966 
1880	 0.233474777024075 
1881	 0.232542917607099 
1882	 0.231598527810061 
1883	 0.230627280372941 
1884	 0.229592029907369 
1885	 0.228503710552254 
1886	 0.22736253240526 
1887	 0.226125623142236 
1888	 0.224838023100674 
1889	 0.223507450710103 
1890	 0.222139740465323 
1891	 0.220757542486809 
1892	 0.219335477795979 
1893	 0.217895257657801 
1894	 0.21643020310793 
1895	 0.214957135194662 
1896	 0.213429415541775 
1897	 0.211952176505639 
1898	 0.210465960809344 
1899	 0.208973559548833 
1900	 0.207575937182516 
1901	 0.206175283023204 
1902	 0.204819610225497 
1903	 0.203511232563961 
1904	 0.202259092567054 
1905	 0.201028699153287 
1906	 0.199868417919683 
1907	 0.198791499886569 
1908	 0.197761109715996 
1909	 0.196784057891334 
1910	 0.195874831030661 
1911	 0.195031347162002 
1912	 0.194226438875122 
1913	 0.193472454341873 
1914	 0.192766855525975 
1915	 0.192115408667917 
1916	 0.191507094677678 
1917	 0.190968159123598 
1918	 0.190476618190847 
1919	 0.190014559350554 
1920	 0.189602380212496 
1921	 0.18922988066031 
1922	 0.188899016757427 
1923	 0.188621505767763 
1924	 0.188370159096196 
1925	 0.188147061953078 
1926	 0.187971839016756 
1927	 0.187839339156612 
1928	 0.187737567564338 
1929	 0.187666248252238 
1930	 0.187645054429418 
1931	 0.187624329408598 
1932	 0.18762936275771 
1933	 0.187683487704339 
1934	 0.187734225832458 
1935	 0.187819192289234 
1936	 0.187937452522269 
1937	 0.188072298969411 
1938	 0.188232561742297 
1939	 0.188406765357545 
1940	 0.188607934778887 
1941	 0.188809301972162 
1942	 0.189022020582276 
1943	 0.189243704785227 
1944	 0.189476086807489 
1945	 0.189729636582809 
1946	 0.189974582694927 
1947	 0.190221340238114 
1948	 0.190477343613658 
1949	 0.190726444024897 
1950	 0.19099672109134 
1951	 0.191275665329956 
1952	 0.191576593727878 
1953	 0.191908230614634 
1954	 0.192238525200721 
1955	 0.192563697391606 
1956	 0.192902981001468 
1957	 0.193244955585319 
1958	 0.193567157096411 
1959	 0.193929635200294 
1960	 0.194340122738511 
1961	 0.19471857992496 
1962	 0.19510335789575 
1963	 0.195483378926833 
1964	 0.195852889225275 
1965	 0.196202275331793 
1966	 0.196576462200291 
1967	 0.196971258445843 
1968	 0.197375502395781 
1969	 0.197802649988541 
1970	 0.198212520864105 
1971	 0.19863296634666 
1972	 0.19904428522844 
1973	 0.199434247877363 
1974	 0.199841911459134 
1975	 0.200271538984985 
1976	 0.200677870141927 
1977	 0.201068736998874 
1978	 0.201478565795096 
1979	 0.201875663542139 
1980	 0.202273992843541 
1981	 0.202679119254545 
1982	 0.203098435475635 
1983	 0.203505802757454 
1984	 0.203899011759187 
1985	 0.204313844806866 
1986	 0.204756178665083 
1987	 0.205169548878373 
1988	 0.205586132010363 
1989	 0.205986644222605 
1990	 0.206360085285348 
1991	 0.206736795027081 
1992	 0.207127278378031 
1993	 0.207522114679069 
1994	 0.207928025957646 
1995	 0.208358537085504 
1996	 0.208757478732586 
1997	 0.209158028077175 
1998	 0.209548936587759 
1999	 0.20990132155899 
2000	 0.210278333735348 
2001	 0.210668257845182 
2002	 0.211060427002257 
2003	 0.211432831093844 
2004	 0.211816168141048 
2005	 0.212190315667974 
2006	 0.212546840320065 
2007	 0.212914725686656 
2008	 0.213280223914407 
2009	 0.213662689223896 
2010	 0.214068617517321 
2011	 0.214446087412198 
2012	 0.214817399654297 
2013	 0.215198457842552 
2014	 0.215566036049322 
2015	 0.215935423913982 
2016	 0.216326901172114 
2017	 0.216700735586613 
2018	 0.217064264614991 
2019	 0.217419728584061 
2020	 0.217755043903648 
2021	 0.218070809381821 
2022	 0.218388427726751 
2023	 0.21867932901546 
2024	 0.218987163737409 
2025	 0.219297425844881 
2026	 0.219618064535698 
2027	 0.21995996375497 
2028	 0.22028232658626 
2029	 0.220597587013672 
2030	 0.220911437144008 
2031	 0.221223936101885 
2032	 0.221525716029969 
2033	 0.221827146392265 
2034	 0.222136263113316 
2035	 0.22243273991631 
2036	 0.222719674331489 
2037	 0.222995988348745 
2038	 0.223273957740305 
2039	 0.223532844229793 
2040	 0.223768967858642 
2041	 0.223998785355256 
2042	 0.224219647071544 
2043	 0.224460954247427 
2044	 0.2247131617278 
2045	 0.224974091739036 
2046	 0.225249638542 
2047	 0.225557311815035 
2048	 0.225834009739995 
2049	 0.226124605249639 
2050	 0.226383648164286 
2051	 0.226619163107359 
2052	 0.226842140209135 
2053	 0.227032042478623 
2054	 0.227235870032481 
2055	 0.227429792580989 
2056	 0.227628797674959 
2057	 0.227825863411726 
2058	 0.228031122606483 
2059	 0.228228195732477 
2060	 0.228413354988986 
2061	 0.228610777279695 
2062	 0.228801493626624 
2063	 0.229018225597272 
2064	 0.229264671608437 
2065	 0.229488343590676 
2066	 0.229726057876086 
2067	 0.229948393556684 
2068	 0.230162936154762 
2069	 0.230353344779166 
2070	 0.230533093629752 
2071	 0.230688887126172 
2072	 0.230883648649022 
2073	 0.231075775096891 
2074	 0.231271030279995 
2075	 0.231503418348456 
2076	 0.231707677377112 
2077	 0.231891644362251 
2078	 0.232074831923 
2079	 0.232260445225799 
2080	 0.23243663681194 
2081	 0.23259071115307 
2082	 0.232754910752543 
2083	 0.232909327514772 
2084	 0.233090407366066 
2085	 0.233258969187366 
2086	 0.233432024699062 
2087	 0.233592074872087 
2088	 0.233736111322289 
2089	 0.233905299486957 
2090	 0.234084864584142 
2091	 0.234254620277495 
2092	 0.234440525937577 
2093	 0.234613272307508 
2094	 0.234765236159845 
2095	 0.234925076646487 
2096	 0.235085299187941 
2097	 0.235252131545951 
2098	 0.235424981274091 
2099	 0.235597440732504 
2100	 0.235752502386085 
2101	 0.23590528430355 
2102	 0.236057492769635 
2103	 0.236186982501104 
2104	 0.236336984503435 
2105	 0.236490237137416 
2106	 0.236663687865575 
2107	 0.236849705219957 
2108	 0.237039609528932 
2109	 0.237252499885278 
2110	 0.237461478733331 
2111	 0.237669621373371 
2112	 0.237878477548089 
2113	 0.238098629704083 
2114	 0.238315654980111 
2115	 0.238512966498227 
2116	 0.238693861330701 
2117	 0.238890487279149 
2118	 0.239079541343062 
2119	 0.239272344452262 
2120	 0.239486757672435 
2121	 0.239672970720492 
2122	 0.239840089593252 
2123	 0.240010512804751 
2124	 0.24017582054636 
2125	 0.240331739297527 
2126	 0.240472042511193 
2127	 0.240626665608945 
2128	 0.240790478360038 
2129	 0.240936591183949 
2130	 0.241091511755915 
2131	 0.241233777780937 
2132	 0.241349316388853 
2133	 0.241437735504957 
2134	 0.241523475601241 
2135	 0.241599693037409 
2136	 0.241653462121865 
2137	 0.241680911815086 
2138	 0.241713969731349 
2139	 0.241729548579095 
2140	 0.24174813858737 
2141	 0.241778431781566 
2142	 0.241787969019741 
2143	 0.241784365598148 
2144	 0.241772519601715 
2145	 0.241748766481167 
2146	 0.241716666946476 
2147	 0.241668764940245 
2148	 0.241626089637199 
2149	 0.241569213819892 
2150	 0.241498025994794 
2151	 0.241431391242836 
2152	 0.241375727912462 
2153	 0.241278581093204 
2154	 0.241166149973389 
2155	 0.241042458981094 
2156	 0.240875257817682 
2157	 0.240729467701417 
2158	 0.240586749843537 
2159	 0.240442878866223 
2160	 0.240301790964438 
2161	 0.24015609661625 
2162	 0.239996120624894 
2163	 0.239855270635588 
2164	 0.239719281554279 
2165	 0.239597277241362 
2166	 0.239459521952385 
2167	 0.239331913649014 
2168	 0.239194214887863 
2169	 0.239039943378649 
2170	 0.238891054044696 
2171	 0.238747974925637 
2172	 0.238600835177531 
2173	 0.23843868549096 
2174	 0.238294076650391 
2175	 0.238162136133742 
2176	 0.238025022332683 
2177	 0.237897953050383 
2178	 0.237759904818415 
2179	 0.237605705005959 
2180	 0.237467431043296 
2181	 0.237343272495424 
2182	 0.237203516186443 
2183	 0.237075477647441 
2184	 0.236924653418325 
2185	 0.236770066573394 
2186	 0.236595561292283 
2187	 0.236426898422315 
2188	 0.236249717285684 
2189	 0.236088805187719 
2190	 0.235923967136882 
2191	 0.235772507443424 
2192	 0.235619651058173 
2193	 0.235504784902862 
2194	 0.235410519178664 
2195	 0.235329808062829 
2196	 0.23529091424822 
2197	 0.235243955997484 
2198	 0.235214042016444 
2199	 0.235164471499112 
2200	 0.235118376702301 
2201	 0.235058905181663 
2202	 0.234964032169716 
2203	 0.234881970579701 
2204	 0.234831688330923 
2205	 0.23479510367 
2206	 0.234764978705103 
2207	 0.234768948556514 
2208	 0.234752484575565 
2209	 0.234730427601374 
2210	 0.234705890048549 
2211	 0.234671721112628 
2212	 0.234660525974904 
2213	 0.234654873770177 
2214	 0.234652541298878 
2215	 0.234674610187445 
2216	 0.234683245615645 
2217	 0.234685006933225 
2218	 0.234683611968932 
2219	 0.234687096376966 
2220	 0.234679081528145 
2221	 0.234662628190735 
2222	 0.23463884007948 
2223	 0.234604516068053 
2224	 0.23457425946418 
2225	 0.234530646657175 
2226	 0.234469522306765 
2227	 0.234436388602102 
2228	 0.234403531746614 
2229	 0.234376618629877 
2230	 0.234374232599311 
2231	 0.234344622170348 
2232	 0.234296971494933 
2233	 0.23427277222351 
2234	 0.234252839861725 
2235	 0.234232575401796 
2236	 0.234227713351016 
2237	 0.234210596617505 
2238	 0.234182034304911 
2239	 0.234156534763825 
2240	 0.234132935431506 
2241	 0.234107345698506 
2242	 0.234079341459451 
2243	 0.234047344051762 
2244	 0.234015459578014 
2245	 0.233978388830343 
2246	 0.233919423350057 
2247	 0.23390869606577 
2248	 0.233896207691952 
2249	 0.2339053583799 
2250	 0.233885357685946 
2251	 0.233873049114362 
2252	 0.233836180138041 
2253	 0.233760540736342 
2254	 0.233715981335759 
2255	 0.233673128358438 
2256	 0.233639435423683 
2257	 0.233623286920221 
2258	 0.233600161780629 
2259	 0.233572522730872 
2260	 0.233560616842528 
2261	 0.233564953667013 
2262	 0.233547238463788 
2263	 0.233528009907054 
2264	 0.233511445677594 
2265	 0.233458350596114 
2266	 0.233450754709883 
2267	 0.233491469114955 
2268	 0.233506610824683 
2269	 0.233535080854914 
2270	 0.233554537054917 
2271	 0.233543014417026 
2272	 0.233531536682469 
2273	 0.233528093089902 
2274	 0.233528911105174 
2275	 0.233519977747004 
2276	 0.233501775309626 
2277	 0.233506775021958 
2278	 0.233522069257861 
2279	 0.233521570856171 
2280	 0.233528576570228 
2281	 0.233537941430862 
2282	 0.233526376752724 
2283	 0.233543930506434 
2284	 0.233587038220823 
2285	 0.233626135699256 
2286	 0.233675830167544 
2287	 0.233705610825599 
2288	 0.233754387532 
2289	 0.233761114998487 
2290	 0.233726046774368 
2291	 0.233707676070411 
2292	 0.233661292759929 
2293	 0.233641176106176 
2294	 0.233638830055146 
2295	 0.2336342064445 
2296	 0.233647805165084 
2297	 0.23363587953308 
2298	 0.233631276023779 
2299	 0.233660744402238 
2300	 0.233640373689643 
2301	 0.233605956913545 
2302	 0.233591449664146 
2303	 0.233543437559704 
2304	 0.233506460010696 
2305	 0.233517234084798 
2306	 0.233501167898725 
2307	 0.233477920456121 
2308	 0.233447009117111 
2309	 0.233415389147748 
2310	 0.233371095715757 
2311	 0.233316653370972 
2312	 0.233251452431015 
2313	 0.2331748483101 
2314	 0.233094306439988 
2315	 0.232974106782108 
2316	 0.232904187339497 
2317	 0.232857740574914 
2318	 0.232827420398199 
2319	 0.232832196714361 
2320	 0.23283867293731 
2321	 0.232865491094213 
2322	 0.232864250729524 
2323	 0.232860048241735 
2324	 0.232857704299114 
2325	 0.232836678481921 
2326	 0.232820227728966 
2327	 0.23281007560841 
2328	 0.23281043956522 
2329	 0.232794196559108 
2330	 0.232740563961287 
2331	 0.23265508286941 
2332	 0.232555622047519 
2333	 0.232470686687269 
2334	 0.232415839574749 
2335	 0.232327276888926 
2336	 0.232285678661557 
2337	 0.232272693797176 
2338	 0.232228315879899 
2339	 0.232199553590861 
2340	 0.232136013415245 
2341	 0.232020991392619 
2342	 0.231868304982631 
2343	 0.2317445258878 
2344	 0.231650486744182 
2345	 0.231506700134643 
2346	 0.231309723666565 
2347	 0.231177294842939 
2348	 0.231058239200055 
2349	 0.230909733316409 
2350	 0.23079735002246 
2351	 0.230660699581331 
2352	 0.230459804153864 
2353	 0.230328892775896 
2354	 0.230223913476206 
2355	 0.230142220135884 
2356	 0.230141625479393 
2357	 0.23002465114263 
2358	 0.229880273453872 
2359	 0.229718831307899 
2360	 0.229463153719396 
2361	 0.229255292547909 
2362	 0.229075530257275 
2363	 0.228879472337807 
2364	 0.228643884087865 
2365	 0.228469060692634 
2366	 0.228334940390566 
2367	 0.228195522366518 
2368	 0.228111014477209 
2369	 0.227960680569008 
2370	 0.227761515425112 
2371	 0.227601522506656 
2372	 0.227392100994327 
2373	 0.227183695995664 
2374	 0.227043427610692 
2375	 0.226823069703295 
2376	 0.226589535238364 
2377	 0.226450132577645 
2378	 0.226253155061904 
2379	 0.226059549072293 
2380	 0.225922959688252 
2381	 0.225764702071873 
2382	 0.225603958773811 
2383	 0.225410579198371 
2384	 0.225155421710517 
2385	 0.22491336959291 
2386	 0.224714722646965 
2387	 0.224499745525213 
2388	 0.224285310137623 
2389	 0.224024024255054 
2390	 0.223739366040217 
2391	 0.223534155547212 
2392	 0.223326969042109 
2393	 0.223120402410591 
2394	 0.222928874364093 
2395	 0.222654300993581 
2396	 0.222376556551896 
2397	 0.222097681418231 
2398	 0.221778035584195 
2399	 0.221502152685349 
2400	 0.221267479097565 
2401	 0.221063489196607 
2402	 0.220832136978911 
2403	 0.220540058041291 
2404	 0.220207846443948 
2405	 0.219883165402224 
2406	 0.219596957992979 
2407	 0.219312747025696 
2408	 0.219077073280884 
2409	 0.218858897103764 
2410	 0.218643643606549 
2411	 0.218437942129246 
2412	 0.218133575330816 
2413	 0.217803027510968 
2414	 0.217469479195104 
2415	 0.217121590663663 
2416	 0.21682003979339 
2417	 0.216587609623533 
2418	 0.216317534237473 
2419	 0.216041553999291 
2420	 0.215788928735138 
2421	 0.215565218240729 
2422	 0.215288963624522 
2423	 0.214989247359615 
2424	 0.214725743308307 
2425	 0.214417286486895 
2426	 0.214208532544157 
2427	 0.214138421483502 
2428	 0.213882347709623 
2429	 0.213574634822865 
2430	 0.2132568496057 
2431	 0.21282605129551 
2432	 0.212461001827266 
2433	 0.212125855961561 
2434	 0.211819478010032 
2435	 0.211497358279479 
2436	 0.21121304320054 
2437	 0.211003325212418 
2438	 0.210753110941425 
2439	 0.210488634195401 
2440	 0.210245056675057 
2441	 0.210051371410953 
2442	 0.209796130107465 
2443	 0.209500951719944 
2444	 0.209231910817184 
2445	 0.208898791796002 
2446	 0.208644818661745 
2447	 0.208499299642615 
2448	 0.208242001415634 
2449	 0.207949592951758 
2450	 0.207615993073116 
2451	 0.207172470168447 
2452	 0.20683832063978 
2453	 0.206598388021008 
2454	 0.206323888838871 
2455	 0.206096639046688 
2456	 0.205762057035233 
2457	 0.205355227297478 
2458	 0.204922042950528 
2459	 0.204356408935627 
2460	 0.20398078521628 
2461	 0.203609201415708 
2462	 0.203307180972341 
2463	 0.203237188316716 
2464	 0.203052573007623 
2465	 0.202865805175193 
2466	 0.202601169686737 
2467	 0.202229737077085 
2468	 0.201879350842138 
2469	 0.20148884723808 
2470	 0.201308934117649 
2471	 0.201050916734017 
2472	 0.200799220793697 
2473	 0.200531671950489 
2474	 0.200284531944158 
2475	 0.200040089045063 
2476	 0.199731973605816 
2477	 0.199387068850976 
2478	 0.198940502366237 
2479	 0.198665209788985 
2480	 0.198535744960821 
2481	 0.19834113899113 
2482	 0.1981587648149 
2483	 0.19779798309339 
2484	 0.197475881765519 
2485	 0.197234456068051 
2486	 0.197001094426862 
2487	 0.196936123495881 
2488	 0.196769221223707 
2489	 0.19646806400704 
2490	 0.196059471451788 
2491	 0.195687645862396 
2492	 0.195352969409302 
2493	 0.195077093856496 
2494	 0.195032547452255 
2495	 0.194884251061764 
2496	 0.194700086499144 
2497	 0.194667740932793 
2498	 0.194720685342416 
2499	 0.194668322116187 
2500	 0.194332534865607 
