Wavelength	MM400009.asd
350	 3.76323070820038E-02 
351	 4.55167189753486E-02 
352	 4.74762848720765E-02 
353	 4.15723496291805E-02 
354	 5.00241876333662E-02 
355	 5.16806778556179E-02 
356	 4.65522514975504E-02 
357	 4.14818644833806E-02 
358	 4.78057746987191E-02 
359	 4.80206847571136E-02 
360	 4.23336996082897E-02 
361	 4.20253328560566E-02 
362	 4.11184277909011E-02 
363	 4.23517964776022E-02 
364	 4.53709609560426E-02 
365	 0.043484717398244 
366	 4.34323232490507E-02 
367	 4.39337444683128E-02 
368	 4.28530789288547E-02 
369	 4.39204915009298E-02 
370	 4.30199031972358E-02 
371	 4.18115837485699E-02 
372	 4.52074221607963E-02 
373	 4.71085634188359E-02 
374	 4.62645582849721E-02 
375	 4.37833129623468E-02 
376	 4.34014779749521E-02 
377	 4.26808636402734E-02 
378	 4.33267773771015E-02 
379	 4.62726073714649E-02 
380	 4.43907736017435E-02 
381	 4.24660661084292E-02 
382	 4.26930334027999E-02 
383	 4.47312278153001E-02 
384	 4.69135232904992E-02 
385	 4.71746900150096E-02 
386	 4.53302979088648E-02 
387	 4.44555928387105E-02 
388	 4.45173952387795E-02 
389	 4.50967504423596E-02 
390	 4.55682823424459E-02 
391	 4.54508183473145E-02 
392	 4.62786198384335E-02 
393	 4.76294493782933E-02 
394	 4.75870054607836E-02 
395	 4.89844373245077E-02 
396	 4.87637620278831E-02 
397	 4.61102843052649E-02 
398	 4.69378248819395E-02 
399	 0.047859101480248 
400	 4.90682456862051E-02 
401	 5.11685301401962E-02 
402	 4.97973329997852E-02 
403	 4.89517205861035E-02 
404	 4.97436459673508E-02 
405	 4.99110138319911E-02 
406	 0.050270106968705 
407	 0.050491338470566 
408	 5.02758633728509E-02 
409	 4.97972213538068E-02 
410	 4.96815613665565E-02 
411	 4.98884494729847E-02 
412	 5.00907560393327E-02 
413	 5.05531492427033E-02 
414	 5.08852041693689E-02 
415	 5.08197336694671E-02 
416	 5.02896007507924E-02 
417	 5.00329809426464E-02 
418	 5.04071245736424E-02 
419	 5.12590272860553E-02 
420	 5.13049560906812E-02 
421	 5.06545327172088E-02 
422	 5.00794110921314E-02 
423	 5.05642438338529E-02 
424	 5.07388006898866E-02 
425	 5.08218016785151E-02 
426	 0.050988815775445 
427	 5.09546894001655E-02 
428	 5.07511360905114E-02 
429	 5.03714904705473E-02 
430	 4.99653372263675E-02 
431	 5.05416818888596E-02 
432	 5.04839593002482E-02 
433	 4.97702094385961E-02 
434	 4.99392053856574E-02 
435	 5.02046321966112E-02 
436	 5.03231097001641E-02 
437	 5.02407683199327E-02 
438	 5.01062706192422E-02 
439	 4.99957481092104E-02 
440	 5.00602120072291E-02 
441	 5.04093899086493E-02 
442	 5.06281217425741E-02 
443	 5.05449865939334E-02 
444	 5.02811655293345E-02 
445	 5.03297423140666E-02 
446	 5.04629618847287E-02 
447	 5.06631801028131E-02 
448	 0.050870505722976 
449	 0.050587952903238 
450	 5.05736498240494E-02 
451	 5.08885892132699E-02 
452	 5.09858604688606E-02 
453	 0.050992332281086 
454	 5.08197866350216E-02 
455	 5.05660534972921E-02 
456	 5.08920060650235E-02 
457	 5.09940116900968E-02 
458	 5.08874542742631E-02 
459	 5.09227646531521E-02 
460	 5.09141525158291E-02 
461	 5.08108826880358E-02 
462	 5.07371105561476E-02 
463	 5.10502465585399E-02 
464	 5.11434700804069E-02 
465	 5.10864387031112E-02 
466	 0.051080130995628 
467	 5.09943226111395E-02 
468	 5.10672855834785E-02 
469	 5.11954127445557E-02 
470	 5.10310710445287E-02 
471	 5.10157757722404E-02 
472	 5.10628110806639E-02 
473	 5.10679233288889E-02 
474	 0.051118967374088 
475	 0.051033785611266 
476	 5.09385629403478E-02 
477	 5.10448235538213E-02 
478	 5.11113908182345E-02 
479	 5.11072284313352E-02 
480	 5.10736940650732E-02 
481	 5.11226094747146E-02 
482	 5.11721690885034E-02 
483	 5.12006523468711E-02 
484	 5.12345541623926E-02 
485	 5.14666731456556E-02 
486	 5.14117103418513E-02 
487	 0.051108795083567 
488	 5.10290517105522E-02 
489	 5.10391028298331E-02 
490	 5.11490076491682E-02 
491	 5.12893643640762E-02 
492	 5.11319058783612E-02 
493	 5.10685525853599E-02 
494	 5.11294433238201E-02 
495	 5.11814187259709E-02 
496	 5.12819599402516E-02 
497	 5.12975578808846E-02 
498	 5.12355431363069E-02 
499	 5.13363636203235E-02 
500	 5.13375410814158E-02 
501	 0.051299009673215 
502	 5.13253184764232E-02 
503	 5.12673959803835E-02 
504	 5.12664145433667E-02 
505	 5.13325720920947E-02 
506	 5.13531638677031E-02 
507	 5.13845816735667E-02 
508	 5.14077970557475E-02 
509	 5.14211405460123E-02 
510	 5.15190208311171E-02 
511	 5.15222063734306E-02 
512	 5.14623956517512E-02 
513	 5.14770003829201E-02 
514	 5.15451240507164E-02 
515	 5.15529277261557E-02 
516	 5.14878196351401E-02 
517	 0.051525818485542 
518	 5.15527088566198E-02 
519	 5.15507777887057E-02 
520	 5.15462585048718E-02 
521	 5.16284575877196E-02 
522	 0.051710717344028 
523	 5.17187208626165E-02 
524	 5.16063305071919E-02 
525	 0.051586779507799 
526	 5.15983482614692E-02 
527	 5.15886657388991E-02 
528	 5.17699819529665E-02 
529	 5.18601753870397E-02 
530	 5.18346358494382E-02 
531	 5.18382518849334E-02 
532	 5.18246930423777E-02 
533	 5.18806892497241E-02 
534	 5.20135211863262E-02 
535	 5.20348054141772E-02 
536	 0.052026707406522 
537	 5.20611939298353E-02 
538	 5.21838612837114E-02 
539	 0.05228113660898 
540	 5.22684752521221E-02 
541	 5.22059664498248E-02 
542	 5.23372943819076E-02 
543	 5.24410202896964E-02 
544	 5.24963770937673E-02 
545	 5.25372871571126E-02 
546	 5.25834593311839E-02 
547	 5.26253851525344E-02 
548	 5.26804543332795E-02 
549	 5.27845145707456E-02 
550	 5.28612553883425E-02 
551	 5.29365515429891E-02 
552	 5.30420893795862E-02 
553	 0.053183550913982 
554	 5.32593206793554E-02 
555	 5.33170418548764E-02 
556	 5.34669813840162E-02 
557	 5.35918741126394E-02 
558	 5.37179178681707E-02 
559	 5.38867251969996E-02 
560	 0.054151730897775 
561	 5.42938355703115E-02 
562	 5.44129941776778E-02 
563	 0.054670648037694 
564	 5.48958682696044E-02 
565	 5.50754806149924E-02 
566	 5.52611655515618E-02 
567	 5.55628396881095E-02 
568	 5.58711883553614E-02 
569	 5.61534222587131E-02 
570	 5.64252472160094E-02 
571	 5.68087994514952E-02 
572	 5.71385011552687E-02 
573	 5.74280669384853E-02 
574	 5.78102054303913E-02 
575	 5.81748517469636E-02 
576	 5.85143455257708E-02 
577	 5.88462763527827E-02 
578	 5.92035531012705E-02 
579	 5.95984532089379E-02 
580	 0.06006914586224 
581	 0.06063607733621 
582	 0.061136517358608 
583	 6.16533485970793E-02 
584	 6.22168802684886E-02 
585	 6.27524108721045E-02 
586	 6.32937061404116E-02 
587	 6.38139758967098E-02 
588	 6.42920841964582E-02 
589	 6.47953410281874E-02 
590	 6.53560872466547E-02 
591	 6.59533473536963E-02 
592	 6.65208928656254E-02 
593	 6.70166006749705E-02 
594	 6.75359701637606E-02 
595	 0.068131256296447 
596	 6.86601144142775E-02 
597	 6.92532905354668E-02 
598	 6.98829635244591E-02 
599	 7.04490631630909E-02 
600	 7.10196176493191E-02 
601	 7.15643679129092E-02 
602	 0.072066824188421 
603	 7.25537309626754E-02 
604	 7.30491799105183E-02 
605	 7.35451923387491E-02 
606	 7.40257223000616E-02 
607	 7.45144802643568E-02 
608	 0.074947279043538 
609	 7.53399412618033E-02 
610	 7.58023060814308E-02 
611	 7.62068486937347E-02 
612	 7.65858510347358E-02 
613	 7.69777401763342E-02 
614	 7.73081862314805E-02 
615	 7.76431378587947E-02 
616	 7.79688610695737E-02 
617	 7.82231135931221E-02 
618	 7.84948971728597E-02 
619	 7.87442550248263E-02 
620	 0.078957908747144 
621	 7.92225698934218E-02 
622	 7.94864773144193E-02 
623	 7.96939647110148E-02 
624	 7.98168851570081E-02 
625	 8.00218515414434E-02 
626	 8.02505286644906E-02 
627	 8.04539665561589E-02 
628	 0.080620655161508 
629	 8.08210720772385E-02 
630	 8.10269095666201E-02 
631	 8.11974681496065E-02 
632	 8.13586332283357E-02 
633	 8.15088338658435E-02 
634	 0.081664633747948 
635	 8.18524807359301E-02 
636	 8.20121036194021E-02 
637	 8.21578507609181E-02 
638	 8.23088413976409E-02 
639	 8.24599744021169E-02 
640	 8.26385824605272E-02 
641	 8.28187645391594E-02 
642	 8.29588364404634E-02 
643	 8.31048367026544E-02 
644	 8.32773741608417E-02 
645	 8.34820677787487E-02 
646	 8.37094795414382E-02 
647	 8.38762038870788E-02 
648	 8.40079513590415E-02 
649	 8.41581400536317E-02 
650	 8.43325241571585E-02 
651	 8.45429629727874E-02 
652	 8.47641206471557E-02 
653	 8.49448416234934E-02 
654	 8.51585734524635E-02 
655	 0.085379480059432 
656	 8.55852932403644E-02 
657	 8.58068059994611E-02 
658	 8.60460352852564E-02 
659	 8.62677925433287E-02 
660	 8.64362115225451E-02 
661	 8.66580149303535E-02 
662	 8.69232108816419E-02 
663	 8.72045243254015E-02 
664	 8.74698419746286E-02 
665	 8.76793494853376E-02 
666	 8.78934341534176E-02 
667	 8.81746697241057E-02 
668	 8.84607501329658E-02 
669	 8.87488672061196E-02 
670	 8.90466141646755E-02 
671	 8.93668003453989E-02 
672	 0.089691301316074 
673	 8.99958201146122E-02 
674	 9.02841029939941E-02 
675	 9.06302015793234E-02 
676	 9.09621772678048E-02 
677	 9.12559277885003E-02 
678	 0.09152719266969 
679	 9.19016512701924E-02 
680	 9.22923775849817E-02 
681	 9.26677872813076E-02 
682	 9.30941644740844E-02 
683	 9.34319720547192E-02 
684	 9.37631316333632E-02 
685	 9.41811459672356E-02 
686	 9.46008696929051E-02 
687	 9.50179396911855E-02 
688	 9.54301821827602E-02 
689	 9.58378772186979E-02 
690	 9.62438762920103E-02 
691	 9.66441125126868E-02 
692	 9.70500797112131E-02 
693	 9.75087951735684E-02 
694	 9.79726257691602E-02 
695	 9.84307853599238E-02 
696	 9.88843931256369E-02 
697	 9.93210057942514E-02 
698	 9.97657002557433E-02 
699	 0.100223763956593 
700	 0.100677660234209 
701	 0.101159592029124 
702	 0.10166667791938 
703	 0.102175168271077 
704	 0.102620913945605 
705	 0.103122718366049 
706	 0.103633051937837 
707	 0.104043012795612 
708	 0.104519500225734 
709	 0.105037096594637 
710	 0.10555081335381 
711	 0.106019762760089 
712	 0.106503860101833 
713	 0.107010281295769 
714	 0.107518879626832 
715	 0.107967448128732 
716	 0.108389971761251 
717	 0.108831731806303 
718	 0.109332738762539 
719	 0.109803423898207 
720	 0.110262860119851 
721	 0.110713123030724 
722	 0.111084178599227 
723	 0.111524172689499 
724	 0.111971099869121 
725	 0.11232152047061 
726	 0.112658387233442 
727	 0.113016645807092 
728	 0.113383984628939 
729	 0.113708565203995 
730	 0.114024504180824 
731	 0.114339120552937 
732	 0.114639067312547 
733	 0.114866532841347 
734	 0.115123167446242 
735	 0.115372881422654 
736	 0.11554131761455 
737	 0.115698889416257 
738	 0.115868959099651 
739	 0.116051140326933 
740	 0.116221214239969 
741	 0.116318719491326 
742	 0.116372082869616 
743	 0.116423007198092 
744	 0.116493072977423 
745	 0.116532780548889 
746	 0.116541849365816 
747	 0.116539482648344 
748	 0.116495495358373 
749	 0.116431931493458 
750	 0.116366651721879 
751	 0.11630577204623 
752	 0.116195888103577 
753	 0.116065846317494 
754	 0.115945554457079 
755	 0.115810175469285 
756	 0.115640114207638 
757	 0.115449933689399 
758	 0.115267037307755 
759	 0.115062855768024 
760	 0.114851278187499 
761	 0.114639191265715 
762	 0.114419744599177 
763	 0.114171834027287 
764	 0.113907350195821 
765	 0.113643575042697 
766	 0.11338897134265 
767	 0.113124256468603 
768	 0.112835767267285 
769	 0.112521443132742 
770	 0.112233561171287 
771	 0.111934927109135 
772	 0.111613470410872 
773	 0.111296784657785 
774	 0.111011860793571 
775	 0.110702325740294 
776	 0.110340036894889 
777	 0.110026563220082 
778	 0.109700841043898 
779	 0.109378571360498 
780	 0.109093992158629 
781	 0.108770465029669 
782	 0.108457632998107 
783	 0.10815323377792 
784	 0.107796323952558 
785	 0.107471539100116 
786	 0.107163994794584 
787	 0.10685004888891 
788	 0.106532347546568 
789	 0.106229162914113 
790	 0.105924071511865 
791	 0.105597588873292 
792	 0.105290747017269 
793	 0.104982278202053 
794	 0.104668621376035 
795	 0.104365353198722 
796	 0.104086292892146 
797	 0.103811817514567 
798	 0.103527942517317 
799	 0.103240000217977 
800	 0.102964618448549 
801	 0.102690822111825 
802	 0.102406685039167 
803	 0.102129453110414 
804	 0.101884676814739 
805	 0.101642375847422 
806	 0.101350679704452 
807	 0.101087212889349 
808	 0.100845730004288 
809	 0.100618246256222 
810	 0.100406022136162 
811	 0.100192813840935 
812	 9.99681784780339E-02 
813	 9.97315627521488E-02 
814	 0.099500125574905 
815	 9.92926286009522E-02 
816	 9.90956798821414E-02 
817	 9.88898510782022E-02 
818	 9.87091392334141E-02 
819	 9.85232825591735E-02 
820	 9.83209120164612E-02 
821	 0.098115463895218 
822	 9.79750472103218E-02 
823	 9.78222715046091E-02 
824	 9.76221452706196E-02 
825	 9.74446010190278E-02 
826	 9.73069530488503E-02 
827	 9.71859878877108E-02 
828	 9.70498221951444E-02 
829	 9.68823097154927E-02 
830	 9.67206238255295E-02 
831	 9.65874006619507E-02 
832	 9.64866635645836E-02 
833	 9.63720958958692E-02 
834	 9.62534765364174E-02 
835	 0.096134464505964 
836	 9.60097425906358E-02 
837	 9.58769552195032E-02 
838	 9.57898133320078E-02 
839	 9.57484369535304E-02 
840	 9.56497766650167E-02 
841	 9.55629412195295E-02 
842	 9.54699956871078E-02 
843	 9.53652207102852E-02 
844	 9.53627999435854E-02 
845	 9.53015565318469E-02 
846	 9.51966197619617E-02 
847	 0.095136621802262 
848	 0.095097340916555 
849	 9.50500537139594E-02 
850	 9.49977847653473E-02 
851	 9.49699389718998E-02 
852	 9.49651637004683E-02 
853	 9.49524950191754E-02 
854	 9.49227695836419E-02 
855	 9.49041193057643E-02 
856	 9.48633104957735E-02 
857	 9.48590045911879E-02 
858	 9.49132995472959E-02 
859	 9.49029804195831E-02 
860	 9.48916144415251E-02 
861	 0.094902866098017 
862	 9.49397761532151E-02 
863	 9.49797960104278E-02 
864	 9.50034532462809E-02 
865	 9.50111965828253E-02 
866	 9.50166314458789E-02 
867	 9.50208031444102E-02 
868	 9.50394664296149E-02 
869	 9.50917873490622E-02 
870	 9.51910546713127E-02 
871	 9.52506822337928E-02 
872	 9.52901939615968E-02 
873	 9.53418325145983E-02 
874	 9.54250217308273E-02 
875	 9.55156703553984E-02 
876	 9.56087527461838E-02 
877	 0.095687427510134 
878	 9.56755751028024E-02 
879	 9.58026754339131E-02 
880	 9.59592130772773E-02 
881	 9.59923676662498E-02 
882	 9.61137409822477E-02 
883	 9.62491152226737E-02 
884	 9.63585876261092E-02 
885	 9.64403186766282E-02 
886	 0.096575687336947 
887	 9.67042275464787E-02 
888	 9.68193662143677E-02 
889	 9.69659526384234E-02 
890	 9.71299979664367E-02 
891	 9.72856570040056E-02 
892	 9.74419189269422E-02 
893	 9.76450674071748E-02 
894	 9.77591086417763E-02 
895	 9.78690022050073E-02 
896	 9.80518383564983E-02 
897	 9.82892956806507E-02 
898	 9.84733783075654E-02 
899	 9.86448615916669E-02 
900	 9.88524732234307E-02 
901	 9.90486417715432E-02 
902	 9.92545670643846E-02 
903	 9.94510474157491E-02 
904	 9.96228864901224E-02 
905	 9.98155554675445E-02 
906	 0.100021332671364 
907	 0.100247032306547 
908	 0.100504313425645 
909	 0.10080390439982 
910	 0.101055469955575 
911	 0.101265474869656 
912	 0.101505558541676 
913	 0.101778308846818 
914	 0.102086880492045 
915	 0.1023866414948 
916	 0.102613116916693 
917	 0.102885447797531 
918	 0.103213372472216 
919	 0.103548807849685 
920	 0.10380895919972 
921	 0.104130701789942 
922	 0.10444835864837 
923	 0.104741890359675 
924	 0.105103787620663 
925	 0.105443837922849 
926	 0.105796750242898 
927	 0.106170159191443 
928	 0.106475968102591 
929	 0.106773323432008 
930	 0.107147046475419 
931	 0.107608771609291 
932	 0.107996016766346 
933	 0.108446521094266 
934	 0.108863568978201 
935	 0.109190070970729 
936	 0.10968429286212 
937	 0.110066011141586 
938	 0.110420595020958 
939	 0.110891841164414 
940	 0.111375448488014 
941	 0.111855298913772 
942	 0.112299903207379 
943	 0.112710969287228 
944	 0.113228146545849 
945	 0.113633501778477 
946	 0.11403552452085 
947	 0.114608170465475 
948	 0.115098704784149 
949	 0.115600807359378 
950	 0.116093865251325 
951	 0.116541258201033 
952	 0.117137547955407 
953	 0.117716546880943 
954	 0.118256794620237 
955	 0.118821828075556 
956	 0.119388741124956 
957	 0.119954734272656 
958	 0.120513477327247 
959	 0.121062209983618 
960	 0.121621830681049 
961	 0.122247920955483 
962	 0.122915888190662 
963	 0.12354634487878 
964	 0.124081910868397 
965	 0.124677482975277 
966	 0.125336701734651 
967	 0.125962186450144 
968	 0.126581384100849 
969	 0.12718824172698 
970	 0.127845224910508 
971	 0.12861083313631 
972	 0.129282965601241 
973	 0.129815265595193 
974	 0.130324858277108 
975	 0.131001750536186 
976	 0.131839219410836 
977	 0.132626007246898 
978	 0.133340067564606 
979	 0.134076333265348 
980	 0.134735112751471 
981	 0.135452271712702 
982	 0.136164163373675 
983	 0.136758927660682 
984	 0.137603146083406 
985	 0.138374872172405 
986	 0.139029539915076 
987	 0.139698292179819 
988	 0.140374193049553 
989	 0.141145568655368 
990	 0.14188963999284 
991	 0.142485598439436 
992	 0.143337330336568 
993	 0.144026502636622 
994	 0.144690432133743 
995	 0.14557355836002 
996	 0.146208364661192 
997	 0.146957279127594 
998	 0.147732167370017 
999	 0.148383230382693 
1000	 0.149229637247878 
1001	 0.15074855980835 
1002	 0.151483202001196 
1003	 0.152230668558538 
1004	 0.15296060857615 
1005	 0.153738211085653 
1006	 0.154455327393555 
1007	 0.155120834012724 
1008	 0.155790701022589 
1009	 0.156463850118962 
1010	 0.157196142736179 
1011	 0.157891030290746 
1012	 0.158546082713223 
1013	 0.159290354834633 
1014	 0.159974146512196 
1015	 0.16059905400027 
1016	 0.161265016126986 
1017	 0.161900863313542 
1018	 0.162477498273605 
1019	 0.163023298563959 
1020	 0.16369730872515 
1021	 0.16436852572995 
1022	 0.164941261900656 
1023	 0.165543564487053 
1024	 0.166125308518843 
1025	 0.16666703572845 
1026	 0.167267354446509 
1027	 0.167919118660782 
1028	 0.168539541691062 
1029	 0.169129902068577 
1030	 0.169732518620012 
1031	 0.170295695052704 
1032	 0.170827827047871 
1033	 0.171318434370427 
1034	 0.171820169083682 
1035	 0.172323310824882 
1036	 0.172854841799192 
1037	 0.173393472635504 
1038	 0.173902488478138 
1039	 0.17442055956386 
1040	 0.174901042113454 
1041	 0.175389757203563 
1042	 0.175918845106811 
1043	 0.176418969230535 
1044	 0.176941795679886 
1045	 0.177475086073533 
1046	 0.178020203944366 
1047	 0.178548579474677 
1048	 0.179068031125133 
1049	 0.17953117759043 
1050	 0.179983719204906 
1051	 0.180457174813403 
1052	 0.180967939938665 
1053	 0.181548456920535 
1054	 0.182097878449003 
1055	 0.182600786248748 
1056	 0.183101714450114 
1057	 0.1835796438986 
1058	 0.183983869728504 
1059	 0.184449557857774 
1060	 0.184948251495469 
1061	 0.185416994615452 
1062	 0.185875728209231 
1063	 0.186358904071131 
1064	 0.186845666304673 
1065	 0.187358286288497 
1066	 0.187860578253739 
1067	 0.188309367564609 
1068	 0.1887583918052 
1069	 0.189191064424574 
1070	 0.189645925208899 
1071	 0.190140634622286 
1072	 0.190612970329807 
1073	 0.191077068762208 
1074	 0.191527562129294 
1075	 0.191965952873181 
1076	 0.192386138668159 
1077	 0.192812314711989 
1078	 0.193250140774846 
1079	 0.193647570784429 
1080	 0.194014886987908 
1081	 0.194426922515458 
1082	 0.194847399314256 
1083	 0.195271741890566 
1084	 0.195743697668655 
1085	 0.196179611918801 
1086	 0.196578205299515 
1087	 0.197001326688936 
1088	 0.197425292229321 
1089	 0.197863354202046 
1090	 0.19829576967528 
1091	 0.198708627255689 
1092	 0.199129688632962 
1093	 0.199537353456636 
1094	 0.199949504819462 
1095	 0.200390896916133 
1096	 0.200824435611511 
1097	 0.20122411342964 
1098	 0.20164199541041 
1099	 0.202059718342061 
1100	 0.202495310695014 
1101	 0.202943289214515 
1102	 0.203387931160186 
1103	 0.203862073648194 
1104	 0.204285862143617 
1105	 0.204713299224143 
1106	 0.20513589706049 
1107	 0.205542660862127 
1108	 0.205988042641211 
1109	 0.206424251264793 
1110	 0.206889511942889 
1111	 0.20734615715237 
1112	 0.207800489247827 
1113	 0.208268671604128 
1114	 0.208757337274372 
1115	 0.209228834366706 
1116	 0.209714974920685 
1117	 0.210185111765332 
1118	 0.210648524480457 
1119	 0.211071578489176 
1120	 0.211514265589554 
1121	 0.211973448456564 
1122	 0.2124572505403 
1123	 0.212980949856422 
1124	 0.213464893236206 
1125	 0.213957461741578 
1126	 0.214433533855098 
1127	 0.214871817148716 
1128	 0.215330582700456 
1129	 0.21580137522976 
1130	 0.216274144621532 
1131	 0.216758932763505 
1132	 0.217222011331504 
1133	 0.217678991843209 
1134	 0.21813364033868 
1135	 0.218577032835761 
1136	 0.219005969757509 
1137	 0.219461463596607 
1138	 0.219901140704199 
1139	 0.220324829243214 
1140	 0.220743163517821 
1141	 0.221150316869533 
1142	 0.221533955008737 
1143	 0.221929042084116 
1144	 0.222318979193631 
1145	 0.222704660548278 
1146	 0.22308519983933 
1147	 0.223475733761809 
1148	 0.223881219643645 
1149	 0.224264861904344 
1150	 0.224639838649313 
1151	 0.22501835436258 
1152	 0.225375477444954 
1153	 0.225752489233896 
1154	 0.226121683611817 
1155	 0.226505947642087 
1156	 0.226863619576614 
1157	 0.227207091223835 
1158	 0.227549003827043 
1159	 0.227877719696774 
1160	 0.22821497538554 
1161	 0.228547729174673 
1162	 0.228887879806843 
1163	 0.229247592553967 
1164	 0.229584723704508 
1165	 0.229914474541408 
1166	 0.23024309949844 
1167	 0.230552526497675 
1168	 0.230850925005407 
1169	 0.231152593834095 
1170	 0.231451148805358 
1171	 0.231747180060694 
1172	 0.232046498207005 
1173	 0.232331848369426 
1174	 0.232612382499743 
1175	 0.232886206861691 
1176	 0.233148504389691 
1177	 0.233406955025174 
1178	 0.233652697713224 
1179	 0.233911324401545 
1180	 0.234173910089767 
1181	 0.23443095838244 
1182	 0.23469806295766 
1183	 0.234957161228969 
1184	 0.235208728963075 
1185	 0.235452906274526 
1186	 0.235689951702506 
1187	 0.235920923105094 
1188	 0.236147807438287 
1189	 0.236365949711924 
1190	 0.236579923834132 
1191	 0.236783641887409 
1192	 0.236999260743206 
1193	 0.237222730144352 
1194	 0.237431880123506 
1195	 0.237642619739604 
1196	 0.237848684146342 
1197	 0.238042431957305 
1198	 0.238232018821019 
1199	 0.23841896295206 
1200	 0.238604402860409 
1201	 0.238798001714267 
1202	 0.238990486058956 
1203	 0.239177383240677 
1204	 0.239384064056802 
1205	 0.23955511526582 
1206	 0.239688236134083 
1207	 0.239851250188312 
1208	 0.240011684130583 
1209	 0.240176936006763 
1210	 0.240366233261559 
1211	 0.240536962130782 
1212	 0.240705210072431 
1213	 0.240858027337775 
1214	 0.240992012787904 
1215	 0.24113189026536 
1216	 0.241268106627825 
1217	 0.24139053773735 
1218	 0.241526148604292 
1219	 0.241674099093143 
1220	 0.241807376570251 
1221	 0.241934789832548 
1222	 0.24206457313538 
1223	 0.242194602012594 
1224	 0.242316070931378 
1225	 0.242437988228842 
1226	 0.242551953113621 
1227	 0.24264188973448 
1228	 0.242753783897349 
1229	 0.242879467920595 
1230	 0.242997309651756 
1231	 0.243128513632325 
1232	 0.243248457039905 
1233	 0.243361079161191 
1234	 0.243458716360881 
1235	 0.243567336614808 
1236	 0.243682208977776 
1237	 0.243780042684127 
1238	 0.24387863090694 
1239	 0.243961818569186 
1240	 0.244011001787799 
1241	 0.244093679762913 
1242	 0.244184369893518 
1243	 0.244277357767246 
1244	 0.24439731646119 
1245	 0.244496836735537 
1246	 0.244584004193547 
1247	 0.244673089032133 
1248	 0.244756765677204 
1249	 0.244840887395087 
1250	 0.24492395966382 
1251	 0.245001565986403 
1252	 0.24507805575147 
1253	 0.245153534493619 
1254	 0.245218500076723 
1255	 0.24528223119051 
1256	 0.245334741273867 
1257	 0.245366286431951 
1258	 0.24541255049294 
1259	 0.245460507081766 
1260	 0.245507898959157 
1261	 0.245552024606227 
1262	 0.245607254693576 
1263	 0.245668768007524 
1264	 0.245727740940721 
1265	 0.245807088525672 
1266	 0.245871276865749 
1267	 0.245936467183472 
1268	 0.245967779367923 
1269	 0.246017051261286 
1270	 0.246055564064548 
1271	 0.246114809181116 
1272	 0.246188035340085 
1273	 0.246253438432901 
1274	 0.246315811640544 
1275	 0.246395430385184 
1276	 0.246471915614065 
1277	 0.246570222209994 
1278	 0.24669924409454 
1279	 0.246817674963393 
1280	 0.24695734061727 
1281	 0.247068239398425 
1282	 0.24717052760598 
1283	 0.24726199155375 
1284	 0.247329584855123 
1285	 0.247392886033426 
1286	 0.247479935433112 
1287	 0.247541161367384 
1288	 0.247603756463103 
1289	 0.247667317497831 
1290	 0.247726068963513 
1291	 0.247770001088148 
1292	 0.24782635172849 
1293	 0.247897598135047 
1294	 0.247946366945187 
1295	 0.24798795033643 
1296	 0.24802189107197 
1297	 0.24804601479743 
1298	 0.248057338269643 
1299	 0.248063685473225 
1300	 0.248059557124911 
1301	 0.248033276020322 
1302	 0.248011599026317 
1303	 0.247978497000309 
1304	 0.247950901469759 
1305	 0.24795183578938 
1306	 0.247943066984958 
1307	 0.247937736881362 
1308	 0.247951539213375 
1309	 0.247934333189369 
1310	 0.247893399063215 
1311	 0.247863296883274 
1312	 0.247821683113523 
1313	 0.247791208980914 
1314	 0.24776736490467 
1315	 0.247744230017653 
1316	 0.247719076884822 
1317	 0.247705756001085 
1318	 0.247693106378863 
1319	 0.247693252249971 
1320	 0.247716184653089 
1321	 0.247726449947781 
1322	 0.247733553868855 
1323	 0.247746695819052 
1324	 0.247761930540844 
1325	 0.247785080112053 
1326	 0.247814927398041 
1327	 0.24785022881869 
1328	 0.247888862967367 
1329	 0.247923316150441 
1330	 0.247972112844058 
1331	 0.248030359417042 
1332	 0.248098360690451 
1333	 0.248186725441778 
1334	 0.248251656927741 
1335	 0.248306039371956 
1336	 0.248377389929873 
1337	 0.248447495587393 
1338	 0.248514038262954 
1339	 0.248599841065915 
1340	 0.248670812110376 
1341	 0.248704658314878 
1342	 0.248777309664204 
1343	 0.248872439760279 
1344	 0.248965149950547 
1345	 0.249069445639351 
1346	 0.249177938209737 
1347	 0.249256646328771 
1348	 0.249340372038319 
1349	 0.24941821642291 
1350	 0.24949446175889 
1351	 0.249599438053074 
1352	 0.249727041186861 
1353	 0.249836662932853 
1354	 0.249964116799414 
1355	 0.250071905833226 
1356	 0.250165975350033 
1357	 0.250252938763602 
1358	 0.250328646265376 
1359	 0.250413748742359 
1360	 0.250495124210679 
1361	 0.250571061678266 
1362	 0.250657238531679 
1363	 0.250733137000748 
1364	 0.250792352017727 
1365	 0.250850443401344 
1366	 0.250909782900395 
1367	 0.250964393171809 
1368	 0.251006671002925 
1369	 0.25104331506246 
1370	 0.251073019895599 
1371	 0.251088518856925 
1372	 0.251095868347083 
1373	 0.251107623649073 
1374	 0.251111717443493 
1375	 0.251115023313915 
1376	 0.251103183737338 
1377	 0.251091825175769 
1378	 0.251054693289563 
1379	 0.251005248205655 
1380	 0.250933642132126 
1381	 0.250832923499872 
1382	 0.250729734970467 
1383	 0.250612896094231 
1384	 0.250484318503309 
1385	 0.25036506182102 
1386	 0.25020635328218 
1387	 0.250014374665732 
1388	 0.249817138955514 
1389	 0.249605004366101 
1390	 0.24936598859653 
1391	 0.249111503134068 
1392	 0.248844474419498 
1393	 0.248541721959331 
1394	 0.248223992055997 
1395	 0.247903875210734 
1396	 0.247574969991147 
1397	 0.247229894723473 
1398	 0.246870913471508 
1399	 0.246502244956391 
1400	 0.246114152585003 
1401	 0.245731836657892 
1402	 0.245343811311688 
1403	 0.24496362006577 
1404	 0.244583092400327 
1405	 0.244202557779771 
1406	 0.243821597827065 
1407	 0.243443862431501 
1408	 0.243058302214191 
1409	 0.242694548270572 
1410	 0.242332030949478 
1411	 0.241996621674745 
1412	 0.241677438281721 
1413	 0.241377235301302 
1414	 0.241113653087143 
1415	 0.240864764000557 
1416	 0.24063984875197 
1417	 0.240429479954677 
1418	 0.240218945484184 
1419	 0.240039105483376 
1420	 0.239869009574768 
1421	 0.239701781303467 
1422	 0.239559069392627 
1423	 0.239415254771597 
1424	 0.239278225584527 
1425	 0.239148061071721 
1426	 0.239031890142297 
1427	 0.238915614439892 
1428	 0.238824505300266 
1429	 0.238752217174473 
1430	 0.238690062700943 
1431	 0.238650212252309 
1432	 0.238607369252304 
1433	 0.238573656328974 
1434	 0.238543690487002 
1435	 0.238512928736484 
1436	 0.238492005224654 
1437	 0.238479738312522 
1438	 0.238471354790267 
1439	 0.238465829728632 
1440	 0.238477916039034 
1441	 0.238479527360529 
1442	 0.23849222119113 
1443	 0.238506495860436 
1444	 0.238502422546154 
1445	 0.23852261457334 
1446	 0.238551078054075 
1447	 0.238563805276941 
1448	 0.238592241216687 
1449	 0.238613637157509 
1450	 0.238623123282021 
1451	 0.23865025101441 
1452	 0.238687221724506 
1453	 0.238728123827096 
1454	 0.238778170767126 
1455	 0.238826656052236 
1456	 0.238885079098844 
1457	 0.238932267374071 
1458	 0.238973839586058 
1459	 0.239017690649366 
1460	 0.239052904203744 
1461	 0.239101276355446 
1462	 0.239148306457353 
1463	 0.239212247244323 
1464	 0.239289113577016 
1465	 0.2393694907918 
1466	 0.239470103550763 
1467	 0.239565488021281 
1468	 0.239657660467404 
1469	 0.239755174324556 
1470	 0.239851484807982 
1471	 0.239953146650208 
1472	 0.240073566091903 
1473	 0.24021057901892 
1474	 0.240368134790355 
1475	 0.240509416941778 
1476	 0.240636275166338 
1477	 0.240777808415894 
1478	 0.240915208232638 
1479	 0.241047792104028 
1480	 0.24118480212116 
1481	 0.241313708562204 
1482	 0.241440997092866 
1483	 0.241557104255218 
1484	 0.241687805575299 
1485	 0.241822224630222 
1486	 0.241964235315386 
1487	 0.242123168666525 
1488	 0.24226154183824 
1489	 0.242388490727325 
1490	 0.242523658034871 
1491	 0.242650057088941 
1492	 0.24278776524793 
1493	 0.242942743884931 
1494	 0.24309262488056 
1495	 0.243243792879224 
1496	 0.243388225379025 
1497	 0.243540321430827 
1498	 0.243667936823949 
1499	 0.243772283155014 
1500	 0.243887324968854 
1501	 0.243990122657859 
1502	 0.244101698591151 
1503	 0.244222751491102 
1504	 0.244343372328257 
1505	 0.244463700475585 
1506	 0.244574938756486 
1507	 0.24469369270978 
1508	 0.24481057302004 
1509	 0.244908372942553 
1510	 0.245027497709681 
1511	 0.245155693966751 
1512	 0.245272225451425 
1513	 0.245395909981866 
1514	 0.245518097433419 
1515	 0.245631954871098 
1516	 0.245747631511243 
1517	 0.245861280138443 
1518	 0.245981732728408 
1519	 0.246085457954682 
1520	 0.246175864218508 
1521	 0.246272487391882 
1522	 0.246366652332375 
1523	 0.246457616352503 
1524	 0.246547902726482 
1525	 0.246642782648356 
1526	 0.246734917272437 
1527	 0.246820576448414 
1528	 0.246909498868844 
1529	 0.246993902629672 
1530	 0.247068562601663 
1531	 0.24714893401807 
1532	 0.247238367966376 
1533	 0.247314012678214 
1534	 0.247367056777825 
1535	 0.247446575554578 
1536	 0.247535142327162 
1537	 0.247623683546717 
1538	 0.247744191517753 
1539	 0.24783385419477 
1540	 0.247902381036629 
1541	 0.247970280849785 
1542	 0.248021466724435 
1543	 0.248079534426007 
1544	 0.248139807894092 
1545	 0.248199965051887 
1546	 0.248267175437161 
1547	 0.248311400203937 
1548	 0.248378896804383 
1549	 0.24845109822958 
1550	 0.248514495012358 
1551	 0.248596478521892 
1552	 0.248672660818882 
1553	 0.248721801313706 
1554	 0.248767719432567 
1555	 0.248823440688976 
1556	 0.248872286962628 
1557	 0.248916911025479 
1558	 0.248967266834486 
1559	 0.249016999321565 
1560	 0.249066655374553 
1561	 0.249114805038636 
1562	 0.249161207714929 
1563	 0.249205404652215 
1564	 0.249251593396579 
1565	 0.249291123427605 
1566	 0.249343709211978 
1567	 0.24940600594154 
1568	 0.249469348734543 
1569	 0.249546373966165 
1570	 0.24960262428484 
1571	 0.24965112664909 
1572	 0.249701447195066 
1573	 0.249738280297916 
1574	 0.249780457368308 
1575	 0.249832616965448 
1576	 0.249872871591586 
1577	 0.249909216044379 
1578	 0.249940298922259 
1579	 0.24995823494446 
1580	 0.249986086657786 
1581	 0.25001857960338 
1582	 0.250039804433695 
1583	 0.250054573680375 
1584	 0.250081739885887 
1585	 0.250099210705011 
1586	 0.250132934436548 
1587	 0.250188749084741 
1588	 0.250237650519051 
1589	 0.250289647334255 
1590	 0.250337065420029 
1591	 0.250391536642763 
1592	 0.250435405011194 
1593	 0.25046822121339 
1594	 0.250505626935372 
1595	 0.25053088541114 
1596	 0.250568322370041 
1597	 0.250630217733759 
1598	 0.250665055411615 
1599	 0.250684602200801 
1600	 0.250713108602796 
1601	 0.250723970987797 
1602	 0.250743965887495 
1603	 0.250786153840144 
1604	 0.250815766870879 
1605	 0.25083404991585 
1606	 0.250857292559832 
1607	 0.250885909650583 
1608	 0.250901302009007 
1609	 0.250925621778285 
1610	 0.250943958128231 
1611	 0.250960362621605 
1612	 0.250999468934832 
1613	 0.251049432492023 
1614	 0.25110420391688 
1615	 0.251141261702819 
1616	 0.251175546862436 
1617	 0.251194678860633 
1618	 0.251177916491864 
1619	 0.251189053530456 
1620	 0.25120086670877 
1621	 0.251219161283927 
1622	 0.251250700337368 
1623	 0.251271086463807 
1624	 0.251291003742821 
1625	 0.251300538838472 
1626	 0.251299149978569 
1627	 0.251307522331968 
1628	 0.251315143536135 
1629	 0.251322502436024 
1630	 0.251340351976213 
1631	 0.251337312861836 
1632	 0.251318277254695 
1633	 0.251312121004309 
1634	 0.25129918387829 
1635	 0.251296774854581 
1636	 0.251305994284784 
1637	 0.251308063985695 
1638	 0.251304933646082 
1639	 0.251315397202481 
1640	 0.251329946954819 
1641	 0.251351003395097 
1642	 0.251387537342055 
1643	 0.251410058986877 
1644	 0.25142752094599 
1645	 0.251451427985681 
1646	 0.251471487805635 
1647	 0.251498817100246 
1648	 0.251540370874165 
1649	 0.251563621558683 
1650	 0.251582797828206 
1651	 0.251595846680341 
1652	 0.25159101856558 
1653	 0.251604325914252 
1654	 0.251623427004586 
1655	 0.251640563026489 
1656	 0.251666716628926 
1657	 0.2516847787182 
1658	 0.251698548649539 
1659	 0.251709189329101 
1660	 0.25172557097937 
1661	 0.251720815644112 
1662	 0.251697512330891 
1663	 0.251683672492904 
1664	 0.251657452260442 
1665	 0.251641996155373 
1666	 0.251632902669512 
1667	 0.251629796887031 
1668	 0.251632193955413 
1669	 0.251632235421493 
1670	 0.251645525397231 
1671	 0.251641771630383 
1672	 0.251619270624663 
1673	 0.251615824077112 
1674	 0.251618865697279 
1675	 0.251614047999366 
1676	 0.251621248164174 
1677	 0.251611545926447 
1678	 0.251580150163854 
1679	 0.25156376143496 
1680	 0.251552096530605 
1681	 0.251534241645955 
1682	 0.251515122812606 
1683	 0.251500399070992 
1684	 0.251476519545331 
1685	 0.251471012920892 
1686	 0.251478669031189 
1687	 0.251488063794548 
1688	 0.251508477484698 
1689	 0.251524960571294 
1690	 0.251548286139874 
1691	 0.251561949859235 
1692	 0.251570104565384 
1693	 0.251578981692291 
1694	 0.25158044115094 
1695	 0.2515893102971 
1696	 0.251611455336758 
1697	 0.251613907768894 
1698	 0.251608591957478 
1699	 0.251600258963157 
1700	 0.251584317718275 
1701	 0.251557884688377 
1702	 0.251531226843029 
1703	 0.251489025741602 
1704	 0.251413858010722 
1705	 0.251368052312652 
1706	 0.251324470145308 
1707	 0.251292769609641 
1708	 0.251286228968506 
1709	 0.251262791875848 
1710	 0.251223869884078 
1711	 0.251215502051062 
1712	 0.251223088006215 
1713	 0.251220773274182 
1714	 0.251236038662267 
1715	 0.251242328541408 
1716	 0.251236589648264 
1717	 0.251230506624709 
1718	 0.251244634109107 
1719	 0.25121353434463 
1720	 0.251146386318277 
1721	 0.251096078946944 
1722	 0.251011425816388 
1723	 0.250982678047367 
1724	 0.250993939003712 
1725	 0.250980197962222 
1726	 0.250989263598119 
1727	 0.250974721967038 
1728	 0.250936607725527 
1729	 0.250904716960693 
1730	 0.25087325342501 
1731	 0.250832571775765 
1732	 0.250784751264694 
1733	 0.250735171057269 
1734	 0.250685274617618 
1735	 0.250623986572299 
1736	 0.250548119916283 
1737	 0.250487188249461 
1738	 0.25042108344926 
1739	 0.250367699933524 
1740	 0.250338785815132 
1741	 0.250274478331025 
1742	 0.250193778284694 
1743	 0.250126101847799 
1744	 0.250048070605637 
1745	 0.249970971697018 
1746	 0.249906290857073 
1747	 0.249827201904626 
1748	 0.249748069015556 
1749	 0.249686621005239 
1750	 0.249594641031188 
1751	 0.249498246928036 
1752	 0.249423186171782 
1753	 0.249338290612558 
1754	 0.249283929972906 
1755	 0.249260058923862 
1756	 0.249211335837301 
1757	 0.249171508475754 
1758	 0.249132530203977 
1759	 0.249073730752692 
1760	 0.249017733715381 
1761	 0.24895139978355 
1762	 0.24889959721251 
1763	 0.248856643797422 
1764	 0.248797103104406 
1765	 0.24875143268021 
1766	 0.248697342387605 
1767	 0.248618382244178 
1768	 0.248559696822778 
1769	 0.248515718878122 
1770	 0.248476651859423 
1771	 0.248463623183841 
1772	 0.248438768812248 
1773	 0.248388679461141 
1774	 0.24835141297928 
1775	 0.248289980642125 
1776	 0.24822055735457 
1777	 0.248181691509374 
1778	 0.24813538727101 
1779	 0.248116257934408 
1780	 0.248106847070642 
1781	 0.2480834233183 
1782	 0.248074378040798 
1783	 0.248050522036047 
1784	 0.24802796127252 
1785	 0.24800655605096 
1786	 0.247970527594893 
1787	 0.24790094619277 
1788	 0.247881958261794 
1789	 0.247896199267226 
1790	 0.2478993354334 
1791	 0.247950016917882 
1792	 0.24794053945976 
1793	 0.247865843607527 
1794	 0.247848718465667 
1795	 0.247840670013226 
1796	 0.247827656675497 
1797	 0.247852626856334 
1798	 0.247828025246369 
1799	 0.247741542032188 
1800	 0.247719908659436 
1801	 0.244289616360528 
1802	 0.244288001154775 
1803	 0.244287860294211 
1804	 0.244294690005252 
1805	 0.244296636185339 
1806	 0.244326233883471 
1807	 0.244339861257142 
1808	 0.244353189346804 
1809	 0.244382840365119 
1810	 0.244399719366288 
1811	 0.244406300035624 
1812	 0.24439862548969 
1813	 0.244413719734234 
1814	 0.244390371954967 
1815	 0.24439660086704 
1816	 0.244443397126276 
1817	 0.244463826918538 
1818	 0.24449604159533 
1819	 0.244511474412196 
1820	 0.244519138214709 
1821	 0.244502335981906 
1822	 0.244480062594931 
1823	 0.244464517872679 
1824	 0.244462504261336 
1825	 0.24447455386913 
1826	 0.244491228586167 
1827	 0.244483458593914 
1828	 0.244480572552267 
1829	 0.244460226119875 
1830	 0.244448293148906 
1831	 0.244431942911658 
1832	 0.244452113179003 
1833	 0.244448236128885 
1834	 0.244436638129868 
1835	 0.244428077022341 
1836	 0.244403299657669 
1837	 0.244399850161822 
1838	 0.244371018035844 
1839	 0.244340054230634 
1840	 0.244301675565175 
1841	 0.244276760244383 
1842	 0.244218746413684 
1843	 0.244182016624062 
1844	 0.244166566325288 
1845	 0.244115280561048 
1846	 0.244033268874053 
1847	 0.24396930597758 
1848	 0.243887279327521 
1849	 0.243781156634916 
1850	 0.243679176036908 
1851	 0.243594262669245 
1852	 0.24347420699543 
1853	 0.243336250349701 
1854	 0.243201422057539 
1855	 0.243073513162223 
1856	 0.242955688496754 
1857	 0.242838840280744 
1858	 0.242721177787916 
1859	 0.242599199615714 
1860	 0.242464601472665 
1861	 0.242326512769716 
1862	 0.242163939613496 
1863	 0.241966021691893 
1864	 0.241729619798546 
1865	 0.241463624243348 
1866	 0.241163910323245 
1867	 0.240841520020498 
1868	 0.240510708053333 
1869	 0.240147828978799 
1870	 0.239752583213265 
1871	 0.239305363854928 
1872	 0.238824136114268 
1873	 0.238300088410497 
1874	 0.237726698261843 
1875	 0.237086065989712 
1876	 0.236438702107386 
1877	 0.235759612267759 
1878	 0.235017790765895 
1879	 0.234242512448315 
1880	 0.23340806057026 
1881	 0.232516467663197 
1882	 0.231573077320712 
1883	 0.23057507621434 
1884	 0.229525020505324 
1885	 0.228438821595911 
1886	 0.227274326340361 
1887	 0.226045393838739 
1888	 0.224771615293762 
1889	 0.223415795931659 
1890	 0.222032258113097 
1891	 0.220651205319732 
1892	 0.219244844897489 
1893	 0.217810686349831 
1894	 0.216363877645592 
1895	 0.214905625906592 
1896	 0.213379233690905 
1897	 0.211877232026205 
1898	 0.210377283036541 
1899	 0.208896091447769 
1900	 0.207480800799263 
1901	 0.206101420142059 
1902	 0.204757041934127 
1903	 0.203460381107653 
1904	 0.202200857062589 
1905	 0.200971583027161 
1906	 0.199785693747099 
1907	 0.198641229120988 
1908	 0.197577527958098 
1909	 0.196583159815447 
1910	 0.195657079048943 
1911	 0.194827970609344 
1912	 0.19406969034555 
1913	 0.193338443976709 
1914	 0.192651950805355 
1915	 0.192013880538099 
1916	 0.19142403351227 
1917	 0.190862117007953 
1918	 0.190360552403941 
1919	 0.189911924184727 
1920	 0.189496928997691 
1921	 0.189132854010729 
1922	 0.188813005284442 
1923	 0.188521604635424 
1924	 0.188274597106653 
1925	 0.188078439601223 
1926	 0.187908571135314 
1927	 0.187769962164478 
1928	 0.187668841142699 
1929	 0.187618820372023 
1930	 0.187587822437167 
1931	 0.187574619597834 
1932	 0.187594604827265 
1933	 0.187632298061593 
1934	 0.187684306561751 
1935	 0.187757903820346 
1936	 0.187855982088303 
1937	 0.187978173674407 
1938	 0.188111606095829 
1939	 0.188280419197998 
1940	 0.188495465679196 
1941	 0.188717962345386 
1942	 0.188934452777324 
1943	 0.189141386143733 
1944	 0.189340378600293 
1945	 0.189556229538362 
1946	 0.189792588131643 
1947	 0.19005242945351 
1948	 0.190316645479134 
1949	 0.190602876649773 
1950	 0.190887579156523 
1951	 0.19117404753556 
1952	 0.191472681599065 
1953	 0.191792305833925 
1954	 0.192104752521502 
1955	 0.192427154276589 
1956	 0.192780981190704 
1957	 0.193132138259803 
1958	 0.193487017902998 
1959	 0.193848123641668 
1960	 0.194218545513227 
1961	 0.194595364143864 
1962	 0.19498057592583 
1963	 0.195372023231699 
1964	 0.195777178884628 
1965	 0.196179757918132 
1966	 0.196584766436008 
1967	 0.196971676174844 
1968	 0.197361542066044 
1969	 0.19773903368048 
1970	 0.198134321373875 
1971	 0.198535807530399 
1972	 0.198940513851865 
1973	 0.199356837746752 
1974	 0.199767706794996 
1975	 0.200179414657077 
1976	 0.200587632109151 
1977	 0.201005512224027 
1978	 0.201416026382035 
1979	 0.201802011821982 
1980	 0.202199745944061 
1981	 0.202606946605407 
1982	 0.203006456438931 
1983	 0.203419927310703 
1984	 0.203871989110732 
1985	 0.204287728567453 
1986	 0.204681390908875 
1987	 0.205088920030577 
1988	 0.205493960784868 
1989	 0.205886793994675 
1990	 0.206308599010937 
1991	 0.206726207063444 
1992	 0.207122259868457 
1993	 0.207502038730865 
1994	 0.207896370772972 
1995	 0.208274734113784 
1996	 0.208667640495418 
1997	 0.209087909137161 
1998	 0.20948720258556 
1999	 0.209871598567502 
2000	 0.210266154578052 
2001	 0.210672940723591 
2002	 0.211051986379744 
2003	 0.211442409270954 
2004	 0.211833687615906 
2005	 0.212198978634195 
2006	 0.212536705503582 
2007	 0.212892627243064 
2008	 0.213228955170788 
2009	 0.213592958805163 
2010	 0.213981829262376 
2011	 0.214360164901747 
2012	 0.214748781476441 
2013	 0.215128488251098 
2014	 0.215498213266943 
2015	 0.21588184129095 
2016	 0.216247883728158 
2017	 0.216596851754487 
2018	 0.216943295979635 
2019	 0.21727667843697 
2020	 0.217606268581779 
2021	 0.217924287358575 
2022	 0.218249480628759 
2023	 0.218569664307518 
2024	 0.218893301795163 
2025	 0.21922093132305 
2026	 0.219551970571131 
2027	 0.219895550394018 
2028	 0.220215988011707 
2029	 0.220538781404372 
2030	 0.220865186588653 
2031	 0.221175419988601 
2032	 0.221469766992716 
2033	 0.221771532877482 
2034	 0.222084282001775 
2035	 0.222365971884916 
2036	 0.222622915906324 
2037	 0.222894756201466 
2038	 0.22315169161895 
2039	 0.223410596261822 
2040	 0.223689267368387 
2041	 0.223955236338255 
2042	 0.224186230207588 
2043	 0.224422599042598 
2044	 0.224671224219048 
2045	 0.224915641313849 
2046	 0.22517643761301 
2047	 0.225470102103712 
2048	 0.225727734039336 
2049	 0.225979112323273 
2050	 0.22622257179844 
2051	 0.226447727328715 
2052	 0.226670333649248 
2053	 0.226898050061502 
2054	 0.227105698177791 
2055	 0.227289120502923 
2056	 0.227471615070756 
2057	 0.227664000435178 
2058	 0.227843711517512 
2059	 0.228049446581383 
2060	 0.228277911075718 
2061	 0.228493976284757 
2062	 0.228719321901954 
2063	 0.22893512183428 
2064	 0.229140244499053 
2065	 0.229355443164592 
2066	 0.229579127547192 
2067	 0.229792094566375 
2068	 0.230014462648663 
2069	 0.230220851443417 
2070	 0.230406119377786 
2071	 0.230562100143049 
2072	 0.230746742336526 
2073	 0.230920305042114 
2074	 0.231112553291948 
2075	 0.231339615808444 
2076	 0.231533986289235 
2077	 0.231713882215786 
2078	 0.231899252094717 
2079	 0.232077106405831 
2080	 0.232252980720984 
2081	 0.232420438444059 
2082	 0.23260291923845 
2083	 0.232790727123049 
2084	 0.232982954523333 
2085	 0.233157618579781 
2086	 0.233339309778098 
2087	 0.23350728100695 
2088	 0.233643615014425 
2089	 0.233810027309067 
2090	 0.233991412814938 
2091	 0.234168698718478 
2092	 0.234357125789937 
2093	 0.23453245393807 
2094	 0.234700078360418 
2095	 0.234872792940649 
2096	 0.23503480560453 
2097	 0.235209345571506 
2098	 0.235397758281513 
2099	 0.235586228530036 
2100	 0.235759703287207 
2101	 0.235937747631319 
2102	 0.236090775260555 
2103	 0.236211533129773 
2104	 0.236361284006884 
2105	 0.236498440922945 
2106	 0.236665453712284 
2107	 0.236857207372378 
2108	 0.237050018865745 
2109	 0.237274086022076 
2110	 0.237471392887071 
2111	 0.237643142441559 
2112	 0.237844199039092 
2113	 0.238055389146051 
2114	 0.23826203461578 
2115	 0.238459505301452 
2116	 0.238680532004969 
2117	 0.238871636183963 
2118	 0.239024481555983 
2119	 0.239204426420247 
2120	 0.239395650749914 
2121	 0.239578938827148 
2122	 0.239759747274769 
2123	 0.239942085511988 
2124	 0.240132759458508 
2125	 0.240307598342299 
2126	 0.240475662351006 
2127	 0.240641502788515 
2128	 0.240801125223009 
2129	 0.240949373740033 
2130	 0.24110352622195 
2131	 0.241236139577797 
2132	 0.241349202069913 
2133	 0.241445340261431 
2134	 0.241521536237916 
2135	 0.24157749495245 
2136	 0.241618683808636 
2137	 0.24162322269103 
2138	 0.24164976577435 
2139	 0.241675844773372 
2140	 0.24169253426582 
2141	 0.241718552514633 
2142	 0.241728868597252 
2143	 0.241724069510638 
2144	 0.241709833834321 
2145	 0.241693299008472 
2146	 0.24166225556558 
2147	 0.241599985779251 
2148	 0.241555888601007 
2149	 0.241498512846429 
2150	 0.24143296299679 
2151	 0.241358113826785 
2152	 0.241284758945038 
2153	 0.241189901224369 
2154	 0.241080963523135 
2155	 0.240961526086994 
2156	 0.240818634577082 
2157	 0.240684671568909 
2158	 0.240546684593623 
2159	 0.240400904049991 
2160	 0.240234457538028 
2161	 0.240099331678117 
2162	 0.239972248821168 
2163	 0.239848596273202 
2164	 0.239762277192024 
2165	 0.239663917784581 
2166	 0.239534712993702 
2167	 0.239385496769956 
2168	 0.239230956922389 
2169	 0.2390499912405 
2170	 0.238882069904987 
2171	 0.238704128445676 
2172	 0.238543437207738 
2173	 0.238386877335175 
2174	 0.238238879541962 
2175	 0.238116124935641 
2176	 0.23797113212284 
2177	 0.237811862546633 
2178	 0.23766482204513 
2179	 0.237502334373478 
2180	 0.23736179562569 
2181	 0.237269992489495 
2182	 0.237137539433846 
2183	 0.236998183538331 
2184	 0.236843772357049 
2185	 0.236674134553974 
2186	 0.236467511125114 
2187	 0.236280776623685 
2188	 0.236076599826178 
2189	 0.23591547557234 
2190	 0.235764709615736 
2191	 0.235633365022949 
2192	 0.235536561565453 
2193	 0.235441511657039 
2194	 0.235353675145582 
2195	 0.235277105566401 
2196	 0.235218707004491 
2197	 0.235167701733778 
2198	 0.235147824438328 
2199	 0.235096444167284 
2200	 0.235035566987048 
2201	 0.234975347961822 
2202	 0.234892345307447 
2203	 0.234804689361252 
2204	 0.234750835866523 
2205	 0.234722033618678 
2206	 0.234683841515752 
2207	 0.234658639278176 
2208	 0.234629145180735 
2209	 0.234594753265998 
2210	 0.23456899630093 
2211	 0.234541238984577 
2212	 0.234535498222688 
2213	 0.234541837976428 
2214	 0.234552929573952 
2215	 0.234592755658754 
2216	 0.234617313671548 
2217	 0.234650878299818 
2218	 0.234658019067149 
2219	 0.234641234263978 
2220	 0.234629804500099 
2221	 0.234604675833833 
2222	 0.234577547215875 
2223	 0.234549061754347 
2224	 0.234549418129525 
2225	 0.234532525469276 
2226	 0.234518746306243 
2227	 0.234482835338651 
2228	 0.234434387585343 
2229	 0.234390593650711 
2230	 0.234319231263483 
2231	 0.23428361176541 
2232	 0.234268517445498 
2233	 0.234252763897059 
2234	 0.234251803830099 
2235	 0.234244469579757 
2236	 0.234236308512548 
2237	 0.234236473260357 
2238	 0.234269590967301 
2239	 0.234250452144131 
2240	 0.234195862149608 
2241	 0.234160786759069 
2242	 0.234081277324825 
2243	 0.234038383200785 
2244	 0.234049137708706 
2245	 0.234037223716571 
2246	 0.233997994780474 
2247	 0.233959539361389 
2248	 0.233934044331574 
2249	 0.233901372102011 
2250	 0.233873587855174 
2251	 0.233873383889217 
2252	 0.233833705700399 
2253	 0.233757966518462 
2254	 0.233707871660502 
2255	 0.233655577404049 
2256	 0.233614315664209 
2257	 0.233577519108641 
2258	 0.233555583243134 
2259	 0.233540806040944 
2260	 0.233534424117027 
2261	 0.233561730949712 
2262	 0.233561182064076 
2263	 0.233537115307698 
2264	 0.233537511682605 
2265	 0.233552896147343 
2266	 0.233549559242467 
2267	 0.233558295918837 
2268	 0.233556195712237 
2269	 0.233547233812367 
2270	 0.233486865810907 
2271	 0.233463349206523 
2272	 0.23346891010907 
2273	 0.233473780987955 
2274	 0.233491636149164 
2275	 0.233499104898057 
2276	 0.233511138857904 
2277	 0.233513428914655 
2278	 0.233499067047027 
2279	 0.23350747285096 
2280	 0.233534366034676 
2281	 0.233542365443649 
2282	 0.2335433738874 
2283	 0.233558599600875 
2284	 0.233564024478249 
2285	 0.233583598182842 
2286	 0.23364024232122 
2287	 0.233661657886647 
2288	 0.233665526392868 
2289	 0.233669000193593 
2290	 0.233652782429771 
2291	 0.233649988753585 
2292	 0.233657620330233 
2293	 0.233657579647109 
2294	 0.233661614474697 
2295	 0.233647829006055 
2296	 0.233611916077674 
2297	 0.23359699210835 
2298	 0.233545684200973 
2299	 0.233533332101173 
2300	 0.233558665863181 
2301	 0.233542810300139 
2302	 0.233539325837122 
2303	 0.233570379510547 
2304	 0.233582497249978 
2305	 0.233586113664476 
2306	 0.233570008113242 
2307	 0.233544948463536 
2308	 0.233507292751821 
2309	 0.233454040527188 
2310	 0.233375944589091 
2311	 0.233264201021422 
2312	 0.233190563231589 
2313	 0.233105902729511 
2314	 0.233033110974795 
2315	 0.23301511057268 
2316	 0.232944275968146 
2317	 0.232803472603297 
2318	 0.232743381176449 
2319	 0.232714201004728 
2320	 0.232669557362008 
2321	 0.232662168006423 
2322	 0.232649117148834 
2323	 0.232627852062233 
2324	 0.232605297337281 
2325	 0.232590011075319 
2326	 0.232575009322493 
2327	 0.23254988602644 
2328	 0.23251651499475 
2329	 0.232536699444731 
2330	 0.232523191725644 
2331	 0.232399468990675 
2332	 0.232293519388843 
2333	 0.232200220980038 
2334	 0.23212768507042 
2335	 0.232097682015847 
2336	 0.232053636401028 
2337	 0.232021424240854 
2338	 0.231961685010516 
2339	 0.231932739798389 
2340	 0.231957362444487 
2341	 0.231906424668946 
2342	 0.231843136583875 
2343	 0.231764122919502 
2344	 0.231616371125233 
2345	 0.231469959236224 
2346	 0.231272520338322 
2347	 0.231111894539117 
2348	 0.230956631294895 
2349	 0.230828479283826 
2350	 0.230702947847471 
2351	 0.230607705800419 
2352	 0.230560022102362 
2353	 0.230458945318146 
2354	 0.230366285653714 
2355	 0.230256459385571 
2356	 0.23011641675265 
2357	 0.229955015351629 
2358	 0.229757683683254 
2359	 0.229624527982883 
2360	 0.229516416393508 
2361	 0.229357164452299 
2362	 0.229221834277605 
2363	 0.229060402159322 
2364	 0.22882104144955 
2365	 0.228640395197019 
2366	 0.228492598857811 
2367	 0.228346406525429 
2368	 0.228218154142731 
2369	 0.228052585657189 
2370	 0.227878784556535 
2371	 0.227738583829815 
2372	 0.227513116354607 
2373	 0.227310653474145 
2374	 0.22711580171855 
2375	 0.226903454881523 
2376	 0.226703710409573 
2377	 0.226506207897106 
2378	 0.226310008229217 
2379	 0.226047472295729 
2380	 0.225841771492864 
2381	 0.22570897954047 
2382	 0.225556446718671 
2383	 0.225453579930252 
2384	 0.225303569992131 
2385	 0.225048251509946 
2386	 0.224803289162671 
2387	 0.224539482576971 
2388	 0.224226064040397 
2389	 0.223943448187673 
2390	 0.22367059544823 
2391	 0.223388960575834 
2392	 0.223163559458439 
2393	 0.222974445573337 
2394	 0.222768255474772 
2395	 0.222568365004681 
2396	 0.22235667194025 
2397	 0.222092748798402 
2398	 0.221854593140588 
2399	 0.221605637613074 
2400	 0.221277080365206 
2401	 0.221006750248462 
2402	 0.220764845727958 
2403	 0.220504810001847 
2404	 0.22028315191511 
2405	 0.219984765989986 
2406	 0.219595123942255 
2407	 0.219312210513752 
2408	 0.219101435729216 
2409	 0.218849417296522 
2410	 0.218644779637774 
2411	 0.218402620098584 
2412	 0.218105481988217 
2413	 0.217784731572585 
2414	 0.217371029936215 
2415	 0.217019639428507 
2416	 0.216738998367348 
2417	 0.216491019100057 
2418	 0.216222696285001 
2419	 0.216053584809824 
2420	 0.215814860378076 
2421	 0.215509435815614 
2422	 0.21529675482017 
2423	 0.215120181736627 
2424	 0.214897340443223 
2425	 0.214694936992643 
2426	 0.214441401306808 
2427	 0.214179586109927 
2428	 0.213908274288121 
2429	 0.213564292049772 
2430	 0.213242212827709 
2431	 0.212899987748154 
2432	 0.212611154958878 
2433	 0.212378794521182 
2434	 0.212119520335107 
2435	 0.211896630756719 
2436	 0.211639834277662 
2437	 0.211392411584734 
2438	 0.211063018400277 
2439	 0.210591344126101 
2440	 0.21028018146064 
2441	 0.209983698246953 
2442	 0.209696184462686 
2443	 0.209577815278266 
2444	 0.209408623439531 
2445	 0.209136518291454 
2446	 0.208934198763967 
2447	 0.208890700842833 
2448	 0.208559330852227 
2449	 0.208061392719494 
2450	 0.207639842096528 
2451	 0.207065570882429 
2452	 0.20665686789116 
2453	 0.206387317318971 
2454	 0.206067225791708 
2455	 0.205762581556285 
2456	 0.205422946383463 
2457	 0.205042421098678 
2458	 0.204710025220489 
2459	 0.204394140139342 
2460	 0.204081297804485 
2461	 0.203819549185613 
2462	 0.203535109785219 
2463	 0.203240007607479 
2464	 0.202961594509153 
2465	 0.202635486365022 
2466	 0.202415846500879 
2467	 0.202345215742023 
2468	 0.202088071416717 
2469	 0.201752268895823 
2470	 0.201419610287883 
2471	 0.201079644472481 
2472	 0.200773908517863 
2473	 0.2005996212936 
2474	 0.200454963065992 
2475	 0.200179261842794 
2476	 0.199970424368705 
2477	 0.199687649182632 
2478	 0.19921910776226 
2479	 0.198901386148395 
2480	 0.198570207895424 
2481	 0.198326960535052 
2482	 0.198220555504743 
2483	 0.197911103953771 
2484	 0.19752355525446 
2485	 0.197102882944997 
2486	 0.196700951351082 
2487	 0.196462125178046 
2488	 0.19630511035951 
2489	 0.196233693035031 
2490	 0.196061196882971 
2491	 0.195662787185212 
2492	 0.195443725519132 
2493	 0.195303852684531 
2494	 0.195251219358856 
2495	 0.195378400902159 
2496	 0.195335949172666 
2497	 0.195206567756869 
2498	 0.195039940821272 
2499	 0.194940851383756 
2500	 0.194966801899337 
