Wavelength	MM400005.asd
350	 4.50250509873713E-02 
351	 5.35960281929789E-02 
352	 4.55358147372932E-02 
353	 2.92107563805624E-02 
354	 3.87928066708024E-02 
355	 4.08600199439267E-02 
356	 3.91484647174065E-02 
357	 4.31714126675603E-02 
358	 4.68355226864304E-02 
359	 4.31304506439652E-02 
360	 0.038581823905463 
361	 4.57272600313885E-02 
362	 4.42178418937455E-02 
363	 4.15420244239464E-02 
364	 4.20436252343083E-02 
365	 3.98200799038413E-02 
366	 3.86064605468591E-02 
367	 0.039454206382194 
368	 4.18290782021461E-02 
369	 4.26352067038694E-02 
370	 4.20461134447045E-02 
371	 4.13451946549834E-02 
372	 0.042249967452554 
373	 4.35266507559052E-02 
374	 4.32845061558325E-02 
375	 4.18942487390509E-02 
376	 4.38539938695603E-02 
377	 4.22869740473312E-02 
378	 4.05353911565073E-02 
379	 0.043255628600766 
380	 4.76452635352451E-02 
381	 4.76367311796818E-02 
382	 4.46332365572973E-02 
383	 4.52526011355356E-02 
384	 4.54283785496692E-02 
385	 4.46920657773899E-02 
386	 0.044043397522168 
387	 4.65413130066479E-02 
388	 4.68322151065542E-02 
389	 4.54540698283271E-02 
390	 4.46461355472543E-02 
391	 4.44183938222794E-02 
392	 4.51557517783228E-02 
393	 4.64629539817117E-02 
394	 4.72789286065172E-02 
395	 4.57534233240357E-02 
396	 4.55646799082185E-02 
397	 4.81710454534232E-02 
398	 4.86000258250431E-02 
399	 4.79301805931038E-02 
400	 4.77902928857569E-02 
401	 4.93043402549428E-02 
402	 0.049175246237627 
403	 4.86605982881121E-02 
404	 4.86559702248979E-02 
405	 4.93325466010427E-02 
406	 4.96328831344472E-02 
407	 4.99584198786708E-02 
408	 5.02191229532082E-02 
409	 4.79021609519841E-02 
410	 4.76872178485927E-02 
411	 4.90712647816382E-02 
412	 4.94082573958223E-02 
413	 5.02201648969462E-02 
414	 5.03124463197151E-02 
415	 4.97071965279462E-02 
416	 5.02098774148205E-02 
417	 5.02755969263793E-02 
418	 5.02743276042054E-02 
419	 5.06986692416402E-02 
420	 5.09506860749258E-02 
421	 5.04880247433786E-02 
422	 4.98605784160407E-02 
423	 5.01689351719062E-02 
424	 5.04785956220252E-02 
425	 5.05065056078446E-02 
426	 0.050192775130718 
427	 4.96029857103077E-02 
428	 4.96660780479784E-02 
429	 4.99373260788919E-02 
430	 4.97749321390014E-02 
431	 5.00673048157993E-02 
432	 0.05030483395678 
433	 5.02990544889589E-02 
434	 5.02325716933986E-02 
435	 5.01741503738484E-02 
436	 5.00190634750515E-02 
437	 0.049745220577753 
438	 4.95953388496104E-02 
439	 4.98501173936935E-02 
440	 5.02398867407646E-02 
441	 5.02712873563004E-02 
442	 5.01252302665302E-02 
443	 5.00991569774547E-02 
444	 5.02651586378833E-02 
445	 5.03642983845694E-02 
446	 5.02009670105344E-02 
447	 0.050106035717979 
448	 5.03459560885862E-02 
449	 5.01609587143218E-02 
450	 5.03697793463193E-02 
451	 5.08739820911729E-02 
452	 5.08107284807386E-02 
453	 5.06709622018515E-02 
454	 5.05387616276824E-02 
455	 5.04876682029851E-02 
456	 5.07870655546208E-02 
457	 5.08071591060364E-02 
458	 5.06186528980208E-02 
459	 5.05873640545993E-02 
460	 5.05956632213283E-02 
461	 5.05817534761918E-02 
462	 5.05704163067235E-02 
463	 5.07055019289456E-02 
464	 5.07550435233347E-02 
465	 5.07468871279367E-02 
466	 5.07625544230417E-02 
467	 5.07785033576095E-02 
468	 5.07769360887399E-02 
469	 5.08122613880036E-02 
470	 5.09719220900719E-02 
471	 5.08994781005666E-02 
472	 5.08349215104954E-02 
473	 5.09192768202742E-02 
474	 5.08050293686777E-02 
475	 5.07868091508316E-02 
476	 5.07748932251673E-02 
477	 5.05925579511643E-02 
478	 5.07183268103409E-02 
479	 5.08538960908567E-02 
480	 5.08694657486986E-02 
481	 5.09609157268299E-02 
482	 0.051054098918433 
483	 5.10549595250032E-02 
484	 5.09673357469727E-02 
485	 0.051239999584038 
486	 5.12852381027914E-02 
487	 5.10852223200636E-02 
488	 5.10891115290657E-02 
489	 0.050918181674187 
490	 0.050825274659896 
491	 5.09732288350619E-02 
492	 0.051084579652278 
493	 0.050947181868183 
494	 5.08271868988751E-02 
495	 5.11116826684395E-02 
496	 5.11528845241953E-02 
497	 5.10771820140383E-02 
498	 0.051044304733911 
499	 5.11536504680483E-02 
500	 5.11268783165979E-02 
501	 5.10532838616376E-02 
502	 5.10951458728603E-02 
503	 5.12405449537616E-02 
504	 5.11760798241397E-02 
505	 5.10029567591848E-02 
506	 5.11781634543367E-02 
507	 5.13578248448646E-02 
508	 5.13732931988507E-02 
509	 5.12099437289546E-02 
510	 5.11412771953621E-02 
511	 5.11603865133455E-02 
512	 5.11984041005256E-02 
513	 5.11666510994199E-02 
514	 5.11825118310515E-02 
515	 5.12161680842217E-02 
516	 5.12597688902541E-02 
517	 5.13788890597983E-02 
518	 0.05145641767571 
519	 5.14624335528426E-02 
520	 5.14162409806508E-02 
521	 5.14019564125229E-02 
522	 5.14302764945066E-02 
523	 5.14830797358495E-02 
524	 5.15183851170886E-02 
525	 5.15000574531047E-02 
526	 5.14788731876318E-02 
527	 5.15054698918949E-02 
528	 5.15736812459718E-02 
529	 5.15765672914811E-02 
530	 5.15554075091192E-02 
531	 0.051633369887526 
532	 5.16408276252354E-02 
533	 5.17168788818347E-02 
534	 5.18826256627157E-02 
535	 5.18017192570659E-02 
536	 5.18545705772475E-02 
537	 5.19775934023184E-02 
538	 0.051966599202748 
539	 5.19347470465774E-02 
540	 0.051975263381673 
541	 5.20758965743855E-02 
542	 5.20885323066166E-02 
543	 5.21539393388123E-02 
544	 5.22417386200337E-02 
545	 5.22969006513168E-02 
546	 5.23596624405047E-02 
547	 5.24308767961037E-02 
548	 5.25070481925864E-02 
549	 5.25809223327608E-02 
550	 5.26239172546031E-02 
551	 5.26891279406513E-02 
552	 5.28108631232514E-02 
553	 5.29498457203184E-02 
554	 5.30000788011709E-02 
555	 5.30449798914995E-02 
556	 5.32438473228888E-02 
557	 5.34363701712517E-02 
558	 5.35941304686134E-02 
559	 5.37350088739035E-02 
560	 5.39321177117533E-02 
561	 5.40998235507019E-02 
562	 0.054255951689014 
563	 5.44506088498484E-02 
564	 5.47052817595228E-02 
565	 5.49207657019839E-02 
566	 5.51092652572178E-02 
567	 5.54110791930157E-02 
568	 5.56827941664719E-02 
569	 5.59770311480912E-02 
570	 5.63377524612773E-02 
571	 0.056620266505864 
572	 5.69116046501503E-02 
573	 5.72543625441719E-02 
574	 5.76458040866554E-02 
575	 5.79377157518141E-02 
576	 5.82726114910051E-02 
577	 5.87052317498254E-02 
578	 0.058977634431762 
579	 5.93654299973863E-02 
580	 5.98535523964159E-02 
581	 6.03271678606811E-02 
582	 6.09226085348869E-02 
583	 0.061513730535637 
584	 6.20318830562236E-02 
585	 6.25196133481524E-02 
586	 6.30365341888857E-02 
587	 6.35750985024304E-02 
588	 6.41105352448254E-02 
589	 6.46516981062725E-02 
590	 6.52175677828759E-02 
591	 6.57804726666334E-02 
592	 6.62785879987523E-02 
593	 6.68206033194582E-02 
594	 0.067388735629037 
595	 6.79489752142732E-02 
596	 0.068494134903158 
597	 0.069078935232554 
598	 0.069679932576735 
599	 7.02394255944373E-02 
600	 7.07965782775027E-02 
601	 7.13424839046867E-02 
602	 7.18625005425163E-02 
603	 7.23408307530482E-02 
604	 7.28194927834741E-02 
605	 7.33137345264299E-02 
606	 0.073819703075277 
607	 7.42989730329142E-02 
608	 7.47205972229917E-02 
609	 7.51064463287973E-02 
610	 7.55358020206313E-02 
611	 7.59204697457959E-02 
612	 7.63140500552179E-02 
613	 7.67520783895612E-02 
614	 7.71051489525843E-02 
615	 7.73894333752767E-02 
616	 7.76705061205024E-02 
617	 0.078031822278003 
618	 7.83420257769462E-02 
619	 7.85756568685829E-02 
620	 7.87606652398011E-02 
621	 7.90007978672529E-02 
622	 7.92300461362471E-02 
623	 0.079425698086826 
624	 7.95927856020547E-02 
625	 7.98035537328867E-02 
626	 8.00465398107867E-02 
627	 8.02677631301173E-02 
628	 8.03666962063676E-02 
629	 8.05543636116543E-02 
630	 8.07846742837007E-02 
631	 8.09639825977199E-02 
632	 8.11140729167949E-02 
633	 8.12629496153897E-02 
634	 8.14092096016474E-02 
635	 8.15323035630132E-02 
636	 8.17221643623497E-02 
637	 8.19112910359063E-02 
638	 8.20490375815269E-02 
639	 8.21944062402468E-02 
640	 8.23345409106754E-02 
641	 8.24819953814631E-02 
642	 8.26562720751796E-02 
643	 8.28529505497869E-02 
644	 0.083010565455079 
645	 8.31404098552554E-02 
646	 0.083367367069505 
647	 8.35314825199178E-02 
648	 8.36831090437594E-02 
649	 8.38967801987351E-02 
650	 8.40724943508549E-02 
651	 8.42593789781983E-02 
652	 8.44693658450197E-02 
653	 8.46781702652812E-02 
654	 8.48665446655473E-02 
655	 8.50367988514864E-02 
656	 8.52147944812926E-02 
657	 8.54809554421421E-02 
658	 8.57013743868899E-02 
659	 8.58901151201493E-02 
660	 8.61234105093975E-02 
661	 8.63573211947377E-02 
662	 8.65970352568986E-02 
663	 8.68481537065237E-02 
664	 8.71108852889523E-02 
665	 0.087377689526863 
666	 8.76397360826488E-02 
667	 8.78994072821134E-02 
668	 8.82032819634034E-02 
669	 8.84992506376952E-02 
670	 8.87728810123741E-02 
671	 8.90447735567037E-02 
672	 8.93453529720766E-02 
673	 8.96621252185502E-02 
674	 8.99791432901853E-02 
675	 9.02919695560451E-02 
676	 9.06118240727987E-02 
677	 9.09174750127321E-02 
678	 9.11937300336737E-02 
679	 9.15669346909657E-02 
680	 9.19499537330332E-02 
681	 9.23076304243828E-02 
682	 9.26969584070129E-02 
683	 0.093084795256039 
684	 9.34602518697002E-02 
685	 9.38319651669876E-02 
686	 9.42598778305081E-02 
687	 9.46662284249522E-02 
688	 0.095062285382783 
689	 9.55136019144838E-02 
690	 9.59108929857277E-02 
691	 9.62914223975973E-02 
692	 9.67042634708887E-02 
693	 0.097187014230166 
694	 9.76140499693844E-02 
695	 9.80223855627608E-02 
696	 9.84911458331622E-02 
697	 9.89643548727439E-02 
698	 9.94431462198681E-02 
699	 0.099910837549538 
700	 0.100332233844588 
701	 0.100805488773364 
702	 0.101313701451186 
703	 0.101815527893448 
704	 0.102279468858703 
705	 0.102734138049576 
706	 0.103204742082709 
707	 0.103706773473016 
708	 0.104197666989508 
709	 0.104703477899157 
710	 0.105223461521452 
711	 0.105710697780633 
712	 0.106168404632535 
713	 0.106636455354176 
714	 0.107140858131999 
715	 0.10761115004611 
716	 0.108063517228143 
717	 0.10851449597912 
718	 0.108977147583951 
719	 0.109443532049643 
720	 0.109901178052308 
721	 0.110332198974323 
722	 0.110700974939451 
723	 0.111159601421853 
724	 0.111619429202589 
725	 0.111955029871746 
726	 0.112313387421328 
727	 0.11267305873742 
728	 0.113022360991795 
729	 0.11336403832977 
730	 0.113680950940581 
731	 0.113965541578943 
732	 0.114229180883215 
733	 0.114524633219182 
734	 0.114803053324364 
735	 0.11503715525321 
736	 0.115216881709014 
737	 0.115371702435308 
738	 0.115531674546562 
739	 0.115694609147136 
740	 0.115823560133803 
741	 0.115904462147472 
742	 0.115974723750679 
743	 0.116061592229072 
744	 0.116137110750423 
745	 0.116171438757762 
746	 0.116177260308594 
747	 0.11618108109532 
748	 0.116139810979507 
749	 0.116069573898786 
750	 0.115988355520336 
751	 0.115909145359342 
752	 0.115833929521264 
753	 0.115717459048568 
754	 0.11554278265282 
755	 0.115404259071254 
756	 0.115266374449574 
757	 0.115098564154973 
758	 0.114885232891355 
759	 0.114703101504419 
760	 0.114508247262428 
761	 0.114284655075242 
762	 0.114065060867044 
763	 0.11380231155534 
764	 0.113528069897649 
765	 0.113271658706108 
766	 0.11299725322192 
767	 0.112741605274806 
768	 0.112468401355537 
769	 0.112129076620911 
770	 0.111870170059929 
771	 0.111589562354418 
772	 0.111252914021939 
773	 0.110932972832794 
774	 0.110643543892768 
775	 0.110338886130107 
776	 0.109989723927118 
777	 0.109649562612592 
778	 0.109316195169303 
779	 0.109001515756028 
780	 0.108710225774945 
781	 0.108374306416159 
782	 0.108060061148041 
783	 0.107765275525799 
784	 0.10741155395059 
785	 0.107099252964397 
786	 0.106798257170585 
787	 0.106476573328673 
788	 0.106158786274523 
789	 0.105847110673921 
790	 0.105540618926708 
791	 0.105237578021351 
792	 0.104949054781055 
793	 0.104635370823668 
794	 0.104299864720155 
795	 0.103987055311256 
796	 0.103734714637813 
797	 0.10347849511599 
798	 0.103182859889142 
799	 0.102893934674295 
800	 0.102622261518816 
801	 0.102346326111672 
802	 0.102052795966155 
803	 0.101802220743313 
804	 0.101578366355219 
805	 0.101335017410427 
806	 0.101026838332132 
807	 0.100764020565049 
808	 0.100530365833315 
809	 0.10030057690448 
810	 0.100057724615773 
811	 9.98401211159463E-02 
812	 9.96239988515882E-02 
813	 0.099392553429289 
814	 9.91901789359025E-02 
815	 9.89648687062268E-02 
816	 9.87381352489867E-02 
817	 9.85477712533305E-02 
818	 9.83379625741582E-02 
819	 9.81609871534909E-02 
820	 9.80066100047784E-02 
821	 9.78147955231394E-02 
822	 0.097656261128346 
823	 9.75008285787525E-02 
824	 9.73163669854585E-02 
825	 9.70909462626714E-02 
826	 0.096951880462493 
827	 9.68454809187835E-02 
828	 9.66976697959235E-02 
829	 9.65463431020268E-02 
830	 9.63730982519738E-02 
831	 9.62277596810282E-02 
832	 9.61637241292964E-02 
833	 9.60556614328699E-02 
834	 9.59141487271123E-02 
835	 9.57765082346217E-02 
836	 9.56873194228173E-02 
837	 9.55670328476667E-02 
838	 9.54630517499604E-02 
839	 9.53969903223829E-02 
840	 9.53119134894265E-02 
841	 9.52441671144987E-02 
842	 9.51594286139712E-02 
843	 9.50477929794292E-02 
844	 9.50402189638429E-02 
845	 9.49893953508445E-02 
846	 9.49006235522219E-02 
847	 9.48394282167546E-02 
848	 9.47530349067543E-02 
849	 9.46996670489838E-02 
850	 9.46887225805917E-02 
851	 9.46806679835095E-02 
852	 9.46469122168347E-02 
853	 9.46195648137032E-02 
854	 9.46061404979643E-02 
855	 0.094566039804787 
856	 9.45372695946558E-02 
857	 0.094547920257981 
858	 0.094594902460439 
859	 9.46096392832251E-02 
860	 9.45851830680853E-02 
861	 9.45716658768681E-02 
862	 9.46135410578069E-02 
863	 9.46249599871645E-02 
864	 0.094676286319989 
865	 9.47252170170064E-02 
866	 0.094684165067199 
867	 9.46740150414839E-02 
868	 0.094704241066699 
869	 9.47866003694965E-02 
870	 9.49322087130351E-02 
871	 9.49860793904757E-02 
872	 9.50040258936556E-02 
873	 9.50439521736147E-02 
874	 9.51033630446335E-02 
875	 9.51954467428004E-02 
876	 9.52885483510163E-02 
877	 9.53560718502554E-02 
878	 9.54091371405021E-02 
879	 9.55082994735076E-02 
880	 9.56312024815993E-02 
881	 9.57353754652349E-02 
882	 9.58376329503543E-02 
883	 9.59481896385723E-02 
884	 9.60610138110962E-02 
885	 9.61649869965168E-02 
886	 9.62783023704067E-02 
887	 9.64077595063527E-02 
888	 9.65403248861094E-02 
889	 9.66552183286871E-02 
890	 9.68170435902846E-02 
891	 9.69829158915829E-02 
892	 9.71450727575674E-02 
893	 9.73493324117078E-02 
894	 9.74505719321483E-02 
895	 9.75425870018273E-02 
896	 0.097716696518807 
897	 9.79705356293888E-02 
898	 0.098180207401557 
899	 9.83303641834964E-02 
900	 9.84690049654958E-02 
901	 9.87221418637348E-02 
902	 0.098922850262878 
903	 9.90958488450857E-02 
904	 9.93101688125348E-02 
905	 9.95326054625193E-02 
906	 9.97214606823588E-02 
907	 9.99181635282774E-02 
908	 0.100186874268016 
909	 0.100492561295345 
910	 0.100738921119887 
911	 0.100955868934688 
912	 0.101239574373286 
913	 0.101500389913844 
914	 0.101770677632018 
915	 0.102046373060696 
916	 0.102292714135873 
917	 0.10256528165413 
918	 0.10291598873427 
919	 0.103285725585691 
920	 0.103513146208469 
921	 0.103789708709687 
922	 0.104081917133758 
923	 0.104384351032333 
924	 0.104781306239999 
925	 0.105121812717836 
926	 0.105489375239122 
927	 0.105902404374396 
928	 0.106172195410496 
929	 0.106480113469546 
930	 0.106849875434237 
931	 0.107260494644499 
932	 0.107690440399168 
933	 0.108138852350911 
934	 0.108556464742822 
935	 0.108922994495642 
936	 0.109336028208558 
937	 0.109698676261379 
938	 0.110090195350826 
939	 0.110594383499117 
940	 0.111114265609983 
941	 0.11156662887029 
942	 0.111986425296207 
943	 0.112440317430259 
944	 0.112896137121136 
945	 0.113341725314437 
946	 0.11381625410475 
947	 0.114336530943497 
948	 0.114712667611043 
949	 0.115210519858176 
950	 0.11576774466044 
951	 0.116225609445229 
952	 0.116896653416937 
953	 0.117479718830266 
954	 0.117944086967235 
955	 0.118441251757556 
956	 0.119086580661637 
957	 0.119649992035922 
958	 0.12015087846053 
959	 0.120734170938952 
960	 0.121218368866014 
961	 0.121876407828211 
962	 0.122633114916565 
963	 0.123212625217497 
964	 0.123695880346102 
965	 0.124254595893608 
966	 0.124898385908152 
967	 0.125535123222955 
968	 0.126242249074041 
969	 0.12682059599414 
970	 0.127368515110388 
971	 0.128124242277277 
972	 0.128830752215923 
973	 0.129471451152116 
974	 0.130101199966014 
975	 0.130801268895676 
976	 0.131572936835358 
977	 0.132275111436278 
978	 0.132931759292047 
979	 0.133662583970587 
980	 0.134433585830115 
981	 0.135077602813495 
982	 0.135697572787284 
983	 0.136484342401658 
984	 0.137123388447657 
985	 0.137773907242047 
986	 0.138457910020592 
987	 0.139139965128896 
988	 0.140009858992293 
989	 0.140717954213206 
990	 0.141350084052812 
991	 0.142161074412837 
992	 0.143005543084035 
993	 0.143693618427331 
994	 0.144318767290769 
995	 0.14505234899725 
996	 0.145788205022753 
997	 0.146489465018659 
998	 0.147228761131199 
999	 0.148066024031551 
1000	 0.148865467005837 
1001	 0.150297233946176 
1002	 0.151023569083561 
1003	 0.151757445938291 
1004	 0.152496741082412 
1005	 0.153274107609844 
1006	 0.153994259178941 
1007	 0.154690538287647 
1008	 0.155385605387922 
1009	 0.156025544618278 
1010	 0.156659478680773 
1011	 0.157342881960314 
1012	 0.158036296660462 
1013	 0.158753039515305 
1014	 0.159445194868523 
1015	 0.160049022460439 
1016	 0.160682468438295 
1017	 0.161338917615223 
1018	 0.162006873378573 
1019	 0.162630346126745 
1020	 0.163279458329981 
1021	 0.163879260329422 
1022	 0.164410363904916 
1023	 0.165016027092001 
1024	 0.16565686042527 
1025	 0.166277680885933 
1026	 0.166915233791475 
1027	 0.167523460112553 
1028	 0.168034895679091 
1029	 0.168551503603825 
1030	 0.169132673557398 
1031	 0.169662433250554 
1032	 0.170159254349463 
1033	 0.170668790673385 
1034	 0.171235617278963 
1035	 0.171753103996625 
1036	 0.172232714665832 
1037	 0.172800384407714 
1038	 0.173371145176396 
1039	 0.173858318306017 
1040	 0.174427861853038 
1041	 0.175008634945498 
1042	 0.175511858723168 
1043	 0.176008630283183 
1044	 0.176509599307527 
1045	 0.176987758026899 
1046	 0.177493089913159 
1047	 0.178009892964588 
1048	 0.178535526464872 
1049	 0.179073146704163 
1050	 0.179570068058743 
1051	 0.180065802554575 
1052	 0.180543517400552 
1053	 0.181040410104011 
1054	 0.181580006191574 
1055	 0.182076884543344 
1056	 0.18259648870579 
1057	 0.183099619283719 
1058	 0.183566252415016 
1059	 0.184031256062744 
1060	 0.184498494241043 
1061	 0.184958208044564 
1062	 0.185423476336706 
1063	 0.18588935065432 
1064	 0.186314369210171 
1065	 0.18680957547777 
1066	 0.18726969541907 
1067	 0.187688472978985 
1068	 0.188175089968989 
1069	 0.188624362843751 
1070	 0.189097098796058 
1071	 0.189608650914451 
1072	 0.190089414863762 
1073	 0.190568746174661 
1074	 0.191013497713929 
1075	 0.191418810087989 
1076	 0.191824264324635 
1077	 0.192238378652241 
1078	 0.192666083618498 
1079	 0.193093139391356 
1080	 0.193496215067307 
1081	 0.19392192133213 
1082	 0.194358313943818 
1083	 0.194772486109396 
1084	 0.195181591880884 
1085	 0.195607725841625 
1086	 0.196023598013363 
1087	 0.196444721441942 
1088	 0.19688464392771 
1089	 0.197318222312624 
1090	 0.197747550814175 
1091	 0.198152167788424 
1092	 0.198546962119554 
1093	 0.198987095997655 
1094	 0.199429155003686 
1095	 0.199812668540833 
1096	 0.200220821713476 
1097	 0.200635278937692 
1098	 0.20104743345064 
1099	 0.201452329112202 
1100	 0.201875802744802 
1101	 0.202303400455613 
1102	 0.202735931039984 
1103	 0.203175327473734 
1104	 0.20361865039482 
1105	 0.204066671235951 
1106	 0.204541270404855 
1107	 0.205003837039819 
1108	 0.205449069483842 
1109	 0.205885750290334 
1110	 0.206326454656186 
1111	 0.206787852966613 
1112	 0.207269846427126 
1113	 0.207728849961134 
1114	 0.208195678562988 
1115	 0.208657582310517 
1116	 0.209103565620802 
1117	 0.209559778930091 
1118	 0.210028498826614 
1119	 0.210478599660037 
1120	 0.210950362820217 
1121	 0.211419895554844 
1122	 0.211891265303935 
1123	 0.212371582591195 
1124	 0.212840715287229 
1125	 0.213299392436527 
1126	 0.213753857428137 
1127	 0.214205875019088 
1128	 0.214663742076373 
1129	 0.215119444023479 
1130	 0.215566719935179 
1131	 0.216009615593396 
1132	 0.216459225324321 
1133	 0.216905149727075 
1134	 0.217350330926987 
1135	 0.217800458720199 
1136	 0.218247974722651 
1137	 0.218724747344442 
1138	 0.219179711725738 
1139	 0.219608734766684 
1140	 0.220040898978922 
1141	 0.22045808675579 
1142	 0.22082465816972 
1143	 0.221225694472655 
1144	 0.221653468109202 
1145	 0.222050766248807 
1146	 0.222433522728972 
1147	 0.222824178179835 
1148	 0.223207098644365 
1149	 0.223591263539392 
1150	 0.223986715779522 
1151	 0.224368837714752 
1152	 0.224736328795566 
1153	 0.225103740562367 
1154	 0.22545840687589 
1155	 0.225793961771968 
1156	 0.226146589847628 
1157	 0.226493540453896 
1158	 0.226854581689564 
1159	 0.227252698212795 
1160	 0.227600659308024 
1161	 0.227927004421811 
1162	 0.228256080279294 
1163	 0.22855870406327 
1164	 0.228866095325107 
1165	 0.229178919242158 
1166	 0.229493621330358 
1167	 0.229799913440394 
1168	 0.230100224662519 
1169	 0.230397043067852 
1170	 0.230693775223994 
1171	 0.230991046163206 
1172	 0.231288463865625 
1173	 0.231571772967727 
1174	 0.231857989719732 
1175	 0.23212817540831 
1176	 0.23236629382208 
1177	 0.232628713791749 
1178	 0.232910092216814 
1179	 0.233168561514292 
1180	 0.233419963721358 
1181	 0.233675844668802 
1182	 0.233916780926247 
1183	 0.234163578342754 
1184	 0.234407780802536 
1185	 0.234663457022494 
1186	 0.23490468852662 
1187	 0.235141254764251 
1188	 0.235363829857699 
1189	 0.2355799067176 
1190	 0.235790613567355 
1191	 0.23597839976197 
1192	 0.236181858290438 
1193	 0.236389018518784 
1194	 0.236599328250613 
1195	 0.236819808060619 
1196	 0.237031141248465 
1197	 0.237244248836134 
1198	 0.237451079652322 
1199	 0.237652864893302 
1200	 0.237854015327135 
1201	 0.238034008707285 
1202	 0.238196873064724 
1203	 0.238372570021744 
1204	 0.238535743233983 
1205	 0.23870837359472 
1206	 0.238897675697105 
1207	 0.239072976947067 
1208	 0.239248974291697 
1209	 0.239407969106839 
1210	 0.239552862605621 
1211	 0.239701584561268 
1212	 0.239836205703022 
1213	 0.239975765210193 
1214	 0.24011869265361 
1215	 0.240264392181795 
1216	 0.240411090818418 
1217	 0.240557016085518 
1218	 0.240702466633344 
1219	 0.240860986129416 
1220	 0.240992648993595 
1221	 0.241105377273402 
1222	 0.241230249154434 
1223	 0.241345977535284 
1224	 0.241466199671463 
1225	 0.241601531695065 
1226	 0.241721223375961 
1227	 0.241825147868495 
1228	 0.241937995588318 
1229	 0.242044931706241 
1230	 0.242160362424273 
1231	 0.242300325209125 
1232	 0.242415511080298 
1233	 0.242521551839602 
1234	 0.242617278661196 
1235	 0.24272697609213 
1236	 0.24282689202867 
1237	 0.242932195182534 
1238	 0.243062561148901 
1239	 0.2431618024313 
1240	 0.243233719986328 
1241	 0.243321086000737 
1242	 0.243407416025128 
1243	 0.2434929166983 
1244	 0.243579421074289 
1245	 0.243668199278776 
1246	 0.243755614571454 
1247	 0.243842623144348 
1248	 0.243920844513518 
1249	 0.244029071402928 
1250	 0.244117508314733 
1251	 0.244180272887044 
1252	 0.244259606372785 
1253	 0.244340295585495 
1254	 0.244407356419415 
1255	 0.244480634830014 
1256	 0.244535684148221 
1257	 0.244560459776492 
1258	 0.244607255321788 
1259	 0.244659695796736 
1260	 0.244706643462825 
1261	 0.244760453422259 
1262	 0.244808868425126 
1263	 0.244836472086942 
1264	 0.24488775246391 
1265	 0.244960213518999 
1266	 0.245019008615963 
1267	 0.24508275705196 
1268	 0.24515180986426 
1269	 0.245202508292679 
1270	 0.245229101595367 
1271	 0.245281402299901 
1272	 0.245332165019867 
1273	 0.245397469707151 
1274	 0.245475499834908 
1275	 0.245562862058279 
1276	 0.245669574637803 
1277	 0.245760871650574 
1278	 0.245844719297853 
1279	 0.245947869902852 
1280	 0.246066190704852 
1281	 0.246164753396405 
1282	 0.246272668557287 
1283	 0.246369088415694 
1284	 0.246436473826981 
1285	 0.246514353521348 
1286	 0.24659300586881 
1287	 0.246681872828477 
1288	 0.246760620639065 
1289	 0.246832973507897 
1290	 0.246902565252518 
1291	 0.246972466623958 
1292	 0.247036707568314 
1293	 0.24710601391526 
1294	 0.247146800085818 
1295	 0.247173746284962 
1296	 0.247191076335727 
1297	 0.247190177671283 
1298	 0.247177195069735 
1299	 0.247134787393482 
1300	 0.247123008840609 
1301	 0.247108700113395 
1302	 0.24709665429345 
1303	 0.247104706569859 
1304	 0.247116257464557 
1305	 0.247119385668493 
1306	 0.247121755896533 
1307	 0.247102584142894 
1308	 0.247090076976874 
1309	 0.24707033781372 
1310	 0.247025962877742 
1311	 0.247003015972524 
1312	 0.246994213768393 
1313	 0.246978143714856 
1314	 0.246957623869009 
1315	 0.246943716562639 
1316	 0.246933073335595 
1317	 0.246929066431324 
1318	 0.2469286496115 
1319	 0.246930847409604 
1320	 0.246942096104224 
1321	 0.246947768693251 
1322	 0.246937295581654 
1323	 0.246959610304598 
1324	 0.246989820658472 
1325	 0.24700014324738 
1326	 0.247035663420135 
1327	 0.247072978348306 
1328	 0.247089642118811 
1329	 0.247128528148628 
1330	 0.247181555938631 
1331	 0.247241085455349 
1332	 0.247309599543497 
1333	 0.247410983465002 
1334	 0.247484192630481 
1335	 0.247544043677305 
1336	 0.247615770624985 
1337	 0.247683168846437 
1338	 0.247754814262617 
1339	 0.247838918897115 
1340	 0.247911947501017 
1341	 0.247970661759469 
1342	 0.248044523382327 
1343	 0.248116566182502 
1344	 0.24820647184604 
1345	 0.248299001495201 
1346	 0.24838885037038 
1347	 0.248483135335645 
1348	 0.248565647251631 
1349	 0.248649349335397 
1350	 0.248741945815032 
1351	 0.248840381984332 
1352	 0.248942771860855 
1353	 0.249045845902286 
1354	 0.249161715832922 
1355	 0.24926427615533 
1356	 0.249368549807248 
1357	 0.249454332926368 
1358	 0.24952710107 
1359	 0.249604324912336 
1360	 0.24966297619833 
1361	 0.249732037591244 
1362	 0.249813487888611 
1363	 0.249884672408409 
1364	 0.249952981772672 
1365	 0.250019287300427 
1366	 0.250082819712255 
1367	 0.250145630976507 
1368	 0.250198949206541 
1369	 0.250255628958184 
1370	 0.25028282659547 
1371	 0.250279905488996 
1372	 0.250272080311866 
1373	 0.250251764648966 
1374	 0.250249546329971 
1375	 0.250266893390074 
1376	 0.250260058700144 
1377	 0.250260816711317 
1378	 0.25022831699461 
1379	 0.250173925621236 
1380	 0.250100311509984 
1381	 0.250002696976315 
1382	 0.249902044160325 
1383	 0.249786516341321 
1384	 0.249661772642897 
1385	 0.249542279300783 
1386	 0.249387682323361 
1387	 0.249201498791917 
1388	 0.249014644393368 
1389	 0.248820247899345 
1390	 0.24859775736212 
1391	 0.248355752080078 
1392	 0.248106896738871 
1393	 0.247817970453757 
1394	 0.247511404090712 
1395	 0.247201091639388 
1396	 0.246866563054013 
1397	 0.246527774617189 
1398	 0.246176902478877 
1399	 0.245813961417553 
1400	 0.245431064635953 
1401	 0.24506332748075 
1402	 0.244691696575689 
1403	 0.244320643833806 
1404	 0.243957496685974 
1405	 0.24359515809442 
1406	 0.243222304817309 
1407	 0.242857799809461 
1408	 0.242495483222044 
1409	 0.242143423392336 
1410	 0.241786695723409 
1411	 0.24145842593574 
1412	 0.241137506828655 
1413	 0.240854466995745 
1414	 0.240592032931872 
1415	 0.240347917236842 
1416	 0.240148777012379 
1417	 0.239940082601209 
1418	 0.239735185404873 
1419	 0.239551868592895 
1420	 0.239364451259989 
1421	 0.239198795898302 
1422	 0.239061174879696 
1423	 0.238920945721309 
1424	 0.238779713115932 
1425	 0.23863056718529 
1426	 0.238517022933943 
1427	 0.238409854235386 
1428	 0.238325919239561 
1429	 0.238286458425146 
1430	 0.238225076173898 
1431	 0.238158297796784 
1432	 0.238104998834206 
1433	 0.238051589883992 
1434	 0.238009474057524 
1435	 0.237984285119324 
1436	 0.237957419706666 
1437	 0.237927073717317 
1438	 0.237914519113416 
1439	 0.23791230200756 
1440	 0.237917476169377 
1441	 0.237921286622086 
1442	 0.237939262372799 
1443	 0.237955970778389 
1444	 0.237958129482689 
1445	 0.237985088119523 
1446	 0.238010766499298 
1447	 0.238035339320133 
1448	 0.238070181605418 
1449	 0.238078682527324 
1450	 0.238094387492965 
1451	 0.238129936632069 
1452	 0.23817031564338 
1453	 0.238214755921988 
1454	 0.238291156142558 
1455	 0.238335005569116 
1456	 0.238350933650547 
1457	 0.238393036586561 
1458	 0.23844267406198 
1459	 0.238484070321361 
1460	 0.23853231850435 
1461	 0.238580835213341 
1462	 0.238610680627196 
1463	 0.238665398136099 
1464	 0.238735126958409 
1465	 0.238814598836223 
1466	 0.238910730410763 
1467	 0.239006033824212 
1468	 0.239111880396493 
1469	 0.239213964469114 
1470	 0.239309187352218 
1471	 0.239421275699943 
1472	 0.239530940292752 
1473	 0.23965905059314 
1474	 0.239796761980855 
1475	 0.239923720150051 
1476	 0.240051143418955 
1477	 0.24018156431014 
1478	 0.240330402366063 
1479	 0.240478412863818 
1480	 0.240626448628898 
1481	 0.240769924314171 
1482	 0.240899161472582 
1483	 0.241004362931623 
1484	 0.241135275589646 
1485	 0.241266710778846 
1486	 0.241405038767735 
1487	 0.241560342559883 
1488	 0.241696158758098 
1489	 0.241829254560796 
1490	 0.241959023429316 
1491	 0.242075828908919 
1492	 0.242205768070237 
1493	 0.242339455008304 
1494	 0.24247171750055 
1495	 0.242609833171175 
1496	 0.24274132156624 
1497	 0.242877071121456 
1498	 0.242999137867935 
1499	 0.24310626606693 
1500	 0.243225074306285 
1501	 0.243335439170173 
1502	 0.243450442284672 
1503	 0.24357749859245 
1504	 0.243704389224501 
1505	 0.243807719968175 
1506	 0.243919817082342 
1507	 0.244032904349889 
1508	 0.244139260636369 
1509	 0.244247553831593 
1510	 0.244356915709459 
1511	 0.244473005708167 
1512	 0.244590184519748 
1513	 0.244722742737718 
1514	 0.244869961974187 
1515	 0.24499886073474 
1516	 0.245121820073677 
1517	 0.245238279414205 
1518	 0.245347947603169 
1519	 0.245444470790653 
1520	 0.245532360576501 
1521	 0.245613672646991 
1522	 0.245673742037851 
1523	 0.245752158183403 
1524	 0.245838661579741 
1525	 0.245915161945489 
1526	 0.245989935810121 
1527	 0.246068466509208 
1528	 0.246139272240946 
1529	 0.246221138166768 
1530	 0.246319705672063 
1531	 0.246402407313841 
1532	 0.246487543206361 
1533	 0.246557452158142 
1534	 0.246597626704473 
1535	 0.246668273319279 
1536	 0.246742922827849 
1537	 0.246821354892699 
1538	 0.246936102829415 
1539	 0.247018779624444 
1540	 0.247079701751684 
1541	 0.247146641673134 
1542	 0.247204167097255 
1543	 0.247262987480776 
1544	 0.247318667351036 
1545	 0.247381317468661 
1546	 0.247450686208815 
1547	 0.247501555973147 
1548	 0.247573945247115 
1549	 0.247656417189802 
1550	 0.247720708857932 
1551	 0.247796813286308 
1552	 0.247868897715108 
1553	 0.247927287593333 
1554	 0.247994205048477 
1555	 0.248051120442337 
1556	 0.248089660385516 
1557	 0.248129850848613 
1558	 0.248172073636371 
1559	 0.248217977472961 
1560	 0.248264650634173 
1561	 0.248321747233766 
1562	 0.248370068659626 
1563	 0.248408838070056 
1564	 0.248454890530458 
1565	 0.248501380992607 
1566	 0.248555934633162 
1567	 0.248620029081505 
1568	 0.248674665750272 
1569	 0.2487329127412 
1570	 0.248782354414737 
1571	 0.248821263222489 
1572	 0.248867117691126 
1573	 0.248911823935256 
1574	 0.248957481678357 
1575	 0.249006316485724 
1576	 0.249052593715431 
1577	 0.249100317762374 
1578	 0.249142394721758 
1579	 0.249182515814821 
1580	 0.249215023968011 
1581	 0.249240242115762 
1582	 0.249267655905626 
1583	 0.249285564710222 
1584	 0.249315819783836 
1585	 0.249354735392472 
1586	 0.249388648750917 
1587	 0.249429064587436 
1588	 0.24946205052007 
1589	 0.249479737983224 
1590	 0.249512947567521 
1591	 0.249550019882705 
1592	 0.249595309862392 
1593	 0.249661308540396 
1594	 0.249712605623221 
1595	 0.249762586976381 
1596	 0.249806719910795 
1597	 0.249835805300676 
1598	 0.249874043041989 
1599	 0.249931610641763 
1600	 0.249960222867039 
1601	 0.249967401142412 
1602	 0.249985474945909 
1603	 0.249981932987679 
1604	 0.249992481328288 
1605	 0.250027952413599 
1606	 0.250052749889855 
1607	 0.250062931128043 
1608	 0.250092162565338 
1609	 0.250124955948823 
1610	 0.250161268733443 
1611	 0.250206235405082 
1612	 0.250225998865069 
1613	 0.250255266540221 
1614	 0.250282182612315 
1615	 0.250302213035626 
1616	 0.25034190041964 
1617	 0.250347861524215 
1618	 0.250353312348876 
1619	 0.250379109026541 
1620	 0.250383111965969 
1621	 0.250408656678867 
1622	 0.250451559024981 
1623	 0.25048007190195 
1624	 0.25051117587901 
1625	 0.250531597186609 
1626	 0.250546892770017 
1627	 0.250551058864847 
1628	 0.250541704781954 
1629	 0.250540765221831 
1630	 0.25053664154466 
1631	 0.250530981116875 
1632	 0.250527250310881 
1633	 0.250521436461626 
1634	 0.250503531801984 
1635	 0.25050749126231 
1636	 0.250527624118794 
1637	 0.250533338963643 
1638	 0.250538054970015 
1639	 0.250554586040212 
1640	 0.250568651532334 
1641	 0.25058703861408 
1642	 0.250620644980316 
1643	 0.25064751549971 
1644	 0.250671605060126 
1645	 0.250688348064776 
1646	 0.250703636841938 
1647	 0.250723387150796 
1648	 0.250734700193698 
1649	 0.250751486426449 
1650	 0.250781721515754 
1651	 0.250799979392365 
1652	 0.250811437202991 
1653	 0.250818410034322 
1654	 0.250818753751166 
1655	 0.250826371707196 
1656	 0.250833353610248 
1657	 0.250835481134552 
1658	 0.25083710117484 
1659	 0.250845571821579 
1660	 0.250859395358617 
1661	 0.250853819031447 
1662	 0.250843622032778 
1663	 0.250839221786051 
1664	 0.250815810375238 
1665	 0.250807384788254 
1666	 0.250819594923623 
1667	 0.250820534861563 
1668	 0.250818477561325 
1669	 0.25080899955385 
1670	 0.250789520035306 
1671	 0.250787476814893 
1672	 0.250787876389217 
1673	 0.250784918566113 
1674	 0.250798668747693 
1675	 0.25079736317751 
1676	 0.250782111331208 
1677	 0.25076764664278 
1678	 0.250748678909185 
1679	 0.25073697460161 
1680	 0.250724472373046 
1681	 0.250709505604112 
1682	 0.250697840766524 
1683	 0.250689467306468 
1684	 0.250672167756656 
1685	 0.250669257249048 
1686	 0.250666604526691 
1687	 0.250692193541748 
1688	 0.250750266755463 
1689	 0.250782474134607 
1690	 0.250841130762479 
1691	 0.250858255647552 
1692	 0.250829900106978 
1693	 0.250818974637554 
1694	 0.250796912606477 
1695	 0.250785559491839 
1696	 0.250783216544635 
1697	 0.250773523422097 
1698	 0.250757723662528 
1699	 0.250752822691412 
1700	 0.250757290984503 
1701	 0.250747284878146 
1702	 0.250753012152508 
1703	 0.250722125490696 
1704	 0.250646904804154 
1705	 0.250607160214539 
1706	 0.250566429266848 
1707	 0.250526882278262 
1708	 0.250506561559698 
1709	 0.250476057138748 
1710	 0.250420779912279 
1711	 0.250403146605477 
1712	 0.25040899133636 
1713	 0.250409941457457 
1714	 0.250432086444647 
1715	 0.250436931571761 
1716	 0.25044814699483 
1717	 0.25042853293109 
1718	 0.250383041090859 
1719	 0.250348518020807 
1720	 0.250296547173496 
1721	 0.250247650688206 
1722	 0.250200144971584 
1723	 0.250174152472481 
1724	 0.250151568985802 
1725	 0.250127564251021 
1726	 0.250132584334509 
1727	 0.250109841637036 
1728	 0.250064974621972 
1729	 0.250018352293457 
1730	 0.24996684213352 
1731	 0.249914053824779 
1732	 0.249840796676489 
1733	 0.249801971706914 
1734	 0.249789831222374 
1735	 0.249749198875548 
1736	 0.249710750321484 
1737	 0.249666429631617 
1738	 0.249608354792785 
1739	 0.249545560745818 
1740	 0.249481279867544 
1741	 0.249423226921946 
1742	 0.249350554772583 
1743	 0.249289103862973 
1744	 0.249258962097812 
1745	 0.249177519976922 
1746	 0.249063300119595 
1747	 0.248963296334268 
1748	 0.24886138108002 
1749	 0.248783155374192 
1750	 0.248739908328763 
1751	 0.248704401973377 
1752	 0.248658787200807 
1753	 0.248616269084078 
1754	 0.248568460561118 
1755	 0.248509925369145 
1756	 0.248451278697056 
1757	 0.248375157204608 
1758	 0.24829419874019 
1759	 0.248231483772759 
1760	 0.248158528679732 
1761	 0.248088238677897 
1762	 0.248040573794024 
1763	 0.247982687876526 
1764	 0.247909795719439 
1765	 0.247853529933221 
1766	 0.247811528639858 
1767	 0.247760807669305 
1768	 0.247715574700351 
1769	 0.247664874656204 
1770	 0.247631105198406 
1771	 0.247614287586286 
1772	 0.247582108242674 
1773	 0.247570489871638 
1774	 0.247547352218446 
1775	 0.247517924103784 
1776	 0.2474805961014 
1777	 0.247424472878086 
1778	 0.247391837384003 
1779	 0.247344726399493 
1780	 0.247303262670704 
1781	 0.247282706711741 
1782	 0.247255439867192 
1783	 0.247248909679689 
1784	 0.24722286817577 
1785	 0.247191425599143 
1786	 0.247166057539367 
1787	 0.24711883110666 
1788	 0.247099130906632 
1789	 0.247106065632282 
1790	 0.247107409126307 
1791	 0.247122560178495 
1792	 0.247118438634543 
1793	 0.247115293841832 
1794	 0.247108048851578 
1795	 0.247082203055167 
1796	 0.247047696887543 
1797	 0.247006941208089 
1798	 0.246961643116789 
1799	 0.246882622973841 
1800	 0.246879437381109 
1801	 0.243331941655207 
1802	 0.243352068780484 
1803	 0.243373441812236 
1804	 0.243396993530314 
1805	 0.243444136495161 
1806	 0.243480052686389 
1807	 0.243480772814613 
1808	 0.243505711650453 
1809	 0.243562760569804 
1810	 0.243581085576192 
1811	 0.243573766180756 
1812	 0.243599264932598 
1813	 0.243589163539288 
1814	 0.243543207334992 
1815	 0.243560725574098 
1816	 0.243577223386488 
1817	 0.243601721829649 
1818	 0.243676236098299 
1819	 0.243694061838667 
1820	 0.243684603137595 
1821	 0.243682079244046 
1822	 0.243659414246487 
1823	 0.243645868125972 
1824	 0.243676818780804 
1825	 0.243687760896745 
1826	 0.243694098498257 
1827	 0.243691719423415 
1828	 0.24368023518419 
1829	 0.24364964073429 
1830	 0.24362710650829 
1831	 0.243596304014868 
1832	 0.243582525648157 
1833	 0.243562774678005 
1834	 0.243540605256923 
1835	 0.243550534408365 
1836	 0.24352947880485 
1837	 0.243497003786074 
1838	 0.243472763593932 
1839	 0.243446938779891 
1840	 0.243407259182175 
1841	 0.243384313062842 
1842	 0.243365452775254 
1843	 0.243323039452709 
1844	 0.243279011893911 
1845	 0.243246469457169 
1846	 0.243209978800813 
1847	 0.243154408697928 
1848	 0.243085468162166 
1849	 0.243000627107349 
1850	 0.242897043591996 
1851	 0.2427624004881 
1852	 0.24265434648974 
1853	 0.242532812344113 
1854	 0.242389989080064 
1855	 0.242269954606617 
1856	 0.24214339627222 
1857	 0.242059094678674 
1858	 0.241976763947298 
1859	 0.241841390229539 
1860	 0.241699885725303 
1861	 0.241549017344371 
1862	 0.241372260290885 
1863	 0.241152619017124 
1864	 0.24095367707841 
1865	 0.240739974327175 
1866	 0.240442505390735 
1867	 0.240139936791781 
1868	 0.239833624670393 
1869	 0.239490947226128 
1870	 0.239110278557239 
1871	 0.238686306978502 
1872	 0.238227600337638 
1873	 0.237723405534105 
1874	 0.237170428831776 
1875	 0.236594121407296 
1876	 0.235998361324619 
1877	 0.235345287123721 
1878	 0.234632034090009 
1879	 0.233871141263236 
1880	 0.233052772342777 
1881	 0.232154129884279 
1882	 0.231236174445328 
1883	 0.230282298204429 
1884	 0.229279844542225 
1885	 0.228216737998257 
1886	 0.22709843543373 
1887	 0.225893739290284 
1888	 0.22462049173942 
1889	 0.22331460960276 
1890	 0.221959438471877 
1891	 0.220595170872415 
1892	 0.21919632758031 
1893	 0.217784863433276 
1894	 0.216353285947828 
1895	 0.214906424126131 
1896	 0.21340474904177 
1897	 0.211934791647547 
1898	 0.210451248069657 
1899	 0.208976438424645 
1900	 0.20758006261603 
1901	 0.206186093985986 
1902	 0.204854655341169 
1903	 0.203595823074083 
1904	 0.202355424895309 
1905	 0.201142317442605 
1906	 0.199981641250748 
1907	 0.198861431962036 
1908	 0.197787316781459 
1909	 0.196810148138317 
1910	 0.19591559533236 
1911	 0.195088565133776 
1912	 0.194314477895646 
1913	 0.193582955267734 
1914	 0.192898568610669 
1915	 0.19226165816807 
1916	 0.191679378809429 
1917	 0.191125997943582 
1918	 0.190621379325256 
1919	 0.190165572205252 
1920	 0.189735632963429 
1921	 0.189366217871777 
1922	 0.189040967832773 
1923	 0.188745812325927 
1924	 0.188497398779103 
1925	 0.188306085762822 
1926	 0.188133724927833 
1927	 0.187997942287537 
1928	 0.187886861910208 
1929	 0.187802116649021 
1930	 0.187755916462093 
1931	 0.187736767439372 
1932	 0.187737145635294 
1933	 0.187778895586952 
1934	 0.187833393783725 
1935	 0.187904720618984 
1936	 0.187995389889722 
1937	 0.188121865664766 
1938	 0.188265937777163 
1939	 0.188430540325057 
1940	 0.188637970005266 
1941	 0.188846011865751 
1942	 0.18904899663822 
1943	 0.189278613100936 
1944	 0.189524590824051 
1945	 0.189763838815889 
1946	 0.190006418087201 
1947	 0.190259313268117 
1948	 0.190513085955132 
1949	 0.190747453500585 
1950	 0.191016846499184 
1951	 0.191305420414864 
1952	 0.191609202141834 
1953	 0.191913358666697 
1954	 0.19222039395648 
1955	 0.192530958575204 
1956	 0.192838971960655 
1957	 0.193172014227937 
1958	 0.193533513631898 
1959	 0.193884514045736 
1960	 0.194240780978502 
1961	 0.194603634654136 
1962	 0.194969970734485 
1963	 0.195345606400779 
1964	 0.195738055196474 
1965	 0.196119417139259 
1966	 0.196520297662913 
1967	 0.196902623575163 
1968	 0.197280968655915 
1969	 0.197647927737335 
1970	 0.198035700465282 
1971	 0.198429906512647 
1972	 0.198814865343511 
1973	 0.199206098726105 
1974	 0.199601053565335 
1975	 0.199997354497487 
1976	 0.200370791012116 
1977	 0.200768959938415 
1978	 0.201179446233834 
1979	 0.20157845844712 
1980	 0.201985490589138 
1981	 0.202396800674067 
1982	 0.202811670061197 
1983	 0.203238202889614 
1984	 0.203680490742721 
1985	 0.204112343522121 
1986	 0.204563415418039 
1987	 0.204986091803614 
1988	 0.205394676222551 
1989	 0.205785060568717 
1990	 0.206183819002123 
1991	 0.206566914461642 
1992	 0.206951588569489 
1993	 0.207334415536445 
1994	 0.207722566327843 
1995	 0.208104458458825 
1996	 0.208493405159763 
1997	 0.208901352236719 
1998	 0.209288675079165 
1999	 0.209658965908131 
2000	 0.210036631958261 
2001	 0.210406212188268 
2002	 0.210782001557525 
2003	 0.211168236974614 
2004	 0.211566185835969 
2005	 0.211939782594457 
2006	 0.21230439996339 
2007	 0.21267051996458 
2008	 0.213023644866436 
2009	 0.213379453402871 
2010	 0.213731852500336 
2011	 0.214092429535008 
2012	 0.214443820146134 
2013	 0.214810238329873 
2014	 0.215195367500167 
2015	 0.215593034068421 
2016	 0.215959150882669 
2017	 0.216307589162734 
2018	 0.216655558313446 
2019	 0.21698583110862 
2020	 0.21731197651588 
2021	 0.217640291152351 
2022	 0.217954459611643 
2023	 0.218248159584009 
2024	 0.218541874943994 
2025	 0.218820894012948 
2026	 0.219116138246644 
2027	 0.219415916817923 
2028	 0.219705290337652 
2029	 0.220015104405716 
2030	 0.220350742007546 
2031	 0.220653109230631 
2032	 0.220950702354059 
2033	 0.221248468042193 
2034	 0.22153689111609 
2035	 0.221817811598432 
2036	 0.222098406377552 
2037	 0.222367577629533 
2038	 0.222618344066528 
2039	 0.222871842089093 
2040	 0.223113354658059 
2041	 0.223382468903023 
2042	 0.223615918035039 
2043	 0.223832432422258 
2044	 0.224065987489717 
2045	 0.224288734263078 
2046	 0.224525960301724 
2047	 0.224780834995103 
2048	 0.225029065908244 
2049	 0.225285036869515 
2050	 0.225527247452627 
2051	 0.225766718822812 
2052	 0.226001458858792 
2053	 0.226217669523925 
2054	 0.226443236252143 
2055	 0.226672866542997 
2056	 0.226906475587228 
2057	 0.227127939890013 
2058	 0.227351434908943 
2059	 0.227559665393162 
2060	 0.227744946064839 
2061	 0.227950224290568 
2062	 0.228151438910957 
2063	 0.228365990507799 
2064	 0.228606170054334 
2065	 0.228824880429286 
2066	 0.229035649829845 
2067	 0.229250019600457 
2068	 0.22945784367122 
2069	 0.229666399413307 
2070	 0.229867300073996 
2071	 0.23007128296091 
2072	 0.23026643873933 
2073	 0.230444174785349 
2074	 0.230637958655556 
2075	 0.230847681819844 
2076	 0.231034924065444 
2077	 0.231217445990998 
2078	 0.231393200019138 
2079	 0.231542159569238 
2080	 0.231711693225287 
2081	 0.231888785633757 
2082	 0.232065767483818 
2083	 0.232239746002722 
2084	 0.232439731518884 
2085	 0.232620243257961 
2086	 0.232798507265603 
2087	 0.232971607733529 
2088	 0.233141678045005 
2089	 0.233304391033255 
2090	 0.233453259451554 
2091	 0.233618289484557 
2092	 0.233787506914434 
2093	 0.233951345255774 
2094	 0.234109240779054 
2095	 0.23428631506431 
2096	 0.234472820925968 
2097	 0.234655900567167 
2098	 0.234868075596663 
2099	 0.23506200608743 
2100	 0.235229152388837 
2101	 0.235366890832755 
2102	 0.235523791357019 
2103	 0.235668122215908 
2104	 0.235817516971695 
2105	 0.235960767840003 
2106	 0.236130565746782 
2107	 0.236312816874816 
2108	 0.23649171910045 
2109	 0.236695537646215 
2110	 0.236889686692257 
2111	 0.237060076319367 
2112	 0.237249658659616 
2113	 0.23744050442269 
2114	 0.237671454372076 
2115	 0.237867561097693 
2116	 0.238066091304258 
2117	 0.238248761492046 
2118	 0.238411461201103 
2119	 0.238581259634625 
2120	 0.238752163452892 
2121	 0.238913692136078 
2122	 0.239055950137417 
2123	 0.239223450237726 
2124	 0.239402808838597 
2125	 0.239570318875134 
2126	 0.239759978225536 
2127	 0.239926815012459 
2128	 0.240065588866391 
2129	 0.240211045162865 
2130	 0.2403671291005 
2131	 0.240502292718998 
2132	 0.240615167091048 
2133	 0.240720719760052 
2134	 0.240800296911063 
2135	 0.240842698532929 
2136	 0.240891631703901 
2137	 0.240933318808545 
2138	 0.24096165974996 
2139	 0.240970390765865 
2140	 0.240987144272575 
2141	 0.241004628190094 
2142	 0.24100603123024 
2143	 0.241001455848492 
2144	 0.240994273652253 
2145	 0.240982702629272 
2146	 0.240952294165494 
2147	 0.240911556361335 
2148	 0.240860592142981 
2149	 0.240818654262758 
2150	 0.240770551858512 
2151	 0.240700797342811 
2152	 0.240646014439556 
2153	 0.240549897824666 
2154	 0.240393233732272 
2155	 0.24027761566324 
2156	 0.240174849564875 
2157	 0.240050428628246 
2158	 0.239928437535891 
2159	 0.239797752791361 
2160	 0.239630769832942 
2161	 0.239491945723378 
2162	 0.239378614215646 
2163	 0.239250149886381 
2164	 0.239123084976106 
2165	 0.238999272736286 
2166	 0.238858710027325 
2167	 0.2386964084375 
2168	 0.238552069616183 
2169	 0.23841600895089 
2170	 0.238261892600763 
2171	 0.238102974494469 
2172	 0.237946631904103 
2173	 0.237764878973823 
2174	 0.237614459086719 
2175	 0.237483958171137 
2176	 0.23735301463001 
2177	 0.23725484142899 
2178	 0.237120865297674 
2179	 0.236978772560077 
2180	 0.23682318402423 
2181	 0.236628260427544 
2182	 0.236448151987182 
2183	 0.236267398162058 
2184	 0.236081375769254 
2185	 0.235919393478461 
2186	 0.23577889144463 
2187	 0.235619984164303 
2188	 0.235460381785039 
2189	 0.235313508721733 
2190	 0.235157822600167 
2191	 0.235017487280641 
2192	 0.234899487758683 
2193	 0.23478058194281 
2194	 0.234643894300509 
2195	 0.234547832310598 
2196	 0.234509442563006 
2197	 0.234421564179355 
2198	 0.234300022318702 
2199	 0.234229931115961 
2200	 0.234168627812873 
2201	 0.234100044242961 
2202	 0.234062107934867 
2203	 0.23405032279655 
2204	 0.234000288281647 
2205	 0.233904627822018 
2206	 0.233848450552653 
2207	 0.233801352080619 
2208	 0.233768399835268 
2209	 0.23373404278402 
2210	 0.233735150101918 
2211	 0.23377761875183 
2212	 0.23379824971741 
2213	 0.233838643094524 
2214	 0.233863753818462 
2215	 0.233866711235035 
2216	 0.233883565972726 
2217	 0.233916060268415 
2218	 0.233931012231299 
2219	 0.233948711578789 
2220	 0.233951013551663 
2221	 0.233945226176959 
2222	 0.233912964776117 
2223	 0.233879925170256 
2224	 0.233851829086318 
2225	 0.233824344063847 
2226	 0.233798240304273 
2227	 0.23377058515662 
2228	 0.233742236426787 
2229	 0.233717251395161 
2230	 0.233683084336537 
2231	 0.233666127723513 
2232	 0.23366439397917 
2233	 0.233656177053587 
2234	 0.233654059547044 
2235	 0.233651250400949 
2236	 0.233651070264377 
2237	 0.233639913195674 
2238	 0.233629709667251 
2239	 0.233616161123585 
2240	 0.233594989255044 
2241	 0.233567560231217 
2242	 0.233531935551568 
2243	 0.233497272938801 
2244	 0.233438068177915 
2245	 0.233413481831946 
2246	 0.233401168772839 
2247	 0.233382673688202 
2248	 0.233347896358059 
2249	 0.233301001907803 
2250	 0.233276764932433 
2251	 0.233249863626454 
2252	 0.233224240559832 
2253	 0.233229511017799 
2254	 0.233203209071839 
2255	 0.233144912737 
2256	 0.233104234780298 
2257	 0.233052967199223 
2258	 0.233028656630437 
2259	 0.233020687630213 
2260	 0.233013360440609 
2261	 0.233045057284834 
2262	 0.233031867028825 
2263	 0.232978624011931 
2264	 0.232956254726889 
2265	 0.232930828921673 
2266	 0.232911104283037 
2267	 0.232907593612205 
2268	 0.232909023415416 
2269	 0.232922632927183 
2270	 0.232909260198741 
2271	 0.232906499503047 
2272	 0.232900227680411 
2273	 0.232894627782985 
2274	 0.232898204211362 
2275	 0.232909644620489 
2276	 0.232952302085701 
2277	 0.232966135895177 
2278	 0.232951317179818 
2279	 0.232980080637343 
2280	 0.233033071179177 
2281	 0.233061830760409 
2282	 0.233113484689641 
2283	 0.233137233554925 
2284	 0.233120048586048 
2285	 0.233124766840365 
2286	 0.233144551302608 
2287	 0.233144989281229 
2288	 0.233138751147441 
2289	 0.233128709077968 
2290	 0.233094080711385 
2291	 0.233081386263943 
2292	 0.233074870316168 
2293	 0.233072353170864 
2294	 0.233105435941875 
2295	 0.233102300129452 
2296	 0.233070106622493 
2297	 0.233053234248942 
2298	 0.233039407285169 
2299	 0.233001897259667 
2300	 0.233011962652471 
2301	 0.233009359349333 
2302	 0.23300147164676 
2303	 0.233019557161792 
2304	 0.233022256670302 
2305	 0.233052153733982 
2306	 0.233046848993757 
2307	 0.233024935703902 
2308	 0.232988907276549 
2309	 0.232937132840145 
2310	 0.232876547082423 
2311	 0.232799872529347 
2312	 0.23273833073047 
2313	 0.232663166557935 
2314	 0.232591890581672 
2315	 0.23253382376721 
2316	 0.232461932786485 
2317	 0.232376364665569 
2318	 0.232310842116046 
2319	 0.232235321991708 
2320	 0.232186670964941 
2321	 0.232172468177485 
2322	 0.23214413522634 
2323	 0.232129040705555 
2324	 0.232106810476339 
2325	 0.232067885450421 
2326	 0.232044110038377 
2327	 0.23203819293015 
2328	 0.2320145295011 
2329	 0.231979327868201 
2330	 0.231933295089522 
2331	 0.23190285640979 
2332	 0.231889843798774 
2333	 0.231851577799706 
2334	 0.231813893072098 
2335	 0.231739114646751 
2336	 0.231672272741512 
2337	 0.231677850603298 
2338	 0.23167413458377 
2339	 0.231649354912366 
2340	 0.23161059100573 
2341	 0.231542703434052 
2342	 0.231464434661552 
2343	 0.231379246935572 
2344	 0.231269044757629 
2345	 0.231152180463611 
2346	 0.231000499400718 
2347	 0.23087564787328 
2348	 0.230765421404959 
2349	 0.23064790103552 
2350	 0.230527476382179 
2351	 0.230414279690793 
2352	 0.23030836579379 
2353	 0.230181454302254 
2354	 0.230063974162848 
2355	 0.229914175314076 
2356	 0.229737523917974 
2357	 0.229552035670623 
2358	 0.229332313055811 
2359	 0.229129777689887 
2360	 0.22890631051982 
2361	 0.228725256503882 
2362	 0.228584899203218 
2363	 0.228432476961725 
2364	 0.228281380892748 
2365	 0.228145463693019 
2366	 0.228008888755959 
2367	 0.227877138182354 
2368	 0.227792991809054 
2369	 0.227671156145638 
2370	 0.227525592109284 
2371	 0.227385732189426 
2372	 0.227212464370013 
2373	 0.227011658377631 
2374	 0.22676571543506 
2375	 0.226438734270055 
2376	 0.226109858432094 
2377	 0.225885772177618 
2378	 0.22570667460132 
2379	 0.225607516678186 
2380	 0.225540253861368 
2381	 0.225379445913354 
2382	 0.225197302945535 
2383	 0.225007620500103 
2384	 0.224832651864977 
2385	 0.224670496834652 
2386	 0.224466373964121 
2387	 0.224218580383177 
2388	 0.223948061150793 
2389	 0.223629420179682 
2390	 0.223328379668384 
2391	 0.223069117154731 
2392	 0.222789823779481 
2393	 0.222609781255993 
2394	 0.222429371342984 
2395	 0.222210693560904 
2396	 0.221997619152191 
2397	 0.221666495288017 
2398	 0.221392272642433 
2399	 0.221167948077938 
2400	 0.220914397915722 
2401	 0.220717758686766 
2402	 0.220463113346655 
2403	 0.220186107858048 
2404	 0.219926977858447 
2405	 0.219617338126109 
2406	 0.219348430890073 
2407	 0.219157695165897 
2408	 0.218967258616713 
2409	 0.218803584675747 
2410	 0.218598507990255 
2411	 0.218253222646843 
2412	 0.217899167581013 
2413	 0.217592226600416 
2414	 0.217289936163177 
2415	 0.216977625316904 
2416	 0.216680004671747 
2417	 0.216370033221756 
2418	 0.216098054080841 
2419	 0.215870583068382 
2420	 0.215590036808032 
2421	 0.215348266714577 
2422	 0.21507110409976 
2423	 0.214700096055474 
2424	 0.214403372571759 
2425	 0.214108394157271 
2426	 0.213864645703258 
2427	 0.213697157458611 
2428	 0.213475541845536 
2429	 0.213313337162649 
2430	 0.213026524069738 
2431	 0.212606927802862 
2432	 0.212257705316576 
2433	 0.21189726431443 
2434	 0.211541827598995 
2435	 0.21119102808319 
2436	 0.21089292147435 
2437	 0.210631567200668 
2438	 0.210370121219901 
2439	 0.210111406117245 
2440	 0.209908163666924 
2441	 0.209722327590011 
2442	 0.209529340958614 
2443	 0.209391892497668 
2444	 0.209235896792778 
2445	 0.209113634868555 
2446	 0.208890561798483 
2447	 0.208703266057075 
2448	 0.208350460781691 
2449	 0.207748193736917 
2450	 0.207350946221893 
2451	 0.206917557033016 
2452	 0.206548468594331 
2453	 0.206378618824023 
2454	 0.206077293676952 
2455	 0.205708346837994 
2456	 0.205338885329837 
2457	 0.204885498516702 
2458	 0.204566025219735 
2459	 0.204302325595786 
2460	 0.204025146871833 
2461	 0.203908964443625 
2462	 0.203590880387306 
2463	 0.203098222926826 
2464	 0.202815966222383 
2465	 0.202527650886703 
2466	 0.202224427061267 
2467	 0.202002806738 
2468	 0.201754025284191 
2469	 0.201473385407933 
2470	 0.201271680415985 
2471	 0.201173401882297 
2472	 0.200833125906273 
2473	 0.200484003340006 
2474	 0.200321992838866 
2475	 0.199974818366753 
2476	 0.199652342942013 
2477	 0.199288507269493 
2478	 0.198803197667613 
2479	 0.198581976127284 
2480	 0.19833291586357 
2481	 0.198164292465856 
2482	 0.198176813993451 
2483	 0.197876875438756 
2484	 0.19752022968248 
2485	 0.197275460304162 
2486	 0.196959867520944 
2487	 0.196745494818742 
2488	 0.196658369326734 
2489	 0.196412501819757 
2490	 0.196007272637928 
2491	 0.195665082949137 
2492	 0.195431103745606 
2493	 0.19517733040707 
2494	 0.194983863666854 
2495	 0.194930353715647 
2496	 0.194824392135785 
2497	 0.19475056491092 
2498	 0.194789121517685 
2499	 0.194652691404576 
2500	 0.194440696190673 
