Wavelength	MM400003.asd
350	 4.25925967916901E-02 
351	 4.55028208586814E-02 
352	 4.47733796138108E-02 
353	 4.11170004240698E-02 
354	 4.19365714582825E-02 
355	 4.51946125311959E-02 
356	 4.46449988828506E-02 
357	 3.82906249755453E-02 
358	 4.39126290755665E-02 
359	 4.47984688740843E-02 
360	 4.21917477512944E-02 
361	 4.75639453334902E-02 
362	 4.41644319132949E-02 
363	 4.08666181802044E-02 
364	 4.22464422294885E-02 
365	 4.17883958460654E-02 
366	 3.94630800466278E-02 
367	 3.89588982742812E-02 
368	 4.26172305107541E-02 
369	 4.36767054948437E-02 
370	 4.37618603157381E-02 
371	 4.34879551152071E-02 
372	 4.27391645692208E-02 
373	 4.27627225323728E-02 
374	 4.34264271006192E-02 
375	 4.45981500569114E-02 
376	 4.68554746126274E-02 
377	 4.44252972049209E-02 
378	 4.30442517654315E-02 
379	 4.78459481470059E-02 
380	 4.61869937328118E-02 
381	 4.44624312464726E-02 
382	 4.46414370560709E-02 
383	 4.48011622961831E-02 
384	 4.39416221958973E-02 
385	 4.42329784818619E-02 
386	 4.63332067144397E-02 
387	 4.74255721661669E-02 
388	 4.68176304069456E-02 
389	 4.53811207551481E-02 
390	 4.45961244508786E-02 
391	 4.56225399725548E-02 
392	 0.046353163550838 
393	 0.046693741264817 
394	 4.81693261328991E-02 
395	 4.73542363663878E-02 
396	 4.78593791117587E-02 
397	 5.07114790627224E-02 
398	 4.87995410863569E-02 
399	 0.048124545197421 
400	 4.92022019460601E-02 
401	 5.03890820465817E-02 
402	 5.03591782824248E-02 
403	 4.93647615265895E-02 
404	 4.84905966708728E-02 
405	 4.93744990701219E-02 
406	 4.95835882904541E-02 
407	 0.04949536232257 
408	 4.96611778957812E-02 
409	 4.95782653857675E-02 
410	 4.92882394779901E-02 
411	 4.95222268078688E-02 
412	 5.09017378432642E-02 
413	 0.050981301793043 
414	 5.07661747495592E-02 
415	 5.07495166064629E-02 
416	 5.03505851577238E-02 
417	 0.050017501603216 
418	 5.00432902999633E-02 
419	 0.050464368864755 
420	 0.050717380749665 
421	 0.050581542937871 
422	 5.05248070772272E-02 
423	 5.12813397254645E-02 
424	 5.15225588063941E-02 
425	 5.12114552374177E-02 
426	 5.06565448842755E-02 
427	 5.04063113060426E-02 
428	 5.04141840257494E-02 
429	 0.050481360265397 
430	 5.03938332063911E-02 
431	 5.02222063617174E-02 
432	 4.99930633382626E-02 
433	 4.97939678346673E-02 
434	 4.97682912111922E-02 
435	 0.050211928987604 
436	 5.04132849713549E-02 
437	 5.00027493838888E-02 
438	 4.99560179012491E-02 
439	 5.01618934627391E-02 
440	 5.02861543585679E-02 
441	 5.00196486591819E-02 
442	 5.03754006823603E-02 
443	 5.06081689768482E-02 
444	 5.03750831212875E-02 
445	 5.01650009228429E-02 
446	 5.03205619067271E-02 
447	 5.04127820715535E-02 
448	 5.00679416161909E-02 
449	 5.01492927827756E-02 
450	 5.07009524310777E-02 
451	 5.12150309931037E-02 
452	 5.08384786574145E-02 
453	 5.06841287154998E-02 
454	 5.06047507831369E-02 
455	 0.050461789189234 
456	 5.07446453916599E-02 
457	 5.08733459644664E-02 
458	 0.05082161546105 
459	 5.08203361487501E-02 
460	 5.09616608934306E-02 
461	 5.09521109571709E-02 
462	 5.07589529507313E-02 
463	 5.07538915689309E-02 
464	 5.08569034822366E-02 
465	 5.08733096953388E-02 
466	 5.07152290787605E-02 
467	 5.08646550660906E-02 
468	 5.10500986107907E-02 
469	 5.11370572717059E-02 
470	 0.051125854502395 
471	 0.051081811917616 
472	 5.09570353810494E-02 
473	 5.07994157861285E-02 
474	 5.09596269366957E-02 
475	 5.09752260124402E-02 
476	 5.08059219443416E-02 
477	 5.06290729511563E-02 
478	 5.06756697432931E-02 
479	 5.07992329169572E-02 
480	 5.08902213491592E-02 
481	 5.09392444213021E-02 
482	 5.11261503157108E-02 
483	 5.11298108854888E-02 
484	 5.07787415285318E-02 
485	 5.10832489689255E-02 
486	 5.12328300311702E-02 
487	 5.10396328316372E-02 
488	 0.050879293570047 
489	 5.09122216376604E-02 
490	 5.10618884232126E-02 
491	 5.11862925816559E-02 
492	 5.10960866067594E-02 
493	 5.10991861880302E-02 
494	 5.11630237088207E-02 
495	 5.11271553086123E-02 
496	 5.12128225216233E-02 
497	 0.051210579377687 
498	 5.10931525698607E-02 
499	 5.11613375840967E-02 
500	 5.11661008130727E-02 
501	 5.11373450880669E-02 
502	 5.11569526997862E-02 
503	 5.11511221443061E-02 
504	 5.12429673490296E-02 
505	 5.13520352896089E-02 
506	 5.12309217057971E-02 
507	 5.12388910907111E-02 
508	 5.13057292026068E-02 
509	 5.13035954404721E-02 
510	 5.11467527304873E-02 
511	 5.12586052080301E-02 
512	 5.14606309211404E-02 
513	 0.051316060815101 
514	 5.12342661849334E-02 
515	 5.12938737646323E-02 
516	 5.14482998536444E-02 
517	 5.15145422111532E-02 
518	 0.05156451744685 
519	 5.15529662623706E-02 
520	 5.14494018075915E-02 
521	 5.14716700177724E-02 
522	 5.14531749846458E-02 
523	 5.14030856312597E-02 
524	 5.15293189012418E-02 
525	 5.15703885548883E-02 
526	 5.15507465374778E-02 
527	 0.051537273356929 
528	 5.14951787957459E-02 
529	 0.051577357998138 
530	 5.17046862122451E-02 
531	 5.16687239295433E-02 
532	 0.051666755315187 
533	 5.17434210195629E-02 
534	 5.18659657280441E-02 
535	 5.18954470564366E-02 
536	 5.18495104395354E-02 
537	 5.18439615548205E-02 
538	 5.19895647357268E-02 
539	 5.20594196137344E-02 
540	 5.20992637357675E-02 
541	 5.21394620324033E-02 
542	 5.21578493944863E-02 
543	 5.22153102032995E-02 
544	 5.22810574329233E-02 
545	 5.23194908728671E-02 
546	 0.052383218513589 
547	 5.24708500638032E-02 
548	 5.25640773393015E-02 
549	 0.052634732760179 
550	 5.27338264851133E-02 
551	 5.28073350610191E-02 
552	 5.28367522447822E-02 
553	 5.29482118211345E-02 
554	 5.30388908257789E-02 
555	 5.31233014006367E-02 
556	 5.32696358675177E-02 
557	 5.34392050381628E-02 
558	 5.36038133605343E-02 
559	 5.37600006823343E-02 
560	 5.39462905092759E-02 
561	 5.41182104763227E-02 
562	 5.43013261810949E-02 
563	 5.45322774080476E-02 
564	 5.47715097257752E-02 
565	 5.50082219667523E-02 
566	 5.52286124411558E-02 
567	 5.54156374476796E-02 
568	 5.57302527509983E-02 
569	 5.60685668063222E-02 
570	 5.63287792164594E-02 
571	 5.66470750828795E-02 
572	 5.69733881661216E-02 
573	 5.73004422193591E-02 
574	 5.76490371858767E-02 
575	 5.79786342805554E-02 
576	 5.83377796366933E-02 
577	 5.87406748325278E-02 
578	 5.90863858757255E-02 
579	 5.95131398975188E-02 
580	 5.99945124025264E-02 
581	 6.04525628047054E-02 
582	 6.09920888453545E-02 
583	 6.15528699368821E-02 
584	 6.20932076297422E-02 
585	 6.26193096111849E-02 
586	 6.31320599784924E-02 
587	 6.36381235310628E-02 
588	 6.41509745766238E-02 
589	 0.064708994657004 
590	 6.52580170758349E-02 
591	 6.57954651530136E-02 
592	 6.63664567112687E-02 
593	 6.68876319787886E-02 
594	 0.06744969856354 
595	 0.068094564015739 
596	 6.86484849558762E-02 
597	 6.91927157693277E-02 
598	 6.97532997310681E-02 
599	 7.03305476962484E-02 
600	 7.09504208454465E-02 
601	 7.15144507901133E-02 
602	 7.19799880326666E-02 
603	 7.24214942101926E-02 
604	 7.29118590482352E-02 
605	 7.34286039406169E-02 
606	 7.39172186680608E-02 
607	 7.43857101982397E-02 
608	 7.48237517923002E-02 
609	 0.075235757194655 
610	 7.56440122181477E-02 
611	 7.60550820899484E-02 
612	 7.64632635882669E-02 
613	 7.68533586643781E-02 
614	 7.72033823414875E-02 
615	 7.74872903910042E-02 
616	 7.77532956722581E-02 
617	 7.80899108887032E-02 
618	 7.84179343761363E-02 
619	 7.86861757403021E-02 
620	 7.88874671039519E-02 
621	 7.90877504055578E-02 
622	 7.93261736901602E-02 
623	 7.95458406660658E-02 
624	 7.96792019662705E-02 
625	 7.98957325695816E-02 
626	 8.01088102471352E-02 
627	 8.02791045525234E-02 
628	 8.04561513432929E-02 
629	 0.080663054502475 
630	 8.08526905731627E-02 
631	 8.09921784522679E-02 
632	 8.11872755423538E-02 
633	 8.13715943080681E-02 
634	 8.15156317151468E-02 
635	 8.16296523830846E-02 
636	 8.18083022937669E-02 
637	 8.20059080894321E-02 
638	 8.21668908716104E-02 
639	 8.22676822510278E-02 
640	 8.24174074199128E-02 
641	 8.26075219498308E-02 
642	 8.27755016432762E-02 
643	 8.29269054296734E-02 
644	 8.30825611395234E-02 
645	 0.083261131914237 
646	 0.083477069132964 
647	 8.36405025158496E-02 
648	 8.37910998134642E-02 
649	 8.39852147183562E-02 
650	 0.084169611588409 
651	 8.43686707596664E-02 
652	 8.45719091504477E-02 
653	 8.47418596633356E-02 
654	 8.49326959734405E-02 
655	 8.51584378387859E-02 
656	 8.53983386306001E-02 
657	 8.55531439620314E-02 
658	 8.57881305300166E-02 
659	 8.60684077145615E-02 
660	 8.62776499467408E-02 
661	 8.64877711326203E-02 
662	 8.67182302759993E-02 
663	 8.69720978205467E-02 
664	 8.72367561823964E-02 
665	 0.087481781587208 
666	 8.77323316539932E-02 
667	 8.80154089602812E-02 
668	 8.82904874162183E-02 
669	 8.85575476765676E-02 
670	 0.08884275631966 
671	 8.91839601067614E-02 
672	 8.94683872776906E-02 
673	 8.97426314790402E-02 
674	 9.00606732291614E-02 
675	 9.04345172173094E-02 
676	 9.07638779787864E-02 
677	 9.10550617723061E-02 
678	 9.13627590585357E-02 
679	 9.16953964791413E-02 
680	 9.20564130557902E-02 
681	 0.092438520586574 
682	 9.28232834129332E-02 
683	 9.31853840267782E-02 
684	 9.35538550754154E-02 
685	 9.39569201727635E-02 
686	 9.43648475644795E-02 
687	 9.47654016337903E-02 
688	 9.51627950985946E-02 
689	 9.55725360367816E-02 
690	 9.59891817233621E-02 
691	 9.64164075948839E-02 
692	 9.68541223883093E-02 
693	 9.72942296909103E-02 
694	 0.097722927740671 
695	 9.81660471969779E-02 
696	 9.86479795009441E-02 
697	 0.099097760727877 
698	 9.95645170840348E-02 
699	 0.100042419400062 
700	 0.100464478324849 
701	 0.100942132559176 
702	 0.101442383617581 
703	 0.101919094346217 
704	 0.102377513921558 
705	 0.102877892955762 
706	 0.103390065556448 
707	 0.103850045252103 
708	 0.104355704232871 
709	 0.104850623466895 
710	 0.105321895079792 
711	 0.105844868747818 
712	 0.106332291975656 
713	 0.106810881015601 
714	 0.107310678385715 
715	 0.107738923385146 
716	 0.108191145563233 
717	 0.10868031140449 
718	 0.109154220691356 
719	 0.109593164788234 
720	 0.110039912185251 
721	 0.110496881555914 
722	 0.110863377615423 
723	 0.111303603708864 
724	 0.11175724673635 
725	 0.112119023022879 
726	 0.112480850853729 
727	 0.112829335706317 
728	 0.113169775475946 
729	 0.113523943170185 
730	 0.113820172611714 
731	 0.11411137420863 
732	 0.114432269445346 
733	 0.11472394911849 
734	 0.114967001620145 
735	 0.115176536169774 
736	 0.115375504838314 
737	 0.115513427033145 
738	 0.115678157553666 
739	 0.11586935407795 
740	 0.115983585515302 
741	 0.116093736611908 
742	 0.116179833708674 
743	 0.116229412171447 
744	 0.116306789455913 
745	 0.116336462934264 
746	 0.116332539202721 
747	 0.116341783722353 
748	 0.116311624498426 
749	 0.116250737733107 
750	 0.116167947560901 
751	 0.116065744824301 
752	 0.115969330689647 
753	 0.115850491856628 
754	 0.11569541826593 
755	 0.115573138153253 
756	 0.115418260242829 
757	 0.115233489179668 
758	 0.115052949380138 
759	 0.114859323056927 
760	 0.114639792314912 
761	 0.114410892971939 
762	 0.114222895569627 
763	 0.113961338214559 
764	 0.113682526169926 
765	 0.113442112698362 
766	 0.113167823741831 
767	 0.112898127244455 
768	 0.112615393785822 
769	 0.112288255655393 
770	 0.111998338787702 
771	 0.111707426129348 
772	 0.111397614500141 
773	 0.111088403690003 
774	 0.110799052507074 
775	 0.110483580902526 
776	 0.110118415174806 
777	 0.109777242021526 
778	 0.10945491225511 
779	 0.109150007076252 
780	 0.108855323709382 
781	 0.108536433340895 
782	 0.108226457794079 
783	 0.107919563305238 
784	 0.107569041625599 
785	 0.107263541115882 
786	 0.106952482959481 
787	 0.106602957612632 
788	 0.106289980326195 
789	 0.105976463557222 
790	 0.105665474107446 
791	 0.105366736567318 
792	 0.105049849465367 
793	 0.104741448021099 
794	 0.104449165114937 
795	 0.104160943441244 
796	 0.103857492308684 
797	 0.103572577952981 
798	 0.103312667769784 
799	 0.103017180679408 
800	 0.102757102560916 
801	 0.102498066573122 
802	 0.102200101079033 
803	 0.101929806634478 
804	 0.101673244242026 
805	 0.101412163174815 
806	 0.101134562530079 
807	 0.100898458030182 
808	 0.100652180795145 
809	 0.100394002807469 
810	 0.100198801871867 
811	 9.99816313553418E-02 
812	 9.97427779739737E-02 
813	 9.95038881460527E-02 
814	 9.92886204562705E-02 
815	 9.90721224323758E-02 
816	 9.88611508919649E-02 
817	 9.86671769123305E-02 
818	 9.84486506159787E-02 
819	 9.82724469538035E-02 
820	 9.81182982335923E-02 
821	 9.79003073883616E-02 
822	 0.097735799590422 
823	 9.75923588431719E-02 
824	 9.74299421129065E-02 
825	 9.72335985393526E-02 
826	 9.70913455947632E-02 
827	 0.096973337050658 
828	 9.68304838841143E-02 
829	 9.66667089098812E-02 
830	 9.64890650965908E-02 
831	 9.63424201697365E-02 
832	 9.62664044776919E-02 
833	 9.61658890072347E-02 
834	 9.60386939938739E-02 
835	 9.59004695470073E-02 
836	 9.57776855234727E-02 
837	 9.56953295414398E-02 
838	 9.56054744576145E-02 
839	 9.54903570783226E-02 
840	 9.54037351606822E-02 
841	 9.53387038119322E-02 
842	 9.52631209445343E-02 
843	 9.51704602681659E-02 
844	 9.51669153350639E-02 
845	 0.095104738731893 
846	 9.49988624879376E-02 
847	 9.49322172596518E-02 
848	 9.48834128131597E-02 
849	 9.48300345477303E-02 
850	 9.47909701917283E-02 
851	 9.48078545138577E-02 
852	 9.47718282442626E-02 
853	 9.47168617765637E-02 
854	 0.094682013690308 
855	 9.46803651304808E-02 
856	 9.46543275040372E-02 
857	 9.46608675944197E-02 
858	 9.47203412810676E-02 
859	 9.46859225478419E-02 
860	 9.46888508628953E-02 
861	 9.47339544261309E-02 
862	 9.47794069206799E-02 
863	 9.48027806207533E-02 
864	 9.47774248058779E-02 
865	 9.47533031598679E-02 
866	 9.48044492649902E-02 
867	 9.48213614473949E-02 
868	 9.48417998842243E-02 
869	 9.48961782037541E-02 
870	 9.49878087300945E-02 
871	 9.50548456356292E-02 
872	 9.51037080409816E-02 
873	 9.51583194911256E-02 
874	 9.52479826972052E-02 
875	 9.53369753022742E-02 
876	 9.54059325661635E-02 
877	 9.54566205303341E-02 
878	 9.55252637036745E-02 
879	 9.56678297279304E-02 
880	 9.58056530162658E-02 
881	 9.58566699833912E-02 
882	 9.59360025412073E-02 
883	 9.60525298860833E-02 
884	 9.61864088662234E-02 
885	 9.63077923218202E-02 
886	 9.64427137855696E-02 
887	 9.65443724672025E-02 
888	 9.66401310166129E-02 
889	 0.096809089091056 
890	 9.69601540903896E-02 
891	 9.70910223026909E-02 
892	 9.72280558525699E-02 
893	 9.74110672519912E-02 
894	 0.097530669847543 
895	 0.097663674089959 
896	 9.78608734994395E-02 
897	 9.80601612743015E-02 
898	 9.82586322346271E-02 
899	 9.84363947989819E-02 
900	 9.86039808309804E-02 
901	 9.88631985742272E-02 
902	 9.90508873023181E-02 
903	 9.92116306577966E-02 
904	 9.94277875742561E-02 
905	 9.96279567676743E-02 
906	 9.98294446384785E-02 
907	 0.100049787608683 
908	 0.100302012606777 
909	 0.100582651601331 
910	 0.100837864516166 
911	 0.101084183626621 
912	 0.101374295892669 
913	 0.101650197594002 
914	 0.101950475960401 
915	 0.102221722104738 
916	 0.102366124452193 
917	 0.102693478409003 
918	 0.103068242280952 
919	 0.103376332491739 
920	 0.103610177764423 
921	 0.103876546162055 
922	 0.104175914356224 
923	 0.104500547714901 
924	 0.104860934138729 
925	 0.105269480531202 
926	 0.10565934930457 
927	 0.105991341442908 
928	 0.106305703470475 
929	 0.106616606785475 
930	 0.10699574235498 
931	 0.107451006952039 
932	 0.107823204584166 
933	 0.108244931695535 
934	 0.108681076595732 
935	 0.109078338705088 
936	 0.1094744725548 
937	 0.109877781424626 
938	 0.110298679595742 
939	 0.1107439170791 
940	 0.11121972534667 
941	 0.111630794779042 
942	 0.112062516155293 
943	 0.11259982586443 
944	 0.113027437342634 
945	 0.113449354386256 
946	 0.113918521570314 
947	 0.114441124695977 
948	 0.114957442115755 
949	 0.115445758582322 
950	 0.115904237778178 
951	 0.116371089621358 
952	 0.117003142422668 
953	 0.117621768955744 
954	 0.118161582666654 
955	 0.11865911325501 
956	 0.119227436769559 
957	 0.119813517421265 
958	 0.120346916782028 
959	 0.120809534684366 
960	 0.12147311159145 
961	 0.122141441950013 
962	 0.122742317094446 
963	 0.123308709165908 
964	 0.123821464209073 
965	 0.124472739739907 
966	 0.125192897062059 
967	 0.12577694268673 
968	 0.126385974399754 
969	 0.127009842354736 
970	 0.127694136577505 
971	 0.128474309096361 
972	 0.129100882279599 
973	 0.129697206292269 
974	 0.130307405889739 
975	 0.130933140807316 
976	 0.131783825079329 
977	 0.132562719071323 
978	 0.133225229624785 
979	 0.133907775732401 
980	 0.134584357944885 
981	 0.13526504572913 
982	 0.135966356788753 
983	 0.136701760605591 
984	 0.137461571140704 
985	 0.138182524658003 
986	 0.138869095296859 
987	 0.139561657095038 
988	 0.140243459927651 
989	 0.141024549259202 
990	 0.141758490602255 
991	 0.142303652518559 
992	 0.143154131247591 
993	 0.143925374994698 
994	 0.144659612169906 
995	 0.145495397482996 
996	 0.146060230548071 
997	 0.14670712987894 
998	 0.147476904794933 
999	 0.14829868627587 
1000	 0.149254699681341 
1001	 0.150712848717215 
1002	 0.151384898298992 
1003	 0.152123700566622 
1004	 0.152860631680373 
1005	 0.153616532541492 
1006	 0.1543395021036 
1007	 0.155083356311195 
1008	 0.155768011670559 
1009	 0.156402852725195 
1010	 0.157044345940579 
1011	 0.157710771122327 
1012	 0.158432514249674 
1013	 0.159153558779981 
1014	 0.159837215006704 
1015	 0.160460275440652 
1016	 0.161070304136278 
1017	 0.161706949733483 
1018	 0.162331935543777 
1019	 0.16296782165992 
1020	 0.163676658559709 
1021	 0.164396582011692 
1022	 0.165017927809169 
1023	 0.165648804207058 
1024	 0.166256430384879 
1025	 0.166734438895588 
1026	 0.167265266155608 
1027	 0.167860133240728 
1028	 0.168415751383567 
1029	 0.168978730753354 
1030	 0.169544852874827 
1031	 0.170074961391018 
1032	 0.170565894642082 
1033	 0.171034005414831 
1034	 0.171555681580235 
1035	 0.172070617153122 
1036	 0.172600582677773 
1037	 0.173212271547543 
1038	 0.173784309336189 
1039	 0.174342858496014 
1040	 0.174859699762378 
1041	 0.175304218489339 
1042	 0.175799507593577 
1043	 0.176302181118832 
1044	 0.176808613072877 
1045	 0.177337156100226 
1046	 0.177902146061858 
1047	 0.178413354752369 
1048	 0.178904614688106 
1049	 0.179403450441557 
1050	 0.179889770542314 
1051	 0.180399000253898 
1052	 0.180916519091667 
1053	 0.181433597820323 
1054	 0.181964014598447 
1055	 0.182449206760548 
1056	 0.182925370971173 
1057	 0.183402619692061 
1058	 0.183846437430634 
1059	 0.184309094954945 
1060	 0.184775252656804 
1061	 0.185276718848378 
1062	 0.185752159659541 
1063	 0.186263124217533 
1064	 0.186774564342925 
1065	 0.187203787392148 
1066	 0.18762941552059 
1067	 0.1880879500917 
1068	 0.188560679064532 
1069	 0.189019799594483 
1070	 0.189486793966689 
1071	 0.189976593269795 
1072	 0.190448452915898 
1073	 0.190914772828314 
1074	 0.191368863452689 
1075	 0.191823935310871 
1076	 0.192227456024595 
1077	 0.192656643948611 
1078	 0.193088742554803 
1079	 0.193508670349181 
1080	 0.193940449175972 
1081	 0.194362037512714 
1082	 0.194771691629401 
1083	 0.195179215295675 
1084	 0.195588206342858 
1085	 0.196006793082835 
1086	 0.196407644206054 
1087	 0.196828392456963 
1088	 0.197280705536643 
1089	 0.1977053539315 
1090	 0.198106315518136 
1091	 0.198506587751077 
1092	 0.198904071123771 
1093	 0.199339182328862 
1094	 0.19977864118028 
1095	 0.200204445663837 
1096	 0.20064110725204 
1097	 0.201051549701978 
1098	 0.201468392247095 
1099	 0.20189117676243 
1100	 0.202311692386907 
1101	 0.202715458315042 
1102	 0.203142014078061 
1103	 0.203577450304331 
1104	 0.204018505309526 
1105	 0.204467256139324 
1106	 0.204919477158665 
1107	 0.205390102884202 
1108	 0.205843928270523 
1109	 0.206282204939199 
1110	 0.206712695594799 
1111	 0.207166870089824 
1112	 0.2076266860084 
1113	 0.208073798277784 
1114	 0.208525910058072 
1115	 0.209004245191031 
1116	 0.209481701682265 
1117	 0.209950519229116 
1118	 0.210446421295568 
1119	 0.210927541019312 
1120	 0.211400763367701 
1121	 0.211853694559925 
1122	 0.212302878137385 
1123	 0.212783236777342 
1124	 0.213239093644154 
1125	 0.213654902720357 
1126	 0.214121094654617 
1127	 0.214626046903978 
1128	 0.215088072091998 
1129	 0.215547380268746 
1130	 0.216009687054969 
1131	 0.216451948862547 
1132	 0.216895359255501 
1133	 0.217342783008803 
1134	 0.217794862807784 
1135	 0.218241278259875 
1136	 0.218686245762031 
1137	 0.219152681766785 
1138	 0.219605726297242 
1139	 0.22004713262298 
1140	 0.220484152125792 
1141	 0.22090744140371 
1142	 0.221319251380016 
1143	 0.22172264200039 
1144	 0.222104166487736 
1145	 0.22249527551328 
1146	 0.222893845170055 
1147	 0.223275813456136 
1148	 0.223645334945561 
1149	 0.224025435259179 
1150	 0.224412225346964 
1151	 0.224767938108389 
1152	 0.22513709654468 
1153	 0.225512960590311 
1154	 0.225878823837293 
1155	 0.226232507787659 
1156	 0.226591274403898 
1157	 0.22695643251972 
1158	 0.227308241832169 
1159	 0.227662609674211 
1160	 0.227992831096777 
1161	 0.228292083516657 
1162	 0.228618624595057 
1163	 0.228943988802996 
1164	 0.229267709059663 
1165	 0.229612318606051 
1166	 0.229950972275214 
1167	 0.230263128724657 
1168	 0.230558097511526 
1169	 0.230846846283744 
1170	 0.231114329257661 
1171	 0.231401344269491 
1172	 0.231690230390997 
1173	 0.231976008376074 
1174	 0.232278064181256 
1175	 0.232556191861894 
1176	 0.232819187334548 
1177	 0.233078926315453 
1178	 0.233325283176132 
1179	 0.233575757608128 
1180	 0.233820816465458 
1181	 0.234068211642387 
1182	 0.234306467752278 
1183	 0.234567834881081 
1184	 0.234819513903335 
1185	 0.235081650311217 
1186	 0.235318614630219 
1187	 0.235547673510788 
1188	 0.235769835842122 
1189	 0.235972242398466 
1190	 0.236181874266284 
1191	 0.236390120970234 
1192	 0.236600328449773 
1193	 0.236811670537701 
1194	 0.237018451591696 
1195	 0.237213158155235 
1196	 0.237427119598044 
1197	 0.237661367941187 
1198	 0.237874828629131 
1199	 0.238085046857508 
1200	 0.23830991254676 
1201	 0.238506541534837 
1202	 0.238678282181881 
1203	 0.238852347303147 
1204	 0.239019500842902 
1205	 0.239186126305512 
1206	 0.239337987386268 
1207	 0.239503220234664 
1208	 0.239688644954553 
1209	 0.239846076730817 
1210	 0.239989659937754 
1211	 0.240138040019104 
1212	 0.240269222064206 
1213	 0.240407095216574 
1214	 0.240555588401583 
1215	 0.240700299339658 
1216	 0.240843028960771 
1217	 0.240982176292422 
1218	 0.241118960799409 
1219	 0.241267549746811 
1220	 0.241381479565903 
1221	 0.241460986250418 
1222	 0.241577061251178 
1223	 0.241685424826293 
1224	 0.241807690601656 
1225	 0.241973480713994 
1226	 0.242103732179238 
1227	 0.242220611055797 
1228	 0.242329170526037 
1229	 0.242406291197444 
1230	 0.242509831828324 
1231	 0.242625213033952 
1232	 0.242733260966463 
1233	 0.242844602446135 
1234	 0.242972528335701 
1235	 0.243086076884136 
1236	 0.243191009752487 
1237	 0.24329061184052 
1238	 0.243395801928581 
1239	 0.243483693185273 
1240	 0.243545171837775 
1241	 0.243626447648352 
1242	 0.243703731097278 
1243	 0.24379341465071 
1244	 0.243905194168461 
1245	 0.243999144071504 
1246	 0.244085461485788 
1247	 0.244179458320658 
1248	 0.244269991435913 
1249	 0.244365162523354 
1250	 0.244454125935102 
1251	 0.244534781286645 
1252	 0.244613274512392 
1253	 0.244680682076897 
1254	 0.244743834620027 
1255	 0.244810675904074 
1256	 0.244863651133288 
1257	 0.244891105855364 
1258	 0.244937070143204 
1259	 0.244979364981084 
1260	 0.24503656638539 
1261	 0.245114483215512 
1262	 0.245177301417847 
1263	 0.24524617493769 
1264	 0.245307899154368 
1265	 0.245357508809249 
1266	 0.245409517458239 
1267	 0.245470752218136 
1268	 0.245503717947419 
1269	 0.245562046630797 
1270	 0.245625006998408 
1271	 0.245686745899909 
1272	 0.245761035594523 
1273	 0.24582564002057 
1274	 0.245868811135562 
1275	 0.245946167598493 
1276	 0.246040578825195 
1277	 0.246133367518742 
1278	 0.246240741228581 
1279	 0.246353316398169 
1280	 0.246479210548836 
1281	 0.246586769436686 
1282	 0.24670434295546 
1283	 0.246804980390536 
1284	 0.246884821637142 
1285	 0.246955558930996 
1286	 0.24702653077178 
1287	 0.247098245061321 
1288	 0.247163635278443 
1289	 0.247217344744726 
1290	 0.247280507668454 
1291	 0.247357110443751 
1292	 0.247404182780748 
1293	 0.247438822968461 
1294	 0.247475524577937 
1295	 0.247493254064414 
1296	 0.247515955418494 
1297	 0.247552128043851 
1298	 0.247568005507549 
1299	 0.24757510053061 
1300	 0.247568708630583 
1301	 0.247542336290792 
1302	 0.247521170864404 
1303	 0.247488445163894 
1304	 0.247454367445925 
1305	 0.247449275615086 
1306	 0.247438580043716 
1307	 0.247426300063272 
1308	 0.247419278796057 
1309	 0.247401122308528 
1310	 0.247370399693963 
1311	 0.247345121158757 
1312	 0.247317731581356 
1313	 0.247293077767832 
1314	 0.247255209950833 
1315	 0.24724436745447 
1316	 0.247261441363265 
1317	 0.247256660460246 
1318	 0.247252975094956 
1319	 0.247251091153502 
1320	 0.247227177056995 
1321	 0.247224409971398 
1322	 0.247232871552154 
1323	 0.247260036626844 
1324	 0.247280761955307 
1325	 0.247298156967996 
1326	 0.247324690737857 
1327	 0.247345113843934 
1328	 0.24736559164974 
1329	 0.247401972967552 
1330	 0.24746226324889 
1331	 0.24754448412288 
1332	 0.247619295593101 
1333	 0.247720004509994 
1334	 0.247799000502772 
1335	 0.247857961465539 
1336	 0.24793245565601 
1337	 0.248013159353486 
1338	 0.248089471331158 
1339	 0.248169267621049 
1340	 0.248246009453506 
1341	 0.248317126836054 
1342	 0.248394180614029 
1343	 0.248475810117976 
1344	 0.248552549846946 
1345	 0.248631296080581 
1346	 0.24871548620698 
1347	 0.24880423615471 
1348	 0.248887089793212 
1349	 0.248981840581048 
1350	 0.249089038837652 
1351	 0.249199209825052 
1352	 0.249331012949272 
1353	 0.249428483992453 
1354	 0.249512364833142 
1355	 0.249603381796335 
1356	 0.249681678301834 
1357	 0.249761794698345 
1358	 0.249851904486703 
1359	 0.249935085103396 
1360	 0.249996166919657 
1361	 0.250075248471224 
1362	 0.250178750256117 
1363	 0.250259577278727 
1364	 0.250337527500506 
1365	 0.250405430316065 
1366	 0.250457669549505 
1367	 0.25050796901294 
1368	 0.250551703873874 
1369	 0.250599276323539 
1370	 0.25064870820532 
1371	 0.25067315092718 
1372	 0.250682489377897 
1373	 0.250700026693929 
1374	 0.250708319492166 
1375	 0.250710675152425 
1376	 0.25069888333912 
1377	 0.250686557581031 
1378	 0.250649379406925 
1379	 0.250595488028802 
1380	 0.250527390966927 
1381	 0.250445726721617 
1382	 0.250347716764407 
1383	 0.250224742846113 
1384	 0.250100438700297 
1385	 0.249978754150384 
1386	 0.249824054529745 
1387	 0.249653122634712 
1388	 0.249469923331854 
1389	 0.24926259757543 
1390	 0.249039632993225 
1391	 0.248816034635802 
1392	 0.248565568163085 
1393	 0.248275850277612 
1394	 0.24799026239414 
1395	 0.247678973450986 
1396	 0.247345865316538 
1397	 0.247010493164265 
1398	 0.246664664238574 
1399	 0.246303835371984 
1400	 0.245926950034004 
1401	 0.245553389390326 
1402	 0.245163104096631 
1403	 0.244790998031498 
1404	 0.244427244673319 
1405	 0.244064737633547 
1406	 0.243716677832352 
1407	 0.243346210416017 
1408	 0.242949009919116 
1409	 0.24258454717624 
1410	 0.242208648064958 
1411	 0.241872334027627 
1412	 0.241566747172943 
1413	 0.2412850849165 
1414	 0.24100886867561 
1415	 0.240751446707435 
1416	 0.240527443790416 
1417	 0.240308107400803 
1418	 0.240116279958685 
1419	 0.239942670350191 
1420	 0.239755761303082 
1421	 0.239588320250281 
1422	 0.239444707104219 
1423	 0.239308215636719 
1424	 0.239178962523042 
1425	 0.239068386698402 
1426	 0.238960874697326 
1427	 0.238853492753249 
1428	 0.238757452764551 
1429	 0.238666807023276 
1430	 0.238600188775973 
1431	 0.238549950047313 
1432	 0.238505566825317 
1433	 0.238486799005752 
1434	 0.238459674604097 
1435	 0.238433385395515 
1436	 0.238402861856818 
1437	 0.238368822377793 
1438	 0.238349379806332 
1439	 0.238331077404942 
1440	 0.238317577284871 
1441	 0.238320698195333 
1442	 0.238329989286351 
1443	 0.238342682969664 
1444	 0.2383562847385 
1445	 0.238389058786208 
1446	 0.238412561040931 
1447	 0.238432320035361 
1448	 0.238460210798353 
1449	 0.238466523597107 
1450	 0.238486651846893 
1451	 0.238521339461953 
1452	 0.238565053518655 
1453	 0.238613712513556 
1454	 0.238681452262002 
1455	 0.238733697308526 
1456	 0.238787274703145 
1457	 0.238829975771499 
1458	 0.238864005587901 
1459	 0.238906292225901 
1460	 0.238938685671323 
1461	 0.238983871067785 
1462	 0.239038802062424 
1463	 0.239091252073792 
1464	 0.239138575330387 
1465	 0.239205210071274 
1466	 0.239273146985502 
1467	 0.23936385103826 
1468	 0.239493189290415 
1469	 0.239600596909567 
1470	 0.239702765664353 
1471	 0.239820604922848 
1472	 0.23992997978487 
1473	 0.240040442908338 
1474	 0.240177178779144 
1475	 0.240319856413779 
1476	 0.240447567180599 
1477	 0.240580125104992 
1478	 0.240724897637648 
1479	 0.240848952088461 
1480	 0.240971133553161 
1481	 0.24110288564396 
1482	 0.241225499761522 
1483	 0.241330373447395 
1484	 0.241457985071844 
1485	 0.241599350002116 
1486	 0.241730754362329 
1487	 0.241866950362586 
1488	 0.242000282375162 
1489	 0.242125514603653 
1490	 0.242253641598371 
1491	 0.242388328824862 
1492	 0.242517166507569 
1493	 0.242639918332902 
1494	 0.242771002080581 
1495	 0.24290466319116 
1496	 0.243031175506048 
1497	 0.243162353854954 
1498	 0.243286362927434 
1499	 0.243401819752777 
1500	 0.243524276656863 
1501	 0.24364238064031 
1502	 0.243763064750579 
1503	 0.243890802999415 
1504	 0.244010070739149 
1505	 0.244126482960044 
1506	 0.244251012682152 
1507	 0.244380994259346 
1508	 0.244496902184759 
1509	 0.244592976839888 
1510	 0.244697592773839 
1511	 0.24479447834051 
1512	 0.244885891485999 
1513	 0.245001536267024 
1514	 0.245130550420187 
1515	 0.245250759043419 
1516	 0.245373031560126 
1517	 0.24548909675875 
1518	 0.245604031187765 
1519	 0.245704220807699 
1520	 0.245795159133004 
1521	 0.245886442790047 
1522	 0.245967343019224 
1523	 0.246054105502022 
1524	 0.246143789313189 
1525	 0.246228166145297 
1526	 0.246305313340099 
1527	 0.246390319925365 
1528	 0.246479472509904 
1529	 0.246565092027847 
1530	 0.246661531266448 
1531	 0.246738714864194 
1532	 0.246800430990107 
1533	 0.246867356860929 
1534	 0.246918163246803 
1535	 0.246983710134735 
1536	 0.247058452403073 
1537	 0.247136731783063 
1538	 0.247229768960726 
1539	 0.247310175729049 
1540	 0.247388575857556 
1541	 0.247463126740555 
1542	 0.247529261411431 
1543	 0.247596466473469 
1544	 0.247673681547374 
1545	 0.247730306675573 
1546	 0.247777495642166 
1547	 0.247802637675536 
1548	 0.247841038931045 
1549	 0.247897138920823 
1550	 0.247964820310851 
1551	 0.24804717527822 
1552	 0.248117456804322 
1553	 0.248173642719213 
1554	 0.248233441762305 
1555	 0.248292206622798 
1556	 0.248343782520776 
1557	 0.248399668497898 
1558	 0.248461662440081 
1559	 0.248521306503944 
1560	 0.248577437713138 
1561	 0.248641438655574 
1562	 0.248694286891517 
1563	 0.248732146443617 
1564	 0.248778978496846 
1565	 0.24882663590549 
1566	 0.248877936425633 
1567	 0.2489301535637 
1568	 0.248986955823115 
1569	 0.249056892215146 
1570	 0.249102900915593 
1571	 0.249140826971579 
1572	 0.249179159897379 
1573	 0.24919572540447 
1574	 0.249237235270231 
1575	 0.249286551204596 
1576	 0.249345664419322 
1577	 0.249436474622422 
1578	 0.249488637110097 
1579	 0.249539336941683 
1580	 0.249564811096037 
1581	 0.249544879473738 
1582	 0.249550141622732 
1583	 0.249548566450801 
1584	 0.249564377019749 
1585	 0.249594736333056 
1586	 0.249626753858091 
1587	 0.249670154130947 
1588	 0.249707916787445 
1589	 0.249746726701715 
1590	 0.249783831540062 
1591	 0.249815571753435 
1592	 0.249857659247632 
1593	 0.249910156855797 
1594	 0.249954507931715 
1595	 0.250002160870779 
1596	 0.250044573024725 
1597	 0.250091558925064 
1598	 0.250115207185319 
1599	 0.250105688823482 
1600	 0.250126439781121 
1601	 0.250143444251859 
1602	 0.250168928821675 
1603	 0.250236109562178 
1604	 0.250277254866323 
1605	 0.250292114992388 
1606	 0.250318107624206 
1607	 0.250332857123914 
1608	 0.250371312830198 
1609	 0.250411817372169 
1610	 0.250446514450762 
1611	 0.250481232648288 
1612	 0.250501184622299 
1613	 0.250507238613494 
1614	 0.250532069551729 
1615	 0.250572721126163 
1616	 0.250607032586324 
1617	 0.250627358814025 
1618	 0.250650077939151 
1619	 0.25067590855554 
1620	 0.250683422357331 
1621	 0.250712587101996 
1622	 0.250768332308625 
1623	 0.250794663188108 
1624	 0.250811098447004 
1625	 0.25082939840101 
1626	 0.250837735737922 
1627	 0.250852311797794 
1628	 0.250873709321313 
1629	 0.250876874234757 
1630	 0.250869539054923 
1631	 0.250873299225347 
1632	 0.250867315158313 
1633	 0.250876748865766 
1634	 0.250900512450839 
1635	 0.250918269379088 
1636	 0.25093999724234 
1637	 0.250954870978504 
1638	 0.250966931959251 
1639	 0.250983169733626 
1640	 0.250993272029489 
1641	 0.251014219750215 
1642	 0.251051575396004 
1643	 0.251067339898532 
1644	 0.251083112926795 
1645	 0.251081722265248 
1646	 0.251051119134089 
1647	 0.251050462432162 
1648	 0.251052548920166 
1649	 0.251060727856432 
1650	 0.25109085089863 
1651	 0.251102373142416 
1652	 0.251107615170602 
1653	 0.251109587386908 
1654	 0.25109573302592 
1655	 0.251108500642849 
1656	 0.251136367936181 
1657	 0.251147827315705 
1658	 0.251168291643727 
1659	 0.251183051363696 
1660	 0.251188101577441 
1661	 0.251183091068741 
1662	 0.251181542807575 
1663	 0.251168433862844 
1664	 0.251124312533884 
1665	 0.251106433431792 
1666	 0.251098414404666 
1667	 0.251093960667353 
1668	 0.251098019783536 
1669	 0.251102357951046 
1670	 0.251109418128129 
1671	 0.251122413911395 
1672	 0.251145260557008 
1673	 0.251157731873414 
1674	 0.251183724805934 
1675	 0.251177374929055 
1676	 0.251144565003177 
1677	 0.251120969322029 
1678	 0.251077222430036 
1679	 0.251051549615476 
1680	 0.251047828263661 
1681	 0.251017925602967 
1682	 0.250964720887681 
1683	 0.250943136905122 
1684	 0.250914031356396 
1685	 0.250913005115686 
1686	 0.250950426986334 
1687	 0.250979084376839 
1688	 0.25101943578221 
1689	 0.251048732629834 
1690	 0.251084448164026 
1691	 0.251105838163093 
1692	 0.251121129088892 
1693	 0.251118862629696 
1694	 0.251093275094339 
1695	 0.251087349808358 
1696	 0.251076320861386 
1697	 0.251067507113725 
1698	 0.251076773706871 
1699	 0.25106867205386 
1700	 0.251047347949219 
1701	 0.251025031039831 
1702	 0.251003825174387 
1703	 0.250974399278306 
1704	 0.250930342782888 
1705	 0.250894007925272 
1706	 0.250849227790045 
1707	 0.250821641542453 
1708	 0.250813499161636 
1709	 0.250786388023516 
1710	 0.250749297666964 
1711	 0.250735632211513 
1712	 0.250713828610527 
1713	 0.250716440664324 
1714	 0.250766158931348 
1715	 0.250774412407926 
1716	 0.250775230603512 
1717	 0.250762622651291 
1718	 0.250729779916754 
1719	 0.250698399204673 
1720	 0.250657375615823 
1721	 0.250617351895385 
1722	 0.250563170164731 
1723	 0.250534287694334 
1724	 0.250515521995138 
1725	 0.250500800157178 
1726	 0.250517849109607 
1727	 0.250494291651268 
1728	 0.25045772619071 
1729	 0.250409009083199 
1730	 0.250323351275098 
1731	 0.250267195026407 
1732	 0.250211086782173 
1733	 0.250165860981252 
1734	 0.250150705343221 
1735	 0.250103339438205 
1736	 0.250046191730632 
1737	 0.249994524909442 
1738	 0.24991892438041 
1739	 0.249871758162009 
1740	 0.249845612292386 
1741	 0.249801132069748 
1742	 0.24976866837078 
1743	 0.249705269427783 
1744	 0.249626241534659 
1745	 0.249539139829239 
1746	 0.249426413614158 
1747	 0.249347211205171 
1748	 0.249249426728103 
1749	 0.249190423482724 
1750	 0.249137534421509 
1751	 0.249050191090654 
1752	 0.248983697067371 
1753	 0.248934727707424 
1754	 0.248862033073951 
1755	 0.248797751494407 
1756	 0.248754897125471 
1757	 0.248681700901462 
1758	 0.248603403814055 
1759	 0.248532003472159 
1760	 0.248450074232947 
1761	 0.248365150848291 
1762	 0.248286413557139 
1763	 0.248247571944704 
1764	 0.248210516530982 
1765	 0.248175567055392 
1766	 0.248153521949035 
1767	 0.248089007430747 
1768	 0.248028301336076 
1769	 0.248001375865312 
1770	 0.24796170882692 
1771	 0.247919738406208 
1772	 0.247887010748012 
1773	 0.247828834801657 
1774	 0.247772361536725 
1775	 0.247756640069585 
1776	 0.247740971697419 
1777	 0.247727529879964 
1778	 0.247730943836866 
1779	 0.247713204284435 
1780	 0.247665452304869 
1781	 0.247608938255753 
1782	 0.247577931215955 
1783	 0.247586708680449 
1784	 0.247569303223788 
1785	 0.24756364781396 
1786	 0.247524197634992 
1787	 0.247424503080168 
1788	 0.247390406601366 
1789	 0.247376415640552 
1790	 0.247377111380879 
1791	 0.24743206697308 
1792	 0.247432068519064 
1793	 0.247425587488049 
1794	 0.247403248464354 
1795	 0.247339897040695 
1796	 0.247306747066076 
1797	 0.247263918097115 
1798	 0.247233267041801 
1799	 0.247222384054033 
1800	 0.247210800885716 
1801	 0.243739453848635 
1802	 0.243768528479935 
1803	 0.243786189364751 
1804	 0.243777357722415 
1805	 0.243808424510835 
1806	 0.243833660182934 
1807	 0.243827023169375 
1808	 0.243842254978675 
1809	 0.243889464761513 
1810	 0.243908183684537 
1811	 0.243907338599498 
1812	 0.243921682817603 
1813	 0.24394712505886 
1814	 0.243937050184979 
1815	 0.243913564461969 
1816	 0.243897111785666 
1817	 0.243909794616052 
1818	 0.243936252718053 
1819	 0.243955787563005 
1820	 0.243993004756632 
1821	 0.244045418346799 
1822	 0.24404716008874 
1823	 0.244034582963442 
1824	 0.244045249994045 
1825	 0.244031638077464 
1826	 0.244026457051556 
1827	 0.244026174345023 
1828	 0.244016113772681 
1829	 0.244006286083493 
1830	 0.243987365771786 
1831	 0.243955969188582 
1832	 0.24392235360245 
1833	 0.243918535317834 
1834	 0.243886794945643 
1835	 0.243879284604211 
1836	 0.2438941572494 
1837	 0.243852579341353 
1838	 0.243827746892181 
1839	 0.24381081091476 
1840	 0.243804684726741 
1841	 0.243765864133882 
1842	 0.24374145877397 
1843	 0.243715650434215 
1844	 0.24368115155127 
1845	 0.243642023359686 
1846	 0.243594502094141 
1847	 0.243529176856084 
1848	 0.243433892291162 
1849	 0.243339142058652 
1850	 0.243244314992611 
1851	 0.243148864319306 
1852	 0.243049319533457 
1853	 0.242943444348963 
1854	 0.242820181101142 
1855	 0.242689255756463 
1856	 0.24258365554029 
1857	 0.242494594285409 
1858	 0.242388480432031 
1859	 0.242276012693363 
1860	 0.24213455044596 
1861	 0.241968264981713 
1862	 0.241766240286172 
1863	 0.241557904574326 
1864	 0.241323536963894 
1865	 0.241059289358902 
1866	 0.240777539157698 
1867	 0.240476169659455 
1868	 0.240138854942823 
1869	 0.239766222203163 
1870	 0.239385007740759 
1871	 0.238961507602327 
1872	 0.238504495863413 
1873	 0.238015402149736 
1874	 0.2374941505388 
1875	 0.236905474322783 
1876	 0.236287415848576 
1877	 0.235631206446295 
1878	 0.234924866946865 
1879	 0.234173313370808 
1880	 0.233362111413106 
1881	 0.232474113060638 
1882	 0.231570202775434 
1883	 0.230633622595624 
1884	 0.229634033849232 
1885	 0.22859227723701 
1886	 0.227491132273029 
1887	 0.226290768596824 
1888	 0.225032214104919 
1889	 0.223728803962494 
1890	 0.222359663239991 
1891	 0.220991148875489 
1892	 0.219582225269267 
1893	 0.218173894334507 
1894	 0.216747059440799 
1895	 0.215331747113799 
1896	 0.213856426577865 
1897	 0.21239636496941 
1898	 0.2109365295962 
1899	 0.209449897896818 
1900	 0.208055840345019 
1901	 0.206690338550073 
1902	 0.205359599604185 
1903	 0.204074198490828 
1904	 0.20284936545691 
1905	 0.201663295275298 
1906	 0.200512693377596 
1907	 0.19944406573278 
1908	 0.198411519096674 
1909	 0.197414987821441 
1910	 0.196476044723438 
1911	 0.19563220337451 
1912	 0.194858342263276 
1913	 0.194120689946746 
1914	 0.193462536413511 
1915	 0.192829076470998 
1916	 0.192229690727793 
1917	 0.191656454235999 
1918	 0.191154809759018 
1919	 0.190692730268536 
1920	 0.190278454132745 
1921	 0.189915664037551 
1922	 0.189595977577032 
1923	 0.18931790598133 
1924	 0.189074270508427 
1925	 0.188882999295602 
1926	 0.188712886336143 
1927	 0.188577824275368 
1928	 0.188460182661631 
1929	 0.188361983926377 
1930	 0.188281829548738 
1931	 0.188226574723316 
1932	 0.188203376021363 
1933	 0.188252406281078 
1934	 0.188325206580817 
1935	 0.188405110699682 
1936	 0.188510309113228 
1937	 0.188643361477666 
1938	 0.188796201908675 
1939	 0.188957403360219 
1940	 0.189149253124611 
1941	 0.189345006772492 
1942	 0.189547020313912 
1943	 0.189760741772481 
1944	 0.189995089192649 
1945	 0.190251281999279 
1946	 0.190488708678788 
1947	 0.190705606165935 
1948	 0.190955648457185 
1949	 0.191211062326467 
1950	 0.191477254204199 
1951	 0.191759228786136 
1952	 0.192066696425297 
1953	 0.192365450980081 
1954	 0.192671814670534 
1955	 0.192997502408241 
1956	 0.193328640353069 
1957	 0.193660958781409 
1958	 0.193990606242862 
1959	 0.194341549242862 
1960	 0.194709326244344 
1961	 0.195074522777862 
1962	 0.195457184165535 
1963	 0.195834780191201 
1964	 0.196213761341305 
1965	 0.196581522608406 
1966	 0.196949498697289 
1967	 0.197323263329938 
1968	 0.197711513710126 
1969	 0.198100859861661 
1970	 0.198500032509425 
1971	 0.198936488264029 
1972	 0.199339561791171 
1973	 0.199722143311644 
1974	 0.200119042283497 
1975	 0.200523862799394 
1976	 0.200898607587475 
1977	 0.201284199833744 
1978	 0.201681997148059 
1979	 0.202065864875104 
1980	 0.202470565318739 
1981	 0.202880745592302 
1982	 0.203307560589958 
1983	 0.203731235887391 
1984	 0.204168480123471 
1985	 0.204589810011092 
1986	 0.205017255634526 
1987	 0.205430769654727 
1988	 0.20583613990422 
1989	 0.206218629688803 
1990	 0.206622543633354 
1991	 0.207001792553525 
1992	 0.207383335531089 
1993	 0.207759594111177 
1994	 0.208147455536226 
1995	 0.208531050912575 
1996	 0.208918619194757 
1997	 0.209319114665549 
1998	 0.209713684626873 
1999	 0.210099937668711 
2000	 0.210493494775278 
2001	 0.210900557242716 
2002	 0.2112991111771 
2003	 0.211680647871229 
2004	 0.212048831230768 
2005	 0.212411382828785 
2006	 0.212750539271333 
2007	 0.213100848871924 
2008	 0.213445345242674 
2009	 0.213803491704227 
2010	 0.214158934587591 
2011	 0.214529587138557 
2012	 0.214939213320332 
2013	 0.215311326206507 
2014	 0.215670686724736 
2015	 0.216031315205002 
2016	 0.216365020390028 
2017	 0.216702106463945 
2018	 0.217045349499723 
2019	 0.217408976956389 
2020	 0.217740366797787 
2021	 0.218061051200325 
2022	 0.218372777854768 
2023	 0.218656704652656 
2024	 0.218954445170651 
2025	 0.2192547072933 
2026	 0.219552003926136 
2027	 0.219842292168371 
2028	 0.22014384972363 
2029	 0.220450017651952 
2030	 0.22075835416432 
2031	 0.221067489089925 
2032	 0.221388994468186 
2033	 0.221700712430389 
2034	 0.222015351403239 
2035	 0.222311616234275 
2036	 0.222614772222998 
2037	 0.222883675261613 
2038	 0.223108724530286 
2039	 0.223353575800992 
2040	 0.223588320014089 
2041	 0.223817822328895 
2042	 0.22406959809256 
2043	 0.224326437426892 
2044	 0.224570233703126 
2045	 0.224811106539592 
2046	 0.225044883608311 
2047	 0.225266029134175 
2048	 0.225496693407853 
2049	 0.225716053629006 
2050	 0.225955421709131 
2051	 0.226218438150948 
2052	 0.226464529318395 
2053	 0.226715408358352 
2054	 0.226961436567819 
2055	 0.227202953947793 
2056	 0.227435455245098 
2057	 0.2276534744129 
2058	 0.227867455643651 
2059	 0.228070779221891 
2060	 0.228244041254191 
2061	 0.228439579200858 
2062	 0.228626905874405 
2063	 0.22884148794817 
2064	 0.229088625323927 
2065	 0.229310541251221 
2066	 0.229549550621126 
2067	 0.229767291236425 
2068	 0.229959071130449 
2069	 0.230148227607622 
2070	 0.230335467256531 
2071	 0.230520700630071 
2072	 0.230694185236192 
2073	 0.230847194332065 
2074	 0.231028296130938 
2075	 0.231214196924743 
2076	 0.231401011131095 
2077	 0.231618649352877 
2078	 0.231802241259637 
2079	 0.231957249523445 
2080	 0.232127724033589 
2081	 0.232281517298157 
2082	 0.232454746156829 
2083	 0.232640264064314 
2084	 0.232844473760387 
2085	 0.233028339893271 
2086	 0.233218819832504 
2087	 0.233392464634302 
2088	 0.233548706957702 
2089	 0.233711220096827 
2090	 0.233868730139094 
2091	 0.234029056904448 
2092	 0.234187872718078 
2093	 0.234348382100945 
2094	 0.234497442975011 
2095	 0.234668779936171 
2096	 0.234852150169217 
2097	 0.235039204277902 
2098	 0.235248537698699 
2099	 0.235457895346466 
2100	 0.235643037570039 
2101	 0.235816765726881 
2102	 0.235991941529894 
2103	 0.23615634435903 
2104	 0.236314946491198 
2105	 0.236460352140859 
2106	 0.236627939399987 
2107	 0.236783991621366 
2108	 0.236964845048454 
2109	 0.237188358694723 
2110	 0.237387328738188 
2111	 0.23758028702159 
2112	 0.237777012002877 
2113	 0.237973900399848 
2114	 0.238165229443077 
2115	 0.238350585031817 
2116	 0.238540822388675 
2117	 0.238715309649736 
2118	 0.238877464070783 
2119	 0.239032381738311 
2120	 0.239173121733315 
2121	 0.23932435932274 
2122	 0.239461652653374 
2123	 0.239616611773728 
2124	 0.239785231839622 
2125	 0.239954825197219 
2126	 0.240141920798121 
2127	 0.240312445732074 
2128	 0.240488498356094 
2129	 0.240646447193362 
2130	 0.240785493015335 
2131	 0.240928304420351 
2132	 0.241035924246169 
2133	 0.241123823728215 
2134	 0.24119982447038 
2135	 0.24124777256997 
2136	 0.241293921301031 
2137	 0.241340857239033 
2138	 0.241360534146902 
2139	 0.241343450807153 
2140	 0.241346546253573 
2141	 0.241348481339963 
2142	 0.241336149593007 
2143	 0.241330115562018 
2144	 0.24131060520823 
2145	 0.241262142807311 
2146	 0.24122215581484 
2147	 0.241164708970336 
2148	 0.241144001617412 
2149	 0.241108626668882 
2150	 0.241089867705937 
2151	 0.241023190484867 
2152	 0.240948518593891 
2153	 0.240845853155546 
2154	 0.240683634237239 
2155	 0.240562206361799 
2156	 0.240447685206883 
2157	 0.240326787404691 
2158	 0.240218171937855 
2159	 0.240097036289008 
2160	 0.239967043523119 
2161	 0.239830770252805 
2162	 0.239669919966453 
2163	 0.239536967757104 
2164	 0.239425829041488 
2165	 0.239295028883553 
2166	 0.239166182194668 
2167	 0.239058496326037 
2168	 0.238923968463513 
2169	 0.238765760651563 
2170	 0.238611175682453 
2171	 0.238457213314619 
2172	 0.238293252312562 
2173	 0.238091914729877 
2174	 0.237945007260455 
2175	 0.237836742443106 
2176	 0.237697217345664 
2177	 0.237579585288164 
2178	 0.237440907498693 
2179	 0.237254486738819 
2180	 0.23709925924131 
2181	 0.236968089510094 
2182	 0.236823803791369 
2183	 0.23669916119106 
2184	 0.236541809927335 
2185	 0.236378775992293 
2186	 0.236192028877031 
2187	 0.236032198433551 
2188	 0.235865232300924 
2189	 0.235713396416577 
2190	 0.235570350459776 
2191	 0.235449833341689 
2192	 0.235343525897029 
2193	 0.235243370133159 
2194	 0.235166890758445 
2195	 0.235090371961699 
2196	 0.235019033013536 
2197	 0.234946543701725 
2198	 0.234882491170384 
2199	 0.234823162767609 
2200	 0.234769691159958 
2201	 0.234705199435512 
2202	 0.234635968601131 
2203	 0.234576584709867 
2204	 0.234517066775706 
2205	 0.234440624581726 
2206	 0.234396577233475 
2207	 0.234370109220921 
2208	 0.234353372027746 
2209	 0.234361154530367 
2210	 0.234351320237846 
2211	 0.234345413663102 
2212	 0.23434020631342 
2213	 0.234318045472784 
2214	 0.234319178255324 
2215	 0.234339564261681 
2216	 0.234358845977393 
2217	 0.234412857393545 
2218	 0.234417929885954 
2219	 0.234399132102484 
2220	 0.234375973106273 
2221	 0.234307724075242 
2222	 0.234258274030409 
2223	 0.234232157767435 
2224	 0.234222217349286 
2225	 0.2342031455725 
2226	 0.23419322524264 
2227	 0.234180385823394 
2228	 0.234165455388103 
2229	 0.234147940647669 
2230	 0.23414037982186 
2231	 0.234112786940922 
2232	 0.234059408547059 
2233	 0.234032668729225 
2234	 0.234015418468701 
2235	 0.233989643295223 
2236	 0.233978534009307 
2237	 0.233953939045981 
2238	 0.233903056701888 
2239	 0.233868252434165 
2240	 0.23384768720269 
2241	 0.233816818785624 
2242	 0.233782408151269 
2243	 0.23375481772177 
2244	 0.233746165703554 
2245	 0.23369347971381 
2246	 0.233648332669763 
2247	 0.233615213831534 
2248	 0.233587512788265 
2249	 0.233556249589142 
2250	 0.233535880045347 
2251	 0.233535324312279 
2252	 0.233520914080591 
2253	 0.233508270562575 
2254	 0.233477404000382 
2255	 0.233430109836386 
2256	 0.23339918572218 
2257	 0.233357676771332 
2258	 0.233330059581505 
2259	 0.233309982541244 
2260	 0.233309075234823 
2261	 0.233318347862564 
2262	 0.233331157361651 
2263	 0.233394875040171 
2264	 0.233407246227434 
2265	 0.233369360646024 
2266	 0.233371485727331 
2267	 0.233384968315713 
2268	 0.233378108220474 
2269	 0.233408445512254 
2270	 0.23338195195421 
2271	 0.233341010991607 
2272	 0.233269940620318 
2273	 0.233222282601983 
2274	 0.233246162142721 
2275	 0.233244372196409 
2276	 0.23325870280963 
2277	 0.233275314249506 
2278	 0.233293213388592 
2279	 0.233305610006559 
2280	 0.233328875531642 
2281	 0.233350156143952 
2282	 0.233354270587914 
2283	 0.233381066112384 
2284	 0.233435731682378 
2285	 0.233463501195158 
2286	 0.233484667557965 
2287	 0.233513535075906 
2288	 0.233546300437227 
2289	 0.233550093133569 
2290	 0.23354554139673 
2291	 0.233538843678981 
2292	 0.233486527575205 
2293	 0.23347282656945 
2294	 0.233495682198479 
2295	 0.233497940926579 
2296	 0.233495864043728 
2297	 0.233513078169318 
2298	 0.233514821940234 
2299	 0.233473905653557 
2300	 0.233428683765197 
2301	 0.23337834877594 
2302	 0.233325590511879 
2303	 0.233328335880106 
2304	 0.233347471416641 
2305	 0.233375683109943 
2306	 0.233397369466658 
2307	 0.233433463667631 
2308	 0.233420373768631 
2309	 0.23340899492903 
2310	 0.233348897921688 
2311	 0.23321385646609 
2312	 0.233140459197869 
2313	 0.233056277753995 
2314	 0.232979142576322 
2315	 0.232947390895918 
2316	 0.232885411016412 
2317	 0.232783789574612 
2318	 0.232725964873599 
2319	 0.232693885774751 
2320	 0.232647741926442 
2321	 0.23260384253074 
2322	 0.232581179201977 
2323	 0.232546340206581 
2324	 0.232534602815548 
2325	 0.232600218544733 
2326	 0.232595059067602 
2327	 0.232564617790859 
2328	 0.232519320166524 
2329	 0.23244686306245 
2330	 0.232360459371277 
2331	 0.232298781607549 
2332	 0.232306653127161 
2333	 0.232271004977614 
2334	 0.232234801053975 
2335	 0.232234584325957 
2336	 0.232173296330286 
2337	 0.232135829431909 
2338	 0.232113720560179 
2339	 0.232079698099825 
2340	 0.232035246889222 
2341	 0.231949361734079 
2342	 0.231845927186534 
2343	 0.231717168882751 
2344	 0.231558774304514 
2345	 0.231443801118135 
2346	 0.23137122596768 
2347	 0.23126892291097 
2348	 0.23117913540962 
2349	 0.231063388877141 
2350	 0.230914101983264 
2351	 0.230764766005742 
2352	 0.230604887580422 
2353	 0.230453200924813 
2354	 0.23030788707799 
2355	 0.230155970282617 
2356	 0.229989191964956 
2357	 0.229832450274777 
2358	 0.229677074693706 
2359	 0.229514878757133 
2360	 0.229379357985179 
2361	 0.229214662798555 
2362	 0.229018683941982 
2363	 0.228829788002095 
2364	 0.22861262101524 
2365	 0.228424006729437 
2366	 0.228238863925801 
2367	 0.228082452761911 
2368	 0.227990841912499 
2369	 0.227842120738814 
2370	 0.227663448080226 
2371	 0.227521652115335 
2372	 0.227365835472063 
2373	 0.227131854000959 
2374	 0.226954003327293 
2375	 0.226754535233242 
2376	 0.226492932554855 
2377	 0.226282060450547 
2378	 0.226048452535548 
2379	 0.225775848934537 
2380	 0.225555739808181 
2381	 0.225383721434259 
2382	 0.225256712359104 
2383	 0.225128147811499 
2384	 0.225006899664584 
2385	 0.224820688118929 
2386	 0.224575838226837 
2387	 0.224383898064258 
2388	 0.224143007579331 
2389	 0.223900548255997 
2390	 0.22367095420346 
2391	 0.22340412590695 
2392	 0.223140101057388 
2393	 0.22291384958082 
2394	 0.222724837228648 
2395	 0.222539580449501 
2396	 0.22234449071838 
2397	 0.222067400570001 
2398	 0.221749008601922 
2399	 0.221451707792497 
2400	 0.221211897756814 
2401	 0.221020361847061 
2402	 0.220818952950999 
2403	 0.220653945572885 
2404	 0.220491247366063 
2405	 0.220267351272296 
2406	 0.220011865075012 
2407	 0.21972926217127 
2408	 0.21943844892531 
2409	 0.219219629410456 
2410	 0.218986191265826 
2411	 0.218734298076482 
2412	 0.218545538582572 
2413	 0.21825504019135 
2414	 0.217958945893194 
2415	 0.217719121464293 
2416	 0.217441490536976 
2417	 0.217111475871591 
2418	 0.216835252783824 
2419	 0.21659536921515 
2420	 0.21627959508148 
2421	 0.215886067516313 
2422	 0.215555384289251 
2423	 0.215218195664015 
2424	 0.214916530233428 
2425	 0.214730125488156 
2426	 0.214472653143057 
2427	 0.214139929652552 
2428	 0.21388672153931 
2429	 0.213645757312217 
2430	 0.213414264277427 
2431	 0.213265609938879 
2432	 0.213029042824804 
2433	 0.212742921065454 
2434	 0.212438620627825 
2435	 0.212058442064117 
2436	 0.211776233329746 
2437	 0.211577724734566 
2438	 0.211324047568701 
2439	 0.211035776302202 
2440	 0.210780224560517 
2441	 0.21050728387913 
2442	 0.210266511332946 
2443	 0.21017673874979 
2444	 0.209934749856015 
2445	 0.209582819416891 
2446	 0.209241459960794 
2447	 0.208757719655325 
2448	 0.208392420964913 
2449	 0.208139880365172 
2450	 0.207791151594045 
2451	 0.207456714026419 
2452	 0.2070794812976 
2453	 0.206569697149964 
2454	 0.206237435272033 
2455	 0.20604794946947 
2456	 0.205732544622304 
2457	 0.205431309596442 
2458	 0.205104704759064 
2459	 0.204617748850347 
2460	 0.204338345646797 
2461	 0.204198891761509 
2462	 0.204055003585137 
2463	 0.204055824665871 
2464	 0.203779451114191 
2465	 0.203395029119584 
2466	 0.203031554323471 
2467	 0.202486801032426 
2468	 0.20219129818824 
2469	 0.202014452179409 
2470	 0.201863551313166 
2471	 0.201660137186165 
2472	 0.201411697928358 
2473	 0.201207598877352 
2474	 0.200912192255431 
2475	 0.200592260180456 
2476	 0.200322629310336 
2477	 0.200072978304525 
2478	 0.199950755202905 
2479	 0.199858106751354 
2480	 0.199548735559552 
2481	 0.199205134693616 
2482	 0.198828594174722 
2483	 0.19828512870818 
2484	 0.197900276402875 
2485	 0.197709400863199 
2486	 0.197481036014634 
2487	 0.19740684755251 
2488	 0.197450563475647 
2489	 0.197258042767776 
2490	 0.196927906647209 
2491	 0.196573811337662 
2492	 0.196203107553401 
2493	 0.196003111310984 
2494	 0.195846061345617 
2495	 0.195725841886759 
2496	 0.195723726958454 
2497	 0.195662490324706 
2498	 0.195687243018358 
2499	 0.195633906117847 
2500	 0.195351290525874 
