Wavelength	MM400006.asd
350	 4.42308878531594E-02 
351	 4.62657853537552E-02 
352	 4.61046589950428E-02 
353	 4.37756067669874E-02 
354	 4.01698180424344E-02 
355	 4.34557654757281E-02 
356	 4.51806144005251E-02 
357	 0.039459513217001 
358	 4.73292357826522E-02 
359	 4.62251457699257E-02 
360	 3.80036995306134E-02 
361	 3.93685553192732E-02 
362	 3.93544831488041E-02 
363	 4.07764668670065E-02 
364	 0.044380946344038 
365	 4.55519149805908E-02 
366	 4.24685546252643E-02 
367	 0.039464816039868 
368	 4.06599850270624E-02 
369	 4.23587960846794E-02 
370	 4.34057135702758E-02 
371	 4.35983937672838E-02 
372	 4.34082158115361E-02 
373	 4.27546529731569E-02 
374	 4.29761112275092E-02 
375	 4.39431739487403E-02 
376	 4.26889514977324E-02 
377	 4.25421147439123E-02 
378	 4.37108708720457E-02 
379	 4.53967900640879E-02 
380	 4.75500552274677E-02 
381	 4.57467296092426E-02 
382	 4.29752300645381E-02 
383	 4.67940227896248E-02 
384	 4.72129803691991E-02 
385	 4.66952589172611E-02 
386	 4.73322955303737E-02 
387	 4.70823888996957E-02 
388	 4.54844384781501E-02 
389	 4.47168271660116E-02 
390	 4.64812728379795E-02 
391	 4.60170825713917E-02 
392	 4.54156766562892E-02 
393	 4.59917779624361E-02 
394	 4.79206813821658E-02 
395	 4.85993833474122E-02 
396	 4.79103176869139E-02 
397	 4.67970773944763E-02 
398	 4.73772908759653E-02 
399	 4.84999539617192E-02 
400	 4.92354428063633E-02 
401	 4.90485545269904E-02 
402	 4.92230115339996E-02 
403	 4.90674491911881E-02 
404	 4.85812949949406E-02 
405	 4.85536353617528E-02 
406	 4.90895707597113E-02 
407	 4.98908063617213E-02 
408	 5.04221992449844E-02 
409	 4.96683779740475E-02 
410	 4.92127758042869E-02 
411	 4.94722960252163E-02 
412	 5.01819191573191E-02 
413	 0.050897212907238 
414	 5.06874340160003E-02 
415	 4.97586767654443E-02 
416	 4.97165605139278E-02 
417	 4.99862109220336E-02 
418	 0.050757076107291 
419	 5.18235382811979E-02 
420	 5.11535974672848E-02 
421	 5.00895886439878E-02 
422	 4.96405361995326E-02 
423	 5.03157668194377E-02 
424	 5.01912012856244E-02 
425	 5.00486709257685E-02 
426	 5.03699586447885E-02 
427	 5.04400231806915E-02 
428	 0.050607838845018 
429	 5.06278241720215E-02 
430	 5.02792786615088E-02 
431	 5.03917115989272E-02 
432	 5.02998771092521E-02 
433	 4.98831640226172E-02 
434	 4.96050947903552E-02 
435	 4.98240231008796E-02 
436	 5.02135818139895E-02 
437	 5.03406533762505E-02 
438	 0.049774679651893 
439	 4.97545840597948E-02 
440	 5.01847572890416E-02 
441	 5.03407730011153E-02 
442	 5.04714342784276E-02 
443	 0.050538276358662 
444	 0.050441282809386 
445	 4.99860219298221E-02 
446	 5.00840932150953E-02 
447	 5.03609869601648E-02 
448	 5.02774568241204E-02 
449	 0.050319374645069 
450	 5.05444586141178E-02 
451	 0.050807930814048 
452	 5.08207455862595E-02 
453	 5.06504010055687E-02 
454	 5.05459898452916E-02 
455	 5.06324681674418E-02 
456	 5.06683291342186E-02 
457	 5.06895551652454E-02 
458	 5.06865168251868E-02 
459	 5.06639109043744E-02 
460	 5.08378797284587E-02 
461	 5.09990541124511E-02 
462	 5.10056412701305E-02 
463	 5.08585636939925E-02 
464	 5.08119012518036E-02 
465	 0.050871107376276 
466	 5.09527321684757E-02 
467	 5.09374106861977E-02 
468	 5.10993994818444E-02 
469	 5.12948314559402E-02 
470	 5.10801209753463E-02 
471	 5.09275619451315E-02 
472	 5.08813539382514E-02 
473	 5.08775290712955E-02 
474	 5.07572602118623E-02 
475	 5.08594727752365E-02 
476	 5.10308378226323E-02 
477	 5.09620198989346E-02 
478	 5.09445199850252E-02 
479	 5.09688350500081E-02 
480	 5.09785959960175E-02 
481	 5.08834679462934E-02 
482	 5.10532641150044E-02 
483	 5.12054709952903E-02 
484	 5.10747612332716E-02 
485	 5.12607048817459E-02 
486	 5.13135104800667E-02 
487	 5.11173754809715E-02 
488	 5.08776102449858E-02 
489	 5.10134143296426E-02 
490	 5.11738301771769E-02 
491	 5.11115800540927E-02 
492	 5.11939186975716E-02 
493	 5.12037120780045E-02 
494	 0.051115072921292 
495	 5.10167738241402E-02 
496	 5.11621859668284E-02 
497	 5.12252266386393E-02 
498	 5.11273047153243E-02 
499	 5.12376253247669E-02 
500	 5.12826619601574E-02 
501	 5.13235719958171E-02 
502	 5.14373254405336E-02 
503	 5.13320132048873E-02 
504	 5.12377389544487E-02 
505	 0.051249286176863 
506	 5.13158315980957E-02 
507	 5.13284422998001E-02 
508	 5.13343055368176E-02 
509	 5.13807648285404E-02 
510	 5.14394397374592E-02 
511	 5.13755218964914E-02 
512	 5.13150632550503E-02 
513	 5.14727559781852E-02 
514	 5.14825512179618E-02 
515	 5.14793205265974E-02 
516	 5.15644072672692E-02 
517	 0.051697418795229 
518	 5.17281593058904E-02 
519	 5.16146464969608E-02 
520	 5.14225998553931E-02 
521	 5.15141910216576E-02 
522	 5.15982342157462E-02 
523	 5.15658204622144E-02 
524	 5.15381640205779E-02 
525	 5.15857956942644E-02 
526	 5.16319031389322E-02 
527	 5.16134611630014E-02 
528	 5.16259612175213E-02 
529	 0.051650536929044 
530	 5.16976681987614E-02 
531	 5.17842007292147E-02 
532	 5.17556276300108E-02 
533	 5.17725383680126E-02 
534	 5.19005507204255E-02 
535	 5.19067750671222E-02 
536	 5.19977786179162E-02 
537	 5.20849523496304E-02 
538	 5.20187704191079E-02 
539	 5.20548582840711E-02 
540	 5.21254798717762E-02 
541	 5.22026007025813E-02 
542	 5.23504015864051E-02 
543	 5.23618537609064E-02 
544	 5.23428282412353E-02 
545	 5.24338285317464E-02 
546	 5.25460444293164E-02 
547	 0.052623905700233 
548	 0.052649194599001 
549	 5.26431298839494E-02 
550	 5.27708844704563E-02 
551	 5.29037496451866E-02 
552	 5.29582680963655E-02 
553	 5.31255411128723E-02 
554	 0.053240502559982 
555	 0.053313911406898 
556	 5.34382637344424E-02 
557	 5.35424480716473E-02 
558	 0.053662759484475 
559	 5.38300133017834E-02 
560	 5.40533839667051E-02 
561	 5.42215935760866E-02 
562	 5.43862490454094E-02 
563	 5.46278029615604E-02 
564	 5.48364511449673E-02 
565	 5.50579871901593E-02 
566	 5.53052324901046E-02 
567	 5.55454013753451E-02 
568	 5.58423204661037E-02 
569	 0.056135657811824 
570	 0.056388231044489 
571	 0.056752107912623 
572	 5.70733818314609E-02 
573	 5.73560280946501E-02 
574	 5.77097221821508E-02 
575	 5.80380498455401E-02 
576	 5.83678281844741E-02 
577	 5.87282851106397E-02 
578	 5.91121720437353E-02 
579	 0.059523145475295 
580	 5.99761090541964E-02 
581	 0.060482980148777 
582	 6.09999195895834E-02 
583	 6.15467008023138E-02 
584	 0.062119810523381 
585	 6.26785735524071E-02 
586	 6.31626355960851E-02 
587	 6.36350392021874E-02 
588	 6.41736447219311E-02 
589	 6.47472618656496E-02 
590	 6.52898882537811E-02 
591	 6.57998362913452E-02 
592	 6.63352431223267E-02 
593	 6.68682312731984E-02 
594	 6.74193061758343E-02 
595	 6.80049932403701E-02 
596	 6.86219852075308E-02 
597	 6.91868346714251E-02 
598	 6.97379190774602E-02 
599	 7.03607569899094E-02 
600	 7.08828371353747E-02 
601	 7.13812772611901E-02 
602	 7.19045589334475E-02 
603	 7.23984637114104E-02 
604	 7.29021672012437E-02 
605	 7.34076792306372E-02 
606	 7.38915617403273E-02 
607	 7.43393357099421E-02 
608	 0.07479056095129 
609	 7.52337813028983E-02 
610	 7.55990887894385E-02 
611	 7.59782193697982E-02 
612	 7.64018937225285E-02 
613	 7.68492134719886E-02 
614	 7.71971771662489E-02 
615	 7.74822938925354E-02 
616	 7.77527100755861E-02 
617	 7.80572402288629E-02 
618	 7.83624976436735E-02 
619	 7.86077184803645E-02 
620	 0.078794471793116 
621	 7.90693884042065E-02 
622	 7.93053935059524E-02 
623	 7.94995234604976E-02 
624	 7.96966818858923E-02 
625	 7.99105460063108E-02 
626	 8.01015936568531E-02 
627	 8.02664293607168E-02 
628	 8.04545279052168E-02 
629	 8.06448091492719E-02 
630	 8.08228451890497E-02 
631	 8.09806132520298E-02 
632	 0.081123697503357 
633	 8.12957919160652E-02 
634	 8.14831027858059E-02 
635	 8.16309470379178E-02 
636	 8.18426777607204E-02 
637	 0.082027633550341 
638	 8.21299683879259E-02 
639	 8.22538888502166E-02 
640	 8.24183164010106E-02 
641	 8.26120347337636E-02 
642	 8.28032970426549E-02 
643	 8.29662687886238E-02 
644	 8.31315084423383E-02 
645	 8.33096455919329E-02 
646	 0.083473301598272 
647	 8.36504959432623E-02 
648	 8.38164099079676E-02 
649	 8.39621167066224E-02 
650	 8.42176150156079E-02 
651	 8.44290266976084E-02 
652	 8.45681730139701E-02 
653	 0.084724874654209 
654	 8.49364921404798E-02 
655	 8.51490709571451E-02 
656	 8.53351015827402E-02 
657	 0.085583675801769 
658	 8.58184617345439E-02 
659	 8.60275398078992E-02 
660	 8.62340024443798E-02 
661	 8.64784431223647E-02 
662	 8.67232874763873E-02 
663	 8.69622105069027E-02 
664	 8.72467880933798E-02 
665	 8.74951259200989E-02 
666	 8.77377134463671E-02 
667	 8.80142246982405E-02 
668	 8.82503232922431E-02 
669	 8.85315881724411E-02 
670	 8.88529956759375E-02 
671	 0.08913468350325 
672	 8.94211054501246E-02 
673	 8.97326870288989E-02 
674	 9.00696266342237E-02 
675	 9.03929006731817E-02 
676	 9.07354088944547E-02 
677	 9.10654136682699E-02 
678	 9.13415117520435E-02 
679	 9.16528020669405E-02 
680	 9.20111854869292E-02 
681	 9.24037292297808E-02 
682	 0.092796211659479 
683	 9.31719964230045E-02 
684	 9.35336979314756E-02 
685	 9.39023726152341E-02 
686	 9.43418300169407E-02 
687	 9.47600474759688E-02 
688	 9.51577249038701E-02 
689	 9.55952212541042E-02 
690	 9.59773033943657E-02 
691	 9.63727966422057E-02 
692	 9.68185857513603E-02 
693	 9.72402071826741E-02 
694	 9.76808642854852E-02 
695	 9.81380496209711E-02 
696	 9.85951748799584E-02 
697	 9.90532355121953E-02 
698	 9.94978614158072E-02 
699	 9.99335967038991E-02 
700	 0.100384451475496 
701	 0.100866234969989 
702	 0.101372041389971 
703	 0.101876226563609 
704	 0.102313739213847 
705	 0.102790003398816 
706	 0.103296871327474 
707	 0.103772172665633 
708	 0.104255057085276 
709	 0.1047533210218 
710	 0.105260348113715 
711	 0.105756171636244 
712	 0.106221908967903 
713	 0.106685915970184 
714	 0.107175619658686 
715	 0.107657434743773 
716	 0.10812261569798 
717	 0.108586505553996 
718	 0.109073732507066 
719	 0.10950840347172 
720	 0.109944420511621 
721	 0.110403571309605 
722	 0.110806607427917 
723	 0.111248858035746 
724	 0.111675333393651 
725	 0.112015361648401 
726	 0.112391577201391 
727	 0.112758815200388 
728	 0.113095494994786 
729	 0.113409786997994 
730	 0.113715956137651 
731	 0.114019018687055 
732	 0.114316428584642 
733	 0.114594027772915 
734	 0.114861798334651 
735	 0.115093832069119 
736	 0.115263020495303 
737	 0.115421716940129 
738	 0.115588690226945 
739	 0.115759525258467 
740	 0.115907148124848 
741	 0.116013358912761 
742	 0.116076734014149 
743	 0.116116091649615 
744	 0.116195321199872 
745	 0.116226580455935 
746	 0.116228163608677 
747	 0.116252612150319 
748	 0.116203816213859 
749	 0.116127399538773 
750	 0.116057619078774 
751	 0.115998183786258 
752	 0.115895441709476 
753	 0.115765627449262 
754	 0.115635276218224 
755	 0.115514327633907 
756	 0.115326357670044 
757	 0.115115072416099 
758	 0.114965981200179 
759	 0.114768938582372 
760	 0.114548066942296 
761	 0.114329196497462 
762	 0.114123170377684 
763	 0.113875850133772 
764	 0.113617402192622 
765	 0.113370698801505 
766	 0.113069406153474 
767	 0.112801038428186 
768	 0.112540240805885 
769	 0.112220381254653 
770	 0.111931277718422 
771	 0.111627802181415 
772	 0.111300147840425 
773	 0.110993504672047 
774	 0.110703338904203 
775	 0.110388122953649 
776	 0.110031248783815 
777	 0.109703605196297 
778	 0.109394365458564 
779	 0.109096597473447 
780	 0.108799462875362 
781	 0.108473858131 
782	 0.108148374860136 
783	 0.107830004003814 
784	 0.107500183395946 
785	 0.107181428288003 
786	 0.106868372328286 
787	 0.106553902544263 
788	 0.106238878561956 
789	 0.105933972632614 
790	 0.10563142315155 
791	 0.105319540896481 
792	 0.105009020491452 
793	 0.104695022433528 
794	 0.104380824222705 
795	 0.104078640601667 
796	 0.103809953245727 
797	 0.103534598908548 
798	 0.103235904044795 
799	 0.102955802441647 
800	 0.102704958644654 
801	 0.102440015411807 
802	 0.102132110881503 
803	 0.101875710986583 
804	 0.101632636113513 
805	 0.101373133442524 
806	 0.101084156481057 
807	 0.100822808620701 
808	 0.100584197258214 
809	 0.100358652817749 
810	 0.100139785274407 
811	 9.99377727536975E-02 
812	 0.099718202010059 
813	 9.94690050256916E-02 
814	 9.92645836036262E-02 
815	 9.90537968590657E-02 
816	 9.88387878018639E-02 
817	 9.86395524418085E-02 
818	 9.84468995674593E-02 
819	 9.82613176556938E-02 
820	 9.80748947507527E-02 
821	 9.78778442634935E-02 
822	 0.097730592922785 
823	 9.75648467114157E-02 
824	 0.097355892571277 
825	 9.71800043526284E-02 
826	 9.70637060989898E-02 
827	 9.69542360275712E-02 
828	 9.68010418670362E-02 
829	 9.66393996416575E-02 
830	 9.64709055328431E-02 
831	 9.63228370217958E-02 
832	 9.62212054194291E-02 
833	 0.096117673414705 
834	 0.09599683218137 
835	 9.58708004239036E-02 
836	 9.57717436126604E-02 
837	 9.56689810926688E-02 
838	 9.55695234372495E-02 
839	 9.54774424807335E-02 
840	 9.53810679646298E-02 
841	 9.53178341720313E-02 
842	 9.52497024742248E-02 
843	 9.51558399041192E-02 
844	 9.51428078329762E-02 
845	 9.50960044927716E-02 
846	 9.50059782140793E-02 
847	 9.49206976117191E-02 
848	 9.48939745417657E-02 
849	 9.48399130324051E-02 
850	 9.47734530027844E-02 
851	 9.47864932910108E-02 
852	 0.094747665628086 
853	 9.47104862225265E-02 
854	 0.094696430933099 
855	 0.094644303066964 
856	 9.46352797506561E-02 
857	 9.46682074927975E-02 
858	 0.094707067951893 
859	 9.46793644165354E-02 
860	 9.46662465685852E-02 
861	 0.094696150317324 
862	 9.47570648131188E-02 
863	 9.47597728645996E-02 
864	 9.47853231308399E-02 
865	 0.094817718948043 
866	 0.094794385300624 
867	 9.47944219191889E-02 
868	 9.48158292124611E-02 
869	 9.48682534914477E-02 
870	 0.094971044026773 
871	 9.50121005603343E-02 
872	 9.50812020448673E-02 
873	 9.51976116208858E-02 
874	 9.52162524682511E-02 
875	 9.53223563668743E-02 
876	 9.54218048503566E-02 
877	 9.54330037122885E-02 
878	 9.54881181557534E-02 
879	 9.55829871283908E-02 
880	 9.56961631367274E-02 
881	 9.58044555101562E-02 
882	 9.59265533673515E-02 
883	 9.60406545000111E-02 
884	 9.61526816909224E-02 
885	 9.62809263359623E-02 
886	 9.64185133727279E-02 
887	 9.65200317442253E-02 
888	 9.66035270786322E-02 
889	 9.67348446497362E-02 
890	 9.68680011689561E-02 
891	 9.70189704978595E-02 
892	 9.72002921598158E-02 
893	 9.74062702301072E-02 
894	 9.75391221552368E-02 
895	 9.76475107192022E-02 
896	 9.78033547768934E-02 
897	 9.80616292755249E-02 
898	 9.82303211296308E-02 
899	 9.84109279643674E-02 
900	 9.86798868082924E-02 
901	 9.88278835930151E-02 
902	 9.90018274274599E-02 
903	 9.91975971076585E-02 
904	 9.93788106311143E-02 
905	 9.95896691894919E-02 
906	 9.97936217267155E-02 
907	 0.100009753658023 
908	 0.100276784401736 
909	 0.100598071587256 
910	 0.100828499608553 
911	 0.101005984842308 
912	 0.101274550833758 
913	 0.101567848992726 
914	 0.101848765157896 
915	 0.102101453315839 
916	 0.102338037557281 
917	 0.102623843169578 
918	 0.102980833152457 
919	 0.10334688314234 
920	 0.103591440681894 
921	 0.103864832806102 
922	 0.104178064880257 
923	 0.104506619679454 
924	 0.104815802211253 
925	 0.105185713656443 
926	 0.105572949068677 
927	 0.10593022213893 
928	 0.106254689120045 
929	 0.106558048346077 
930	 0.106904651263485 
931	 0.107333813796471 
932	 0.107805623917545 
933	 0.108239354629197 
934	 0.108617019382533 
935	 0.108970921605679 
936	 0.109405401077134 
937	 0.109780978980901 
938	 0.110156224658516 
939	 0.110615137442669 
940	 0.111090307086082 
941	 0.111527814205459 
942	 0.11200733484697 
943	 0.112575331100405 
944	 0.112929155007092 
945	 0.113323359197178 
946	 0.113801220598113 
947	 0.114296015550464 
948	 0.114766719627242 
949	 0.115252224166682 
950	 0.115764203977177 
951	 0.116299583467131 
952	 0.116869183024052 
953	 0.117420312046777 
954	 0.117956322459732 
955	 0.118516858825071 
956	 0.119136586885641 
957	 0.119721300285448 
958	 0.120248919436327 
959	 0.120757688173056 
960	 0.12129838848286 
961	 0.121888168403954 
962	 0.122564848828255 
963	 0.123310159898665 
964	 0.123718210419164 
965	 0.124291900271869 
966	 0.125007169433073 
967	 0.125528364074942 
968	 0.126203964910151 
969	 0.126888923074455 
970	 0.127536123957761 
971	 0.128192120526936 
972	 0.128910156667769 
973	 0.129524564638861 
974	 0.130115584875832 
975	 0.130879551054025 
976	 0.13160651528003 
977	 0.132339350194352 
978	 0.133038258766599 
979	 0.133647266635089 
980	 0.134370615296123 
981	 0.135072334613693 
982	 0.135745625712733 
983	 0.136466379980475 
984	 0.137219137800543 
985	 0.137892262984188 
986	 0.138577328147833 
987	 0.139402614267867 
988	 0.14006837425647 
989	 0.140766571846469 
990	 0.141478225020551 
991	 0.142130679726622 
992	 0.142991367267577 
993	 0.14372263021042 
994	 0.144423045930926 
995	 0.145263454306816 
996	 0.145794902850608 
997	 0.1465227915949 
998	 0.147392412616813 
999	 0.148188101715199 
1000	 0.1490470993459 
1001	 0.150559781811348 
1002	 0.1512918435251 
1003	 0.151952781194976 
1004	 0.152647359435722 
1005	 0.153332832721404 
1006	 0.15403880059859 
1007	 0.154764082193299 
1008	 0.155504046464769 
1009	 0.156151407797562 
1010	 0.156779114510493 
1011	 0.157439561774078 
1012	 0.158075788065328 
1013	 0.158806955704286 
1014	 0.159549336640099 
1015	 0.160203605998365 
1016	 0.160853960828689 
1017	 0.161506370126067 
1018	 0.162136756257575 
1019	 0.162752168672961 
1020	 0.163398427265278 
1021	 0.164007296517373 
1022	 0.164580450409759 
1023	 0.165211884009585 
1024	 0.165827225313021 
1025	 0.166440140913454 
1026	 0.167095491772722 
1027	 0.167661258988291 
1028	 0.1681942909451 
1029	 0.168795582452836 
1030	 0.169357423539492 
1031	 0.16988967743251 
1032	 0.170408953401951 
1033	 0.170931381762612 
1034	 0.171389976180836 
1035	 0.171860209816289 
1036	 0.172387041319854 
1037	 0.172928376749114 
1038	 0.173479372797501 
1039	 0.174027036774007 
1040	 0.174550761013576 
1041	 0.175032577312633 
1042	 0.175515010355645 
1043	 0.176022260646856 
1044	 0.176528901893462 
1045	 0.177029365149811 
1046	 0.177579039627055 
1047	 0.178118623216551 
1048	 0.178615469097477 
1049	 0.179172661574442 
1050	 0.179728355086217 
1051	 0.18024860949503 
1052	 0.180748126125669 
1053	 0.181216566945616 
1054	 0.181650067215205 
1055	 0.18210472843366 
1056	 0.182658822294278 
1057	 0.183149536053897 
1058	 0.183606058850547 
1059	 0.184089143638003 
1060	 0.184584129129948 
1061	 0.185009377808459 
1062	 0.185487786402422 
1063	 0.186015369669 
1064	 0.186477927058242 
1065	 0.186967848078795 
1066	 0.18743841885001 
1067	 0.187886224919233 
1068	 0.188356793299046 
1069	 0.18877340167732 
1070	 0.189222185470454 
1071	 0.189699353213476 
1072	 0.190164574940882 
1073	 0.190617753375103 
1074	 0.191088515260933 
1075	 0.191604078463821 
1076	 0.192006424904498 
1077	 0.192382291383583 
1078	 0.192788869824084 
1079	 0.193151023682496 
1080	 0.193551971156025 
1081	 0.194015973591325 
1082	 0.19444387095664 
1083	 0.194859546893983 
1084	 0.195258133240877 
1085	 0.195690009587917 
1086	 0.196097093228844 
1087	 0.19653541123954 
1088	 0.197032984112288 
1089	 0.197469619105256 
1090	 0.197853722374706 
1091	 0.198292813939723 
1092	 0.19871214129788 
1093	 0.199087124053718 
1094	 0.199515714011985 
1095	 0.199955507640648 
1096	 0.200344417033752 
1097	 0.200770153180465 
1098	 0.201194309768583 
1099	 0.201603545776144 
1100	 0.202030128270905 
1101	 0.202485158010709 
1102	 0.202918215538368 
1103	 0.2033378730542 
1104	 0.203778166485114 
1105	 0.20420533211662 
1106	 0.204667678703379 
1107	 0.205128917234295 
1108	 0.205545537363091 
1109	 0.205956613888701 
1110	 0.206381057195825 
1111	 0.206836301792445 
1112	 0.207313205031363 
1113	 0.207784186630272 
1114	 0.208290361431093 
1115	 0.208771450619601 
1116	 0.209239421453293 
1117	 0.209702120452083 
1118	 0.210170700706506 
1119	 0.210612188193038 
1120	 0.211042366862946 
1121	 0.211498325401741 
1122	 0.211985051570021 
1123	 0.212466978849211 
1124	 0.212942171966702 
1125	 0.213431413720946 
1126	 0.213894796606518 
1127	 0.214328808395082 
1128	 0.214793983503078 
1129	 0.215267962375928 
1130	 0.215732008125461 
1131	 0.216210879605224 
1132	 0.216673789534539 
1133	 0.217117429011158 
1134	 0.217568593482457 
1135	 0.218023246053773 
1136	 0.218469179433531 
1137	 0.218926703432947 
1138	 0.21936461772353 
1139	 0.219792693872781 
1140	 0.220213839401612 
1141	 0.220630914143414 
1142	 0.221027457916698 
1143	 0.22143702091433 
1144	 0.221856416303373 
1145	 0.222259712477327 
1146	 0.222664920414447 
1147	 0.223058387262003 
1148	 0.223432019678369 
1149	 0.223812817050675 
1150	 0.224205726133457 
1151	 0.224569805752811 
1152	 0.224915717573428 
1153	 0.225273872892414 
1154	 0.225626809940201 
1155	 0.225953581912435 
1156	 0.226311748125846 
1157	 0.226707086971973 
1158	 0.22705979874568 
1159	 0.227406639069604 
1160	 0.227747326164672 
1161	 0.228059945363879 
1162	 0.22838048271885 
1163	 0.228706847752991 
1164	 0.229027937158113 
1165	 0.229340795320635 
1166	 0.229662625234638 
1167	 0.229975674146663 
1168	 0.230281170808096 
1169	 0.230569682125938 
1170	 0.230835122002743 
1171	 0.231119172303844 
1172	 0.231391646569648 
1173	 0.231682211106444 
1174	 0.232006016860813 
1175	 0.232293828883129 
1176	 0.232577435481685 
1177	 0.232848107879277 
1178	 0.233082833631152 
1179	 0.233337142698849 
1180	 0.233604576453503 
1181	 0.233858423975394 
1182	 0.234107557732016 
1183	 0.234365991372572 
1184	 0.234604429071143 
1185	 0.234821745286074 
1186	 0.235057209543477 
1187	 0.23529891770386 
1188	 0.235527424889224 
1189	 0.235761296002226 
1190	 0.23597866091634 
1191	 0.236175609231543 
1192	 0.236381311077999 
1193	 0.236589309219172 
1194	 0.236789280982296 
1195	 0.236977673078362 
1196	 0.237176487762932 
1197	 0.237374707550958 
1198	 0.237573946905449 
1199	 0.237776756380825 
1200	 0.237993778783691 
1201	 0.238193004784572 
1202	 0.238390289088707 
1203	 0.238571807760795 
1204	 0.238743889675656 
1205	 0.238909915121075 
1206	 0.239054104751437 
1207	 0.239215487323991 
1208	 0.239379267221323 
1209	 0.239544409998509 
1210	 0.239724340396271 
1211	 0.239888553113253 
1212	 0.240044700934848 
1213	 0.240199919866461 
1214	 0.240349844848227 
1215	 0.240495114962458 
1216	 0.240637067442812 
1217	 0.240777694904119 
1218	 0.240914994035763 
1219	 0.241048310273059 
1220	 0.241175649426725 
1221	 0.241296650240892 
1222	 0.241423267997389 
1223	 0.241548573714286 
1224	 0.241670032148018 
1225	 0.241795676157522 
1226	 0.241915635398658 
1227	 0.242026302529186 
1228	 0.242138895708453 
1229	 0.242250165379641 
1230	 0.242364329714562 
1231	 0.242483031286412 
1232	 0.242594645152022 
1233	 0.242704000361561 
1234	 0.24281460816703 
1235	 0.242919953592285 
1236	 0.243016948898274 
1237	 0.243117119252606 
1238	 0.24322559746175 
1239	 0.243316143562793 
1240	 0.243395421812105 
1241	 0.243476362883896 
1242	 0.243531917809744 
1243	 0.243619046451166 
1244	 0.243733815141385 
1245	 0.243830585407262 
1246	 0.243943268236828 
1247	 0.244037740956638 
1248	 0.244118796918283 
1249	 0.244182032993669 
1250	 0.24424660482484 
1251	 0.244321276137956 
1252	 0.244390276832832 
1253	 0.244454712590766 
1254	 0.244524717833928 
1255	 0.244605025705135 
1256	 0.244666302630676 
1257	 0.244718842524899 
1258	 0.244776550439123 
1259	 0.24482231406667 
1260	 0.244874047792468 
1261	 0.244930780337277 
1262	 0.244990109661878 
1263	 0.245058693528662 
1264	 0.245112753618443 
1265	 0.245152329927904 
1266	 0.245210706902189 
1267	 0.245283377092483 
1268	 0.245326614298962 
1269	 0.245384390220148 
1270	 0.245461400477577 
1271	 0.24552257103679 
1272	 0.245564385768792 
1273	 0.245629057280617 
1274	 0.245700633779875 
1275	 0.245779293258492 
1276	 0.245863149946878 
1277	 0.245958042307521 
1278	 0.246072396465939 
1279	 0.246173891800227 
1280	 0.246280176823958 
1281	 0.246381630506232 
1282	 0.246480447966944 
1283	 0.246571854482094 
1284	 0.246662316980299 
1285	 0.246742673081583 
1286	 0.246822224481398 
1287	 0.246898510289694 
1288	 0.246972856597867 
1289	 0.247057043272208 
1290	 0.247112240435528 
1291	 0.247150760988181 
1292	 0.247190829131925 
1293	 0.247207527750541 
1294	 0.247246442408746 
1295	 0.247303871303672 
1296	 0.247335187826335 
1297	 0.247371709042165 
1298	 0.247385388972195 
1299	 0.247368914966935 
1300	 0.24735876221847 
1301	 0.247329092479457 
1302	 0.247318617081807 
1303	 0.247322313182927 
1304	 0.247315791611164 
1305	 0.247311578063182 
1306	 0.247300907078495 
1307	 0.247283597816878 
1308	 0.247274697913407 
1309	 0.247261150381026 
1310	 0.247258648279767 
1311	 0.247239804910358 
1312	 0.247208707746918 
1313	 0.247181003836738 
1314	 0.24713958014546 
1315	 0.24711837644246 
1316	 0.247109529918162 
1317	 0.247093232690068 
1318	 0.247081885390285 
1319	 0.247073190708777 
1320	 0.247050652847153 
1321	 0.247050304033888 
1322	 0.247060019502188 
1323	 0.247089079053037 
1324	 0.24712526256022 
1325	 0.247145554460015 
1326	 0.247162606442766 
1327	 0.247181373927797 
1328	 0.247209628739369 
1329	 0.247236713715238 
1330	 0.247279949053046 
1331	 0.247334673451751 
1332	 0.247398990329271 
1333	 0.24747770991711 
1334	 0.247554310518509 
1335	 0.24763882300838 
1336	 0.247724580062398 
1337	 0.247813925012897 
1338	 0.247894013748085 
1339	 0.247980481696498 
1340	 0.248056503194241 
1341	 0.248114982997618 
1342	 0.248190120310045 
1343	 0.248283796621278 
1344	 0.248342768734119 
1345	 0.248416099811849 
1346	 0.248492673748872 
1347	 0.248557480888477 
1348	 0.248638911295188 
1349	 0.248735686079447 
1350	 0.248846583457582 
1351	 0.248954920086436 
1352	 0.249080630844535 
1353	 0.249181594883487 
1354	 0.249275151601423 
1355	 0.249364019394112 
1356	 0.249438830364749 
1357	 0.249523365354409 
1358	 0.249611308121832 
1359	 0.2496909516309 
1360	 0.249772983096752 
1361	 0.249843505334474 
1362	 0.249885226902746 
1363	 0.249961201073213 
1364	 0.25006578322441 
1365	 0.250143014040354 
1366	 0.250232700288967 
1367	 0.250308753631564 
1368	 0.250334519119869 
1369	 0.250359514238501 
1370	 0.250395537564678 
1371	 0.250410354760519 
1372	 0.25043440236334 
1373	 0.250445158526945 
1374	 0.250450913328205 
1375	 0.250453088385088 
1376	 0.250440401478609 
1377	 0.250423448402273 
1378	 0.250387662821126 
1379	 0.25033781954566 
1380	 0.250267689920775 
1381	 0.250182612106296 
1382	 0.250082576725359 
1383	 0.249958479874418 
1384	 0.249826769067219 
1385	 0.249693444057097 
1386	 0.249535637202413 
1387	 0.249358197010954 
1388	 0.249170441953602 
1389	 0.248976920881993 
1390	 0.248747571273497 
1391	 0.248498417963184 
1392	 0.248234729367287 
1393	 0.247945880118244 
1394	 0.247643990125835 
1395	 0.247338797547464 
1396	 0.247022136895333 
1397	 0.246681580632402 
1398	 0.246318475321606 
1399	 0.245956602951892 
1400	 0.245574970968688 
1401	 0.245195171693538 
1402	 0.244816921067783 
1403	 0.244430534475826 
1404	 0.244020240716035 
1405	 0.243644074751091 
1406	 0.243283097068304 
1407	 0.242914720212465 
1408	 0.242552238894408 
1409	 0.242199392057484 
1410	 0.241837471389369 
1411	 0.241501434463887 
1412	 0.2411798711898 
1413	 0.240880109871154 
1414	 0.240604141070168 
1415	 0.240344652269265 
1416	 0.24012032663844 
1417	 0.239914644555342 
1418	 0.239722911820883 
1419	 0.239546854897966 
1420	 0.23936676113402 
1421	 0.239201762780576 
1422	 0.239058040853925 
1423	 0.238914606392874 
1424	 0.238775579333386 
1425	 0.238644050384704 
1426	 0.238535684468108 
1427	 0.238427853985607 
1428	 0.238339589875042 
1429	 0.238287303612498 
1430	 0.238224319138552 
1431	 0.238161724534926 
1432	 0.238108792431844 
1433	 0.238053652862173 
1434	 0.238019122607083 
1435	 0.238003352987001 
1436	 0.237985741158721 
1437	 0.237981788058885 
1438	 0.237982196635057 
1439	 0.237987023740079 
1440	 0.237986479754746 
1441	 0.237989917932153 
1442	 0.238001576879677 
1443	 0.238021919147401 
1444	 0.238043465167698 
1445	 0.238071892740866 
1446	 0.238101131527888 
1447	 0.238113684444563 
1448	 0.238123396390496 
1449	 0.238141801941293 
1450	 0.238161126993359 
1451	 0.238188121783017 
1452	 0.238221723243182 
1453	 0.238258851230311 
1454	 0.238300998823182 
1455	 0.238344951259291 
1456	 0.238397539010778 
1457	 0.238442717801543 
1458	 0.238481388647253 
1459	 0.238535021145942 
1460	 0.238593223227827 
1461	 0.238648449539645 
1462	 0.238710537458985 
1463	 0.23877505795084 
1464	 0.23882873975806 
1465	 0.23890386956802 
1466	 0.239002993792691 
1467	 0.239089789679601 
1468	 0.239176045708198 
1469	 0.239270465225564 
1470	 0.239362834165625 
1471	 0.239457758171208 
1472	 0.239573077994833 
1473	 0.239695495378588 
1474	 0.239823251210406 
1475	 0.23995761465613 
1476	 0.240085775950298 
1477	 0.240224632017029 
1478	 0.240370498690334 
1479	 0.240502666482916 
1480	 0.2406478639717 
1481	 0.240790632272897 
1482	 0.240922315864561 
1483	 0.241037984994922 
1484	 0.241179529038771 
1485	 0.241325526610067 
1486	 0.2414728065608 
1487	 0.24164051234336 
1488	 0.241784068561076 
1489	 0.241911453218918 
1490	 0.242047529533218 
1491	 0.242182178026484 
1492	 0.242319430701536 
1493	 0.242463337581956 
1494	 0.242598922479849 
1495	 0.242726712380133 
1496	 0.242854449750458 
1497	 0.242981425909107 
1498	 0.243104335729683 
1499	 0.243226697492107 
1500	 0.243347097645822 
1501	 0.24345690147007 
1502	 0.243576552419643 
1503	 0.243705326513362 
1504	 0.243824490024319 
1505	 0.243937043548225 
1506	 0.244051059199761 
1507	 0.244162677062631 
1508	 0.244266211997081 
1509	 0.244363970005494 
1510	 0.244470269331184 
1511	 0.244574879204322 
1512	 0.244677882328861 
1513	 0.244805095829685 
1514	 0.2449347027045 
1515	 0.245050448860321 
1516	 0.245170006158704 
1517	 0.245285371720871 
1518	 0.245398603602153 
1519	 0.245505159982236 
1520	 0.24561246128649 
1521	 0.245701591837728 
1522	 0.245770489021203 
1523	 0.245856125442836 
1524	 0.245941113971361 
1525	 0.246025916769942 
1526	 0.246124739064546 
1527	 0.246202059060223 
1528	 0.24625354802251 
1529	 0.24632989541542 
1530	 0.246415213830479 
1531	 0.24649371692909 
1532	 0.246589428802408 
1533	 0.246662275118155 
1534	 0.246696967418063 
1535	 0.246770852728423 
1536	 0.24686215991636 
1537	 0.246946186593748 
1538	 0.247058862684207 
1539	 0.247146712651588 
1540	 0.24720709949501 
1541	 0.247280963114685 
1542	 0.247359354047418 
1543	 0.247428421150156 
1544	 0.247489742229739 
1545	 0.247561855310699 
1546	 0.247632645755888 
1547	 0.247705294935091 
1548	 0.247795714609226 
1549	 0.247867601766992 
1550	 0.247911304088716 
1551	 0.247962822043112 
1552	 0.248017502339167 
1553	 0.248073831220283 
1554	 0.248142349358445 
1555	 0.248206881450049 
1556	 0.248256864796066 
1557	 0.248303864889841 
1558	 0.248353319185453 
1559	 0.248402663550719 
1560	 0.248451133860086 
1561	 0.24850188175048 
1562	 0.248548487607245 
1563	 0.248590847586053 
1564	 0.248635631414119 
1565	 0.248674561798576 
1566	 0.248728029679364 
1567	 0.248788902760474 
1568	 0.248847814309357 
1569	 0.248922471278195 
1570	 0.248977644734329 
1571	 0.2490248764194 
1572	 0.249069492407614 
1573	 0.249103933033897 
1574	 0.249136204897481 
1575	 0.249157786442577 
1576	 0.24919377705748 
1577	 0.249233242486575 
1578	 0.249274160380879 
1579	 0.249338739323761 
1580	 0.249368978072243 
1581	 0.249368711358171 
1582	 0.249394182920026 
1583	 0.249414947977436 
1584	 0.249439587216587 
1585	 0.249475008645923 
1586	 0.249517747747998 
1587	 0.249563177266676 
1588	 0.249607058463733 
1589	 0.249668656756607 
1590	 0.249718271617188 
1591	 0.249754531981871 
1592	 0.249793718422972 
1593	 0.24983292666117 
1594	 0.249872727620475 
1595	 0.249908655543216 
1596	 0.249946070850703 
1597	 0.249999538245735 
1598	 0.250028538484856 
1599	 0.250035534583545 
1600	 0.250056027491121 
1601	 0.250061679112772 
1602	 0.250079135530235 
1603	 0.250122204335193 
1604	 0.250149222546059 
1605	 0.250167513220449 
1606	 0.250189175356522 
1607	 0.250206825390641 
1608	 0.250220574970713 
1609	 0.250253165933658 
1610	 0.250278171594746 
1611	 0.250312704473688 
1612	 0.250354333589602 
1613	 0.250389165207473 
1614	 0.250422437094323 
1615	 0.250445751509758 
1616	 0.250459600612748 
1617	 0.25046153230461 
1618	 0.250466874779833 
1619	 0.250495556666932 
1620	 0.250523564351652 
1621	 0.250553412182214 
1622	 0.25060144549025 
1623	 0.250629195999058 
1624	 0.250645430775293 
1625	 0.250664516429253 
1626	 0.250685672015863 
1627	 0.250689331812263 
1628	 0.250680456395822 
1629	 0.250677203631113 
1630	 0.250666072669656 
1631	 0.250655539051817 
1632	 0.250644198926908 
1633	 0.250642041247587 
1634	 0.250635579306134 
1635	 0.25064140563054 
1636	 0.250662123465601 
1637	 0.250678367010051 
1638	 0.250697834762858 
1639	 0.250713921828459 
1640	 0.250733649515991 
1641	 0.250748654075204 
1642	 0.250753835154732 
1643	 0.250771037291471 
1644	 0.25079298720875 
1645	 0.250814832309523 
1646	 0.250846192915722 
1647	 0.25086737788565 
1648	 0.250880657662946 
1649	 0.250902249347707 
1650	 0.25093755332216 
1651	 0.250937868655955 
1652	 0.250913246119843 
1653	 0.250918908787065 
1654	 0.250908268176086 
1655	 0.250920995480251 
1656	 0.250975672460054 
1657	 0.251004479410687 
1658	 0.251028150288615 
1659	 0.251039169046909 
1660	 0.251052059658976 
1661	 0.251042281394665 
1662	 0.250998013853661 
1663	 0.250980198228149 
1664	 0.250959952212489 
1665	 0.250947613762105 
1666	 0.250958050008413 
1667	 0.250945123301199 
1668	 0.250913090282173 
1669	 0.25090263112889 
1670	 0.250884437903607 
1671	 0.250891092893615 
1672	 0.250929670572587 
1673	 0.250949517181017 
1674	 0.2509877687438 
1675	 0.250988314353961 
1676	 0.250960451284856 
1677	 0.250943165187212 
1678	 0.250905850240204 
1679	 0.250881734562034 
1680	 0.250873414718139 
1681	 0.250849594741833 
1682	 0.250803712806708 
1683	 0.25079097591199 
1684	 0.250786583052976 
1685	 0.250791699550156 
1686	 0.250826027620021 
1687	 0.250845568653214 
1688	 0.250859032665285 
1689	 0.250881509408486 
1690	 0.250924622144309 
1691	 0.250930476570373 
1692	 0.25092210561076 
1693	 0.250909021259412 
1694	 0.250853807640879 
1695	 0.250842333758727 
1696	 0.250859024055007 
1697	 0.250858307805244 
1698	 0.25087382335741 
1699	 0.25086670124553 
1700	 0.250840153590103 
1701	 0.250815478870943 
1702	 0.250785409084217 
1703	 0.250750565065838 
1704	 0.250704538768987 
1705	 0.250669317846926 
1706	 0.250630233599534 
1707	 0.250604033714081 
1708	 0.250596842535417 
1709	 0.250570924135464 
1710	 0.25053363750497 
1711	 0.250515412915863 
1712	 0.250485575637669 
1713	 0.250490315981927 
1714	 0.250539490238959 
1715	 0.250553675362491 
1716	 0.25057719009951 
1717	 0.250572976943621 
1718	 0.250532525703352 
1719	 0.250515687299457 
1720	 0.25050327386627 
1721	 0.250477914055566 
1722	 0.250465586088367 
1723	 0.25042454139172 
1724	 0.250350400599512 
1725	 0.250295856630576 
1726	 0.250227974637546 
1727	 0.250184511447009 
1728	 0.25016890781408 
1729	 0.250120704153379 
1730	 0.250067724490869 
1731	 0.250013973325568 
1732	 0.249936862592219 
1733	 0.249885485070447 
1734	 0.249854306210992 
1735	 0.249811646112397 
1736	 0.249772680143513 
1737	 0.249717897290733 
1738	 0.24964714424067 
1739	 0.249603803677048 
1740	 0.249569352517102 
1741	 0.24951897840235 
1742	 0.249489963772122 
1743	 0.249420108745466 
1744	 0.249308047505732 
1745	 0.24922492117823 
1746	 0.24914075099348 
1747	 0.249051026087229 
1748	 0.248977248454005 
1749	 0.248905714381091 
1750	 0.248832573169583 
1751	 0.248746507206377 
1752	 0.248672796688303 
1753	 0.248626932507857 
1754	 0.24858255813138 
1755	 0.248562689872257 
1756	 0.248549654078424 
1757	 0.248502676112685 
1758	 0.248445654042406 
1759	 0.248384165153136 
1760	 0.248330207494678 
1761	 0.248290245427105 
1762	 0.248242269306193 
1763	 0.248210874861273 
1764	 0.248170411689071 
1765	 0.248083461163904 
1766	 0.248000849783631 
1767	 0.247925229308009 
1768	 0.247872633117942 
1769	 0.247849239962762 
1770	 0.247837178714918 
1771	 0.24784534566156 
1772	 0.247795348455133 
1773	 0.247729820253139 
1774	 0.247708489014521 
1775	 0.247646752760993 
1776	 0.24758855761624 
1777	 0.247589373764801 
1778	 0.247557241265652 
1779	 0.247490781399095 
1780	 0.247446454152621 
1781	 0.247383320426791 
1782	 0.247324145315742 
1783	 0.247337931769787 
1784	 0.24732491135964 
1785	 0.247306912359724 
1786	 0.247282161507852 
1787	 0.247230219645897 
1788	 0.247210779231702 
1789	 0.247213600380198 
1790	 0.247216429861355 
1791	 0.247251717396603 
1792	 0.24724910851805 
1793	 0.247207560680178 
1794	 0.247192647896466 
1795	 0.247192468426365 
1796	 0.247167947349593 
1797	 0.247137359184269 
1798	 0.247118248711985 
1799	 0.247060841296744 
1800	 0.247055441433113 
1801	 0.24353267065144 
1802	 0.243546906682874 
1803	 0.243579233725219 
1804	 0.243599667618859 
1805	 0.243633224340059 
1806	 0.243685790350397 
1807	 0.243693330471283 
1808	 0.243709646906328 
1809	 0.243767881060298 
1810	 0.243777250708411 
1811	 0.243734666845522 
1812	 0.243709327669855 
1813	 0.243739199072349 
1814	 0.243724918522518 
1815	 0.243758399320306 
1816	 0.243812272760024 
1817	 0.243840258418642 
1818	 0.243859867919965 
1819	 0.243871438716981 
1820	 0.243870477134519 
1821	 0.2438819765672 
1822	 0.243858719883503 
1823	 0.243833716466784 
1824	 0.243845995400968 
1825	 0.243837545079008 
1826	 0.243859478743189 
1827	 0.24387255900771 
1828	 0.243870315012909 
1829	 0.243851872186564 
1830	 0.243842396986562 
1831	 0.243818006904227 
1832	 0.24381414640485 
1833	 0.243822676442123 
1834	 0.243822692919102 
1835	 0.24383107834906 
1836	 0.243814246348572 
1837	 0.243785634526785 
1838	 0.243754996675157 
1839	 0.243727780348742 
1840	 0.24369426896551 
1841	 0.243679134374947 
1842	 0.243645393549637 
1843	 0.243587737548845 
1844	 0.243519625804505 
1845	 0.243451321009814 
1846	 0.243398979574609 
1847	 0.243338811981442 
1848	 0.243267933486081 
1849	 0.243199976936203 
1850	 0.243114709917696 
1851	 0.243012129428033 
1852	 0.242906957859631 
1853	 0.242798907296495 
1854	 0.242669813287559 
1855	 0.242540336950719 
1856	 0.242428119523319 
1857	 0.242329460238108 
1858	 0.242212984461863 
1859	 0.242087980535007 
1860	 0.241942907805567 
1861	 0.241784730295362 
1862	 0.241590760992534 
1863	 0.241388943528355 
1864	 0.241169336309509 
1865	 0.240906834581264 
1866	 0.240617771841694 
1867	 0.240304445694266 
1868	 0.239949307442896 
1869	 0.239584828513139 
1870	 0.239195906994573 
1871	 0.238759734376001 
1872	 0.238290382816326 
1873	 0.237790459043928 
1874	 0.237230486113125 
1875	 0.236621359175924 
1876	 0.235990612163225 
1877	 0.235329095574578 
1878	 0.234621258178308 
1879	 0.233871787288231 
1880	 0.233053607434812 
1881	 0.232158464016386 
1882	 0.231234835823902 
1883	 0.230267006673936 
1884	 0.22923133304532 
1885	 0.228170293905147 
1886	 0.227034314159702 
1887	 0.225806707938296 
1888	 0.224540168775381 
1889	 0.223210708003447 
1890	 0.22183730720045 
1891	 0.220454716157128 
1892	 0.219027079654952 
1893	 0.217606116941695 
1894	 0.216168940524556 
1895	 0.214731045967599 
1896	 0.213269426152411 
1897	 0.211794807999572 
1898	 0.210306997302473 
1899	 0.208828187286443 
1900	 0.207398935601636 
1901	 0.20598842370549 
1902	 0.204633175084684 
1903	 0.203328940822573 
1904	 0.202070023803553 
1905	 0.200843805183177 
1906	 0.199692780114024 
1907	 0.198580444893405 
1908	 0.197529010215046 
1909	 0.196558371741072 
1910	 0.195634414492472 
1911	 0.194798173162732 
1912	 0.194023894347425 
1913	 0.1932858238201 
1914	 0.192593105619859 
1915	 0.191957345105904 
1916	 0.191375227792185 
1917	 0.190830244174002 
1918	 0.190330818875589 
1919	 0.189877917130959 
1920	 0.189462448062582 
1921	 0.189097048086852 
1922	 0.188797852046925 
1923	 0.188514464971657 
1924	 0.188268336671218 
1925	 0.188068841441016 
1926	 0.187891433770435 
1927	 0.187728640535572 
1928	 0.187618066209878 
1929	 0.187560090194235 
1930	 0.187513048165176 
1931	 0.187484199143983 
1932	 0.187493861268657 
1933	 0.18752273720627 
1934	 0.187559857515404 
1935	 0.187636070296688 
1936	 0.187750546098346 
1937	 0.187885779440236 
1938	 0.188055231711307 
1939	 0.188234354711026 
1940	 0.188439796836348 
1941	 0.188660774433094 
1942	 0.188882951163449 
1943	 0.1890999461964 
1944	 0.189314994140425 
1945	 0.189534766919918 
1946	 0.18977408543486 
1947	 0.190016344795713 
1948	 0.190282624984166 
1949	 0.190584130777638 
1950	 0.190877201197532 
1951	 0.191177631053324 
1952	 0.191483122211952 
1953	 0.191795855565439 
1954	 0.192098387075644 
1955	 0.19242248524439 
1956	 0.192765629460744 
1957	 0.193110846939315 
1958	 0.193472493650584 
1959	 0.19382739366107 
1960	 0.194175299980988 
1961	 0.194543131026078 
1962	 0.1949393096556 
1963	 0.195312207572106 
1964	 0.195679421945934 
1965	 0.196053216398034 
1966	 0.196429679281442 
1967	 0.196780940661156 
1968	 0.197165698436124 
1969	 0.197584270914482 
1970	 0.19798274193837 
1971	 0.198381628699111 
1972	 0.198783119081553 
1973	 0.199186783995801 
1974	 0.199584471280164 
1975	 0.199985645111271 
1976	 0.200376087852125 
1977	 0.200771657970407 
1978	 0.201159229093624 
1979	 0.201536231098699 
1980	 0.20193375332974 
1981	 0.20233619990303 
1982	 0.202733681360172 
1983	 0.203153561922457 
1984	 0.203611719823129 
1985	 0.204039856136918 
1986	 0.204477490070281 
1987	 0.204888941885235 
1988	 0.205278985824866 
1989	 0.205652331269174 
1990	 0.206037490707534 
1991	 0.206420791237268 
1992	 0.206811469193068 
1993	 0.207218007114616 
1994	 0.207612184785319 
1995	 0.208006545856227 
1996	 0.208390462646291 
1997	 0.208757399673598 
1998	 0.209141384327635 
1999	 0.209525453725868 
2000	 0.209911590927017 
2001	 0.210310555405227 
2002	 0.2107133580602 
2003	 0.211090946603888 
2004	 0.211476382349034 
2005	 0.211852835976432 
2006	 0.212226351926897 
2007	 0.212588035548216 
2008	 0.212930368073557 
2009	 0.213291793699623 
2010	 0.2136463156916 
2011	 0.214015266639428 
2012	 0.214416503051568 
2013	 0.214795668641216 
2014	 0.215166172368567 
2015	 0.215542785210879 
2016	 0.215906569880031 
2017	 0.216250447200558 
2018	 0.216597995598887 
2019	 0.216951262309543 
2020	 0.217275521066034 
2021	 0.217579745321217 
2022	 0.21788832568889 
2023	 0.218168598245292 
2024	 0.218469214269622 
2025	 0.21878071242493 
2026	 0.219092037704985 
2027	 0.219402434635449 
2028	 0.219725091676687 
2029	 0.220048339100613 
2030	 0.220386809352615 
2031	 0.220696481713346 
2032	 0.221001611237861 
2033	 0.221297022536029 
2034	 0.221571548498633 
2035	 0.221846740044263 
2036	 0.222114219431719 
2037	 0.222388993864769 
2038	 0.222670617663406 
2039	 0.222932669198846 
2040	 0.223198933225311 
2041	 0.223444790775783 
2042	 0.223667626843438 
2043	 0.223885924493063 
2044	 0.224129123529285 
2045	 0.224387576361187 
2046	 0.224636333419036 
2047	 0.224891890970402 
2048	 0.225150963212724 
2049	 0.225418692314835 
2050	 0.225665195353889 
2051	 0.22591516407093 
2052	 0.22615199553269 
2053	 0.226356509312062 
2054	 0.226571733597289 
2055	 0.226789801236651 
2056	 0.227008939259141 
2057	 0.227224093605842 
2058	 0.227437868306542 
2059	 0.227650577847419 
2060	 0.227863183730495 
2061	 0.228069729532206 
2062	 0.228255091538315 
2063	 0.228475127200836 
2064	 0.228723629721291 
2065	 0.228945935011317 
2066	 0.2291854302023 
2067	 0.229405829541885 
2068	 0.229608715907618 
2069	 0.229788964145879 
2070	 0.229966076698868 
2071	 0.23013188966109 
2072	 0.230314039754819 
2073	 0.230489213621682 
2074	 0.230664028237253 
2075	 0.230859265135441 
2076	 0.231034656420546 
2077	 0.231178759260309 
2078	 0.231346876328023 
2079	 0.2315203212505 
2080	 0.231702357827759 
2081	 0.231914652239971 
2082	 0.232097947009513 
2083	 0.232267059294252 
2084	 0.23244064456147 
2085	 0.232612799973612 
2086	 0.232757776026038 
2087	 0.232937609671854 
2088	 0.233153761742153 
2089	 0.23333067432518 
2090	 0.233495649857575 
2091	 0.233669693905752 
2092	 0.233826904988596 
2093	 0.233994987194374 
2094	 0.234181364492454 
2095	 0.234356841883349 
2096	 0.234524770961923 
2097	 0.234694510072378 
2098	 0.234859738744162 
2099	 0.235035173793552 
2100	 0.235199833106536 
2101	 0.23536373975298 
2102	 0.235518098458976 
2103	 0.235664948909969 
2104	 0.235810048290221 
2105	 0.235929711979501 
2106	 0.236089622111607 
2107	 0.236263012318074 
2108	 0.236446083736636 
2109	 0.236659982919004 
2110	 0.23686669267867 
2111	 0.237081412291325 
2112	 0.237286917660214 
2113	 0.237490023007556 
2114	 0.237705535867898 
2115	 0.237890810033394 
2116	 0.238057030430765 
2117	 0.238230879381695 
2118	 0.23838414552407 
2119	 0.238562286677388 
2120	 0.238754685845325 
2121	 0.238940212095666 
2122	 0.239137276702329 
2123	 0.239323146554468 
2124	 0.239509368193902 
2125	 0.239680902299673 
2126	 0.2398359075616 
2127	 0.239998081823021 
2128	 0.24015813865796 
2129	 0.240310255013112 
2130	 0.240472606428949 
2131	 0.240627562222304 
2132	 0.240733720420249 
2133	 0.240800973023383 
2134	 0.240882054975509 
2135	 0.24093905857797 
2136	 0.240990830466739 
2137	 0.241048451065736 
2138	 0.241088860408041 
2139	 0.241105342885916 
2140	 0.241116711834882 
2141	 0.241121486221526 
2142	 0.241124018738883 
2143	 0.241103489192132 
2144	 0.241094203862489 
2145	 0.241108950706996 
2146	 0.241096727480026 
2147	 0.241070860089651 
2148	 0.241044087769901 
2149	 0.240996242350791 
2150	 0.240925752058521 
2151	 0.240851251751895 
2152	 0.240768932411934 
2153	 0.240673644031406 
2154	 0.240559836160368 
2155	 0.240447659686702 
2156	 0.240327086328705 
2157	 0.240203016665869 
2158	 0.240075747549769 
2159	 0.239943693527399 
2160	 0.239798565757434 
2161	 0.239660990784158 
2162	 0.239514775581431 
2163	 0.239383764329913 
2164	 0.239269473476781 
2165	 0.239151594192242 
2166	 0.239027564566945 
2167	 0.238919380326189 
2168	 0.238771858254526 
2169	 0.238595290037718 
2170	 0.238432409009494 
2171	 0.238256389398336 
2172	 0.238082657606705 
2173	 0.237910327010295 
2174	 0.237742728364081 
2175	 0.237568009371738 
2176	 0.237399849064525 
2177	 0.237249225858961 
2178	 0.237082175774639 
2179	 0.236888438743754 
2180	 0.236725731784204 
2181	 0.236577864637597 
2182	 0.236428326266182 
2183	 0.236303951090854 
2184	 0.236174598022738 
2185	 0.236023617330548 
2186	 0.235854293510626 
2187	 0.235687406554577 
2188	 0.235495972207685 
2189	 0.235339984110616 
2190	 0.23518983180445 
2191	 0.235055853891825 
2192	 0.234942740986996 
2193	 0.234839537691079 
2194	 0.234742134325335 
2195	 0.234663975440225 
2196	 0.234623608413161 
2197	 0.234559962541352 
2198	 0.234501089005061 
2199	 0.234437235636896 
2200	 0.234364284596416 
2201	 0.234287828459467 
2202	 0.234212872759722 
2203	 0.234119350297171 
2204	 0.234056418146458 
2205	 0.233988692191099 
2206	 0.233947864828166 
2207	 0.233939143591446 
2208	 0.233924228908338 
2209	 0.233916153898437 
2210	 0.233914467047824 
2211	 0.233915666588975 
2212	 0.233933720334707 
2213	 0.233977013255067 
2214	 0.233999246978048 
2215	 0.234028883955314 
2216	 0.23404811822981 
2217	 0.234048425886344 
2218	 0.234052097232586 
2219	 0.234067505627451 
2220	 0.234063824241296 
2221	 0.234056748169395 
2222	 0.234024627119442 
2223	 0.233979225499018 
2224	 0.233928377043692 
2225	 0.233896684178127 
2226	 0.233862409908749 
2227	 0.233847434576673 
2228	 0.23386534045646 
2229	 0.23384257894971 
2230	 0.23380325532887 
2231	 0.233779513876769 
2232	 0.233732742173344 
2233	 0.233719611719434 
2234	 0.23374712567347 
2235	 0.233744531332949 
2236	 0.233741726072184 
2237	 0.233732899637907 
2238	 0.233723705218776 
2239	 0.233689733651566 
2240	 0.233631877144612 
2241	 0.233587639308851 
2242	 0.233516693374012 
2243	 0.23346711433257 
2244	 0.23344808506363 
2245	 0.233413748449856 
2246	 0.233377931149593 
2247	 0.233370637667567 
2248	 0.233337533890967 
2249	 0.233298002962704 
2250	 0.233263343657586 
2251	 0.233213975594365 
2252	 0.233182843894388 
2253	 0.233165249995875 
2254	 0.233147515562196 
2255	 0.233133663702171 
2256	 0.233128303547493 
2257	 0.233142813753261 
2258	 0.233129140162846 
2259	 0.233093428144409 
2260	 0.233085686575157 
2261	 0.233090708217116 
2262	 0.23307071283861 
2263	 0.233041796911433 
2264	 0.233036700720781 
2265	 0.233038531066392 
2266	 0.233015818774054 
2267	 0.233014511792535 
2268	 0.232994451643806 
2269	 0.232933391658111 
2270	 0.23285429375935 
2271	 0.232818257693054 
2272	 0.232833325958329 
2273	 0.232847232799223 
2274	 0.23287662485947 
2275	 0.232874263092999 
2276	 0.232851111847802 
2277	 0.232846178184121 
2278	 0.232821687390403 
2279	 0.232828809786472 
2280	 0.232871946612589 
2281	 0.232906262198539 
2282	 0.232939077615101 
2283	 0.232985224345969 
2284	 0.233042640450963 
2285	 0.233092073483116 
2286	 0.233167709752125 
2287	 0.233205598270326 
2288	 0.233235661301886 
2289	 0.233236058169732 
2290	 0.23316709322566 
2291	 0.23315504647682 
2292	 0.233157673375149 
2293	 0.233154596314743 
2294	 0.23319936385341 
2295	 0.233207286064477 
2296	 0.233194489995399 
2297	 0.233147409087861 
2298	 0.23310497127244 
2299	 0.233110643981335 
2300	 0.233118713937217 
2301	 0.233120098988875 
2302	 0.233123549207571 
2303	 0.233081099176017 
2304	 0.233053673742862 
2305	 0.233051075194738 
2306	 0.2330329218338 
2307	 0.233021810951438 
2308	 0.233011056014581 
2309	 0.233005504274357 
2310	 0.232963143007821 
2311	 0.232914175965932 
2312	 0.232857913963602 
2313	 0.232750268766157 
2314	 0.23268110917529 
2315	 0.232641944551998 
2316	 0.232587019139325 
2317	 0.23253074796876 
2318	 0.232473854764679 
2319	 0.232398114455285 
2320	 0.23235396665129 
2321	 0.232308729308578 
2322	 0.232301474791989 
2323	 0.232369536079971 
2324	 0.232378909942451 
2325	 0.232397681806422 
2326	 0.232374038072932 
2327	 0.232306578131203 
2328	 0.23220345103045 
2329	 0.23213682347947 
2330	 0.232078395320054 
2331	 0.232028957795741 
2332	 0.232015728670048 
2333	 0.231960444440741 
2334	 0.231917200891958 
2335	 0.231871871321796 
2336	 0.23181406182139 
2337	 0.231825624824472 
2338	 0.231847040491939 
2339	 0.231795716810801 
2340	 0.231723499207585 
2341	 0.231605490289432 
2342	 0.23144736650234 
2343	 0.231365958583905 
2344	 0.23127798163573 
2345	 0.231154916504746 
2346	 0.230989423971284 
2347	 0.230886228182246 
2348	 0.230803958096157 
2349	 0.230687761170997 
2350	 0.230581625524564 
2351	 0.230461461590384 
2352	 0.230324698318715 
2353	 0.230168737588264 
2354	 0.230010444982031 
2355	 0.2298711910463 
2356	 0.22969044476736 
2357	 0.229523985457046 
2358	 0.229391995917112 
2359	 0.229253114816714 
2360	 0.229120643527153 
2361	 0.228941775226842 
2362	 0.228752537230784 
2363	 0.228570419485056 
2364	 0.228314847785161 
2365	 0.228149314887059 
2366	 0.228072412471095 
2367	 0.227934095040695 
2368	 0.227806934380203 
2369	 0.227654498948048 
2370	 0.227462416129497 
2371	 0.227267839298998 
2372	 0.227116236509466 
2373	 0.226891040479388 
2374	 0.226630321007917 
2375	 0.226444246454357 
2376	 0.226223448355376 
2377	 0.226050714180898 
2378	 0.225923473397096 
2379	 0.225734103576776 
2380	 0.225518659001414 
2381	 0.225347312743019 
2382	 0.225214452410515 
2383	 0.225071130606812 
2384	 0.224925497565127 
2385	 0.224687229484543 
2386	 0.22436911929046 
2387	 0.224081898579174 
2388	 0.223788684128964 
2389	 0.223516278586773 
2390	 0.223293466934227 
2391	 0.22302580735248 
2392	 0.222770169659098 
2393	 0.222627967506194 
2394	 0.222537166291571 
2395	 0.222344862142948 
2396	 0.22206769588585 
2397	 0.22176766374789 
2398	 0.221394960666713 
2399	 0.221079791596284 
2400	 0.220893701481394 
2401	 0.220677271216637 
2402	 0.220415178618591 
2403	 0.220159353019896 
2404	 0.21987495361394 
2405	 0.219657436126441 
2406	 0.219471278144118 
2407	 0.219243271885803 
2408	 0.218935975578179 
2409	 0.218546622543273 
2410	 0.218244656480217 
2411	 0.218003988276541 
2412	 0.217873057805034 
2413	 0.217774969118022 
2414	 0.217535584041443 
2415	 0.217250841749756 
2416	 0.216980704326423 
2417	 0.216690199042447 
2418	 0.216354820909438 
2419	 0.215969139217524 
2420	 0.215640687641865 
2421	 0.215241277041172 
2422	 0.214949921710329 
2423	 0.214824735994488 
2424	 0.21458292210457 
2425	 0.214336675473713 
2426	 0.214057841203437 
2427	 0.213652451902847 
2428	 0.2134124173973 
2429	 0.213279107939768 
2430	 0.213032045752785 
2431	 0.212837096505226 
2432	 0.212570547986309 
2433	 0.212171620121221 
2434	 0.211797773156964 
2435	 0.211432376904012 
2436	 0.211139919842866 
2437	 0.210863644869773 
2438	 0.210563170000212 
2439	 0.210315118256026 
2440	 0.210039004478753 
2441	 0.209644651154366 
2442	 0.209421509727033 
2443	 0.20936467152582 
2444	 0.209158341848907 
2445	 0.208990254165988 
2446	 0.208729558073587 
2447	 0.208397349809335 
2448	 0.207952128538852 
2449	 0.20729395448339 
2450	 0.206843366951527 
2451	 0.20639996233458 
2452	 0.205990911010746 
2453	 0.20577102125522 
2454	 0.205488452671174 
2455	 0.205131099419191 
2456	 0.204829576985365 
2457	 0.204574239390603 
2458	 0.204331201845936 
2459	 0.204113967785492 
2460	 0.203846557017086 
2461	 0.203548640694626 
2462	 0.203285547211717 
2463	 0.203047446073624 
2464	 0.202782838089878 
2465	 0.202528261563952 
2466	 0.202250234948311 
2467	 0.201927620936095 
2468	 0.201584338472669 
2469	 0.201224558720875 
2470	 0.200942170565583 
2471	 0.200772819278778 
2472	 0.200534026136034 
2473	 0.200139145608592 
2474	 0.199867032631912 
2475	 0.199372742042187 
2476	 0.198763583454326 
2477	 0.19843092448195 
2478	 0.198180610624187 
2479	 0.198041772512763 
2480	 0.197962373796096 
2481	 0.197846494761646 
2482	 0.19767267041546 
2483	 0.197418546259571 
2484	 0.197143829175355 
2485	 0.196929386549293 
2486	 0.196759620781728 
2487	 0.196493108259438 
2488	 0.196299450622321 
2489	 0.196154034587994 
2490	 0.196001533749364 
2491	 0.195999624784623 
2492	 0.195951979604477 
2493	 0.195689596694545 
2494	 0.195435219736313 
2495	 0.195198176886721 
2496	 0.19498398195326 
2497	 0.194960179484635 
2498	 0.194825048933488 
2499	 0.194521306298776 
2500	 0.194358836666196 
