Wavelength	MM500002.asd
350	 6.18643775084059E-02 
351	 6.63502946285876E-02 
352	 6.16449494979378E-02 
353	 4.68186105587116E-02 
354	 4.93880196178193E-02 
355	 5.21387455555616E-02 
356	 0.052387186100466 
357	 5.25102197988463E-02 
358	 6.00930293870798E-02 
359	 5.74940024959459E-02 
360	 5.03702096227431E-02 
361	 5.71510621261421E-02 
362	 6.06104742369647E-02 
363	 5.86839120913906E-02 
364	 5.48240140877512E-02 
365	 5.77837594195566E-02 
366	 5.94819565137359E-02 
367	 5.92204501074444E-02 
368	 5.84746685458847E-02 
369	 5.85029518236152E-02 
370	 5.81842557235679E-02 
371	 5.88485769810044E-02 
372	 6.27295044716931E-02 
373	 6.18381064037434E-02 
374	 6.09679322350733E-02 
375	 6.28319435295158E-02 
376	 6.36904172924759E-02 
377	 6.36917843080045E-02 
378	 6.41607854952717E-02 
379	 6.60068834807913E-02 
380	 6.68422386119159E-02 
381	 6.59541230880957E-02 
382	 6.42812625934379E-02 
383	 6.39973700104752E-02 
384	 6.73734834342427E-02 
385	 6.82516206843262E-02 
386	 6.54835147645706E-02 
387	 6.97136681582403E-02 
388	 7.26545388964829E-02 
389	 7.31835379069071E-02 
390	 7.25556584440684E-02 
391	 7.16094779655391E-02 
392	 6.98839676630237E-02 
393	 0.0695549779531 
394	 7.43644743058434E-02 
395	 7.64568675600825E-02 
396	 7.66929703092966E-02 
397	 7.69933620429801E-02 
398	 7.82865723513796E-02 
399	 7.83169997021729E-02 
400	 7.81802838954512E-02 
401	 7.95079395900007E-02 
402	 7.94554921359761E-02 
403	 7.97666442326504E-02 
404	 8.06138100863157E-02 
405	 8.03931883295558E-02 
406	 8.05734019999573E-02 
407	 8.10646953844399E-02 
408	 8.14872099776894E-02 
409	 8.15417754016345E-02 
410	 8.14085400376133E-02 
411	 8.14908011452269E-02 
412	 8.21803018244738E-02 
413	 8.32925266689242E-02 
414	 8.30651444035821E-02 
415	 8.17004609111702E-02 
416	 8.19529733451702E-02 
417	 0.082370529153234 
418	 8.26223895274161E-02 
419	 8.26184466275343E-02 
420	 8.21097722125096E-02 
421	 8.18808981713407E-02 
422	 8.18744597287702E-02 
423	 8.15674453515999E-02 
424	 8.18626500653751E-02 
425	 8.19216204628355E-02 
426	 8.13891115936928E-02 
427	 0.081148010364881 
428	 8.07472432937562E-02 
429	 8.05877358809425E-02 
430	 8.10336763662686E-02 
431	 8.10357272094517E-02 
432	 8.06695297573307E-02 
433	 8.03255483614277E-02 
434	 8.05911571223561E-02 
435	 8.12066620662946E-02 
436	 8.15873525817506E-02 
437	 8.14849490759659E-02 
438	 8.16355566241471E-02 
439	 8.18655449759901E-02 
440	 0.082305009303932 
441	 8.30963087708131E-02 
442	 8.32917931493334E-02 
443	 8.35897986051759E-02 
444	 8.42538950990053E-02 
445	 8.46605799765023E-02 
446	 8.50577990836029E-02 
447	 8.53047290277596E-02 
448	 8.53398580400721E-02 
449	 0.085840292128089 
450	 8.64066223606716E-02 
451	 8.68616942328029E-02 
452	 8.72462005246411E-02 
453	 8.74476923267495E-02 
454	 8.75898443470813E-02 
455	 8.78052404664731E-02 
456	 8.81529920759829E-02 
457	 8.85407397314144E-02 
458	 8.88736721455599E-02 
459	 8.90756975645436E-02 
460	 8.92129009698404E-02 
461	 8.93397107597334E-02 
462	 8.95120091858636E-02 
463	 8.97935354711702E-02 
464	 8.99850278481504E-02 
465	 9.00605089226604E-02 
466	 9.01122166047255E-02 
467	 9.04846425155223E-02 
468	 9.07551752934496E-02 
469	 9.07972006897894E-02 
470	 9.07579215579528E-02 
471	 9.08648318756601E-02 
472	 9.10505123295894E-02 
473	 9.12371396924082E-02 
474	 9.14836993140629E-02 
475	 9.15738150428484E-02 
476	 9.15497396730425E-02 
477	 9.15828663823849E-02 
478	 9.18201755315738E-02 
479	 9.20362634979375E-02 
480	 9.21321014843043E-02 
481	 9.22232911983252E-02 
482	 9.24854008931139E-02 
483	 9.26361091191319E-02 
484	 9.24670250083018E-02 
485	 9.26195696533754E-02 
486	 9.26242405590499E-02 
487	 9.25246166702328E-02 
488	 9.27690380491451E-02 
489	 9.28164231028407E-02 
490	 9.27623865491865E-02 
491	 9.27989158787573E-02 
492	 9.31174482689476E-02 
493	 9.31513139395581E-02 
494	 9.30285181787762E-02 
495	 9.31607970184819E-02 
496	 9.33458899911296E-02 
497	 9.33804826567355E-02 
498	 9.33179407234983E-02 
499	 9.36039171033702E-02 
500	 9.35058750494334E-02 
501	 9.33296000912607E-02 
502	 9.34982805003845E-02 
503	 9.35111118332313E-02 
504	 9.35234880068821E-02 
505	 9.36230335610011E-02 
506	 9.38046010202607E-02 
507	 9.38246578174807E-02 
508	 9.38069943832914E-02 
509	 9.38535321765712E-02 
510	 9.37869892919669E-02 
511	 0.093817597780819 
512	 9.38976907237345E-02 
513	 0.093863297217119 
514	 9.38370425101848E-02 
515	 9.39144703605975E-02 
516	 9.40650870491527E-02 
517	 9.40487812418378E-02 
518	 9.40840399384431E-02 
519	 9.41685107454549E-02 
520	 9.42431116033575E-02 
521	 9.43541252484403E-02 
522	 9.44558881635854E-02 
523	 9.45233643011703E-02 
524	 9.45585788686572E-02 
525	 9.45709418741902E-02 
526	 9.45618425874711E-02 
527	 9.45470964205447E-02 
528	 9.45876623913736E-02 
529	 9.46944802901447E-02 
530	 9.48120004098163E-02 
531	 9.48529410689863E-02 
532	 9.49024348517587E-02 
533	 9.50025849543122E-02 
534	 9.51345598037543E-02 
535	 9.51706510165297E-02 
536	 9.51423577484376E-02 
537	 9.51609778301188E-02 
538	 9.53269806026661E-02 
539	 9.54252652016926E-02 
540	 9.54899389342164E-02 
541	 9.55670535219894E-02 
542	 9.56921131586515E-02 
543	 9.57134361398384E-02 
544	 0.095784089207632 
545	 9.60229912466046E-02 
546	 9.60648891412177E-02 
547	 9.61046552629335E-02 
548	 9.62136719820967E-02 
549	 9.63439541007146E-02 
550	 9.64802545166931E-02 
551	 9.66230216615782E-02 
552	 0.096784691528243 
553	 9.70120952012851E-02 
554	 9.71486085653548E-02 
555	 9.72540742384223E-02 
556	 9.74873877405232E-02 
557	 0.097766270418878 
558	 9.80053930330614E-02 
559	 9.81967655919361E-02 
560	 9.84715116656948E-02 
561	 9.86862122614773E-02 
562	 9.88705297478288E-02 
563	 9.90982470349432E-02 
564	 9.93257305946857E-02 
565	 9.95969498723956E-02 
566	 9.99174415912952E-02 
567	 0.100246287902629 
568	 0.100646372023897 
569	 0.101096672893684 
570	 0.101556340956132 
571	 0.101994679202033 
572	 0.102421654977705 
573	 0.102878001604071 
574	 0.103409797794646 
575	 0.10383277752545 
576	 0.104255852943941 
577	 0.104741801069898 
578	 0.105130387498903 
579	 0.105642572688484 
580	 0.106268784678196 
581	 0.106910403836584 
582	 0.107618194592679 
583	 0.10833929037347 
584	 0.109050532725096 
585	 0.109785551961227 
586	 0.11047599512954 
587	 0.111103717149553 
588	 0.111695198806972 
589	 0.11238603720657 
590	 0.113099565770446 
591	 0.113794239255888 
592	 0.114473170368124 
593	 0.115195516717857 
594	 0.115948695640794 
595	 0.116703138471705 
596	 0.117423227227955 
597	 0.118206428730972 
598	 0.119027643973158 
599	 0.119801228777004 
600	 0.120527331179324 
601	 0.121284341542707 
602	 0.122057591149982 
603	 0.122642784640071 
604	 0.123282972920614 
605	 0.123964304691741 
606	 0.124597705647926 
607	 0.125220977287012 
608	 0.125816229533262 
609	 0.12638995334451 
610	 0.126979878866184 
611	 0.1276047616416 
612	 0.128222680221961 
613	 0.128784212585478 
614	 0.129280863829371 
615	 0.12972225111744 
616	 0.13016534074849 
617	 0.130678132729359 
618	 0.13106174889173 
619	 0.131389380020247 
620	 0.131740116898047 
621	 0.13211416695703 
622	 0.132478725546275 
623	 0.132822649373601 
624	 0.133149290420479 
625	 0.133490190545105 
626	 0.133814882637144 
627	 0.134110255115069 
628	 0.134391952945406 
629	 0.134698990070212 
630	 0.134984481385716 
631	 0.135206973796458 
632	 0.135434497124656 
633	 0.135710679655385 
634	 0.136000393606339 
635	 0.136215756492251 
636	 0.136518634257103 
637	 0.136794314488802 
638	 0.136971729975682 
639	 0.137200606789386 
640	 0.13745585022657 
641	 0.137726726951517 
642	 0.137999877576687 
643	 0.138235328734182 
644	 0.138465079747821 
645	 0.138710520608287 
646	 0.138967513678311 
647	 0.139198012936628 
648	 0.139428739989409 
649	 0.13969259209991 
650	 0.139957982239705 
651	 0.140244869692813 
652	 0.140539509733876 
653	 0.140802869930196 
654	 0.141091855398619 
655	 0.141387220400597 
656	 0.141670010046362 
657	 0.141950183030146 
658	 0.142281423177107 
659	 0.142629841539677 
660	 0.142931170732556 
661	 0.143261372067678 
662	 0.143579567774523 
663	 0.143881114455694 
664	 0.144228591400732 
665	 0.144600183965306 
666	 0.144970116904394 
667	 0.145320582732873 
668	 0.145668478745778 
669	 0.146035809351392 
670	 0.146442414037649 
671	 0.146896150447086 
672	 0.147270144203665 
673	 0.147630178136695 
674	 0.14803793153977 
675	 0.148460811380068 
676	 0.148905978744792 
677	 0.149347043168685 
678	 0.149755541332651 
679	 0.15019247076743 
680	 0.15063077791302 
681	 0.151074974935844 
682	 0.151580587540336 
683	 0.152056029803178 
684	 0.152517085617301 
685	 0.1530050198135 
686	 0.153541986374449 
687	 0.154089928148481 
688	 0.154630062351324 
689	 0.15515927101605 
690	 0.155673420194369 
691	 0.156167046627408 
692	 0.156669962939987 
693	 0.157292011317411 
694	 0.157868926958465 
695	 0.158403647378483 
696	 0.158957196155903 
697	 0.159529776244071 
698	 0.160156132478745 
699	 0.160795743325175 
700	 0.161334111423366 
701	 0.161899255931467 
702	 0.1624898335079 
703	 0.163087244596718 
704	 0.163713483355284 
705	 0.164321054528183 
706	 0.164905144083374 
707	 0.16548770849925 
708	 0.166103920885489 
709	 0.166721487756596 
710	 0.167323133250232 
711	 0.167927412716401 
712	 0.16848823715815 
713	 0.16905239613538 
714	 0.169665351317538 
715	 0.170262729494322 
716	 0.170840662944001 
717	 0.171413523911418 
718	 0.172002198842271 
719	 0.172562318120339 
720	 0.173061996542183 
721	 0.173522047420663 
722	 0.174060132383036 
723	 0.174603435979752 
724	 0.175116529422448 
725	 0.175576965603562 
726	 0.175960642670229 
727	 0.176370031132295 
728	 0.176817572667608 
729	 0.177227307532834 
730	 0.177607106408294 
731	 0.177975680283155 
732	 0.178332457056564 
733	 0.178616595374703 
734	 0.178926986970467 
735	 0.17923036419746 
736	 0.179457169306937 
737	 0.179682485397989 
738	 0.179895929682346 
739	 0.180085752448396 
740	 0.180245141824496 
741	 0.180375720662608 
742	 0.180469657840547 
743	 0.180532396947293 
744	 0.180611220005214 
745	 0.180665156459169 
746	 0.180680903432525 
747	 0.180661030742379 
748	 0.180617102265712 
749	 0.180542941566927 
750	 0.180444771833897 
751	 0.180344916594357 
752	 0.180233530450765 
753	 0.180106779878583 
754	 0.179956755898637 
755	 0.179756253698161 
756	 0.179563980543392 
757	 0.179360068341743 
758	 0.179097703207646 
759	 0.17885825585368 
760	 0.178602206942817 
761	 0.178315019561164 
762	 0.178027035860199 
763	 0.177717951378004 
764	 0.177402497688492 
765	 0.177089747716572 
766	 0.176747733039125 
767	 0.176409861233864 
768	 0.176050821068902 
769	 0.175637804117412 
770	 0.175311158424759 
771	 0.174960255244848 
772	 0.174553778830292 
773	 0.174180289227026 
774	 0.173801197668944 
775	 0.173413887543303 
776	 0.173018980621118 
777	 0.172603316224298 
778	 0.172194666622787 
779	 0.171810530747663 
780	 0.171445911319997 
781	 0.170994423993125 
782	 0.170601664811524 
783	 0.170254901988378 
784	 0.169768887349 
785	 0.169358701418679 
786	 0.168988419220267 
787	 0.168597286182503 
788	 0.168183796197393 
789	 0.167783470954309 
790	 0.167401241900387 
791	 0.167023704578928 
792	 0.166616584940207 
793	 0.166217939979922 
794	 0.165846489970491 
795	 0.165498788738403 
796	 0.165158734919798 
797	 0.164789394785784 
798	 0.164387830219517 
799	 0.164012657238537 
800	 0.16368495231714 
801	 0.16336329424359 
802	 0.163013328765212 
803	 0.162721440886806 
804	 0.162374858201391 
805	 0.161999156009741 
806	 0.161696451609017 
807	 0.161390210277843 
808	 0.161091205317246 
809	 0.160802483327689 
810	 0.16050541243543 
811	 0.160212960245286 
812	 0.159907905183672 
813	 0.159589074871509 
814	 0.159313015657123 
815	 0.15907309349775 
816	 0.15884745742695 
817	 0.158608234102491 
818	 0.158342271805604 
819	 0.158094962755572 
820	 0.157865569300497 
821	 0.157616686092602 
822	 0.157404726629718 
823	 0.157199196926402 
824	 0.156980459197549 
825	 0.156767645568158 
826	 0.156588533290947 
827	 0.156424990393458 
828	 0.156250450206851 
829	 0.156057948819245 
830	 0.155847706513829 
831	 0.155663556858912 
832	 0.15554458228309 
833	 0.15537356404616 
834	 0.155194650165369 
835	 0.155038668876262 
836	 0.154908312810565 
837	 0.154755554729947 
838	 0.154629508600818 
839	 0.154547965024415 
840	 0.154449427970536 
841	 0.15435649224628 
842	 0.15423971646599 
843	 0.154092378484587 
844	 0.154013471535114 
845	 0.153987939683707 
846	 0.153939557725197 
847	 0.153802289430816 
848	 0.153736155813102 
849	 0.153678707796103 
850	 0.153621747257209 
851	 0.153607169417728 
852	 0.153578476774276 
853	 0.153526541288138 
854	 0.153468983742163 
855	 0.153449127716812 
856	 0.153437719615784 
857	 0.153429137911209 
858	 0.153420680863994 
859	 0.153397974563986 
860	 0.153429825276085 
861	 0.153472839345838 
862	 0.153473763380693 
863	 0.15353062932692 
864	 0.1535769541874 
865	 0.153590050981126 
866	 0.153588591369126 
867	 0.153644138264784 
868	 0.153699015087858 
869	 0.153737391252945 
870	 0.153797088157093 
871	 0.153865224335523 
872	 0.153951457351362 
873	 0.154060032362871 
874	 0.154181656874328 
875	 0.154299435030201 
876	 0.154393926303782 
877	 0.154460135814934 
878	 0.154514059444002 
879	 0.154700025037407 
880	 0.154909892991236 
881	 0.154994367381267 
882	 0.155038451039935 
883	 0.155175977187264 
884	 0.155379356667783 
885	 0.155543858434718 
886	 0.155737996137011 
887	 0.155888087608714 
888	 0.156008485117663 
889	 0.156186854451726 
890	 0.156385198146788 
891	 0.156551954053945 
892	 0.156711428025263 
893	 0.156972349684307 
894	 0.157191351568706 
895	 0.157377139073134 
896	 0.157570878897844 
897	 0.157813353102889 
898	 0.158058782915613 
899	 0.1583021666616 
900	 0.158555703415128 
901	 0.158851888562558 
902	 0.159089538870306 
903	 0.159320444326863 
904	 0.159615634004739 
905	 0.159899918035319 
906	 0.1601911773772 
907	 0.160510466009739 
908	 0.160860588013582 
909	 0.16115287500197 
910	 0.161448466682796 
911	 0.161764949323254 
912	 0.16208468841454 
913	 0.162398138095911 
914	 0.162743330589287 
915	 0.163115521476778 
916	 0.163475446433292 
917	 0.163854514463467 
918	 0.164294961478185 
919	 0.16474813920847 
920	 0.165080808928045 
921	 0.165486577100262 
922	 0.165882005353062 
923	 0.166235461983541 
924	 0.166656817915049 
925	 0.167118943687223 
926	 0.167587282966366 
927	 0.168045182727612 
928	 0.168512442520839 
929	 0.169022368930406 
930	 0.169529874912303 
931	 0.170003899628772 
932	 0.170494935433805 
933	 0.17098423612748 
934	 0.171523130801082 
935	 0.172111451805242 
936	 0.172545485771645 
937	 0.173045864754174 
938	 0.173605277921301 
939	 0.174151609791517 
940	 0.174679323948528 
941	 0.175238756969362 
942	 0.175874176210479 
943	 0.176572818741112 
944	 0.177141026263323 
945	 0.177665841779063 
946	 0.178253873369091 
947	 0.178955914059732 
948	 0.17957068887418 
949	 0.180231263854616 
950	 0.180878874143993 
951	 0.181419394307542 
952	 0.182104082356039 
953	 0.182773492218428 
954	 0.18343569486515 
955	 0.184183206835748 
956	 0.184957318856996 
957	 0.18576553278307 
958	 0.186491722621329 
959	 0.187038464427785 
960	 0.187820903913373 
961	 0.188561448460256 
962	 0.189270118607338 
963	 0.190113151839111 
964	 0.1908389799229 
965	 0.191593485113498 
966	 0.192420811676132 
967	 0.193276533310414 
968	 0.194160797210817 
969	 0.194903306046473 
970	 0.195627874662803 
971	 0.196577626800044 
972	 0.197435590637644 
973	 0.198238389865312 
974	 0.199050733456279 
975	 0.199925863716127 
976	 0.200830836657964 
977	 0.201753119319763 
978	 0.202661099794243 
979	 0.2035244139774 
980	 0.204371640896506 
981	 0.205287269888046 
982	 0.206249096631671 
983	 0.207168838132586 
984	 0.207997059413753 
985	 0.20895767762777 
986	 0.209933332336512 
987	 0.210714608522674 
988	 0.211700447563586 
989	 0.212709680002786 
990	 0.213683614241828 
991	 0.214646048303493 
992	 0.215630936203834 
993	 0.216399152051163 
994	 0.217225169934118 
995	 0.218419020570041 
996	 0.219474367532211 
997	 0.220310481111296 
998	 0.221149820957113 
999	 0.22222266373294 
1000	 0.223333614976705 
1001	 0.226692226315804 
1002	 0.227657569691249 
1003	 0.228659231507595 
1004	 0.229613446799977 
1005	 0.230558832207815 
1006	 0.231502745261554 
1007	 0.232425483764972 
1008	 0.233312419674066 
1009	 0.234210818776593 
1010	 0.235066867031916 
1011	 0.235864320408425 
1012	 0.236753283252027 
1013	 0.237703500335869 
1014	 0.238642419635336 
1015	 0.239629891292674 
1016	 0.240569229939282 
1017	 0.241452209147481 
1018	 0.242265619528619 
1019	 0.243148540644137 
1020	 0.244012874090744 
1021	 0.244839881389965 
1022	 0.245737045223044 
1023	 0.246629085484504 
1024	 0.247462748127731 
1025	 0.248303414944398 
1026	 0.249108208978309 
1027	 0.24989684512926 
1028	 0.250758840058311 
1029	 0.251581853276189 
1030	 0.252382587057484 
1031	 0.253196867353757 
1032	 0.254027972748361 
1033	 0.254785411792827 
1034	 0.255572336095434 
1035	 0.256389904446719 
1036	 0.257131278691536 
1037	 0.257910775696845 
1038	 0.258759472097546 
1039	 0.259527359220358 
1040	 0.260251273262252 
1041	 0.261004122656634 
1042	 0.26175657586655 
1043	 0.262540910947704 
1044	 0.263342619223509 
1045	 0.264225302336379 
1046	 0.26509325820665 
1047	 0.265885499607793 
1048	 0.266659678136245 
1049	 0.267448993783583 
1050	 0.268223873796885 
1051	 0.268996434186292 
1052	 0.269781597260204 
1053	 0.270547183966387 
1054	 0.271300301366711 
1055	 0.272074467534055 
1056	 0.272802154998851 
1057	 0.273525249514683 
1058	 0.274233477970099 
1059	 0.274977470796884 
1060	 0.275716881881214 
1061	 0.276466795299825 
1062	 0.277227190759083 
1063	 0.277901220212868 
1064	 0.278531117612707 
1065	 0.279194466795639 
1066	 0.279854850792281 
1067	 0.280555518028524 
1068	 0.281245975718113 
1069	 0.281879210792789 
1070	 0.282525084259188 
1071	 0.283149168771343 
1072	 0.283782015998573 
1073	 0.284418120792741 
1074	 0.285063946668694 
1075	 0.285707320040045 
1076	 0.286345596507358 
1077	 0.287014583684411 
1078	 0.287612209188491 
1079	 0.288180048762086 
1080	 0.288787765394609 
1081	 0.289384795421591 
1082	 0.289998749138057 
1083	 0.290593139919266 
1084	 0.29117544918164 
1085	 0.291778080906919 
1086	 0.292346144734259 
1087	 0.29296692203936 
1088	 0.293633951853668 
1089	 0.294293315796966 
1090	 0.294944041541091 
1091	 0.295608268200827 
1092	 0.296201639867647 
1093	 0.296849533173376 
1094	 0.297571421335906 
1095	 0.298232306855209 
1096	 0.298924745685184 
1097	 0.299653385844437 
1098	 0.300345215271755 
1099	 0.30099609233948 
1100	 0.301681149702057 
1101	 0.302347361411047 
1102	 0.303053032909697 
1103	 0.303785746930335 
1104	 0.304529755155934 
1105	 0.305230682306298 
1106	 0.306025278500702 
1107	 0.306784214382421 
1108	 0.307525467699005 
1109	 0.308392669169194 
1110	 0.309208774986368 
1111	 0.310026680096831 
1112	 0.310855596024234 
1113	 0.311685790654554 
1114	 0.312489627838058 
1115	 0.313335188396087 
1116	 0.314221838351058 
1117	 0.315092296247549 
1118	 0.315986879019632 
1119	 0.316827720471393 
1120	 0.317696654642422 
1121	 0.318531303164604 
1122	 0.319361380244623 
1123	 0.320259402448279 
1124	 0.32115525862789 
1125	 0.322072992770042 
1126	 0.322978862937627 
1127	 0.323891046843618 
1128	 0.324808070250647 
1129	 0.325732716447022 
1130	 0.326645759765552 
1131	 0.327566890759405 
1132	 0.32847565807772 
1133	 0.32936710809236 
1134	 0.330256277932731 
1135	 0.331133207220376 
1136	 0.332026440525919 
1137	 0.332914058836351 
1138	 0.333790165122549 
1139	 0.334690800249963 
1140	 0.33561776540187 
1141	 0.336518331528065 
1142	 0.337418414746666 
1143	 0.338315032320996 
1144	 0.339206830919377 
1145	 0.340076367566511 
1146	 0.340949261475909 
1147	 0.341800051669234 
1148	 0.342599899005531 
1149	 0.343435501114641 
1150	 0.344283967539254 
1151	 0.345129176000396 
1152	 0.345974071583341 
1153	 0.34680168715211 
1154	 0.347623127121743 
1155	 0.348420130146569 
1156	 0.349224151684399 
1157	 0.350043644275756 
1158	 0.350834006182822 
1159	 0.351607303739365 
1160	 0.352376499368991 
1161	 0.353130687314021 
1162	 0.353881131661869 
1163	 0.354628529669142 
1164	 0.355369436475769 
1165	 0.356105749468994 
1166	 0.356833334927217 
1167	 0.35756687378688 
1168	 0.358274901257074 
1169	 0.358968936988055 
1170	 0.359651163303337 
1171	 0.360321759044121 
1172	 0.360965363268173 
1173	 0.361625279575839 
1174	 0.362278206984811 
1175	 0.362943323076533 
1176	 0.363635576401437 
1177	 0.364292293233964 
1178	 0.364947071067838 
1179	 0.365581584080166 
1180	 0.366177734199838 
1181	 0.366786185368598 
1182	 0.367382951913157 
1183	 0.367996822194525 
1184	 0.368606699256967 
1185	 0.369235408049721 
1186	 0.36981939859639 
1187	 0.370393162918451 
1188	 0.370949492112964 
1189	 0.371476412595457 
1190	 0.371996537535201 
1191	 0.372497072023999 
1192	 0.373011713765287 
1193	 0.373520289009735 
1194	 0.374025266503283 
1195	 0.374542748351452 
1196	 0.375047881710534 
1197	 0.375537137937254 
1198	 0.376025063182175 
1199	 0.376510384323015 
1200	 0.377000885481402 
1201	 0.377472292039796 
1202	 0.377934503675645 
1203	 0.378388550030994 
1204	 0.378836043287347 
1205	 0.379268565083007 
1206	 0.379680001499832 
1207	 0.380105178757804 
1208	 0.380537439642027 
1209	 0.380945288183761 
1210	 0.381350165326068 
1211	 0.381746646022479 
1212	 0.382110654448225 
1213	 0.382487977462192 
1214	 0.38288384520751 
1215	 0.383261181393064 
1216	 0.383630388545056 
1217	 0.383994056685945 
1218	 0.384349307452586 
1219	 0.384694223326364 
1220	 0.385031639062203 
1221	 0.385357868198938 
1222	 0.385690704527559 
1223	 0.386014899200666 
1224	 0.386345381035785 
1225	 0.386693109617825 
1226	 0.387019040930757 
1227	 0.387339169450048 
1228	 0.387648910652388 
1229	 0.38794156955806 
1230	 0.388235146790656 
1231	 0.388521632343686 
1232	 0.388807572971855 
1233	 0.389091525005392 
1234	 0.389370826962325 
1235	 0.389656966608944 
1236	 0.38994644120179 
1237	 0.39023025059347 
1238	 0.390538286220649 
1239	 0.390791474197132 
1240	 0.391006184577062 
1241	 0.391239298278904 
1242	 0.391433222090001 
1243	 0.391663140706922 
1244	 0.391935941749698 
1245	 0.392179537145503 
1246	 0.392424828457457 
1247	 0.392656399520743 
1248	 0.392867799453725 
1249	 0.393080687957743 
1250	 0.393292849549316 
1251	 0.393491525060019 
1252	 0.393694360170031 
1253	 0.393900069878848 
1254	 0.394088097322539 
1255	 0.394267529316134 
1256	 0.394445895700661 
1257	 0.394612487665903 
1258	 0.394780448222775 
1259	 0.394944753224 
1260	 0.395114389435504 
1261	 0.395280579043438 
1262	 0.395448780956585 
1263	 0.395636951787332 
1264	 0.395801371481945 
1265	 0.395937738106078 
1266	 0.39609525734326 
1267	 0.396251907684692 
1268	 0.396400614122696 
1269	 0.396585651508803 
1270	 0.396805554099023 
1271	 0.397002081498962 
1272	 0.397210048192564 
1273	 0.397407739037096 
1274	 0.397581602105602 
1275	 0.397789260114487 
1276	 0.398014454256067 
1277	 0.398236927226897 
1278	 0.39848488324949 
1279	 0.398708768233621 
1280	 0.398932128577059 
1281	 0.399131568848057 
1282	 0.399312538826853 
1283	 0.399487631006635 
1284	 0.399647747587175 
1285	 0.399792377107504 
1286	 0.399950929958369 
1287	 0.400094997907983 
1288	 0.400206453613089 
1289	 0.400312105612565 
1290	 0.400370590453183 
1291	 0.400383508082855 
1292	 0.400390549121696 
1293	 0.400367983703962 
1294	 0.400338026830733 
1295	 0.400313083552734 
1296	 0.400229885356441 
1297	 0.400099535366107 
1298	 0.399971229948142 
1299	 0.399794569770139 
1300	 0.399635748217496 
1301	 0.399487129826202 
1302	 0.399329799374861 
1303	 0.399168387398356 
1304	 0.398995157226159 
1305	 0.398827633687696 
1306	 0.398644142786311 
1307	 0.39847256646461 
1308	 0.398320700450191 
1309	 0.398165137415751 
1310	 0.398026925759049 
1311	 0.397876560409759 
1312	 0.397711909731439 
1313	 0.397567827064969 
1314	 0.397415452082233 
1315	 0.397295659649665 
1316	 0.397204592712237 
1317	 0.397114584759482 
1318	 0.397035236951362 
1319	 0.396976630980811 
1320	 0.396921294914669 
1321	 0.396888852190158 
1322	 0.396883156793463 
1323	 0.39688887116216 
1324	 0.396896160579 
1325	 0.396930170883573 
1326	 0.396980557089968 
1327	 0.397039544762479 
1328	 0.397112415148636 
1329	 0.397198367719405 
1330	 0.397316908405786 
1331	 0.397452486385357 
1332	 0.397613777091831 
1333	 0.397818381339593 
1334	 0.398010803652015 
1335	 0.398212823410043 
1336	 0.398414311527308 
1337	 0.398624585037263 
1338	 0.398828172161177 
1339	 0.399033596256033 
1340	 0.399235086268748 
1341	 0.39941913824403 
1342	 0.39962540140988 
1343	 0.399836159944598 
1344	 0.400062807773506 
1345	 0.400288083342217 
1346	 0.400532722052078 
1347	 0.400791843777955 
1348	 0.40103734610029 
1349	 0.401281060473794 
1350	 0.401542569481791 
1351	 0.40179210462975 
1352	 0.402021266156457 
1353	 0.402270089442573 
1354	 0.402551362513416 
1355	 0.402779410767987 
1356	 0.402992463285705 
1357	 0.40320148624025 
1358	 0.4033600592109 
1359	 0.403561715201057 
1360	 0.403792532579165 
1361	 0.404000978936155 
1362	 0.404219443452724 
1363	 0.404424492563839 
1364	 0.404617337419414 
1365	 0.404799637438231 
1366	 0.404976243374903 
1367	 0.405145711398104 
1368	 0.405291448069943 
1369	 0.40542575737155 
1370	 0.405566480409828 
1371	 0.40569265586781 
1372	 0.405806097051817 
1373	 0.405921179850805 
1374	 0.406031531949129 
1375	 0.40614800543117 
1376	 0.406223849604649 
1377	 0.406292010248964 
1378	 0.406327296695721 
1379	 0.406334497685937 
1380	 0.406305849373643 
1381	 0.40624737159 
1382	 0.406176717908282 
1383	 0.406073699273271 
1384	 0.405946596690899 
1385	 0.405836968143703 
1386	 0.40565373716521 
1387	 0.405407727357187 
1388	 0.405144808468326 
1389	 0.404853060855918 
1390	 0.404504004448471 
1391	 0.404144147575826 
1392	 0.403740811946719 
1393	 0.403274884024497 
1394	 0.402780435915435 
1395	 0.402245396015411 
1396	 0.401708751272011 
1397	 0.401152892001127 
1398	 0.400579246097773 
1399	 0.39999397401528 
1400	 0.399379965082303 
1401	 0.398778752732424 
1402	 0.398172672422921 
1403	 0.39756851131248 
1404	 0.396963548187095 
1405	 0.396370208793188 
1406	 0.39577664329442 
1407	 0.395188290734929 
1408	 0.394587489424554 
1409	 0.394033622805091 
1410	 0.393468166276544 
1411	 0.392976670731288 
1412	 0.392529024642273 
1413	 0.392142509943518 
1414	 0.391807258061459 
1415	 0.391535162653809 
1416	 0.391318844277484 
1417	 0.391115627178867 
1418	 0.390929521367529 
1419	 0.390759781136719 
1420	 0.390601705488734 
1421	 0.390460048248452 
1422	 0.390340113758529 
1423	 0.390219325058664 
1424	 0.390069378064332 
1425	 0.389902182041335 
1426	 0.38973854856158 
1427	 0.389542962180597 
1428	 0.389382835081468 
1429	 0.389241617435188 
1430	 0.389102641637278 
1431	 0.38897911872623 
1432	 0.388851920041564 
1433	 0.388728876865107 
1434	 0.388601270491251 
1435	 0.38846698901328 
1436	 0.388340660557581 
1437	 0.388208141542888 
1438	 0.388096858733732 
1439	 0.387995126482507 
1440	 0.387911780925528 
1441	 0.387831257205512 
1442	 0.387759301284191 
1443	 0.387698484823447 
1444	 0.387637926451263 
1445	 0.387609831481931 
1446	 0.387583880592026 
1447	 0.387550632044569 
1448	 0.387540146605188 
1449	 0.387518254510426 
1450	 0.387497363804112 
1451	 0.387513383587329 
1452	 0.387552500113631 
1453	 0.387602710641607 
1454	 0.387683142915409 
1455	 0.387758965672156 
1456	 0.387831981366427 
1457	 0.387928511965586 
1458	 0.388047653627104 
1459	 0.388164048765968 
1460	 0.388297520573416 
1461	 0.388424870377536 
1462	 0.388547828948058 
1463	 0.388675201144995 
1464	 0.388812446600895 
1465	 0.388941894705568 
1466	 0.389059112721089 
1467	 0.389195413667533 
1468	 0.389333703470835 
1469	 0.389477697936726 
1470	 0.38963825700444 
1471	 0.38980099681736 
1472	 0.389952687126332 
1473	 0.390109293305159 
1474	 0.390270656442229 
1475	 0.390413541060304 
1476	 0.390536825183381 
1477	 0.390684413023508 
1478	 0.390840745514458 
1479	 0.390991692145914 
1480	 0.391158098648013 
1481	 0.391326085221676 
1482	 0.39148819660498 
1483	 0.391639349430404 
1484	 0.39180445659748 
1485	 0.391975725057883 
1486	 0.392144292228764 
1487	 0.392321225862497 
1488	 0.392483198989657 
1489	 0.39262845464963 
1490	 0.3927994109119 
1491	 0.392980057308282 
1492	 0.393152103737058 
1493	 0.393342140796417 
1494	 0.393514970392834 
1495	 0.393663361530289 
1496	 0.393820394022939 
1497	 0.393993247636102 
1498	 0.394145320146473 
1499	 0.39428475450191 
1500	 0.39442683031296 
1501	 0.39455664069542 
1502	 0.394683603845751 
1503	 0.394808589264017 
1504	 0.394930856204949 
1505	 0.395059123093745 
1506	 0.395188701010848 
1507	 0.395340580050571 
1508	 0.395500278358967 
1509	 0.395629645569176 
1510	 0.395762999728414 
1511	 0.395907660355945 
1512	 0.3960416499759 
1513	 0.396184766331652 
1514	 0.396342001065707 
1515	 0.39649095878275 
1516	 0.396619861806697 
1517	 0.396745261989746 
1518	 0.396867646974292 
1519	 0.396995118304443 
1520	 0.397114410186809 
1521	 0.39722755222903 
1522	 0.397352951298161 
1523	 0.3974590701292 
1524	 0.397533201182849 
1525	 0.397638677325176 
1526	 0.397756747607661 
1527	 0.397861492624902 
1528	 0.397970181007294 
1529	 0.398078734624058 
1530	 0.398191596504215 
1531	 0.398286862732541 
1532	 0.398376241477182 
1533	 0.398463013486079 
1534	 0.398526814781245 
1535	 0.398600327719561 
1536	 0.398681223818583 
1537	 0.398763668348908 
1538	 0.398846741502791 
1539	 0.398927500749266 
1540	 0.399010569936454 
1541	 0.399092721083357 
1542	 0.399174089689066 
1543	 0.399250517077414 
1544	 0.399321263784602 
1545	 0.399402246545751 
1546	 0.399478636294035 
1547	 0.399558662974183 
1548	 0.39967861358716 
1549	 0.399787084574963 
1550	 0.39990182798501 
1551	 0.400028334954536 
1552	 0.400119727037459 
1553	 0.400196374668395 
1554	 0.400261248808262 
1555	 0.400311270549032 
1556	 0.400350319332799 
1557	 0.400398573604351 
1558	 0.400459456094873 
1559	 0.400514502533385 
1560	 0.400589135328307 
1561	 0.400691658649526 
1562	 0.400768885042264 
1563	 0.40084198305904 
1564	 0.400918320989675 
1565	 0.400983011162233 
1566	 0.401060109437554 
1567	 0.401162505656256 
1568	 0.401224078272501 
1569	 0.401261493853291 
1570	 0.401319736173605 
1571	 0.401357748225713 
1572	 0.401417843853742 
1573	 0.401503161476288 
1574	 0.401581192197759 
1575	 0.401657877129895 
1576	 0.401739330223743 
1577	 0.4018488432863 
1578	 0.401913359140506 
1579	 0.401953017423581 
1580	 0.401994880944303 
1581	 0.402009691077018 
1582	 0.402035803759682 
1583	 0.402060204410444 
1584	 0.4020990295196 
1585	 0.40214067530421 
1586	 0.402186462842155 
1587	 0.402252981715908 
1588	 0.402307773121388 
1589	 0.402354790363744 
1590	 0.402401708170703 
1591	 0.402443554037153 
1592	 0.402498409193337 
1593	 0.402558095374935 
1594	 0.402617375207112 
1595	 0.40268088838557 
1596	 0.402747177217927 
1597	 0.402823838842304 
1598	 0.402888101000264 
1599	 0.402963376120214 
1600	 0.403014993032153 
1601	 0.403044119319842 
1602	 0.403067141751931 
1603	 0.403066939338246 
1604	 0.403076548075228 
1605	 0.403068761326351 
1606	 0.403085563706378 
1607	 0.403117847959057 
1608	 0.403162238983432 
1609	 0.403213566164562 
1610	 0.403250943827098 
1611	 0.403292676868889 
1612	 0.403325011539292 
1613	 0.403333397340461 
1614	 0.403366441556999 
1615	 0.403413463953062 
1616	 0.403446697350426 
1617	 0.403468200402107 
1618	 0.403493980970825 
1619	 0.403513895672599 
1620	 0.403503176294384 
1621	 0.403507291607409 
1622	 0.403531124081628 
1623	 0.403534514774968 
1624	 0.403516034574097 
1625	 0.403516335241869 
1626	 0.403523019913286 
1627	 0.403525790982238 
1628	 0.403522480736036 
1629	 0.403543149030264 
1630	 0.403572698662133 
1631	 0.403609899112763 
1632	 0.403668557483064 
1633	 0.403712872819012 
1634	 0.403768024017867 
1635	 0.403785399454112 
1636	 0.403782736365865 
1637	 0.403784468471866 
1638	 0.403759941643293 
1639	 0.40375352609485 
1640	 0.403753515850972 
1641	 0.40376667352264 
1642	 0.403783760460255 
1643	 0.403802768224303 
1644	 0.403840872216452 
1645	 0.403865077079567 
1646	 0.403883947700437 
1647	 0.403896636092882 
1648	 0.403907737868862 
1649	 0.403913831451299 
1650	 0.403902027630114 
1651	 0.403910995886292 
1652	 0.403930246420874 
1653	 0.403945283223609 
1654	 0.403967501896442 
1655	 0.403986356906695 
1656	 0.403999104150355 
1657	 0.404018904883708 
1658	 0.404051982739815 
1659	 0.404064978488818 
1660	 0.404072193489398 
1661	 0.404073958338712 
1662	 0.404061554262099 
1663	 0.404051636942747 
1664	 0.404042673542557 
1665	 0.404026322650657 
1666	 0.403994417835162 
1667	 0.403982246678859 
1668	 0.403979562382936 
1669	 0.403968700249146 
1670	 0.403958957295071 
1671	 0.403959862681681 
1672	 0.403954620924766 
1673	 0.40396329125958 
1674	 0.404006025776779 
1675	 0.404012302804275 
1676	 0.404002266861337 
1677	 0.403995930853126 
1678	 0.403972738645318 
1679	 0.403958495930267 
1680	 0.403945916637932 
1681	 0.403941138733244 
1682	 0.403935675560024 
1683	 0.403940231232294 
1684	 0.403955314477891 
1685	 0.403977022692398 
1686	 0.40401208609341 
1687	 0.404034041773675 
1688	 0.404070263539646 
1689	 0.404076968845707 
1690	 0.404056656669712 
1691	 0.404045898740358 
1692	 0.404013875558312 
1693	 0.404007648301704 
1694	 0.404008737175744 
1695	 0.404028040953797 
1696	 0.404082272836403 
1697	 0.404102279282768 
1698	 0.404123564910899 
1699	 0.404131129144786 
1700	 0.404120541949896 
1701	 0.404097717058162 
1702	 0.40406595886471 
1703	 0.404030088921399 
1704	 0.403951121104048 
1705	 0.40393178817037 
1706	 0.403952098704111 
1707	 0.403946377565903 
1708	 0.40396908680774 
1709	 0.403956284349732 
1710	 0.40389022048975 
1711	 0.403880450396135 
1712	 0.403893905134308 
1713	 0.403896907551023 
1714	 0.403926941946726 
1715	 0.403935577530127 
1716	 0.403927497728762 
1717	 0.403921514725666 
1718	 0.403916674693833 
1719	 0.403896573580687 
1720	 0.403863666011252 
1721	 0.403829914164114 
1722	 0.403794887066001 
1723	 0.403754529112788 
1724	 0.403707180137822 
1725	 0.403656545634013 
1726	 0.40359710718022 
1727	 0.403539657895674 
1728	 0.403476688891361 
1729	 0.403421619918284 
1730	 0.403363803138772 
1731	 0.403316218912613 
1732	 0.403280663856659 
1733	 0.403242445203844 
1734	 0.403223869620214 
1735	 0.403165762083049 
1736	 0.403076897494473 
1737	 0.403023981993679 
1738	 0.402958380341051 
1739	 0.402912089879248 
1740	 0.402908795729912 
1741	 0.402866531502428 
1742	 0.402804225784458 
1743	 0.402752484575419 
1744	 0.402699142692028 
1745	 0.402642197186731 
1746	 0.402581008460058 
1747	 0.402514039128463 
1748	 0.402463535146661 
1749	 0.402414350411629 
1750	 0.402365292088436 
1751	 0.402313072092818 
1752	 0.402245140526885 
1753	 0.402177612802446 
1754	 0.402125997323011 
1755	 0.402117888109687 
1756	 0.402110304883091 
1757	 0.402082370059293 
1758	 0.402073334527046 
1759	 0.402009141929517 
1760	 0.401936666890869 
1761	 0.401912670507913 
1762	 0.401869027032571 
1763	 0.401847394648925 
1764	 0.401836468650367 
1765	 0.401793396044935 
1766	 0.401738657506338 
1767	 0.401665432178668 
1768	 0.401607925611625 
1769	 0.40156793701156 
1770	 0.401546761279979 
1771	 0.401555576093247 
1772	 0.401552030160584 
1773	 0.401548481756554 
1774	 0.40154003717885 
1775	 0.401513807823949 
1776	 0.401492093866457 
1777	 0.401474500501965 
1778	 0.401453601625232 
1779	 0.401430258708817 
1780	 0.401401666567483 
1781	 0.401356542332936 
1782	 0.401326388344718 
1783	 0.401338524450828 
1784	 0.401326049446518 
1785	 0.40130552021004 
1786	 0.401304722675723 
1787	 0.401282838556684 
1788	 0.40129827174719 
1789	 0.401362840738734 
1790	 0.401411869448591 
1791	 0.401480556994913 
1792	 0.401524950977962 
1793	 0.401558130052216 
1794	 0.401590298574984 
1795	 0.401600254319293 
1796	 0.401625654904268 
1797	 0.401670833226325 
1798	 0.401678733954941 
1799	 0.401673801117723 
1800	 0.401654806115915 
1801	 0.401019725446346 
1802	 0.401068601017264 
1803	 0.401056098692933 
1804	 0.401056432783093 
1805	 0.401071967681973 
1806	 0.401049842984387 
1807	 0.401050372177828 
1808	 0.401094936613185 
1809	 0.401209768356019 
1810	 0.40125611912492 
1811	 0.401308700017636 
1812	 0.401348734655811 
1813	 0.401347492592217 
1814	 0.401335120792938 
1815	 0.401305537707061 
1816	 0.40130437209167 
1817	 0.401301898274404 
1818	 0.401265786597007 
1819	 0.401281958992122 
1820	 0.401343236400739 
1821	 0.401382263813109 
1822	 0.401416409770156 
1823	 0.401440762056984 
1824	 0.401448258787507 
1825	 0.401460301576366 
1826	 0.401472259271199 
1827	 0.401460580093487 
1828	 0.401429961173721 
1829	 0.401371419081096 
1830	 0.401311926784343 
1831	 0.401217936641899 
1832	 0.401161222010773 
1833	 0.401131375495443 
1834	 0.401093573218943 
1835	 0.401108464726226 
1836	 0.401135703721369 
1837	 0.401145542219679 
1838	 0.401146661119076 
1839	 0.401135426978918 
1840	 0.401114467410782 
1841	 0.401073251006353 
1842	 0.401037315481952 
1843	 0.401017329799368 
1844	 0.400976532266142 
1845	 0.400935454342606 
1846	 0.400867928284007 
1847	 0.400755979023049 
1848	 0.400657772161361 
1849	 0.400560343126488 
1850	 0.400458869978325 
1851	 0.400351020138825 
1852	 0.400264842762059 
1853	 0.400169603809922 
1854	 0.400067039161618 
1855	 0.399979574021754 
1856	 0.399867707608936 
1857	 0.399729850873636 
1858	 0.399561741180699 
1859	 0.399361512086777 
1860	 0.399148673112819 
1861	 0.398920490666802 
1862	 0.398659514938102 
1863	 0.39838859141015 
1864	 0.39808724899968 
1865	 0.397753173827174 
1866	 0.397421879908475 
1867	 0.397053318199806 
1868	 0.396648328387284 
1869	 0.396201705744875 
1870	 0.395726339961841 
1871	 0.395229073034997 
1872	 0.394711668983195 
1873	 0.394166574116108 
1874	 0.393577941143738 
1875	 0.392946327051489 
1876	 0.392251843555381 
1877	 0.39148695282614 
1878	 0.390669964860469 
1879	 0.389764661965232 
1880	 0.388788296407877 
1881	 0.387731933704437 
1882	 0.386621023545119 
1883	 0.385448829131072 
1884	 0.384181049223119 
1885	 0.382865811204724 
1886	 0.381465900733705 
1887	 0.379943131464276 
1888	 0.378379333736581 
1889	 0.376748342907438 
1890	 0.375032082536469 
1891	 0.37330759040376 
1892	 0.371542160959747 
1893	 0.369751023598121 
1894	 0.367927684659962 
1895	 0.366074096973247 
1896	 0.364172781396024 
1897	 0.36226163407951 
1898	 0.360331848045706 
1899	 0.35842418247598 
1900	 0.356565684020804 
1901	 0.35474155194064 
1902	 0.352960847749855 
1903	 0.351236877021425 
1904	 0.349532331380417 
1905	 0.347850155257397 
1906	 0.34622381869015 
1907	 0.344643112795827 
1908	 0.343152154963412 
1909	 0.341754286984393 
1910	 0.340416362007967 
1911	 0.339130851061697 
1912	 0.337912025658597 
1913	 0.336760133550676 
1914	 0.335658701449304 
1915	 0.334627476362993 
1916	 0.333667752284278 
1917	 0.332783473945052 
1918	 0.33194826304632 
1919	 0.331167654665218 
1920	 0.330460303099918 
1921	 0.329793530350686 
1922	 0.32914536168888 
1923	 0.32856644459682 
1924	 0.328034908464698 
1925	 0.327537216054342 
1926	 0.327112421452521 
1927	 0.326763239338847 
1928	 0.326440058217425 
1929	 0.326155166983087 
1930	 0.325928646026913 
1931	 0.325726153963345 
1932	 0.32557160409754 
1933	 0.325478034425053 
1934	 0.325405990346126 
1935	 0.325388405283068 
1936	 0.325420175468095 
1937	 0.325479241165656 
1938	 0.32556884545042 
1939	 0.325722421069686 
1940	 0.325918536875932 
1941	 0.32615924894276 
1942	 0.326452313807418 
1943	 0.326770685841107 
1944	 0.327095494637699 
1945	 0.327447432836161 
1946	 0.327829445019709 
1947	 0.328247484377059 
1948	 0.328681389695038 
1949	 0.329146288549881 
1950	 0.329621252511433 
1951	 0.330126278140243 
1952	 0.33062779928307 
1953	 0.331139595254477 
1954	 0.331643413943446 
1955	 0.332101192506809 
1956	 0.332585066496851 
1957	 0.333071750062353 
1958	 0.333539778207408 
1959	 0.334035843654205 
1960	 0.334577721577299 
1961	 0.335074069836553 
1962	 0.335572897252817 
1963	 0.336057673101165 
1964	 0.336509024664854 
1965	 0.336957855833712 
1966	 0.337452357762558 
1967	 0.337932240427294 
1968	 0.338408879497929 
1969	 0.338901514358308 
1970	 0.339383909212237 
1971	 0.339841708115768 
1972	 0.340317712864147 
1973	 0.340798199171103 
1974	 0.341288900792458 
1975	 0.341780136408867 
1976	 0.342294760792277 
1977	 0.342806407549735 
1978	 0.343322818607495 
1979	 0.343836425936202 
1980	 0.344344284431189 
1981	 0.344853176218264 
1982	 0.345364620010378 
1983	 0.34587215503288 
1984	 0.346369988564737 
1985	 0.346879803383492 
1986	 0.347407947320178 
1987	 0.347915507861792 
1988	 0.348431083424507 
1989	 0.348917502060868 
1990	 0.349390908377711 
1991	 0.349858358115774 
1992	 0.350343832006809 
1993	 0.350832761862143 
1994	 0.351337660963741 
1995	 0.351862963122583 
1996	 0.35237441674165 
1997	 0.352895428991681 
1998	 0.353405620121884 
1999	 0.353909908565625 
2000	 0.35440808295773 
2001	 0.354909182151022 
2002	 0.355387842021083 
2003	 0.355870826864694 
2004	 0.356351410194943 
2005	 0.356815765075346 
2006	 0.357268011688145 
2007	 0.357727843832995 
2008	 0.358164048634956 
2009	 0.35862720573025 
2010	 0.359124605154856 
2011	 0.35959246341833 
2012	 0.360050177664392 
2013	 0.360515595526685 
2014	 0.360980057298233 
2015	 0.361423293217257 
2016	 0.361886561209348 
2017	 0.362359939587476 
2018	 0.362810823841998 
2019	 0.3632458517875 
2020	 0.363686244935994 
2021	 0.364109121344066 
2022	 0.364551293629523 
2023	 0.365026723400931 
2024	 0.365461638511265 
2025	 0.365878252112714 
2026	 0.366300170553047 
2027	 0.366711244868225 
2028	 0.367092402037784 
2029	 0.367501432560089 
2030	 0.367929102040726 
2031	 0.368347544062095 
2032	 0.36876423826627 
2033	 0.369183171258213 
2034	 0.369611233317638 
2035	 0.370026030739941 
2036	 0.370451813152122 
2037	 0.370841121077016 
2038	 0.371199655865668 
2039	 0.371565033452543 
2040	 0.371913881318812 
2041	 0.372250147032953 
2042	 0.372602452242153 
2043	 0.372971524577658 
2044	 0.373330622179419 
2045	 0.373693012961236 
2046	 0.374045020479277 
2047	 0.374398319334731 
2048	 0.374738814001052 
2049	 0.375066440114402 
2050	 0.375392692037716 
2051	 0.375702474169461 
2052	 0.376025160238579 
2053	 0.376368452891143 
2054	 0.376683160955924 
2055	 0.376986892665128 
2056	 0.377289143754144 
2057	 0.37758448522933 
2058	 0.37785053773272 
2059	 0.378141430760093 
2060	 0.37845655370596 
2061	 0.378741414100469 
2062	 0.379009361479986 
2063	 0.379286656568097 
2064	 0.379546125494907 
2065	 0.379823541841195 
2066	 0.380124130320674 
2067	 0.38041162833168 
2068	 0.380704613989155 
2069	 0.380984141230235 
2070	 0.381260320231698 
2071	 0.381534354796406 
2072	 0.381788625697028 
2073	 0.382027566072909 
2074	 0.382271329628413 
2075	 0.382501549801502 
2076	 0.382732842841757 
2077	 0.382950557662774 
2078	 0.38319849608222 
2079	 0.38346237799924 
2080	 0.383715863438542 
2081	 0.383990798499321 
2082	 0.384255917847251 
2083	 0.384505507198931 
2084	 0.384757356078874 
2085	 0.38500038435269 
2086	 0.385245620734109 
2087	 0.385485509625084 
2088	 0.385708017819176 
2089	 0.385945763238138 
2090	 0.386198001181584 
2091	 0.386435421636761 
2092	 0.386668526830334 
2093	 0.386898244441704 
2094	 0.387116397684433 
2095	 0.387343737704052 
2096	 0.387567354097109 
2097	 0.387800927710192 
2098	 0.388042225053414 
2099	 0.388284648860031 
2100	 0.388537513402948 
2101	 0.388809306410203 
2102	 0.389055768368275 
2103	 0.389301870253491 
2104	 0.389535502995594 
2105	 0.389728618419816 
2106	 0.389973293910703 
2107	 0.390234203042624 
2108	 0.390507682680979 
2109	 0.390817902905667 
2110	 0.391116556452241 
2111	 0.391416142190741 
2112	 0.391716990532139 
2113	 0.392011855605433 
2114	 0.392337339898989 
2115	 0.392625524602438 
2116	 0.392914334953471 
2117	 0.393171024661047 
2118	 0.393392784731448 
2119	 0.393628583675669 
2120	 0.393836145901209 
2121	 0.394081677863328 
2122	 0.394356680995732 
2123	 0.39460951828306 
2124	 0.394885067988989 
2125	 0.395126656164478 
2126	 0.395338082437377 
2127	 0.395549453171737 
2128	 0.395752188860331 
2129	 0.395941189557437 
2130	 0.396115691608125 
2131	 0.396288805658487 
2132	 0.396450604634429 
2133	 0.39660678910645 
2134	 0.396736693767052 
2135	 0.396870957481583 
2136	 0.396947550802858 
2137	 0.396980580754865 
2138	 0.397002100018821 
2139	 0.396975237673371 
2140	 0.396958673198159 
2141	 0.396918651783619 
2142	 0.396894694732515 
2143	 0.396888811566262 
2144	 0.396855573421981 
2145	 0.396818850280238 
2146	 0.396772206935724 
2147	 0.396689732086446 
2148	 0.39662572603867 
2149	 0.396544052857736 
2150	 0.396479321176792 
2151	 0.396347090281211 
2152	 0.396178116262791 
2153	 0.396000348394768 
2154	 0.395773274956912 
2155	 0.395564157639413 
2156	 0.395368318989525 
2157	 0.395136573602672 
2158	 0.394864379644828 
2159	 0.394617584895634 
2160	 0.394353589646356 
2161	 0.39410674826475 
2162	 0.393909236050066 
2163	 0.39366942603982 
2164	 0.393409554046221 
2165	 0.393148004088361 
2166	 0.392861751332255 
2167	 0.392539911873588 
2168	 0.392238278068659 
2169	 0.391938675150763 
2170	 0.391621287255418 
2171	 0.391296715463426 
2172	 0.390965427980046 
2173	 0.390622013285963 
2174	 0.390273485052684 
2175	 0.389913479312163 
2176	 0.38956300469008 
2177	 0.389203344816149 
2178	 0.388846432391233 
2179	 0.388525455184872 
2180	 0.388161669853035 
2181	 0.387761089125665 
2182	 0.387371837612972 
2183	 0.386983347158132 
2184	 0.386546751609251 
2185	 0.386141077750759 
2186	 0.385738947622609 
2187	 0.385361041130447 
2188	 0.384982696548885 
2189	 0.384631889678105 
2190	 0.384314580100134 
2191	 0.383993845673018 
2192	 0.3836795428586 
2193	 0.38338015966488 
2194	 0.383073904937799 
2195	 0.382818140571241 
2196	 0.382595426783479 
2197	 0.382385450457535 
2198	 0.382205951005308 
2199	 0.382051665370735 
2200	 0.381923511615647 
2201	 0.381800844534713 
2202	 0.381698351920012 
2203	 0.381622129729637 
2204	 0.38155712337832 
2205	 0.381493519111272 
2206	 0.381465918864144 
2207	 0.381470228522404 
2208	 0.381483922648527 
2209	 0.38149594296441 
2210	 0.381576614809702 
2211	 0.381698407795178 
2212	 0.381845773111152 
2213	 0.382077252107692 
2214	 0.38225741310732 
2215	 0.382452970763639 
2216	 0.382614378705809 
2217	 0.382748509578774 
2218	 0.38287581912074 
2219	 0.382999557657502 
2220	 0.383089517343898 
2221	 0.383155377524104 
2222	 0.38320462669198 
2223	 0.383229290423543 
2224	 0.383249821315849 
2225	 0.383289060611142 
2226	 0.383349333313636 
2227	 0.383375208884156 
2228	 0.383401611016989 
2229	 0.38340217644374 
2230	 0.383373590942919 
2231	 0.383338210786013 
2232	 0.383274394207043 
2233	 0.383240545859924 
2234	 0.383192370765173 
2235	 0.383176931948095 
2236	 0.383200432521256 
2237	 0.383211981486648 
2238	 0.383246140939445 
2239	 0.383254903577936 
2240	 0.383269324601407 
2241	 0.383248206357572 
2242	 0.383183453000386 
2243	 0.383128457450708 
2244	 0.383057453665862 
2245	 0.382977313732441 
2246	 0.382920478255683 
2247	 0.382906879842755 
2248	 0.382863148806026 
2249	 0.382821361737058 
2250	 0.382793295309434 
2251	 0.382761105618819 
2252	 0.382732392065271 
2253	 0.382740652873041 
2254	 0.382688356745403 
2255	 0.382596889320989 
2256	 0.382519985295051 
2257	 0.382408236287701 
2258	 0.382332463968679 
2259	 0.382268094641857 
2260	 0.382219807499855 
2261	 0.382191797679779 
2262	 0.382168356822886 
2263	 0.382152785487902 
2264	 0.382157762146835 
2265	 0.382188824284863 
2266	 0.382206382563305 
2267	 0.382267074299786 
2268	 0.382275971181622 
2269	 0.382260987521767 
2270	 0.382196224351884 
2271	 0.382141388667242 
2272	 0.382105299975237 
2273	 0.382065702728379 
2274	 0.382084437718406 
2275	 0.382099441694415 
2276	 0.382125850010712 
2277	 0.382137647514841 
2278	 0.382174430437387 
2279	 0.382177015645254 
2280	 0.382156871063732 
2281	 0.38214544033762 
2282	 0.382123248154115 
2283	 0.382105660995591 
2284	 0.382087848373016 
2285	 0.382069554982906 
2286	 0.382039102844147 
2287	 0.382032888683701 
2288	 0.382040798941329 
2289	 0.38204193950492 
2290	 0.382065179478797 
2291	 0.382073462640216 
2292	 0.382072016300231 
2293	 0.382065272359248 
2294	 0.382050879382974 
2295	 0.382033201955254 
2296	 0.382018132497482 
2297	 0.381988479823127 
2298	 0.381911900744959 
2299	 0.381855538213314 
2300	 0.381791232119185 
2301	 0.3817127690925 
2302	 0.381664508946371 
2303	 0.381620960386443 
2304	 0.3815331916052 
2305	 0.381436094060761 
2306	 0.381334679216043 
2307	 0.381211995469733 
2308	 0.381092434666272 
2309	 0.380969766700964 
2310	 0.380846558320514 
2311	 0.380711953340925 
2312	 0.380591337713441 
2313	 0.380496241411475 
2314	 0.380355572438422 
2315	 0.380192008543027 
2316	 0.380050741403451 
2317	 0.379872186563323 
2318	 0.379742934819724 
2319	 0.379668111161427 
2320	 0.379552025287244 
2321	 0.37945214023389 
2322	 0.379311996957259 
2323	 0.379127244279025 
2324	 0.378965973793712 
2325	 0.378781144089121 
2326	 0.378621452654205 
2327	 0.378492744477707 
2328	 0.378343437655688 
2329	 0.378208220361757 
2330	 0.378066073735663 
2331	 0.377923840682568 
2332	 0.377788710452441 
2333	 0.377615205204459 
2334	 0.377477757921575 
2335	 0.377325266143784 
2336	 0.377137243422254 
2337	 0.376980901351795 
2338	 0.376805474767981 
2339	 0.376588873795618 
2340	 0.376373082529235 
2341	 0.37617480994244 
2342	 0.375953759840042 
2343	 0.375754992930605 
2344	 0.375563561384479 
2345	 0.375310070524452 
2346	 0.374978780115116 
2347	 0.374720818710656 
2348	 0.374471245887422 
2349	 0.374202917658734 
2350	 0.373968048177751 
2351	 0.373701934292333 
2352	 0.373387812308637 
2353	 0.373105214918761 
2354	 0.3728492717326 
2355	 0.372555212848346 
2356	 0.37224063123241 
2357	 0.371928044966386 
2358	 0.371566475403205 
2359	 0.371292617846486 
2360	 0.371100702225589 
2361	 0.370833607264422 
2362	 0.370605155796051 
2363	 0.370296430028448 
2364	 0.369864540731708 
2365	 0.369499470454872 
2366	 0.369142337400976 
2367	 0.368786192119437 
2368	 0.368443393552432 
2369	 0.368106712334257 
2370	 0.367752906743717 
2371	 0.367435177038761 
2372	 0.367166892098712 
2373	 0.366858231520114 
2374	 0.366484934114475 
2375	 0.366078378719149 
2376	 0.365632058398392 
2377	 0.365211019742445 
2378	 0.36485498157883 
2379	 0.364452369545533 
2380	 0.364020079890304 
2381	 0.363640670644478 
2382	 0.363199225255944 
2383	 0.362769787770306 
2384	 0.362454653215082 
2385	 0.362036821271262 
2386	 0.361593494605126 
2387	 0.361232467522575 
2388	 0.360768126611582 
2389	 0.360342216246034 
2390	 0.35999692639272 
2391	 0.35963524149447 
2392	 0.359332838704913 
2393	 0.358955142641393 
2394	 0.358540769113089 
2395	 0.358194783694439 
2396	 0.35780000043917 
2397	 0.357377501375518 
2398	 0.357045118203086 
2399	 0.35668327449292 
2400	 0.356256490816742 
2401	 0.355875097568541 
2402	 0.355463628085616 
2403	 0.354955189155682 
2404	 0.354442691476996 
2405	 0.354049029422781 
2406	 0.353631220006902 
2407	 0.353258319090945 
2408	 0.352991183306468 
2409	 0.352606718625973 
2410	 0.352194107861904 
2411	 0.351784166828817 
2412	 0.351357194776218 
2413	 0.350961491901514 
2414	 0.350484128953022 
2415	 0.350019077964198 
2416	 0.349560823916122 
2417	 0.349009136325369 
2418	 0.348535197582222 
2419	 0.348140633253245 
2420	 0.347764999876135 
2421	 0.347430271928737 
2422	 0.347130521980552 
2423	 0.346897326027751 
2424	 0.346549854820119 
2425	 0.346156005946471 
2426	 0.345753848155878 
2427	 0.34532653792641 
2428	 0.344944949155782 
2429	 0.344568470836911 
2430	 0.344124770242065 
2431	 0.343660393675806 
2432	 0.343179604435755 
2433	 0.342645814635998 
2434	 0.342166060794928 
2435	 0.341693483208453 
2436	 0.341250801497984 
2437	 0.340806160327135 
2438	 0.340445344064775 
2439	 0.340199759655077 
2440	 0.339844351354258 
2441	 0.339441901446526 
2442	 0.339120125053186 
2443	 0.338825272684253 
2444	 0.338504936878122 
2445	 0.338246637001616 
2446	 0.337922617069252 
2447	 0.337512854332155 
2448	 0.337074443591218 
2449	 0.336635089963329 
2450	 0.336151833100435 
2451	 0.335610245339646 
2452	 0.335110952064379 
2453	 0.334606047665429 
2454	 0.334124289509891 
2455	 0.333671718227726 
2456	 0.333159781744233 
2457	 0.332527941097354 
2458	 0.33210145388879 
2459	 0.331761943212555 
2460	 0.331381042503188 
2461	 0.331180584446596 
2462	 0.330917171443808 
2463	 0.330564545614408 
2464	 0.330207248568918 
2465	 0.329876511866963 
2466	 0.329514799627774 
2467	 0.329066346025596 
2468	 0.328728089619789 
2469	 0.328445431914106 
2470	 0.32812349705006 
2471	 0.327827126427009 
2472	 0.327500210424601 
2473	 0.32725872492227 
2474	 0.326964166364573 
2475	 0.326510326469761 
2476	 0.326062718257805 
2477	 0.325631327136771 
2478	 0.325108481778622 
2479	 0.32463814049374 
2480	 0.324259358170782 
2481	 0.323781670474106 
2482	 0.323441229369573 
2483	 0.323276248679951 
2484	 0.323023992869344 
2485	 0.322857537328486 
2486	 0.322670473746212 
2487	 0.322384264151627 
2488	 0.322089035437999 
2489	 0.321671794536141 
2490	 0.321323990845919 
2491	 0.321003721397329 
2492	 0.320702083249422 
2493	 0.320612840758975 
2494	 0.320513440857169 
2495	 0.320297130436845 
2496	 0.320023731340584 
2497	 0.319787016985171 
2498	 0.319441123364048 
2499	 0.318958399428115 
2500	 0.31873398070547 
