Wavelength	MM500004.asd
350	 5.32639901053566E-02 
351	 0.060686424333804 
352	 5.81019493551003E-02 
353	 4.63073147201127E-02 
354	 5.10957307197939E-02 
355	 0.055530452176277 
356	 5.67565147477733E-02 
357	 5.64947675292232E-02 
358	 5.90405941393412E-02 
359	 5.65927791314853E-02 
360	 5.24828913662362E-02 
361	 5.56357440593972E-02 
362	 5.12047738055998E-02 
363	 5.01341794184921E-02 
364	 5.56738391237551E-02 
365	 0.054788726070649 
366	 5.39191556217539E-02 
367	 5.53826412358314E-02 
368	 0.059203333323863 
369	 6.18195370435173E-02 
370	 5.93821012812099E-02 
371	 0.055940950201086 
372	 5.96140251507568E-02 
373	 6.13221457345561E-02 
374	 6.06799250041411E-02 
375	 6.00030859463949E-02 
376	 6.45483710220024E-02 
377	 6.15035503110942E-02 
378	 5.92835558957344E-02 
379	 6.68143883777934E-02 
380	 6.72895669475651E-02 
381	 0.065705798481577 
382	 6.48747502090678E-02 
383	 6.51975625006399E-02 
384	 6.47179623777657E-02 
385	 6.54245264198153E-02 
386	 6.77732579856809E-02 
387	 6.83378444232931E-02 
388	 6.93785314060768E-02 
389	 6.98391170808301E-02 
390	 6.87381172889216E-02 
391	 7.02561730257151E-02 
392	 7.21701671852578E-02 
393	 7.31683952430574E-02 
394	 7.31598284112934E-02 
395	 7.46586838024673E-02 
396	 7.51970802098525E-02 
397	 7.41157721129384E-02 
398	 7.66627288982902E-02 
399	 7.70487694409904E-02 
400	 7.72036456172808E-02 
401	 8.02879548156662E-02 
402	 7.95224953354873E-02 
403	 7.91543079321291E-02 
404	 8.02096759205991E-02 
405	 7.98911876389851E-02 
406	 0.079994810218952 
407	 0.080577090962023 
408	 8.11967056182317E-02 
409	 8.10666900685717E-02 
410	 8.03084821253387E-02 
411	 0.079928455905658 
412	 0.080891920268486 
413	 0.080781040621602 
414	 8.09442791844183E-02 
415	 8.17000461550509E-02 
416	 8.16421721359195E-02 
417	 8.16530179758484E-02 
418	 8.20072415981471E-02 
419	 8.25625753426124E-02 
420	 8.24104893203308E-02 
421	 8.12980686348733E-02 
422	 8.05760170832981E-02 
423	 8.21227369246785E-02 
424	 0.081896240630665 
425	 8.12138255535666E-02 
426	 8.11033740817422E-02 
427	 8.07150783248051E-02 
428	 8.09096096412002E-02 
429	 8.10371923899705E-02 
430	 8.03723421049975E-02 
431	 8.03536183658406E-02 
432	 7.99977323054174E-02 
433	 7.94994989616787E-02 
434	 8.01951932133656E-02 
435	 8.07047952583489E-02 
436	 8.08972109039405E-02 
437	 8.09762753283545E-02 
438	 8.13116078209797E-02 
439	 8.17518262892728E-02 
440	 8.22842975258428E-02 
441	 8.28912950914405E-02 
442	 8.29561190530291E-02 
443	 8.31194582703776E-02 
444	 8.35949274576997E-02 
445	 8.37643431714708E-02 
446	 8.42928698426664E-02 
447	 8.49280195748454E-02 
448	 8.52726265804546E-02 
449	 8.54358465048778E-02 
450	 0.086017190049195 
451	 8.68020644764746E-02 
452	 8.69363909464438E-02 
453	 8.70517655284223E-02 
454	 8.72424876791236E-02 
455	 8.74878067964218E-02 
456	 8.77257569907249E-02 
457	 8.79662350455174E-02 
458	 8.82739379344816E-02 
459	 8.86883126119991E-02 
460	 8.88808699335932E-02 
461	 8.90037001512646E-02 
462	 8.91894583847159E-02 
463	 8.94805848970611E-02 
464	 8.97188356477062E-02 
465	 8.98106349284937E-02 
466	 8.97719390891954E-02 
467	 0.089930406123283 
468	 9.01526226680376E-02 
469	 9.03233818906211E-02 
470	 9.03688972518538E-02 
471	 9.04504460366261E-02 
472	 9.06841005357873E-02 
473	 9.10139868958831E-02 
474	 9.09856822932074E-02 
475	 9.11052418343525E-02 
476	 9.13213330873485E-02 
477	 9.13688857813811E-02 
478	 9.13414015398929E-02 
479	 9.14339058740649E-02 
480	 9.16466311675788E-02 
481	 9.17025176208807E-02 
482	 9.18400014207359E-02 
483	 9.20482494218448E-02 
484	 9.22296649538264E-02 
485	 9.22272456619219E-02 
486	 9.22420720717236E-02 
487	 0.092299657125376 
488	 0.092282885257643 
489	 9.23786208118065E-02 
490	 9.24240857951177E-02 
491	 9.23699932650286E-02 
492	 9.26128501411798E-02 
493	 9.27763353511981E-02 
494	 9.27815982229987E-02 
495	 9.27224949599248E-02 
496	 9.28435170841767E-02 
497	 9.29739947592797E-02 
498	 9.30166122764453E-02 
499	 9.30403293614296E-02 
500	 9.31350811520914E-02 
501	 0.093232116979362 
502	 9.32481337217676E-02 
503	 9.32720961800013E-02 
504	 9.32623069535281E-02 
505	 9.32832129476623E-02 
506	 9.34783015856093E-02 
507	 9.34545437333966E-02 
508	 9.34008790408787E-02 
509	 9.34852109241354E-02 
510	 9.35053304164437E-02 
511	 9.35172112074727E-02 
512	 9.35596665803963E-02 
513	 9.36529164350419E-02 
514	 9.37233227360911E-02 
515	 9.37390613982114E-02 
516	 9.37321004465914E-02 
517	 9.38368879643324E-02 
518	 9.39073125213532E-02 
519	 9.38656609960087E-02 
520	 9.37293120905713E-02 
521	 0.09386291978943 
522	 9.39511482193394E-02 
523	 9.39327583490469E-02 
524	 9.40467109066922E-02 
525	 9.41417935603638E-02 
526	 9.42141800905336E-02 
527	 9.42749147652917E-02 
528	 9.42664305632043E-02 
529	 9.43261606272626E-02 
530	 9.44252581945801E-02 
531	 9.44406345205186E-02 
532	 9.45394209181123E-02 
533	 9.46387384709647E-02 
534	 0.094685348339569 
535	 9.47574254920969E-02 
536	 9.48546493212175E-02 
537	 9.49427390603813E-02 
538	 9.49937728632775E-02 
539	 9.51500646074403E-02 
540	 9.52066796202624E-02 
541	 9.51748758658808E-02 
542	 9.53873455794722E-02 
543	 9.54654392666691E-02 
544	 9.54951753863292E-02 
545	 9.56307914321596E-02 
546	 9.57652304815373E-02 
547	 9.58822005893559E-02 
548	 9.60044961477797E-02 
549	 9.61782600499296E-02 
550	 9.62522126772598E-02 
551	 9.63341510778577E-02 
552	 9.65111897856443E-02 
553	 9.66965171604478E-02 
554	 9.68672697660867E-02 
555	 9.70464056641516E-02 
556	 9.72705752937647E-02 
557	 9.74353422431447E-02 
558	 9.76207319024926E-02 
559	 9.78785830775833E-02 
560	 9.81840635339884E-02 
561	 0.098440002526915 
562	 9.86372034736806E-02 
563	 9.88192883446339E-02 
564	 9.91009902020494E-02 
565	 0.099392038227976 
566	 9.96677236866091E-02 
567	 9.99906251284884E-02 
568	 0.100455526407262 
569	 0.100937524497185 
570	 0.101337474460234 
571	 0.101839375552659 
572	 0.102333600942314 
573	 0.102791349670188 
574	 0.103242458801478 
575	 0.103669357911114 
576	 0.104065601249961 
577	 0.104451002366804 
578	 0.104888134779433 
579	 0.105445051235919 
580	 0.106090969723666 
581	 0.106756880552024 
582	 0.10748020675381 
583	 0.108227311384641 
584	 0.108966141158473 
585	 0.109676368158184 
586	 0.110382497629812 
587	 0.111029716219075 
588	 0.111590899882259 
589	 0.11224806916251 
590	 0.112954690228886 
591	 0.113666617338229 
592	 0.11435664636872 
593	 0.115123764127943 
594	 0.115903169862545 
595	 0.116643494052303 
596	 0.11742024305594 
597	 0.118228952393862 
598	 0.11903172451188 
599	 0.119784941859306 
600	 0.120563257875295 
601	 0.121317522870769 
602	 0.122008793375202 
603	 0.122639578345587 
604	 0.123280601152643 
605	 0.12393675246441 
606	 0.124584821714643 
607	 0.125200600097087 
608	 0.125802252591144 
609	 0.126411347805146 
610	 0.127049885323351 
611	 0.127646822123058 
612	 0.128230519913714 
613	 0.128824694470519 
614	 0.129369458623138 
615	 0.129800061614251 
616	 0.130178881411991 
617	 0.130642092405545 
618	 0.131074281501355 
619	 0.131443702669433 
620	 0.131770419356921 
621	 0.132155791891301 
622	 0.132545795111911 
623	 0.132890054378991 
624	 0.133165676536408 
625	 0.133535643468203 
626	 0.133893508605193 
627	 0.134184560259251 
628	 0.134450439294637 
629	 0.134735768695732 
630	 0.135019503882161 
631	 0.135271824435525 
632	 0.135506116771349 
633	 0.135759753590352 
634	 0.136028292962023 
635	 0.136274862159456 
636	 0.136532516873047 
637	 0.136795036937793 
638	 0.137049826949107 
639	 0.137284161668747 
640	 0.137528183037131 
641	 0.137793454122302 
642	 0.13807439133701 
643	 0.138319093373799 
644	 0.138548108738972 
645	 0.138788565461967 
646	 0.139067727565224 
647	 0.139281302588528 
648	 0.139492170230675 
649	 0.139786094542198 
650	 0.140129826479948 
651	 0.140423808858353 
652	 0.140656440530647 
653	 0.140897648672257 
654	 0.141196544522221 
655	 0.141525044001347 
656	 0.14184033449815 
657	 0.142096069284205 
658	 0.142393082922731 
659	 0.142723033092987 
660	 0.143030182131764 
661	 0.143344855560047 
662	 0.143685467095911 
663	 0.144041523088348 
664	 0.144362389628122 
665	 0.144684892510836 
666	 0.145043951249985 
667	 0.145446152739682 
668	 0.145784342758815 
669	 0.146123278538787 
670	 0.146514882060503 
671	 0.146983211076071 
672	 0.147368057344423 
673	 0.147741174989493 
674	 0.14816841638018 
675	 0.148598841823903 
676	 0.149062926139858 
677	 0.149512789982686 
678	 0.149894972629139 
679	 0.150366898732985 
680	 0.150822827152454 
681	 0.1512426481644 
682	 0.151746562946745 
683	 0.152214347450984 
684	 0.152673281292465 
685	 0.153175136786247 
686	 0.153717650096589 
687	 0.15425406193196 
688	 0.154771390476767 
689	 0.155286546468061 
690	 0.155856093801689 
691	 0.156384303667386 
692	 0.156857901156765 
693	 0.157477957084049 
694	 0.158081231070143 
695	 0.15863040323381 
696	 0.159147955928927 
697	 0.159707737086885 
698	 0.160339940446232 
699	 0.160997793858132 
700	 0.161563059776725 
701	 0.162136184227689 
702	 0.162728824927344 
703	 0.163334854062814 
704	 0.163959064833835 
705	 0.164568162867869 
706	 0.165166004786843 
707	 0.165773821775014 
708	 0.166379021907542 
709	 0.166985372365229 
710	 0.167595736249228 
711	 0.168212887481978 
712	 0.168787005385044 
713	 0.16935850369914 
714	 0.169971473565311 
715	 0.170581628574514 
716	 0.171149760312963 
717	 0.171689830054209 
718	 0.172252002326631 
719	 0.172839541670016 
720	 0.173374281430766 
721	 0.1738446360048 
722	 0.174389430402899 
723	 0.174946266998733 
724	 0.175473785582724 
725	 0.175940899254413 
726	 0.176338742241092 
727	 0.176744204418224 
728	 0.177178077340195 
729	 0.177602257726533 
730	 0.177975925711662 
731	 0.178333614103706 
732	 0.17868945059494 
733	 0.178964536336554 
734	 0.179276690969904 
735	 0.179592784516401 
736	 0.179831741389877 
737	 0.180040868723137 
738	 0.180233634481436 
739	 0.180417454692199 
740	 0.180593462097234 
741	 0.180723454458804 
742	 0.180820375151273 
743	 0.180900290427751 
744	 0.180953966344595 
745	 0.180991212726449 
746	 0.181006315819303 
747	 0.180988430368551 
748	 0.180947597201294 
749	 0.18088275428092 
750	 0.180795638328367 
751	 0.18069215229271 
752	 0.180557586265653 
753	 0.180408540953427 
754	 0.180255166479807 
755	 0.180064521201577 
756	 0.179877934891004 
757	 0.179679298330492 
758	 0.179431867446809 
759	 0.17918532878003 
760	 0.178903949467584 
761	 0.178604133144353 
762	 0.178373219295988 
763	 0.178040995188971 
764	 0.177693237253062 
765	 0.177409112594958 
766	 0.177061978696421 
767	 0.176713550188479 
768	 0.176350194964929 
769	 0.175939786746271 
770	 0.175598263498082 
771	 0.175262826669081 
772	 0.174886014352934 
773	 0.174461577614421 
774	 0.174089726285993 
775	 0.17372805865182 
776	 0.173325401766824 
777	 0.172898570705756 
778	 0.172475828996708 
779	 0.172073293597079 
780	 0.171688947687169 
781	 0.171258015135552 
782	 0.170865909132368 
783	 0.170503855245477 
784	 0.170060721992011 
785	 0.16965554054142 
786	 0.169269524896274 
787	 0.168865827486184 
788	 0.168422714760761 
789	 0.168030525800309 
790	 0.167669656726039 
791	 0.167283131202128 
792	 0.166870197897838 
793	 0.166473479004311 
794	 0.166103505482738 
795	 0.165741947387169 
796	 0.165407476641329 
797	 0.165052462638072 
798	 0.164653472338431 
799	 0.164242509252409 
800	 0.163918635992112 
801	 0.163608812977157 
802	 0.163235264208737 
803	 0.162933586404294 
804	 0.162612204041068 
805	 0.162268693572938 
806	 0.161953453482838 
807	 0.161622085900739 
808	 0.161313889169935 
809	 0.161023105311109 
810	 0.160677201621858 
811	 0.160377956345813 
812	 0.160099252375575 
813	 0.159810972502897 
814	 0.159556997625395 
815	 0.159305172257605 
816	 0.159049138393645 
817	 0.158795694251557 
818	 0.15855872113763 
819	 0.158331560294988 
820	 0.158094709320602 
821	 0.157827774795097 
822	 0.157613910794876 
823	 0.15740921976784 
824	 0.15719253578072 
825	 0.157012733349394 
826	 0.156825413700613 
827	 0.156622695673976 
828	 0.15641396817509 
829	 0.156225805413361 
830	 0.156041408706041 
831	 0.155882219939037 
832	 0.155765421049148 
833	 0.155571129135649 
834	 0.155377524574614 
835	 0.155232351432307 
836	 0.155131903480067 
837	 0.154980510795986 
838	 0.154861968377294 
839	 0.154795200190545 
840	 0.154638463275697 
841	 0.154535372075058 
842	 0.154435224707799 
843	 0.154289445154091 
844	 0.154228422597136 
845	 0.154195309910461 
846	 0.154141097686706 
847	 0.154037261950378 
848	 0.153940899468029 
849	 0.153875487804335 
850	 0.153837989887172 
851	 0.153803930623212 
852	 0.153765536320721 
853	 0.153717929146331 
854	 0.153679053758957 
855	 0.153695007563494 
856	 0.153658731173793 
857	 0.153617615268672 
858	 0.153621957901291 
859	 0.1536318766879 
860	 0.153645788524386 
861	 0.153665703734253 
862	 0.153695503830122 
863	 0.153736286895172 
864	 0.153773510994068 
865	 0.15380365230244 
866	 0.153831290883798 
867	 0.153855872393336 
868	 0.153909464820547 
869	 0.153968247743329 
870	 0.153964075499281 
871	 0.154052492125557 
872	 0.154162820680376 
873	 0.154256399595514 
874	 0.154406937327291 
875	 0.154522999418757 
876	 0.154599797547068 
877	 0.154662523791557 
878	 0.15474410556871 
879	 0.154897162787536 
880	 0.155055938456082 
881	 0.155145288354563 
882	 0.155235483310533 
883	 0.155413117559631 
884	 0.155624544666636 
885	 0.15576299840946 
886	 0.155930865738514 
887	 0.156119733752099 
888	 0.156298488199905 
889	 0.156433979953539 
890	 0.156599051129661 
891	 0.156753208237016 
892	 0.156918983946192 
893	 0.157201558127571 
894	 0.157429982385668 
895	 0.15762333109978 
896	 0.15782628064411 
897	 0.158056482921174 
898	 0.158298807248631 
899	 0.158558379574618 
900	 0.158836034837701 
901	 0.159111653882523 
902	 0.159354184999986 
903	 0.159574395046723 
904	 0.159806449184188 
905	 0.160097789534994 
906	 0.160425178562511 
907	 0.160754563230928 
908	 0.161061566044796 
909	 0.161392319765914 
910	 0.161722506797676 
911	 0.162063336321972 
912	 0.162434007662682 
913	 0.162729113659922 
914	 0.163032616130425 
915	 0.163367860676826 
916	 0.163699455917343 
917	 0.164113326056216 
918	 0.164562825636095 
919	 0.164976166764249 
920	 0.165295173239409 
921	 0.165770655174477 
922	 0.166212630434902 
923	 0.166559045195652 
924	 0.167035463358103 
925	 0.167444577616057 
926	 0.167853603819043 
927	 0.168322321127893 
928	 0.168791945430757 
929	 0.1693130886883 
930	 0.169830569419188 
931	 0.170309902544326 
932	 0.170825442563767 
933	 0.171343648355979 
934	 0.171868881132194 
935	 0.172392714524143 
936	 0.172835907981068 
937	 0.173315930773975 
938	 0.173879551210092 
939	 0.174512537362748 
940	 0.175108773006762 
941	 0.175652087003494 
942	 0.17623813803783 
943	 0.176931176319296 
944	 0.177498003771469 
945	 0.178016409536734 
946	 0.178601102520353 
947	 0.179315605092567 
948	 0.179960334807609 
949	 0.180556146881181 
950	 0.181181831532444 
951	 0.181900966619553 
952	 0.182565006525877 
953	 0.183251137080209 
954	 0.183943665732701 
955	 0.184597806610359 
956	 0.185333470537484 
957	 0.186080730607742 
958	 0.18677090596362 
959	 0.187397524979995 
960	 0.188233115683596 
961	 0.188995293194094 
962	 0.189720945049718 
963	 0.190599300712488 
964	 0.191278706239659 
965	 0.192011388408446 
966	 0.192836798393574 
967	 0.193644033879144 
968	 0.194527373501991 
969	 0.195355481051253 
970	 0.196141580637408 
971	 0.196994589687899 
972	 0.197913998849503 
973	 0.198804803082065 
974	 0.199629671931719 
975	 0.200422994032044 
976	 0.201316618501193 
977	 0.202294179971675 
978	 0.203223337724663 
979	 0.203982042150629 
980	 0.204859341560258 
981	 0.205808793150345 
982	 0.206791591713282 
983	 0.207778235679164 
984	 0.208701777588233 
985	 0.209637511658581 
986	 0.210566091246053 
987	 0.211440392456568 
988	 0.212381322531359 
989	 0.213351583763701 
990	 0.214312329620871 
991	 0.215251258248248 
992	 0.216265795075689 
993	 0.217142321986261 
994	 0.218039541776 
995	 0.219143759125955 
996	 0.220030062051592 
997	 0.220904008390531 
998	 0.221836005664671 
999	 0.222848847359509 
1000	 0.224043144999169 
1001	 0.227559801525683 
1002	 0.228492830542418 
1003	 0.229429581029453 
1004	 0.230382907078132 
1005	 0.231350323800542 
1006	 0.23232382712682 
1007	 0.233325886715902 
1008	 0.234314839143347 
1009	 0.235213805847604 
1010	 0.236061387097156 
1011	 0.236880375973977 
1012	 0.237701340461749 
1013	 0.238595147797311 
1014	 0.239525844092566 
1015	 0.240458581003998 
1016	 0.241395331339353 
1017	 0.242308287209485 
1018	 0.243189626458144 
1019	 0.244078898671472 
1020	 0.245007708842025 
1021	 0.245865173435701 
1022	 0.246631328236231 
1023	 0.247429439773855 
1024	 0.248273663133598 
1025	 0.249134242425768 
1026	 0.250013801538598 
1027	 0.25087608977883 
1028	 0.251689805998221 
1029	 0.252423965050505 
1030	 0.253161929674438 
1031	 0.253968886801293 
1032	 0.254836989780831 
1033	 0.255673458561023 
1034	 0.256486564878865 
1035	 0.257310521484792 
1036	 0.258046851208589 
1037	 0.258769711765873 
1038	 0.2595822532122 
1039	 0.260414179162575 
1040	 0.261242876204043 
1041	 0.262027956724775 
1042	 0.262771754186252 
1043	 0.263570145836595 
1044	 0.264379859736705 
1045	 0.26520601106711 
1046	 0.266068991193003 
1047	 0.266956013026272 
1048	 0.267755912816447 
1049	 0.26851912975554 
1050	 0.26925691207134 
1051	 0.269969251139339 
1052	 0.27072434292993 
1053	 0.27149541065855 
1054	 0.272260428505534 
1055	 0.273034380205755 
1056	 0.273805584504891 
1057	 0.274539840800564 
1058	 0.275236509760478 
1059	 0.275958122984301 
1060	 0.276674707588465 
1061	 0.277358336899791 
1062	 0.278080240385667 
1063	 0.278824869535609 
1064	 0.279558960992897 
1065	 0.280248905079889 
1066	 0.280917466512229 
1067	 0.281601204785793 
1068	 0.282245886168665 
1069	 0.282894329123585 
1070	 0.283543188472034 
1071	 0.284189283513166 
1072	 0.284814889777266 
1073	 0.285398881989596 
1074	 0.286034145629652 
1075	 0.28668023002899 
1076	 0.287332142132327 
1077	 0.287991711455957 
1078	 0.288652510189533 
1079	 0.289265370166558 
1080	 0.289840308483361 
1081	 0.290444279549882 
1082	 0.291068321765098 
1083	 0.291666452692323 
1084	 0.292252256525803 
1085	 0.292853922691558 
1086	 0.293428260599045 
1087	 0.294035037734293 
1088	 0.29465853086351 
1089	 0.29529645016587 
1090	 0.295954059823555 
1091	 0.296621695245692 
1092	 0.297279081842969 
1093	 0.297950014152523 
1094	 0.298624117058632 
1095	 0.299262728035175 
1096	 0.299937511849718 
1097	 0.300649613400115 
1098	 0.301352401276511 
1099	 0.302077378194859 
1100	 0.302783471774064 
1101	 0.303460959480937 
1102	 0.304165314616712 
1103	 0.304852439824347 
1104	 0.305604931255135 
1105	 0.306367624506884 
1106	 0.307177156152316 
1107	 0.307982835307272 
1108	 0.308751900319954 
1109	 0.309533932576856 
1110	 0.310309682238498 
1111	 0.311102999329154 
1112	 0.311898400564266 
1113	 0.312716481591707 
1114	 0.313544605576727 
1115	 0.314403549416028 
1116	 0.315318294344087 
1117	 0.316194075838456 
1118	 0.317076566900328 
1119	 0.317927178146432 
1120	 0.318800380644654 
1121	 0.319653654036954 
1122	 0.320529342506766 
1123	 0.321429377546982 
1124	 0.322317859083564 
1125	 0.323193983916821 
1126	 0.324094325177745 
1127	 0.325008968541027 
1128	 0.32591805709514 
1129	 0.326836160359191 
1130	 0.327744902644957 
1131	 0.328650508233314 
1132	 0.329561435353378 
1133	 0.330469107130683 
1134	 0.331376340311431 
1135	 0.332293012178464 
1136	 0.333193159248017 
1137	 0.334085697349081 
1138	 0.334985786038694 
1139	 0.335883204569068 
1140	 0.336785222424138 
1141	 0.337672921494578 
1142	 0.338557594579311 
1143	 0.339429815064571 
1144	 0.340281974401133 
1145	 0.341141927607677 
1146	 0.341998080151609 
1147	 0.34285944612536 
1148	 0.343744214193819 
1149	 0.344591902066407 
1150	 0.345418299119467 
1151	 0.346241817228361 
1152	 0.347060750664073 
1153	 0.347871542638167 
1154	 0.348703020994755 
1155	 0.349583600406542 
1156	 0.35038294748698 
1157	 0.351155948769246 
1158	 0.351923323923674 
1159	 0.352621708121472 
1160	 0.353378703662986 
1161	 0.35417284611049 
1162	 0.35494316915239 
1163	 0.355749609972883 
1164	 0.356506509822096 
1165	 0.357236218059421 
1166	 0.357945257725501 
1167	 0.358642843455412 
1168	 0.359315419684034 
1169	 0.360000810269872 
1170	 0.360690570292682 
1171	 0.361366905877355 
1172	 0.362035327602221 
1173	 0.362704135614151 
1174	 0.363370033028975 
1175	 0.364026878952271 
1176	 0.364684764358303 
1177	 0.365334223433101 
1178	 0.365971356299632 
1179	 0.366606722067127 
1180	 0.367248511999275 
1181	 0.36786986047514 
1182	 0.368463760952877 
1183	 0.369080883537387 
1184	 0.369682697212198 
1185	 0.370280500215195 
1186	 0.370858472812525 
1187	 0.371436574143468 
1188	 0.371989262371083 
1189	 0.372516398122404 
1190	 0.373037944015076 
1191	 0.373547160134854 
1192	 0.374050471505908 
1193	 0.37453210704953 
1194	 0.375025641647588 
1195	 0.375518948400266 
1196	 0.376011596020735 
1197	 0.376508907679063 
1198	 0.37700266836005 
1199	 0.377494738217285 
1200	 0.377988821809994 
1201	 0.378468742893727 
1202	 0.378952218413077 
1203	 0.379408289512272 
1204	 0.379842135862149 
1205	 0.380279241385565 
1206	 0.380706503855879 
1207	 0.381124325920973 
1208	 0.381539206743859 
1209	 0.381944420599565 
1210	 0.382339196853177 
1211	 0.382723412131251 
1212	 0.383087093785222 
1213	 0.383465586310665 
1214	 0.383847133585319 
1215	 0.38421906164406 
1216	 0.384590287831264 
1217	 0.384974769994472 
1218	 0.385338272363809 
1219	 0.385693443315865 
1220	 0.386027262696249 
1221	 0.386342729600244 
1222	 0.386667904833702 
1223	 0.386972341714355 
1224	 0.387290844590471 
1225	 0.387634693668495 
1226	 0.387952930700952 
1227	 0.388254039195566 
1228	 0.388561636205263 
1229	 0.388866327747965 
1230	 0.389165353140164 
1231	 0.389456981487338 
1232	 0.389757509450214 
1233	 0.390059533051146 
1234	 0.390362394039121 
1235	 0.390654160161621 
1236	 0.390959185598086 
1237	 0.391232674668276 
1238	 0.391489840765265 
1239	 0.391729106195751 
1240	 0.391944018444521 
1241	 0.392164983572256 
1242	 0.392351699591696 
1243	 0.392574323599819 
1244	 0.392816484968019 
1245	 0.393058178683882 
1246	 0.393335063666666 
1247	 0.393580472563236 
1248	 0.393830566350733 
1249	 0.394040381016064 
1250	 0.39422515194783 
1251	 0.394421942215499 
1252	 0.394616794655709 
1253	 0.394805991087977 
1254	 0.394994428637491 
1255	 0.395193899194356 
1256	 0.395368470680482 
1257	 0.395522191312901 
1258	 0.395689266524795 
1259	 0.395849123973022 
1260	 0.396012422709909 
1261	 0.396187506336253 
1262	 0.396349362536831 
1263	 0.39649800717381 
1264	 0.396655223682938 
1265	 0.396802928479369 
1266	 0.396967290313506 
1267	 0.397142299795197 
1268	 0.397317012262422 
1269	 0.39751761864037 
1270	 0.397745139491622 
1271	 0.397953822447454 
1272	 0.398174546658154 
1273	 0.398384561348489 
1274	 0.398577572687535 
1275	 0.398783456769466 
1276	 0.398992279865313 
1277	 0.399207889781105 
1278	 0.399433138223303 
1279	 0.399650254200396 
1280	 0.399896003868628 
1281	 0.40009455983941 
1282	 0.400253006445333 
1283	 0.400422363044355 
1284	 0.400583037201429 
1285	 0.400718083956488 
1286	 0.40085936032383 
1287	 0.401005402426558 
1288	 0.401105382003675 
1289	 0.40117298197982 
1290	 0.40122849420549 
1291	 0.401263200344612 
1292	 0.401273936366743 
1293	 0.401259981209909 
1294	 0.401235583018382 
1295	 0.401200021044555 
1296	 0.401127055962274 
1297	 0.401024596160289 
1298	 0.400913987563619 
1299	 0.400776947289085 
1300	 0.40062416612122 
1301	 0.400453123409368 
1302	 0.400277550366251 
1303	 0.400078103582988 
1304	 0.399869023730768 
1305	 0.399682904705328 
1306	 0.399520823414669 
1307	 0.399341491249056 
1308	 0.399171657586327 
1309	 0.399008133715254 
1310	 0.398840142825878 
1311	 0.398685303387389 
1312	 0.398543115042111 
1313	 0.398408576107688 
1314	 0.398266955055921 
1315	 0.398161673243016 
1316	 0.398083772566617 
1317	 0.398009617431384 
1318	 0.397956707988949 
1319	 0.3979093247995 
1320	 0.397859076118942 
1321	 0.397836773613835 
1322	 0.397835924749134 
1323	 0.397844078299645 
1324	 0.397863190233002 
1325	 0.397882944314022 
1326	 0.397935976065689 
1327	 0.397997550709201 
1328	 0.398072405195553 
1329	 0.398185926913861 
1330	 0.398313532601527 
1331	 0.398454590075389 
1332	 0.39861196992946 
1333	 0.398805596082587 
1334	 0.398986380874932 
1335	 0.399164082929078 
1336	 0.399348890293657 
1337	 0.399544663666899 
1338	 0.399737027241368 
1339	 0.399924851383501 
1340	 0.400131179606908 
1341	 0.400347080570948 
1342	 0.400561726836101 
1343	 0.400789907380508 
1344	 0.401011730167512 
1345	 0.401223163107325 
1346	 0.401455146272902 
1347	 0.401697451194904 
1348	 0.401937953784012 
1349	 0.402183095200024 
1350	 0.402432651398479 
1351	 0.402683158401533 
1352	 0.402940288531507 
1353	 0.403177288375795 
1354	 0.403414565912196 
1355	 0.403639287136277 
1356	 0.403844690298897 
1357	 0.404054375445354 
1358	 0.404260234161127 
1359	 0.404469976627753 
1360	 0.404681452230081 
1361	 0.404879155424748 
1362	 0.405070789873087 
1363	 0.40526551528615 
1364	 0.405455202179809 
1365	 0.405637346336923 
1366	 0.405824067876175 
1367	 0.40600701465503 
1368	 0.406150850073573 
1369	 0.406300441254744 
1370	 0.406465211136807 
1371	 0.40661269484237 
1372	 0.406748367340083 
1373	 0.406864871468932 
1374	 0.406968157204418 
1375	 0.407044033494238 
1376	 0.40711861281833 
1377	 0.407202306526889 
1378	 0.407242329797796 
1379	 0.407270055855368 
1380	 0.407245524715739 
1381	 0.407174438014327 
1382	 0.407092056437621 
1383	 0.406971603337808 
1384	 0.406843880905175 
1385	 0.406731797509555 
1386	 0.406549494533738 
1387	 0.406324835111636 
1388	 0.406066840798088 
1389	 0.405769888817216 
1390	 0.405422005001362 
1391	 0.405039350747769 
1392	 0.404635796597415 
1393	 0.404190122207646 
1394	 0.403725646019569 
1395	 0.403221597263305 
1396	 0.402679835912925 
1397	 0.40211932449655 
1398	 0.40151055427051 
1399	 0.400906599460989 
1400	 0.400286251923439 
1401	 0.399666209121158 
1402	 0.399024735964545 
1403	 0.398405808719908 
1404	 0.397785878480033 
1405	 0.397191289599202 
1406	 0.396613907740217 
1407	 0.396031917789551 
1408	 0.395449703840036 
1409	 0.394898921698627 
1410	 0.394323456380865 
1411	 0.393831875102175 
1412	 0.393384948827104 
1413	 0.392988948413532 
1414	 0.392652055619714 
1415	 0.3923769603678 
1416	 0.392156885055381 
1417	 0.391953930443766 
1418	 0.391780112835682 
1419	 0.391629587487769 
1420	 0.391465124351894 
1421	 0.391307909422536 
1422	 0.391170126817708 
1423	 0.391022331355361 
1424	 0.390866282450585 
1425	 0.390711682457611 
1426	 0.390557656028308 
1427	 0.390379746601917 
1428	 0.390233041644025 
1429	 0.390111501938964 
1430	 0.389974829876529 
1431	 0.389840934520658 
1432	 0.38971419065789 
1433	 0.389582331385283 
1434	 0.389456717424987 
1435	 0.389347304941293 
1436	 0.389228644255159 
1437	 0.389086119403354 
1438	 0.388980093271934 
1439	 0.388896545146597 
1440	 0.388805717381621 
1441	 0.388724698576908 
1442	 0.388680954423106 
1443	 0.388614425767543 
1444	 0.388535832181457 
1445	 0.388496207646816 
1446	 0.388455598011067 
1447	 0.388417504352684 
1448	 0.388400971674786 
1449	 0.388356132275858 
1450	 0.38832010251086 
1451	 0.388322304921579 
1452	 0.388336289471006 
1453	 0.388379874079359 
1454	 0.388467629965063 
1455	 0.388549396863623 
1456	 0.388639487110401 
1457	 0.388746366687146 
1458	 0.388882515610822 
1459	 0.389002347005656 
1460	 0.389121499751608 
1461	 0.389247564328221 
1462	 0.389366854105018 
1463	 0.389496486966616 
1464	 0.38965048950478 
1465	 0.389789317817442 
1466	 0.389918459327255 
1467	 0.390055805648648 
1468	 0.390187473837301 
1469	 0.390325751884951 
1470	 0.390474229631414 
1471	 0.39061954765567 
1472	 0.390774122387486 
1473	 0.390933196003677 
1474	 0.39109535345943 
1475	 0.391259259160413 
1476	 0.39140217682595 
1477	 0.391538905610163 
1478	 0.391682833644297 
1479	 0.391827434609455 
1480	 0.39198725867402 
1481	 0.392161342834172 
1482	 0.392321699015473 
1483	 0.392480793585377 
1484	 0.392644381157261 
1485	 0.392800439495376 
1486	 0.392962310266991 
1487	 0.393135150859383 
1488	 0.393299630002316 
1489	 0.393451652665176 
1490	 0.393624991852426 
1491	 0.393809037875397 
1492	 0.393992719519375 
1493	 0.39419787062032 
1494	 0.394382570474295 
1495	 0.394561211428419 
1496	 0.394726125287039 
1497	 0.394881281734788 
1498	 0.395025923513018 
1499	 0.395153678843221 
1500	 0.395283351581888 
1501	 0.395395380134824 
1502	 0.395521601163443 
1503	 0.395649967156623 
1504	 0.395791633298693 
1505	 0.395923624248833 
1506	 0.396050217057356 
1507	 0.396196543337564 
1508	 0.396329589079536 
1509	 0.396452421534925 
1510	 0.396598374827052 
1511	 0.396722810406133 
1512	 0.396843821067762 
1513	 0.397004451254382 
1514	 0.397168043677753 
1515	 0.397328677086869 
1516	 0.397483402390427 
1517	 0.397620036121383 
1518	 0.39774287397211 
1519	 0.397855287661419 
1520	 0.397944110525667 
1521	 0.398057100922536 
1522	 0.398170728347931 
1523	 0.398286532820446 
1524	 0.398414264566268 
1525	 0.398533379454586 
1526	 0.398642427231635 
1527	 0.398760611376685 
1528	 0.398894587099795 
1529	 0.399008512510656 
1530	 0.399120213865431 
1531	 0.399218402127588 
1532	 0.39930065506824 
1533	 0.399377289950956 
1534	 0.399432827865579 
1535	 0.399507960487223 
1536	 0.399592886481919 
1537	 0.399663954254449 
1538	 0.399733421271992 
1539	 0.399810784999347 
1540	 0.399874276066315 
1541	 0.399949024945737 
1542	 0.400051937092256 
1543	 0.400137237418089 
1544	 0.400204536847825 
1545	 0.400286208154202 
1546	 0.400380255101514 
1547	 0.400446780935963 
1548	 0.400536884931653 
1549	 0.400658276915001 
1550	 0.400766438422356 
1551	 0.400882176067863 
1552	 0.400985921521619 
1553	 0.401055795392678 
1554	 0.401112430334137 
1555	 0.401168537466145 
1556	 0.401214299247369 
1557	 0.401256409822052 
1558	 0.401307680636854 
1559	 0.401365047840077 
1560	 0.401436085193455 
1561	 0.401524806143793 
1562	 0.401609566450358 
1563	 0.401704476649574 
1564	 0.401785532352922 
1565	 0.401859150361162 
1566	 0.401942294440686 
1567	 0.402034640335213 
1568	 0.402102569603349 
1569	 0.402173257147247 
1570	 0.402222880494211 
1571	 0.402228103697639 
1572	 0.402275748896755 
1573	 0.402330828652812 
1574	 0.402396333247376 
1575	 0.402482165782019 
1576	 0.402565994543587 
1577	 0.402668983722776 
1578	 0.402743177450395 
1579	 0.402814673114133 
1580	 0.402870666918579 
1581	 0.402902303093757 
1582	 0.402933143647871 
1583	 0.402945067869737 
1584	 0.402980347353732 
1585	 0.40301127957838 
1586	 0.40305886736144 
1587	 0.403136730651404 
1588	 0.403199023980265 
1589	 0.403268663641366 
1590	 0.403320449466501 
1591	 0.40334712750181 
1592	 0.403399326933268 
1593	 0.403447546331282 
1594	 0.403511062226267 
1595	 0.403602117388321 
1596	 0.403685754531282 
1597	 0.403790378593045 
1598	 0.403860115830465 
1599	 0.40391657618576 
1600	 0.403963629939369 
1601	 0.403975857403931 
1602	 0.403998388070478 
1603	 0.404017718621708 
1604	 0.40404076760553 
1605	 0.404069195240452 
1606	 0.404090174926832 
1607	 0.40410838075791 
1608	 0.404129175405438 
1609	 0.404148235276615 
1610	 0.404161776774395 
1611	 0.404197560346162 
1612	 0.40424288954385 
1613	 0.404261082009916 
1614	 0.404292222292087 
1615	 0.404325817233543 
1616	 0.404353701982131 
1617	 0.404393078892697 
1618	 0.40441128157325 
1619	 0.404425322666601 
1620	 0.40443838404214 
1621	 0.404459087821073 
1622	 0.404498953678638 
1623	 0.404503865857865 
1624	 0.404496798499577 
1625	 0.404483000481134 
1626	 0.404439518199809 
1627	 0.404431184028303 
1628	 0.4044270343007 
1629	 0.40444176467999 
1630	 0.404481835260242 
1631	 0.404508387624008 
1632	 0.404541981231814 
1633	 0.404570348405031 
1634	 0.404596863644887 
1635	 0.404615549166858 
1636	 0.404635718090318 
1637	 0.404644984063249 
1638	 0.404636466386129 
1639	 0.404644158467631 
1640	 0.4046523543988 
1641	 0.404665553912137 
1642	 0.404686920788013 
1643	 0.404707344739824 
1644	 0.404730580020567 
1645	 0.404750417972351 
1646	 0.404777043995536 
1647	 0.40478734837141 
1648	 0.404784508294849 
1649	 0.404790671369563 
1650	 0.40479122264539 
1651	 0.404795735376995 
1652	 0.404804102475598 
1653	 0.404816679901888 
1654	 0.404828846700073 
1655	 0.404844831265526 
1656	 0.404872600053863 
1657	 0.404889399392268 
1658	 0.404901531139053 
1659	 0.404913602041624 
1660	 0.404920060932767 
1661	 0.404933031581928 
1662	 0.404955518731953 
1663	 0.404959061086486 
1664	 0.404958207648713 
1665	 0.40495178852005 
1666	 0.404927544513033 
1667	 0.404911579573979 
1668	 0.404901122070616 
1669	 0.40488235261673 
1670	 0.404843878921548 
1671	 0.404839182005234 
1672	 0.404846178986833 
1673	 0.404858236036545 
1674	 0.404908145981702 
1675	 0.404920260695042 
1676	 0.404919344937267 
1677	 0.404908908822159 
1678	 0.404868519265668 
1679	 0.404855903644609 
1680	 0.40484788105524 
1681	 0.404841444946111 
1682	 0.404849768661864 
1683	 0.404851609466072 
1684	 0.404843330338886 
1685	 0.404850436786637 
1686	 0.404874863060738 
1687	 0.404881470775312 
1688	 0.404885463912834 
1689	 0.404889895515462 
1690	 0.404884840443257 
1691	 0.404884596310504 
1692	 0.404884387150977 
1693	 0.40489253665794 
1694	 0.40490318764607 
1695	 0.404912976869532 
1696	 0.404941391766503 
1697	 0.404946374733816 
1698	 0.404933534846176 
1699	 0.404927666797351 
1700	 0.404927715166797 
1701	 0.40489842317031 
1702	 0.404850954067154 
1703	 0.404812647790698 
1704	 0.404736581859667 
1705	 0.404712991722672 
1706	 0.404726017159243 
1707	 0.404732574332908 
1708	 0.404771905780716 
1709	 0.404776458648679 
1710	 0.404759747696328 
1711	 0.40475985758894 
1712	 0.404747557976795 
1713	 0.404752214842837 
1714	 0.404777469712804 
1715	 0.404794556693059 
1716	 0.404813783141639 
1717	 0.404831066283653 
1718	 0.404857485143324 
1719	 0.404859846710241 
1720	 0.404868414479575 
1721	 0.404825995570689 
1722	 0.404733239774824 
1723	 0.404672044778895 
1724	 0.404586968136618 
1725	 0.404521810236509 
1726	 0.404491324096223 
1727	 0.404427582501516 
1728	 0.404333396894723 
1729	 0.404271717345699 
1730	 0.404213488821637 
1731	 0.404167993884729 
1732	 0.404153832442185 
1733	 0.404111176603725 
1734	 0.404059982668327 
1735	 0.404009654626224 
1736	 0.403951207783804 
1737	 0.403889294385931 
1738	 0.403820678010151 
1739	 0.403765996920253 
1740	 0.403705240671982 
1741	 0.4036641636339 
1742	 0.40364988029887 
1743	 0.403613614333904 
1744	 0.403584763838412 
1745	 0.403529273066716 
1746	 0.403443497081411 
1747	 0.403382163324891 
1748	 0.403326045033064 
1749	 0.403291349954774 
1750	 0.403274272383806 
1751	 0.403252751338397 
1752	 0.403209373860717 
1753	 0.403150908098581 
1754	 0.403108565486367 
1755	 0.403063261817175 
1756	 0.403020144288745 
1757	 0.402974966770485 
1758	 0.402917025505699 
1759	 0.402858846361229 
1760	 0.402800665297063 
1761	 0.402761100322123 
1762	 0.402747188393773 
1763	 0.402718695500017 
1764	 0.402682311802462 
1765	 0.402663170736685 
1766	 0.402629594900324 
1767	 0.402588607568152 
1768	 0.402567961736232 
1769	 0.402557482164246 
1770	 0.402523469120799 
1771	 0.402497687785525 
1772	 0.402488128831415 
1773	 0.402455405910576 
1774	 0.402447138813923 
1775	 0.402458174527098 
1776	 0.402442464441193 
1777	 0.402400413686393 
1778	 0.402337668994668 
1779	 0.40226938490313 
1780	 0.402213419496811 
1781	 0.402193419913222 
1782	 0.402208351487334 
1783	 0.402210792415864 
1784	 0.402213026819179 
1785	 0.402225458668817 
1786	 0.402211407273996 
1787	 0.402163661778848 
1788	 0.402177636916882 
1789	 0.402203335985285 
1790	 0.402221721473391 
1791	 0.402286939355633 
1792	 0.402335537818314 
1793	 0.402366105882344 
1794	 0.402413317727452 
1795	 0.402497602791828 
1796	 0.402522068613654 
1797	 0.402493696287668 
1798	 0.402487285658084 
1799	 0.402474902221737 
1800	 0.402456764899817 
1801	 0.401981847375605 
1802	 0.402013682714508 
1803	 0.40202709140341 
1804	 0.402042946912153 
1805	 0.402072908307298 
1806	 0.40209089009337 
1807	 0.402115883067982 
1808	 0.402152917511164 
1809	 0.402190071976945 
1810	 0.402231970501536 
1811	 0.402299047362129 
1812	 0.402355045281316 
1813	 0.402382670773114 
1814	 0.402359257452816 
1815	 0.402304685255863 
1816	 0.402278815633379 
1817	 0.402262373993129 
1818	 0.402238948567025 
1819	 0.402261841865639 
1820	 0.402334749630166 
1821	 0.402353775444499 
1822	 0.402387993599679 
1823	 0.402420565204287 
1824	 0.402433195663222 
1825	 0.402473652075189 
1826	 0.402508006003246 
1827	 0.402501159670696 
1828	 0.402482933642212 
1829	 0.40244029632733 
1830	 0.402387567055071 
1831	 0.402302624251209 
1832	 0.402238165096371 
1833	 0.40219761065393 
1834	 0.402145469142154 
1835	 0.402172899262012 
1836	 0.402226301978721 
1837	 0.402250195149153 
1838	 0.402266235464416 
1839	 0.402259682934431 
1840	 0.402219020760697 
1841	 0.402180516555162 
1842	 0.402152438888873 
1843	 0.40210910901223 
1844	 0.402055079488685 
1845	 0.401995460254105 
1846	 0.401917862855589 
1847	 0.4018191665292 
1848	 0.401723968192116 
1849	 0.401626910801313 
1850	 0.401515432111488 
1851	 0.40139020413855 
1852	 0.40125797516127 
1853	 0.401146233654526 
1854	 0.401029394912283 
1855	 0.400896282696603 
1856	 0.400795499180788 
1857	 0.400681474761499 
1858	 0.400520628823672 
1859	 0.400344598074655 
1860	 0.400143391806324 
1861	 0.399913663405811 
1862	 0.399656047217882 
1863	 0.399391486754501 
1864	 0.399112571926565 
1865	 0.398791026867698 
1866	 0.398413608925063 
1867	 0.39802669628401 
1868	 0.397618566407497 
1869	 0.397199693669693 
1870	 0.396771561770304 
1871	 0.396290374507343 
1872	 0.395775632394706 
1873	 0.395218898654067 
1874	 0.394597602999562 
1875	 0.393935135507096 
1876	 0.393234425893907 
1877	 0.39247035034689 
1878	 0.391640933365686 
1879	 0.390725896450843 
1880	 0.389742835388885 
1881	 0.388673612791279 
1882	 0.387545118484458 
1883	 0.386351179886634 
1884	 0.385091209057167 
1885	 0.383761802048331 
1886	 0.382330676116962 
1887	 0.380799549146751 
1888	 0.379204132658291 
1889	 0.377535912701085 
1890	 0.375810892034835 
1891	 0.37405565928617 
1892	 0.372241521996242 
1893	 0.370417013211685 
1894	 0.368562627283935 
1895	 0.366659549867359 
1896	 0.364736633294014 
1897	 0.362814480016817 
1898	 0.36084720293516 
1899	 0.358916538139157 
1900	 0.357059769692766 
1901	 0.355226959538698 
1902	 0.35344212931198 
1903	 0.351730409549956 
1904	 0.350040755594551 
1905	 0.348372063572343 
1906	 0.346761362057342 
1907	 0.345201150526604 
1908	 0.343691376632231 
1909	 0.342282001566011 
1910	 0.340930168804706 
1911	 0.339644335645555 
1912	 0.3384609578023 
1913	 0.337310980920953 
1914	 0.336193211512854 
1915	 0.335155258868132 
1916	 0.334178758633146 
1917	 0.333268189471171 
1918	 0.332444816153165 
1919	 0.331687178555627 
1920	 0.330987726283886 
1921	 0.330338639231408 
1922	 0.32969880569328 
1923	 0.329109548983049 
1924	 0.32857777078742 
1925	 0.32808822800473 
1926	 0.327656195890469 
1927	 0.327279810103167 
1928	 0.326962696928286 
1929	 0.326694172316038 
1930	 0.326463667584917 
1931	 0.326270081819848 
1932	 0.326097777603563 
1933	 0.325970431989047 
1934	 0.325865879552858 
1935	 0.325808902207576 
1936	 0.325783769704111 
1937	 0.325832969633573 
1938	 0.32592668909081 
1939	 0.326077782975631 
1940	 0.326312832415084 
1941	 0.326564012685695 
1942	 0.326840077684372 
1943	 0.327152713988566 
1944	 0.327482464303662 
1945	 0.327834123581483 
1946	 0.328210721578579 
1947	 0.328618913535307 
1948	 0.329039207608272 
1949	 0.329479315181125 
1950	 0.329939913279831 
1951	 0.330417323838272 
1952	 0.330921365174153 
1953	 0.331445844858806 
1954	 0.331967723679402 
1955	 0.332492377623444 
1956	 0.333004503486667 
1957	 0.333506433024922 
1958	 0.33398635953946 
1959	 0.334488672619926 
1960	 0.335005037350498 
1961	 0.335494258759795 
1962	 0.335991831554451 
1963	 0.336469364822388 
1964	 0.336902076849097 
1965	 0.337354375820661 
1966	 0.337841920332823 
1967	 0.33832122150806 
1968	 0.338807753602663 
1969	 0.339320876860471 
1970	 0.339812910233662 
1971	 0.340287304422358 
1972	 0.34077688304485 
1973	 0.341277408779847 
1974	 0.341767336426815 
1975	 0.342245173471209 
1976	 0.342740074058488 
1977	 0.343258448191473 
1978	 0.343768428282397 
1979	 0.344279060049748 
1980	 0.344812000414768 
1981	 0.345339714540285 
1982	 0.34585626614032 
1983	 0.346378961871726 
1984	 0.346924666099838 
1985	 0.347451038041938 
1986	 0.347976767039562 
1987	 0.348482495061599 
1988	 0.348987515782106 
1989	 0.349453300254702 
1990	 0.349915340954037 
1991	 0.350386469415046 
1992	 0.350868176181835 
1993	 0.351360462429586 
1994	 0.351859189864718 
1995	 0.352366671796642 
1996	 0.352869827239635 
1997	 0.353379535546875 
1998	 0.353890647739021 
1999	 0.354415698289807 
2000	 0.354917839120503 
2001	 0.355418877276758 
2002	 0.355902726504488 
2003	 0.356370691901632 
2004	 0.356833839083781 
2005	 0.357290180192831 
2006	 0.357734726212862 
2007	 0.358191057109627 
2008	 0.358632014253561 
2009	 0.359098598904858 
2010	 0.35958889769472 
2011	 0.360074690403321 
2012	 0.36058524271715 
2013	 0.361068151044908 
2014	 0.361538406161853 
2015	 0.362003232618178 
2016	 0.362471568931023 
2017	 0.362924149937667 
2018	 0.363380251194951 
2019	 0.363853747316126 
2020	 0.364294106375953 
2021	 0.364699151632563 
2022	 0.365133017136772 
2023	 0.365579130553893 
2024	 0.366002802467882 
2025	 0.366423280477696 
2026	 0.366845593325366 
2027	 0.367246386472879 
2028	 0.367647811516901 
2029	 0.368071795964808 
2030	 0.368519085039644 
2031	 0.36894910805538 
2032	 0.369385282843949 
2033	 0.369811541504592 
2034	 0.370239939429163 
2035	 0.370651387990702 
2036	 0.371061274203135 
2037	 0.371446497823279 
2038	 0.371791391926484 
2039	 0.37215840942717 
2040	 0.372514895787034 
2041	 0.37288583962354 
2042	 0.37325930625576 
2043	 0.373643403222909 
2044	 0.374014629137382 
2045	 0.374383979073634 
2046	 0.374737854574794 
2047	 0.375089742306647 
2048	 0.375424841884217 
2049	 0.375733537313685 
2050	 0.376056311762539 
2051	 0.376377485409929 
2052	 0.376691958465595 
2053	 0.377007484467215 
2054	 0.377318158075306 
2055	 0.377605399651452 
2056	 0.377919030127673 
2057	 0.378228533851539 
2058	 0.378558413410287 
2059	 0.378845155794388 
2060	 0.37910383453622 
2061	 0.379391852900292 
2062	 0.3796715191813 
2063	 0.379948074766553 
2064	 0.380256166054249 
2065	 0.380534825669613 
2066	 0.380761930829951 
2067	 0.381026118429042 
2068	 0.381314328228249 
2069	 0.381590082149477 
2070	 0.381863412369656 
2071	 0.382149071809393 
2072	 0.382423548550431 
2073	 0.382691200476414 
2074	 0.382944929982899 
2075	 0.383196735253552 
2076	 0.383437114673353 
2077	 0.383647970116774 
2078	 0.38387677782697 
2079	 0.384106481171492 
2080	 0.384343285798281 
2081	 0.384576670624098 
2082	 0.384825774941771 
2083	 0.385089421188395 
2084	 0.385368069708333 
2085	 0.385614893087484 
2086	 0.385859198996558 
2087	 0.386099161814473 
2088	 0.386315382457293 
2089	 0.386543745936094 
2090	 0.386775608081375 
2091	 0.387015109613221 
2092	 0.38724716612994 
2093	 0.387494163359454 
2094	 0.387778980459409 
2095	 0.388027973365375 
2096	 0.388253517917799 
2097	 0.388493531810027 
2098	 0.388718332022088 
2099	 0.388953800185822 
2100	 0.389194519183109 
2101	 0.389458658391888 
2102	 0.389699855268016 
2103	 0.389924875334302 
2104	 0.390166538938333 
2105	 0.390396602547631 
2106	 0.390657831447195 
2107	 0.390936761168542 
2108	 0.39122794692284 
2109	 0.391559624563762 
2110	 0.39186269141635 
2111	 0.392152039434773 
2112	 0.392456877998979 
2113	 0.39275496036866 
2114	 0.393067612990035 
2115	 0.393365449408506 
2116	 0.393689695166537 
2117	 0.393957684311528 
2118	 0.394188681867547 
2119	 0.394424796439518 
2120	 0.394629257461115 
2121	 0.394856077094598 
2122	 0.39508591154887 
2123	 0.395315567955473 
2124	 0.395562088008138 
2125	 0.395786549026099 
2126	 0.395994031337251 
2127	 0.396210020864443 
2128	 0.396429143379083 
2129	 0.396629750243676 
2130	 0.396835827355022 
2131	 0.397023939148145 
2132	 0.397188994509442 
2133	 0.397334712640946 
2134	 0.397452521387127 
2135	 0.39755987095569 
2136	 0.397621048220267 
2137	 0.397636322675002 
2138	 0.397645420615507 
2139	 0.397607012529533 
2140	 0.397586399356267 
2141	 0.397555737083151 
2142	 0.397530277333192 
2143	 0.397514938273343 
2144	 0.397487267233261 
2145	 0.397463194279621 
2146	 0.397420619542491 
2147	 0.397359190647195 
2148	 0.397299396019265 
2149	 0.397217401607394 
2150	 0.397131871344631 
2151	 0.396997616342539 
2152	 0.396830938259924 
2153	 0.39665435091277 
2154	 0.396435335674629 
2155	 0.396227600216112 
2156	 0.39601999234431 
2157	 0.395796646859466 
2158	 0.395545103958191 
2159	 0.395312096890713 
2160	 0.395087722777446 
2161	 0.394850005670317 
2162	 0.394618558181251 
2163	 0.394377059931208 
2164	 0.394123651476169 
2165	 0.393861413589516 
2166	 0.393583470791143 
2167	 0.393303586911798 
2168	 0.392998190052598 
2169	 0.392664520560724 
2170	 0.392332408447099 
2171	 0.391987701382482 
2172	 0.391639586043128 
2173	 0.391273304566244 
2174	 0.39092401003813 
2175	 0.390589389665038 
2176	 0.390231749718985 
2177	 0.38986262827337 
2178	 0.389501623834651 
2179	 0.389116678215802 
2180	 0.388752188947973 
2181	 0.388436188851228 
2182	 0.388079403097476 
2183	 0.387710493091871 
2184	 0.387318787887288 
2185	 0.386936489192434 
2186	 0.386527409892376 
2187	 0.386138870092044 
2188	 0.385752646487563 
2189	 0.385395393071172 
2190	 0.385047299727925 
2191	 0.384706181982242 
2192	 0.384383275892057 
2193	 0.384081094870884 
2194	 0.383767856287688 
2195	 0.383502832332357 
2196	 0.383273082109084 
2197	 0.383076792736442 
2198	 0.38293442519808 
2199	 0.382783022047081 
2200	 0.382657781534027 
2201	 0.382542621093446 
2202	 0.382422441747174 
2203	 0.382312156924416 
2204	 0.382250388055985 
2205	 0.382229587656957 
2206	 0.382201768593651 
2207	 0.38218812698585 
2208	 0.382214546219194 
2209	 0.382248405183713 
2210	 0.382331599126096 
2211	 0.38246902315235 
2212	 0.382617713373107 
2213	 0.382822540848186 
2214	 0.382985371129122 
2215	 0.383165059818247 
2216	 0.383321982281039 
2217	 0.383457439543772 
2218	 0.383573903750216 
2219	 0.383686953081801 
2220	 0.383773775155999 
2221	 0.383823380844296 
2222	 0.383866011644588 
2223	 0.38389758631295 
2224	 0.383947278113394 
2225	 0.383967360484571 
2226	 0.383970700334199 
2227	 0.383983951665521 
2228	 0.384000947055796 
2229	 0.383974507095745 
2230	 0.383925621156968 
2231	 0.383894603106814 
2232	 0.383820094040367 
2233	 0.383792864104146 
2234	 0.383819298843415 
2235	 0.383810497041965 
2236	 0.383793006076781 
2237	 0.38377924661973 
2238	 0.383770096245871 
2239	 0.383744208121143 
2240	 0.383708820753188 
2241	 0.383669261201678 
2242	 0.383606326390987 
2243	 0.383557058461789 
2244	 0.383491590565351 
2245	 0.383476966439547 
2246	 0.38347582241806 
2247	 0.383441703600126 
2248	 0.383420164736222 
2249	 0.383403239967957 
2250	 0.383402118872483 
2251	 0.383413602989236 
2252	 0.383401276092537 
2253	 0.383404933782103 
2254	 0.383370438056516 
2255	 0.383287679092651 
2256	 0.383231866242825 
2257	 0.383188227373566 
2258	 0.383122297925323 
2259	 0.383035647224091 
2260	 0.382973301233298 
2261	 0.382888279399668 
2262	 0.382841538616692 
2263	 0.382830452640941 
2264	 0.382824439990326 
2265	 0.382849616850142 
2266	 0.382860459265548 
2267	 0.382902533233849 
2268	 0.382899424834297 
2269	 0.382866965763597 
2270	 0.382815139947832 
2271	 0.382765578594021 
2272	 0.382698703343878 
2273	 0.382664511200589 
2274	 0.382675251399704 
2275	 0.382682531865384 
2276	 0.382713280229166 
2277	 0.382725587440875 
2278	 0.382746013232377 
2279	 0.38275503649579 
2280	 0.38275714735512 
2281	 0.382752256601392 
2282	 0.382740612939458 
2283	 0.382721667108544 
2284	 0.382673439386375 
2285	 0.382667775009681 
2286	 0.382680821739912 
2287	 0.38269248941671 
2288	 0.382744558691163 
2289	 0.38275438767718 
2290	 0.382729096259081 
2291	 0.382733650069779 
2292	 0.382736264125789 
2293	 0.382736062449232 
2294	 0.382777732919855 
2295	 0.382768008440794 
2296	 0.382720286647503 
2297	 0.382672580448961 
2298	 0.382604969727457 
2299	 0.382516102558645 
2300	 0.382453451547463 
2301	 0.382384622703115 
2302	 0.382292161617722 
2303	 0.382221991868646 
2304	 0.382162751867654 
2305	 0.382086453653838 
2306	 0.381990599582637 
2307	 0.381896910869458 
2308	 0.381789067758811 
2309	 0.381633370386163 
2310	 0.381513749262089 
2311	 0.381440070402668 
2312	 0.381291095503659 
2313	 0.381085670548476 
2314	 0.380942478061481 
2315	 0.380784159169795 
2316	 0.380646034597888 
2317	 0.380577589920246 
2318	 0.380460297077578 
2319	 0.380297456950211 
2320	 0.380160539586493 
2321	 0.380046453405179 
2322	 0.379903609558071 
2323	 0.379771744069065 
2324	 0.379602591319841 
2325	 0.379346467930478 
2326	 0.379166400427042 
2327	 0.379001822020591 
2328	 0.378854884788222 
2329	 0.37877028431521 
2330	 0.378665148718676 
2331	 0.378544920153631 
2332	 0.378437155200908 
2333	 0.378293270866426 
2334	 0.378183899435537 
2335	 0.378066037617609 
2336	 0.377922546256394 
2337	 0.377779749108586 
2338	 0.377608937524151 
2339	 0.377458304664711 
2340	 0.377285451485023 
2341	 0.377073939684344 
2342	 0.376909449279791 
2343	 0.376716253939559 
2344	 0.376459472631985 
2345	 0.376198445112235 
2346	 0.375928545530017 
2347	 0.375637102061346 
2348	 0.375303284762393 
2349	 0.374994148351754 
2350	 0.374658446151741 
2351	 0.37437198276516 
2352	 0.374132689825248 
2353	 0.373855855953767 
2354	 0.373598834273281 
2355	 0.373323552874781 
2356	 0.373018950309972 
2357	 0.372699098337051 
2358	 0.372362675429601 
2359	 0.372062591501163 
2360	 0.371780403273849 
2361	 0.371427104711669 
2362	 0.371065240547703 
2363	 0.370706566181922 
2364	 0.370259097179398 
2365	 0.36990434386718 
2366	 0.369633165406379 
2367	 0.369305701755515 
2368	 0.368982861612121 
2369	 0.368640459645513 
2370	 0.368257589839659 
2371	 0.367922753167185 
2372	 0.367576562320202 
2373	 0.367182587700177 
2374	 0.366787683423121 
2375	 0.366390421708704 
2376	 0.366028677316178 
2377	 0.365721175311944 
2378	 0.365373501669214 
2379	 0.364965528150347 
2380	 0.364576984180899 
2381	 0.364153981311687 
2382	 0.363694114433878 
2383	 0.363367648645878 
2384	 0.363049195372199 
2385	 0.362555660751416 
2386	 0.362106757504294 
2387	 0.361746549372298 
2388	 0.361307411278944 
2389	 0.360968328967706 
2390	 0.360719507601801 
2391	 0.360386879100713 
2392	 0.360066253587738 
2393	 0.35971428368556 
2394	 0.359324849159498 
2395	 0.358942022102035 
2396	 0.358487248832188 
2397	 0.358083729784525 
2398	 0.357758201733974 
2399	 0.357360462025315 
2400	 0.356916642820644 
2401	 0.35655732427305 
2402	 0.356232698211022 
2403	 0.355842112645735 
2404	 0.355511341068347 
2405	 0.35517813894701 
2406	 0.354741786252299 
2407	 0.354313943312214 
2408	 0.353862330642956 
2409	 0.353400501541109 
2410	 0.352971708925386 
2411	 0.352550228314684 
2412	 0.352236966203253 
2413	 0.351868857371519 
2414	 0.351294569915104 
2415	 0.350765912340486 
2416	 0.350335995750735 
2417	 0.349899469939562 
2418	 0.34950978326121 
2419	 0.349311627941075 
2420	 0.348919663727727 
2421	 0.348391746220117 
2422	 0.347962939314215 
2423	 0.347530607977624 
2424	 0.347113987922152 
2425	 0.346754328473344 
2426	 0.346307846760179 
2427	 0.345782904719893 
2428	 0.34533548597848 
2429	 0.344909970659544 
2430	 0.344503630247841 
2431	 0.344175229414905 
2432	 0.343724637034557 
2433	 0.343152196627375 
2434	 0.342699539709625 
2435	 0.342286806511047 
2436	 0.341879711835542 
2437	 0.341551305167249 
2438	 0.341208328751106 
2439	 0.34075565439104 
2440	 0.340444346133157 
2441	 0.340318295431139 
2442	 0.340007977727523 
2443	 0.33972805107766 
2444	 0.33930009455571 
2445	 0.338612193119802 
2446	 0.338215087809157 
2447	 0.337885528685956 
2448	 0.337506634908928 
2449	 0.337336102787606 
2450	 0.336899089563791 
2451	 0.336243739286875 
2452	 0.335676901005413 
2453	 0.33502201395979 
2454	 0.334495695174832 
2455	 0.334077073202117 
2456	 0.333597960482524 
2457	 0.333111271560361 
2458	 0.332717911997425 
2459	 0.332274752151273 
2460	 0.331908676102643 
2461	 0.331722326062503 
2462	 0.331390982292436 
2463	 0.331074892569153 
2464	 0.330730595752107 
2465	 0.330303446886385 
2466	 0.329885641395743 
2467	 0.329377669694761 
2468	 0.329030824886479 
2469	 0.328781119437104 
2470	 0.328597619123232 
2471	 0.328253077650489 
2472	 0.327741370421018 
2473	 0.327407825887074 
2474	 0.327083833327818 
2475	 0.326734151127123 
2476	 0.326439555321401 
2477	 0.326141012277947 
2478	 0.32565995300753 
2479	 0.325173391200982 
2480	 0.324811300624045 
2481	 0.32431879858488 
2482	 0.32399508283676 
2483	 0.323838260674009 
2484	 0.323547237556883 
2485	 0.323341666744077 
2486	 0.323354494478081 
2487	 0.323309814480354 
2488	 0.322983857595533 
2489	 0.32265588119413 
2490	 0.322181723754887 
2491	 0.321549930157334 
2492	 0.321294770458345 
2493	 0.321203235669725 
2494	 0.320998197573432 
2495	 0.320778670322157 
2496	 0.320515708067605 
2497	 0.320336481928599 
2498	 0.320074115722158 
2499	 0.319609820129368 
2500	 0.319306760578613 
