Wavelength	MM500009.asd
350	 5.55960667563162E-02 
351	 5.90643077972971E-02 
352	 5.77234839170317E-02 
353	 5.09824970219261E-02 
354	 5.07923430876534E-02 
355	 5.41775121109662E-02 
356	 5.84612104339981E-02 
357	 6.08683415639033E-02 
358	 5.72047210911224E-02 
359	 5.53125421329215E-02 
360	 5.46909599734738E-02 
361	 5.03688872684229E-02 
362	 5.24681092263902E-02 
363	 5.71232289775763E-02 
364	 5.91830162373546E-02 
365	 5.35054665437276E-02 
366	 5.45560458454474E-02 
367	 0.05821947908896 
368	 5.80561564994289E-02 
369	 6.08369610631635E-02 
370	 6.21070167211575E-02 
371	 6.07199816259721E-02 
372	 5.83340985893845E-02 
373	 5.86648491238389E-02 
374	 5.97969192048221E-02 
375	 6.10626916831105E-02 
376	 6.59707127274903E-02 
377	 0.062748763496131 
378	 5.96449572524626E-02 
379	 6.55483941790006E-02 
380	 6.51718108177787E-02 
381	 6.42067056813606E-02 
382	 6.52987023975598E-02 
383	 6.77840388332369E-02 
384	 6.58570810043672E-02 
385	 6.45012285408454E-02 
386	 6.64735154662543E-02 
387	 6.73334954175297E-02 
388	 6.95313767586522E-02 
389	 7.09424887911326E-02 
390	 6.93237229839118E-02 
391	 6.82078532390447E-02 
392	 6.92098038271566E-02 
393	 7.15851508747831E-02 
394	 7.28183186251671E-02 
395	 7.29455744225346E-02 
396	 7.33923593586863E-02 
397	 7.45853780140548E-02 
398	 7.40512946759234E-02 
399	 7.56157264118543E-02 
400	 0.07773712817042 
401	 7.78120643802035E-02 
402	 7.95431892560958E-02 
403	 7.94376605799208E-02 
404	 7.78961039845956E-02 
405	 7.94028438137048E-02 
406	 8.02396793488128E-02 
407	 8.06936742995297E-02 
408	 8.12215076241954E-02 
409	 8.05227370512981E-02 
410	 8.03831873356448E-02 
411	 0.080821338954419 
412	 8.11152197131607E-02 
413	 8.20156262453355E-02 
414	 8.20719724968906E-02 
415	 8.12115276957195E-02 
416	 8.12757991158515E-02 
417	 8.14869846707467E-02 
418	 8.15932193790268E-02 
419	 8.15306815533345E-02 
420	 8.15063010459295E-02 
421	 8.11017735184826E-02 
422	 8.08541651435504E-02 
423	 8.16883226227667E-02 
424	 0.081726588388451 
425	 8.11787002918458E-02 
426	 8.06417657004694E-02 
427	 8.09525521387978E-02 
428	 8.05793822361633E-02 
429	 8.00891788957134E-02 
430	 8.03752201172587E-02 
431	 8.03880455235843E-02 
432	 8.00243813706648E-02 
433	 7.96262390237001E-02 
434	 7.98602383039511E-02 
435	 8.01039805276602E-02 
436	 8.06331639394053E-02 
437	 8.14529060250281E-02 
438	 8.13658564577349E-02 
439	 8.14394924139278E-02 
440	 8.19702520740629E-02 
441	 8.27503082860432E-02 
442	 8.29487880365869E-02 
443	 8.30823515567704E-02 
444	 8.34043006542673E-02 
445	 8.35501655308427E-02 
446	 8.39740219600432E-02 
447	 8.44985798868551E-02 
448	 8.48814602044292E-02 
449	 8.54375133518444E-02 
450	 8.59621681341529E-02 
451	 0.086351265476472 
452	 8.66114764862868E-02 
453	 8.69313070032353E-02 
454	 8.70317152093807E-02 
455	 8.69123089529138E-02 
456	 8.74854748489633E-02 
457	 8.79218812242036E-02 
458	 8.81400467485397E-02 
459	 8.83863027905473E-02 
460	 0.08863804551478 
461	 8.88025675390638E-02 
462	 8.89281201171548E-02 
463	 8.92737066318924E-02 
464	 8.94045762701074E-02 
465	 8.94360279583964E-02 
466	 8.95884987942812E-02 
467	 8.98442815814226E-02 
468	 9.00511548583499E-02 
469	 9.01942694713617E-02 
470	 9.03697724876427E-02 
471	 9.05415041877246E-02 
472	 9.05708009258848E-02 
473	 9.04946962195332E-02 
474	 9.08475155672356E-02 
475	 9.08555469123471E-02 
476	 9.07314707992582E-02 
477	 9.10062394547937E-02 
478	 9.10474922633099E-02 
479	 9.12803554048669E-02 
480	 9.17096220109383E-02 
481	 9.16391079679196E-02 
482	 9.17599542860697E-02 
483	 9.20042365309934E-02 
484	 9.21202696362757E-02 
485	 9.19856716391139E-02 
486	 9.20402182672729E-02 
487	 9.22290601542099E-02 
488	 9.21117853042343E-02 
489	 9.21668502358396E-02 
490	 9.22719071782731E-02 
491	 9.22893636394545E-02 
492	 9.22922829907878E-02 
493	 9.24060124439089E-02 
494	 0.092482367139894 
495	 9.23346550487009E-02 
496	 9.25974477997173E-02 
497	 9.27175525753066E-02 
498	 9.25781147356904E-02 
499	 9.28797309240316E-02 
500	 9.29873887550753E-02 
501	 9.29181206786177E-02 
502	 9.28771269750526E-02 
503	 9.30023007283522E-02 
504	 9.30689385270952E-02 
505	 9.30765598437435E-02 
506	 9.32254281380905E-02 
507	 9.32501659195514E-02 
508	 9.32747935352943E-02 
509	 9.33713443048853E-02 
510	 9.32447813881227E-02 
511	 9.32431338221507E-02 
512	 9.33740680553488E-02 
513	 9.34632157944188E-02 
514	 9.34985890342933E-02 
515	 9.35029822361708E-02 
516	 9.35138070575187E-02 
517	 9.35908221764741E-02 
518	 9.35758973671959E-02 
519	 9.35160679426818E-02 
520	 9.35297676448036E-02 
521	 9.37159447673286E-02 
522	 9.38892034254057E-02 
523	 9.39622320435639E-02 
524	 9.39695873178212E-02 
525	 9.40142334100175E-02 
526	 9.40562474026505E-02 
527	 9.40622331855528E-02 
528	 9.41333461952125E-02 
529	 9.42218741067594E-02 
530	 9.42847611192032E-02 
531	 9.42932933455495E-02 
532	 9.43408206698266E-02 
533	 9.44100432118253E-02 
534	 9.44939735026653E-02 
535	 9.46672469446959E-02 
536	 9.46633112721206E-02 
537	 0.09465596315566 
538	 9.49054434312925E-02 
539	 9.49624578115277E-02 
540	 9.49998286105947E-02 
541	 9.50817711195061E-02 
542	 9.50585483414114E-02 
543	 9.51631560068963E-02 
544	 9.53636899167248E-02 
545	 9.55405756531208E-02 
546	 9.55416910684207E-02 
547	 9.55717334471349E-02 
548	 9.57223269661575E-02 
549	 9.59662305193766E-02 
550	 9.60623972129697E-02 
551	 9.61470653842651E-02 
552	 9.63392417465397E-02 
553	 9.65257451722255E-02 
554	 9.66897729460771E-02 
555	 9.68462436396085E-02 
556	 9.70329710471636E-02 
557	 9.72985340747602E-02 
558	 0.097559602276611 
559	 9.77824922413424E-02 
560	 9.80514975559837E-02 
561	 9.82463075030698E-02 
562	 9.84210454382196E-02 
563	 0.098670167428636 
564	 9.89498410181429E-02 
565	 9.92146115048494E-02 
566	 9.94854835420675E-02 
567	 9.98558032759357E-02 
568	 0.100330320995922 
569	 0.100815821571828 
570	 0.101244018764933 
571	 0.101722931759967 
572	 0.102166628301347 
573	 0.102597748594239 
574	 0.103102140855007 
575	 0.103504912129761 
576	 0.103913159900845 
577	 0.104393083106448 
578	 0.104809442247621 
579	 0.105340187861592 
580	 0.10598256345614 
581	 0.106658480332442 
582	 0.107371707139464 
583	 0.108093689508281 
584	 0.108809676150055 
585	 0.109530125240673 
586	 0.110192967117488 
587	 0.110808885569506 
588	 0.111423873382234 
589	 0.112125559794809 
590	 0.11283695492283 
591	 0.113538432793133 
592	 0.114269111920182 
593	 0.115013180210907 
594	 0.115753312977363 
595	 0.116483299751712 
596	 0.117222841919928 
597	 0.118038261876325 
598	 0.11888443299767 
599	 0.119665599843805 
600	 0.120418605172877 
601	 0.121142876226019 
602	 0.121836636810902 
603	 0.122503296952072 
604	 0.123173064815423 
605	 0.123827130434622 
606	 0.124448889298995 
607	 0.125143209468362 
608	 0.125792403626052 
609	 0.126370082505016 
610	 0.126968592277724 
611	 0.127561578299496 
612	 0.128150247609177 
613	 0.128725888318741 
614	 0.129243617982091 
615	 0.129699178663765 
616	 0.130135494339009 
617	 0.130616577653232 
618	 0.131059276603043 
619	 0.131418246090881 
620	 0.1317234622253 
621	 0.132158011118344 
622	 0.132545779137609 
623	 0.132878204543569 
624	 0.133212055823314 
625	 0.133563625444302 
626	 0.133880086385929 
627	 0.134153445537876 
628	 0.134441221723177 
629	 0.134742502314741 
630	 0.135044688692359 
631	 0.135322528200183 
632	 0.135508014598826 
633	 0.135769124675404 
634	 0.136095959772171 
635	 0.13633621937902 
636	 0.136574178183484 
637	 0.136824568244095 
638	 0.137079169317197 
639	 0.137299874994199 
640	 0.137528352548583 
641	 0.137786291712527 
642	 0.138077184284084 
643	 0.138354469747491 
644	 0.138597529523075 
645	 0.138814207402668 
646	 0.139046892288515 
647	 0.139294025301334 
648	 0.139537351939852 
649	 0.139774826982078 
650	 0.14009771871391 
651	 0.140448133772075 
652	 0.140754835823504 
653	 0.140954540394849 
654	 0.141243204127989 
655	 0.141559651434962 
656	 0.141844129248938 
657	 0.142168476532263 
658	 0.142469549253067 
659	 0.142762552452916 
660	 0.143092014920793 
661	 0.143426265880113 
662	 0.143746774022049 
663	 0.14406731060814 
664	 0.144447386705931 
665	 0.144790594662734 
666	 0.145124797427007 
667	 0.145499434590704 
668	 0.145892964588459 
669	 0.146266910843898 
670	 0.146636279922065 
671	 0.147053456075257 
672	 0.147425655416308 
673	 0.147823400434376 
674	 0.148281511453816 
675	 0.148677698567097 
676	 0.149122723534107 
677	 0.149597231151954 
678	 0.150033450745481 
679	 0.150452827682474 
680	 0.150885903290065 
681	 0.151351209551474 
682	 0.151850580086963 
683	 0.152341604665537 
684	 0.152827800902197 
685	 0.153326803237833 
686	 0.153858796578203 
687	 0.154375088104135 
688	 0.154884525148702 
689	 0.155432454288075 
690	 0.15596984825941 
691	 0.156482028910731 
692	 0.156995409359462 
693	 0.157615348603699 
694	 0.158197406639059 
695	 0.158737572778301 
696	 0.159287444732364 
697	 0.159888217236123 
698	 0.160508476758247 
699	 0.161115884395269 
700	 0.16168428020844 
701	 0.162266276550294 
702	 0.162871437645736 
703	 0.163487056567564 
704	 0.164068807832384 
705	 0.16466099400995 
706	 0.165271968769216 
707	 0.165891036763968 
708	 0.166526628039881 
709	 0.167174018924022 
710	 0.167808287889385 
711	 0.168379583304943 
712	 0.168946373549032 
713	 0.169537768706302 
714	 0.170156113396062 
715	 0.170738145023578 
716	 0.171306482596251 
717	 0.171875260455118 
718	 0.172448009923289 
719	 0.17301329091134 
720	 0.173529199898437 
721	 0.173998285939034 
722	 0.174513959725016 
723	 0.175052721471436 
724	 0.175588448306656 
725	 0.176087761786688 
726	 0.176503213340748 
727	 0.176902308402233 
728	 0.177321810341037 
729	 0.177759129382187 
730	 0.178153853525951 
731	 0.178526980464655 
732	 0.178885255018109 
733	 0.179154336588257 
734	 0.179446045337644 
735	 0.179754644672886 
736	 0.18002373822488 
737	 0.180221715402007 
738	 0.18040776338602 
739	 0.180592579031938 
740	 0.180727767556023 
741	 0.180876368545625 
742	 0.180990544663882 
743	 0.181038506517816 
744	 0.181094690459547 
745	 0.18113983627951 
746	 0.181163054642281 
747	 0.181155005603893 
748	 0.181100244005167 
749	 0.181011396770292 
750	 0.180914260370792 
751	 0.180844914608587 
752	 0.180741132131324 
753	 0.1806060561609 
754	 0.180448138060652 
755	 0.180238493728947 
756	 0.180027709434925 
757	 0.179822513246671 
758	 0.179603099108369 
759	 0.17934657936201 
760	 0.179060313799687 
761	 0.178772991406441 
762	 0.178532795012237 
763	 0.178231762642387 
764	 0.177908463228945 
765	 0.177604455731915 
766	 0.177260470983761 
767	 0.17691412492098 
768	 0.176550270748256 
769	 0.176141902040168 
770	 0.175773783899393 
771	 0.17542862533124 
772	 0.175073806312902 
773	 0.174672643658409 
774	 0.174282167831146 
775	 0.173895298389377 
776	 0.173492354868439 
777	 0.173054198167448 
778	 0.17265535764524 
779	 0.17227650829916 
780	 0.171863332548919 
781	 0.171449644369452 
782	 0.171061918846534 
783	 0.170679279416966 
784	 0.17023854180231 
785	 0.16983164548755 
786	 0.169431948880272 
787	 0.169014642043169 
788	 0.168615140435389 
789	 0.16822575486091 
790	 0.167841426784678 
791	 0.167456361492703 
792	 0.167062629411268 
793	 0.16667615099685 
794	 0.166307868030894 
795	 0.165960406916368 
796	 0.165601455922129 
797	 0.165213482937883 
798	 0.16480805252985 
799	 0.164440504770789 
800	 0.164094963680419 
801	 0.163761879929289 
802	 0.163432457379848 
803	 0.163100454443477 
804	 0.162765890550475 
805	 0.162438285355922 
806	 0.162127936630388 
807	 0.161797783530912 
808	 0.161478833865155 
809	 0.161174312363709 
810	 0.160842934513385 
811	 0.160574825194098 
812	 0.160309347100139 
813	 0.160000703239549 
814	 0.159740011178426 
815	 0.159473665393923 
816	 0.15921868020044 
817	 0.159001112005419 
818	 0.158735575244655 
819	 0.158488755638174 
820	 0.158266655335129 
821	 0.158022448705253 
822	 0.157814505649864 
823	 0.157618344371953 
824	 0.157403521041566 
825	 0.157149759549239 
826	 0.156969929748377 
827	 0.156793278658026 
828	 0.156556426628062 
829	 0.156390087146636 
830	 0.15622634507212 
831	 0.156065855893367 
832	 0.15592558193466 
833	 0.155704652986153 
834	 0.155520991919378 
835	 0.155404198212752 
836	 0.155283999914795 
837	 0.155124296970158 
838	 0.154969735352668 
839	 0.15485036293603 
840	 0.154745315921797 
841	 0.154673845858952 
842	 0.154574937918779 
843	 0.154425599251187 
844	 0.15439212633017 
845	 0.154334666917716 
846	 0.154241435435113 
847	 0.154157346110408 
848	 0.154062925543338 
849	 0.154012942740486 
850	 0.153997772539286 
851	 0.153953832527733 
852	 0.15389684554985 
853	 0.153848062845286 
854	 0.153824348668894 
855	 0.15383248479711 
856	 0.153818545431323 
857	 0.153789220126885 
858	 0.153769195356836 
859	 0.153788839921005 
860	 0.153802167011803 
861	 0.153808758618638 
862	 0.153823918484607 
863	 0.153849359153656 
864	 0.153896926618112 
865	 0.153936830883227 
866	 0.153934158771131 
867	 0.15400771631471 
868	 0.154054737022271 
869	 0.154066299816529 
870	 0.154142422561301 
871	 0.15424386066673 
872	 0.154323320417995 
873	 0.154390203870284 
874	 0.154543713462223 
875	 0.154669987092276 
876	 0.154753817215419 
877	 0.154816755168134 
878	 0.154896746032401 
879	 0.155053246170721 
880	 0.155229480382243 
881	 0.155347824677085 
882	 0.155436375798313 
883	 0.155572914944354 
884	 0.155749304814868 
885	 0.155910851198257 
886	 0.156059075223497 
887	 0.156238682933971 
888	 0.156433974333499 
889	 0.156586325001987 
890	 0.156773867671263 
891	 0.156945792565889 
892	 0.157112490632667 
893	 0.157369585134809 
894	 0.157584532417905 
895	 0.157751960794984 
896	 0.157919089060337 
897	 0.15817428047394 
898	 0.158467987048042 
899	 0.158751402972817 
900	 0.158998089937609 
901	 0.159239515872846 
902	 0.159461244765285 
903	 0.159698351868924 
904	 0.159983881817805 
905	 0.16027946272646 
906	 0.160599142335463 
907	 0.16091962346355 
908	 0.161217520705434 
909	 0.161560852182898 
910	 0.161910361602741 
911	 0.162223612376885 
912	 0.162485760140137 
913	 0.162836637697748 
914	 0.163194016974921 
915	 0.163533562549892 
916	 0.163901118664521 
917	 0.164305091471907 
918	 0.164756283062147 
919	 0.165203546675899 
920	 0.165544552806939 
921	 0.165953513771295 
922	 0.166393893274634 
923	 0.166818043762927 
924	 0.167222435135755 
925	 0.167657786913909 
926	 0.168122979923697 
927	 0.168591974927558 
928	 0.169017107870345 
929	 0.169504210925689 
930	 0.170037774379229 
931	 0.170563337799708 
932	 0.171017274224012 
933	 0.171545540186346 
934	 0.172077991058065 
935	 0.172541026316915 
936	 0.173038068537233 
937	 0.17359843909204 
938	 0.17416956543146 
939	 0.174697661691215 
940	 0.175234008259796 
941	 0.175795660091354 
942	 0.176414336558946 
943	 0.177094422961247 
944	 0.177743347427062 
945	 0.178264985621673 
946	 0.178785619354364 
947	 0.179467127704082 
948	 0.180150924652083 
949	 0.180796685575488 
950	 0.181411898599008 
951	 0.182040446918625 
952	 0.182743211766405 
953	 0.183482291200199 
954	 0.184185828231607 
955	 0.184810878845736 
956	 0.185522066425037 
957	 0.186316802824547 
958	 0.18708414550526 
959	 0.187728889713989 
960	 0.188593571153602 
961	 0.189349890981596 
962	 0.190000557763025 
963	 0.190756238347691 
964	 0.191508963236479 
965	 0.192294066237961 
966	 0.193087280061734 
967	 0.193850650699098 
968	 0.194732741620076 
969	 0.195539756327814 
970	 0.196348380245066 
971	 0.197345944453634 
972	 0.198146900780237 
973	 0.198993570082372 
974	 0.199856063202957 
975	 0.200581010990076 
976	 0.201597679820443 
977	 0.202591725198633 
978	 0.203445357081448 
979	 0.204236517242816 
980	 0.205093823654132 
981	 0.206049701583422 
982	 0.207068970158995 
983	 0.208067205638313 
984	 0.208926197567053 
985	 0.20984436439382 
986	 0.210780975786725 
987	 0.211608065760437 
988	 0.212555720068998 
989	 0.213442653598867 
990	 0.214323570287522 
991	 0.215344725839976 
992	 0.216451753649711 
993	 0.217376309738039 
994	 0.218252472687783 
995	 0.219298327326826 
996	 0.22024434553466 
997	 0.221207370487532 
998	 0.222139835960978 
999	 0.223014864904016 
1000	 0.224105310349866 
1001	 0.227762635315269 
1002	 0.228763148599454 
1003	 0.22975412487987 
1004	 0.230721262259948 
1005	 0.231648422383334 
1006	 0.232590458116128 
1007	 0.23351789794174 
1008	 0.234446381268738 
1009	 0.235428561411326 
1010	 0.236330369722978 
1011	 0.237219574951573 
1012	 0.238159895938705 
1013	 0.239040591644249 
1014	 0.239914546541046 
1015	 0.240802857643178 
1016	 0.241662163232181 
1017	 0.24254297321598 
1018	 0.243431016682699 
1019	 0.244326908270604 
1020	 0.245224920420102 
1021	 0.246083989106965 
1022	 0.246925528968806 
1023	 0.24777311879578 
1024	 0.248548381534325 
1025	 0.249363720209971 
1026	 0.250215491897156 
1027	 0.251043590806235 
1028	 0.251881150889994 
1029	 0.252714546527348 
1030	 0.253578919814341 
1031	 0.254408645701829 
1032	 0.255216199974012 
1033	 0.256011300063777 
1034	 0.256838666374963 
1035	 0.25760367481276 
1036	 0.258333906511153 
1037	 0.259125654465925 
1038	 0.259928265224886 
1039	 0.260729695246667 
1040	 0.261601642431627 
1041	 0.262477181456658 
1042	 0.263281109189643 
1043	 0.26408167915712 
1044	 0.264874013240047 
1045	 0.265638790642764 
1046	 0.2663888296 
1047	 0.267195111446816 
1048	 0.268006995055595 
1049	 0.268809389700754 
1050	 0.269586496019275 
1051	 0.270377100284684 
1052	 0.271178728242309 
1053	 0.271886113034005 
1054	 0.272601073629464 
1055	 0.273391449259101 
1056	 0.274149887035673 
1057	 0.274892215437111 
1058	 0.275696249927921 
1059	 0.276438499447105 
1060	 0.277109976799991 
1061	 0.277783940752502 
1062	 0.278496086653285 
1063	 0.279213284595306 
1064	 0.279935533686355 
1065	 0.280637985409302 
1066	 0.28129000978371 
1067	 0.281969977243679 
1068	 0.2826616832029 
1069	 0.283315054420243 
1070	 0.28397752394547 
1071	 0.284656662638539 
1072	 0.285300104716846 
1073	 0.285917111125548 
1074	 0.286547568424964 
1075	 0.287156032552248 
1076	 0.287786157880954 
1077	 0.288436139222452 
1078	 0.289012352511812 
1079	 0.289588143676305 
1080	 0.290215007413476 
1081	 0.290886941699631 
1082	 0.291566962037515 
1083	 0.292202714268213 
1084	 0.292827761000947 
1085	 0.293462721797101 
1086	 0.29405890479769 
1087	 0.294675557512709 
1088	 0.29531947990892 
1089	 0.295962227547946 
1090	 0.296562238692244 
1091	 0.297187672907399 
1092	 0.297837415024769 
1093	 0.298481842906518 
1094	 0.299154322113034 
1095	 0.299811560228921 
1096	 0.300457830179894 
1097	 0.301145626243202 
1098	 0.301842386071008 
1099	 0.302550429943515 
1100	 0.303263035484509 
1101	 0.303981727243931 
1102	 0.304727308161024 
1103	 0.305507420787182 
1104	 0.306254819796478 
1105	 0.306992947750169 
1106	 0.307765780617061 
1107	 0.308470611201801 
1108	 0.309194957392847 
1109	 0.309966567757668 
1110	 0.31073307858842 
1111	 0.31154160080348 
1112	 0.312384335894201 
1113	 0.313229147672217 
1114	 0.314120564474766 
1115	 0.314979095729032 
1116	 0.315813560143215 
1117	 0.316687482365306 
1118	 0.317581563441615 
1119	 0.318452985762806 
1120	 0.319353744862534 
1121	 0.320227132342458 
1122	 0.321084912704695 
1123	 0.321974555939159 
1124	 0.322859125080641 
1125	 0.323756294984748 
1126	 0.324654409671313 
1127	 0.325544049194856 
1128	 0.326441712253218 
1129	 0.327353536364642 
1130	 0.32825834214108 
1131	 0.329153532682084 
1132	 0.33007214203738 
1133	 0.331002945547489 
1134	 0.331928777123173 
1135	 0.332875044864301 
1136	 0.333801991522205 
1137	 0.334727880098614 
1138	 0.335637876129428 
1139	 0.33652526679658 
1140	 0.337396155006897 
1141	 0.33826902790736 
1142	 0.339108721856886 
1143	 0.339980967314247 
1144	 0.340869996431526 
1145	 0.341746654339131 
1146	 0.342636574085022 
1147	 0.343507896006768 
1148	 0.344387252924619 
1149	 0.345234864183838 
1150	 0.346057934770172 
1151	 0.346863871065131 
1152	 0.347683950073047 
1153	 0.34848863895399 
1154	 0.349305114578516 
1155	 0.350154249037127 
1156	 0.350953212424173 
1157	 0.351724438445437 
1158	 0.352505247327064 
1159	 0.353266845210945 
1160	 0.354038534140877 
1161	 0.354820619046345 
1162	 0.355591133512699 
1163	 0.356370532716123 
1164	 0.357126224774507 
1165	 0.357865094992725 
1166	 0.358603298202824 
1167	 0.359345133043479 
1168	 0.360059732749036 
1169	 0.360762785073117 
1170	 0.361468024549725 
1171	 0.362146539523851 
1172	 0.362783259700444 
1173	 0.363447542500892 
1174	 0.364115755275013 
1175	 0.364776844120792 
1176	 0.36545876600103 
1177	 0.366105883119958 
1178	 0.366718123999186 
1179	 0.367350661601174 
1180	 0.367985889813815 
1181	 0.368604271431142 
1182	 0.369229249868317 
1183	 0.369844142266072 
1184	 0.370446524621168 
1185	 0.371030600513234 
1186	 0.371607699615745 
1187	 0.37218156351433 
1188	 0.372745629094668 
1189	 0.3733004899487 
1190	 0.373832181538175 
1191	 0.374346294110453 
1192	 0.3748648170412 
1193	 0.375358552391114 
1194	 0.375865759290931 
1195	 0.376388442140169 
1196	 0.376900837984065 
1197	 0.377411737897738 
1198	 0.377913761196338 
1199	 0.378410495998977 
1200	 0.378912425960417 
1201	 0.379383842049653 
1202	 0.379839241454178 
1203	 0.380286252091749 
1204	 0.380708609552879 
1205	 0.381140600569963 
1206	 0.381572090485932 
1207	 0.381995595077166 
1208	 0.382415259193485 
1209	 0.382831437790437 
1210	 0.383250026789481 
1211	 0.383650181358297 
1212	 0.384036554729588 
1213	 0.384423735627575 
1214	 0.384807903453102 
1215	 0.385174949971404 
1216	 0.3855331242414 
1217	 0.385883641799942 
1218	 0.386241882615833 
1219	 0.386595136088294 
1220	 0.38693342465645 
1221	 0.387277718576907 
1222	 0.38760818276107 
1223	 0.387909350423219 
1224	 0.388224503202987 
1225	 0.388550117469043 
1226	 0.388865445833499 
1227	 0.389173564872063 
1228	 0.389481365814593 
1229	 0.389783119345118 
1230	 0.390089864330256 
1231	 0.390408219268752 
1232	 0.390709430150397 
1233	 0.391004115643861 
1234	 0.391297753202742 
1235	 0.391584538540824 
1236	 0.391861271900034 
1237	 0.392128977760723 
1238	 0.392396467890438 
1239	 0.392649670010954 
1240	 0.392887169243579 
1241	 0.393119752916874 
1242	 0.393338889883224 
1243	 0.393564918012049 
1244	 0.393784142856356 
1245	 0.394005289244954 
1246	 0.394227571848928 
1247	 0.394456080024145 
1248	 0.394691403611583 
1249	 0.394923303748018 
1250	 0.39513064928659 
1251	 0.395342353091715 
1252	 0.395558544642898 
1253	 0.395767334861575 
1254	 0.395961889453112 
1255	 0.396170469754188 
1256	 0.396353768126343 
1257	 0.396497613241474 
1258	 0.396661700475144 
1259	 0.396826446519449 
1260	 0.396996835492486 
1261	 0.397167136880778 
1262	 0.397342051112896 
1263	 0.397535555761587 
1264	 0.397712735149704 
1265	 0.397872932398229 
1266	 0.398047878895935 
1267	 0.398228242105215 
1268	 0.398397034179117 
1269	 0.398582338128672 
1270	 0.398784421706968 
1271	 0.398973647498662 
1272	 0.399151758282932 
1273	 0.399358032796894 
1274	 0.399577410167771 
1275	 0.399796254644674 
1276	 0.400044309937762 
1277	 0.400259119159777 
1278	 0.400447759259621 
1279	 0.400654244992415 
1280	 0.400868735528696 
1281	 0.401065944285118 
1282	 0.401272468559022 
1283	 0.401455613480894 
1284	 0.401621593133033 
1285	 0.401765623025686 
1286	 0.401900291117529 
1287	 0.40200760747746 
1288	 0.402104165368521 
1289	 0.402181170999934 
1290	 0.402240585863009 
1291	 0.402296559886889 
1292	 0.402310251769193 
1293	 0.402281493366402 
1294	 0.402252739728828 
1295	 0.402207514752965 
1296	 0.402136765583855 
1297	 0.40205568477873 
1298	 0.401948468056702 
1299	 0.401796107822951 
1300	 0.401652195302837 
1301	 0.401498794096633 
1302	 0.401336920669856 
1303	 0.40115636691825 
1304	 0.400991604853996 
1305	 0.400833972516691 
1306	 0.400662362715654 
1307	 0.400501537629 
1308	 0.400337392359582 
1309	 0.400165867550347 
1310	 0.399974463296018 
1311	 0.399811953678526 
1312	 0.399653912649736 
1313	 0.399509431388563 
1314	 0.399372585787755 
1315	 0.399255020341315 
1316	 0.39914753093572 
1317	 0.399062842207812 
1318	 0.399005414959501 
1319	 0.398951377760013 
1320	 0.398902275122096 
1321	 0.398877613639908 
1322	 0.398873269813648 
1323	 0.398869487445827 
1324	 0.398897590410614 
1325	 0.398934651395571 
1326	 0.398970174711091 
1327	 0.399032100916856 
1328	 0.399082678667285 
1329	 0.399154017016514 
1330	 0.399255960420636 
1331	 0.399366406462284 
1332	 0.399521856870605 
1333	 0.399735458833946 
1334	 0.399919776729373 
1335	 0.400116407217513 
1336	 0.4003110346817 
1337	 0.400502349715287 
1338	 0.400690902304138 
1339	 0.400883286189289 
1340	 0.401084374284042 
1341	 0.401270374514613 
1342	 0.401479759988206 
1343	 0.401719701025194 
1344	 0.401942592235211 
1345	 0.402164646880019 
1346	 0.402410861653804 
1347	 0.402648267149184 
1348	 0.402888345187553 
1349	 0.403129519124751 
1350	 0.403361656046746 
1351	 0.403608516671746 
1352	 0.403863107565468 
1353	 0.404104021946455 
1354	 0.404365002651392 
1355	 0.404589931365091 
1356	 0.404782820999553 
1357	 0.40499141723739 
1358	 0.405179009013582 
1359	 0.405386082753743 
1360	 0.405611266237876 
1361	 0.405824910809109 
1362	 0.406049726264841 
1363	 0.40626302654624 
1364	 0.406479474371982 
1365	 0.406666358326296 
1366	 0.406840402621128 
1367	 0.40698931464477 
1368	 0.407120991244749 
1369	 0.407262689277904 
1370	 0.407398301857786 
1371	 0.407535191265923 
1372	 0.407657636842807 
1373	 0.407739047680683 
1374	 0.407838639954218 
1375	 0.407944050731595 
1376	 0.408015940990519 
1377	 0.408094650484508 
1378	 0.408128601970377 
1379	 0.408133618559334 
1380	 0.408099574737673 
1381	 0.408019911506 
1382	 0.407942774866972 
1383	 0.407847870152065 
1384	 0.40771784291574 
1385	 0.407600823285556 
1386	 0.407412570959154 
1387	 0.407148470404473 
1388	 0.406881335841663 
1389	 0.406592962065583 
1390	 0.406268135884954 
1391	 0.405898494796443 
1392	 0.405505802084145 
1393	 0.405045299610229 
1394	 0.404541084175906 
1395	 0.404017804406523 
1396	 0.403457367717281 
1397	 0.402889218958316 
1398	 0.402289787267388 
1399	 0.401694269943875 
1400	 0.40109131364495 
1401	 0.400480770187742 
1402	 0.399857467104326 
1403	 0.399236547952342 
1404	 0.398589526315226 
1405	 0.397983665153434 
1406	 0.397397726653032 
1407	 0.396812283141339 
1408	 0.39623011040112 
1409	 0.395684444786214 
1410	 0.395115172356088 
1411	 0.394632295625654 
1412	 0.394202398901682 
1413	 0.393827534122412 
1414	 0.393504144201877 
1415	 0.39321752630852 
1416	 0.392973760265544 
1417	 0.392758105259015 
1418	 0.392571831929156 
1419	 0.392419028306889 
1420	 0.392269666164633 
1421	 0.392132618744062 
1422	 0.392011141144189 
1423	 0.391865045504275 
1424	 0.391703103559568 
1425	 0.391514204823535 
1426	 0.391363539699584 
1427	 0.391213751959943 
1428	 0.391061599023491 
1429	 0.390934542012036 
1430	 0.390795569534731 
1431	 0.390631554998242 
1432	 0.390491041758617 
1433	 0.390369874818166 
1434	 0.390242047168118 
1435	 0.390109765232616 
1436	 0.389990824084314 
1437	 0.389873073483558 
1438	 0.389772882474939 
1439	 0.38969154195575 
1440	 0.389607782155957 
1441	 0.389517969633138 
1442	 0.389450813686217 
1443	 0.389388462992708 
1444	 0.389335934790636 
1445	 0.389317370856086 
1446	 0.389303492871758 
1447	 0.389283349681234 
1448	 0.389264302460549 
1449	 0.389256554449578 
1450	 0.389258606729288 
1451	 0.389275218254079 
1452	 0.389314349634901 
1453	 0.389359811378282 
1454	 0.389403569792771 
1455	 0.38947603788153 
1456	 0.38957377457745 
1457	 0.389665607998566 
1458	 0.389780695458645 
1459	 0.389888607022844 
1460	 0.389985135553621 
1461	 0.390098447931512 
1462	 0.390218954933296 
1463	 0.390344489976323 
1464	 0.390489823385311 
1465	 0.390628181770097 
1466	 0.390763529481776 
1467	 0.390905464836022 
1468	 0.391047324603938 
1469	 0.39118922536303 
1470	 0.391331530787372 
1471	 0.391485061343473 
1472	 0.391646425898761 
1473	 0.391802062247275 
1474	 0.391967148017382 
1475	 0.392126932551084 
1476	 0.392262844826798 
1477	 0.392398429149226 
1478	 0.392548812405059 
1479	 0.392690079660938 
1480	 0.392833981094744 
1481	 0.392999592733095 
1482	 0.39315597934346 
1483	 0.39330613750388 
1484	 0.393473313391109 
1485	 0.39364653630302 
1486	 0.393821155166558 
1487	 0.394009537712206 
1488	 0.394188560467093 
1489	 0.394366567331581 
1490	 0.394544685311069 
1491	 0.394720791996068 
1492	 0.394896117232549 
1493	 0.3950751399845 
1494	 0.395243642056196 
1495	 0.395409382079446 
1496	 0.395569118275902 
1497	 0.395727342590043 
1498	 0.395867661919243 
1499	 0.395990651293967 
1500	 0.396121183644221 
1501	 0.396236813590501 
1502	 0.396358360081064 
1503	 0.396487929447628 
1504	 0.396615207806968 
1505	 0.396741089488605 
1506	 0.396878418782837 
1507	 0.397024040773472 
1508	 0.397167369381255 
1509	 0.397316614124999 
1510	 0.397467202001977 
1511	 0.397610972255648 
1512	 0.397759617295019 
1513	 0.397904677288474 
1514	 0.398041002550928 
1515	 0.398186222350915 
1516	 0.398324349033268 
1517	 0.39845182493909 
1518	 0.398570760701835 
1519	 0.3986878653928 
1520	 0.398795162238895 
1521	 0.398905374606789 
1522	 0.399013353864573 
1523	 0.399121136505451 
1524	 0.399227243229507 
1525	 0.399331413118629 
1526	 0.399425999555842 
1527	 0.399540189071454 
1528	 0.399665675154363 
1529	 0.399786236733993 
1530	 0.39993844591837 
1531	 0.400039985773652 
1532	 0.400100335490724 
1533	 0.400183149057564 
1534	 0.400235994617505 
1535	 0.400320957059459 
1536	 0.400451088445023 
1537	 0.400547788806376 
1538	 0.400638779152121 
1539	 0.400724663220431 
1540	 0.400794440379582 
1541	 0.400862687181775 
1542	 0.400927347134119 
1543	 0.400993759426367 
1544	 0.401037935116527 
1545	 0.401112187708885 
1546	 0.401204405711696 
1547	 0.401297147443473 
1548	 0.401425984988955 
1549	 0.401549015865426 
1550	 0.401642202455958 
1551	 0.401755730690371 
1552	 0.401858025884252 
1553	 0.401928319623376 
1554	 0.40200340261611 
1555	 0.402067109709656 
1556	 0.402114137828745 
1557	 0.402163367194497 
1558	 0.402209721631557 
1559	 0.402268515255833 
1560	 0.40233281379608 
1561	 0.402398576308663 
1562	 0.402480406367268 
1563	 0.402579766027303 
1564	 0.402664827147399 
1565	 0.40275899134745 
1566	 0.402837124518924 
1567	 0.402907722412699 
1568	 0.402967076046227 
1569	 0.403019022536806 
1570	 0.403062130984689 
1571	 0.403078511159962 
1572	 0.403126694108896 
1573	 0.403173807690118 
1574	 0.403241108486657 
1575	 0.403336888289533 
1576	 0.403423836279706 
1577	 0.403538657438243 
1578	 0.403607901961465 
1579	 0.403652979879264 
1580	 0.403701121214234 
1581	 0.403716782298367 
1582	 0.403753132828219 
1583	 0.403798976316707 
1584	 0.403848736950496 
1585	 0.403896664002501 
1586	 0.403954773275044 
1587	 0.40403913790266 
1588	 0.404100907815323 
1589	 0.404159155448869 
1590	 0.404207255727879 
1591	 0.404228161639447 
1592	 0.404268903389744 
1593	 0.404310577866071 
1594	 0.40436452251906 
1595	 0.40443961740286 
1596	 0.404500531089628 
1597	 0.404566708870317 
1598	 0.404622810320902 
1599	 0.404664718654968 
1600	 0.404712111530089 
1601	 0.404771567547815 
1602	 0.404805868092644 
1603	 0.404814561862956 
1604	 0.404839314341104 
1605	 0.404846821935993 
1606	 0.404870226076314 
1607	 0.404914434049348 
1608	 0.404969755731644 
1609	 0.405001633607225 
1610	 0.405013118181647 
1611	 0.40504565840097 
1612	 0.405073906319327 
1613	 0.405090582154253 
1614	 0.405143070948019 
1615	 0.405184472848289 
1616	 0.405215834329422 
1617	 0.405273157168132 
1618	 0.405319988442569 
1619	 0.405342467019966 
1620	 0.405343051736704 
1621	 0.405343222162566 
1622	 0.40532403702455 
1623	 0.405318246456328 
1624	 0.405313591164823 
1625	 0.40530703026931 
1626	 0.405298567913593 
1627	 0.405293666632312 
1628	 0.405281267671572 
1629	 0.405296956390278 
1630	 0.405327848544869 
1631	 0.405359339438788 
1632	 0.405408343449285 
1633	 0.405448851884011 
1634	 0.405499066641203 
1635	 0.405515267733129 
1636	 0.405516085180097 
1637	 0.405523621384367 
1638	 0.405505817424512 
1639	 0.405508264179422 
1640	 0.40552371032062 
1641	 0.405546491943388 
1642	 0.405571670651854 
1643	 0.405598691424554 
1644	 0.4056448653589 
1645	 0.405672796391922 
1646	 0.405696770806972 
1647	 0.405703729867833 
1648	 0.40569432557187 
1649	 0.405697614693626 
1650	 0.405688152618056 
1651	 0.405691493026635 
1652	 0.405707852286672 
1653	 0.405725219077319 
1654	 0.40574503919618 
1655	 0.405762240909713 
1656	 0.405788078415129 
1657	 0.405805724272121 
1658	 0.405813294747202 
1659	 0.405827108323983 
1660	 0.405854422270407 
1661	 0.405854590277174 
1662	 0.405846916144226 
1663	 0.405825400534282 
1664	 0.405772343381432 
1665	 0.405741425916285 
1666	 0.405702652056592 
1667	 0.405688256536625 
1668	 0.405691840530144 
1669	 0.405696729735775 
1670	 0.405709591927663 
1671	 0.405737376847167 
1672	 0.405795586454347 
1673	 0.405810521680184 
1674	 0.405824838552381 
1675	 0.405820763422913 
1676	 0.405763532325997 
1677	 0.405749404509911 
1678	 0.405750041436004 
1679	 0.405755899778476 
1680	 0.405797699827758 
1681	 0.405787624832646 
1682	 0.405747447640737 
1683	 0.405730867783012 
1684	 0.405674618035253 
1685	 0.405676552517723 
1686	 0.405742776707645 
1687	 0.405764165546551 
1688	 0.405797688602859 
1689	 0.405801220355196 
1690	 0.405767890452683 
1691	 0.405751608254588 
1692	 0.40571995548381 
1693	 0.405712419335701 
1694	 0.40571639004769 
1695	 0.405726035207483 
1696	 0.405767795889905 
1697	 0.405771886260883 
1698	 0.405755841295574 
1699	 0.405750755259786 
1700	 0.40573275820408 
1701	 0.405717293025323 
1702	 0.405727210345082 
1703	 0.405697967864899 
1704	 0.405620800385348 
1705	 0.405590577680226 
1706	 0.405561649274711 
1707	 0.405547807754666 
1708	 0.405571258719182 
1709	 0.405577998324293 
1710	 0.405574164096769 
1711	 0.405583322250782 
1712	 0.405606189622118 
1713	 0.405619255442123 
1714	 0.405636506078322 
1715	 0.405642312518414 
1716	 0.405629480743573 
1717	 0.405637585095784 
1718	 0.405661148978136 
1719	 0.405658947577243 
1720	 0.405669769468476 
1721	 0.405643358071723 
1722	 0.40557524568668 
1723	 0.405521697137472 
1724	 0.405457228506511 
1725	 0.405396685625269 
1726	 0.405330029733583 
1727	 0.40528130242539 
1728	 0.405247238861565 
1729	 0.405187637478732 
1730	 0.405122157425205 
1731	 0.405069969549456 
1732	 0.405000818599673 
1733	 0.404954011664252 
1734	 0.404939740150104 
1735	 0.404901742532915 
1736	 0.404854363973201 
1737	 0.404815032334659 
1738	 0.40477563851169 
1739	 0.404738529369765 
1740	 0.404700344270777 
1741	 0.404664761704194 
1742	 0.404645894074715 
1743	 0.404583825254268 
1744	 0.404508576904801 
1745	 0.404429600603172 
1746	 0.404295201736978 
1747	 0.404271756479237 
1748	 0.404253145882576 
1749	 0.404201185786418 
1750	 0.404169937272373 
1751	 0.404099964255505 
1752	 0.403994868341308 
1753	 0.40391964902651 
1754	 0.403887833615358 
1755	 0.403872805367931 
1756	 0.403865643683056 
1757	 0.403865719908119 
1758	 0.403843575472839 
1759	 0.403801017032219 
1760	 0.403727866954115 
1761	 0.403651187219087 
1762	 0.403598001287346 
1763	 0.403523834971116 
1764	 0.4034485546888 
1765	 0.403403276274253 
1766	 0.403344063305566 
1767	 0.403272212938846 
1768	 0.403250351454094 
1769	 0.403229458132976 
1770	 0.403187174616974 
1771	 0.403202183472419 
1772	 0.403215630976364 
1773	 0.403210859871907 
1774	 0.403232456294597 
1775	 0.403222271180415 
1776	 0.403178932074952 
1777	 0.403125306368571 
1778	 0.403071683022222 
1779	 0.403040564798488 
1780	 0.403017272876892 
1781	 0.403008930362888 
1782	 0.403004399295555 
1783	 0.402976531176072 
1784	 0.402975065754307 
1785	 0.403003255070482 
1786	 0.403006802697191 
1787	 0.402994639457979 
1788	 0.403005651371859 
1789	 0.403014457140758 
1790	 0.403035731825548 
1791	 0.403081386697127 
1792	 0.4031282453651 
1793	 0.403184949226225 
1794	 0.403236951037688 
1795	 0.403318029180602 
1796	 0.403347805980763 
1797	 0.40333619350457 
1798	 0.40332363245117 
1799	 0.403282442613989 
1800	 0.403252567374293 
1801	 0.40289041337433 
1802	 0.402910405189063 
1803	 0.402950670218083 
1804	 0.402952272304739 
1805	 0.402974471495431 
1806	 0.403012429407077 
1807	 0.403026901932573 
1808	 0.403068346379589 
1809	 0.40315155584985 
1810	 0.403193925477448 
1811	 0.403227842496067 
1812	 0.40326262656403 
1813	 0.403285751915344 
1814	 0.403268806079573 
1815	 0.403237743848406 
1816	 0.403219893863406 
1817	 0.403201596065583 
1818	 0.403142758404252 
1819	 0.403140120282959 
1820	 0.403169920919937 
1821	 0.40320677992193 
1822	 0.403243204814058 
1823	 0.403303829781064 
1824	 0.403359098116246 
1825	 0.403374616092513 
1826	 0.403368303222462 
1827	 0.403354302035302 
1828	 0.403319843560546 
1829	 0.403236594952079 
1830	 0.403191848371114 
1831	 0.403147548305473 
1832	 0.403109346225136 
1833	 0.403101539432935 
1834	 0.40308893302399 
1835	 0.403097661087649 
1836	 0.403105028929621 
1837	 0.40311639296757 
1838	 0.403144647999762 
1839	 0.40314684580171 
1840	 0.403139983276969 
1841	 0.40313360808556 
1842	 0.403085486500121 
1843	 0.403003290541156 
1844	 0.402916485570357 
1845	 0.402812298287182 
1846	 0.402699696113341 
1847	 0.402590392032526 
1848	 0.402500843878202 
1849	 0.402404571210763 
1850	 0.402307290666041 
1851	 0.402216342926471 
1852	 0.40212977905547 
1853	 0.402025472828336 
1854	 0.40192216469383 
1855	 0.401821584218957 
1856	 0.401719687869498 
1857	 0.401602030699606 
1858	 0.401426740848226 
1859	 0.401228598135637 
1860	 0.401026968890587 
1861	 0.400804874043783 
1862	 0.400553256951551 
1863	 0.400315718054752 
1864	 0.400049007535355 
1865	 0.399712543904264 
1866	 0.399344398025136 
1867	 0.398951520827705 
1868	 0.398524528465875 
1869	 0.398085288735654 
1870	 0.39762778897256 
1871	 0.397123880461238 
1872	 0.396584083494666 
1873	 0.396021606195923 
1874	 0.395411313513986 
1875	 0.394752984334328 
1876	 0.394049473570054 
1877	 0.39328032561479 
1878	 0.392476114170877 
1879	 0.391611351127651 
1880	 0.39064772888846 
1881	 0.389616552425265 
1882	 0.3885043310682 
1883	 0.387303627044929 
1884	 0.385993358780376 
1885	 0.384653163581748 
1886	 0.383243247295019 
1887	 0.381705091514707 
1888	 0.380094083874699 
1889	 0.378412169771344 
1890	 0.376631118515303 
1891	 0.374849600817993 
1892	 0.373015383694769 
1893	 0.371181336227744 
1894	 0.369320919577072 
1895	 0.3674553643414 
1896	 0.365544384544935 
1897	 0.363642326322173 
1898	 0.36168657135794 
1899	 0.359725321944605 
1900	 0.357858639476884 
1901	 0.355992751655435 
1902	 0.354180941394584 
1903	 0.352450057956972 
1904	 0.350746425524872 
1905	 0.349059491197026 
1906	 0.347425987620092 
1907	 0.345865721761804 
1908	 0.344355928516257 
1909	 0.342927142860537 
1910	 0.341558044295393 
1911	 0.340284862565901 
1912	 0.339091551427887 
1913	 0.337936544523601 
1914	 0.336832534697893 
1915	 0.335796250229186 
1916	 0.334810567634762 
1917	 0.333892554544967 
1918	 0.333037383493303 
1919	 0.332255002303261 
1920	 0.331549502420892 
1921	 0.33088327282906 
1922	 0.330276682833064 
1923	 0.32972379849982 
1924	 0.329197678585163 
1925	 0.328687877587286 
1926	 0.328262857748604 
1927	 0.327889430932239 
1928	 0.327560048220055 
1929	 0.327321644222099 
1930	 0.327127379544067 
1931	 0.326952016392484 
1932	 0.326819806774479 
1933	 0.326714020242879 
1934	 0.326607821156036 
1935	 0.326576473749501 
1936	 0.326592147294812 
1937	 0.326657661082602 
1938	 0.326783563447367 
1939	 0.326948466215506 
1940	 0.327172123118154 
1941	 0.327390725505732 
1942	 0.327652478622537 
1943	 0.32797525314201 
1944	 0.328319530488899 
1945	 0.328666086129217 
1946	 0.329053784116316 
1947	 0.329491573588053 
1948	 0.329922973354023 
1949	 0.330379447999651 
1950	 0.330844247212911 
1951	 0.331325530059419 
1952	 0.331789249205619 
1953	 0.332303285696224 
1954	 0.332821459983677 
1955	 0.333321128424093 
1956	 0.333834330356478 
1957	 0.334328328320034 
1958	 0.334787219441656 
1959	 0.335275668280643 
1960	 0.335788760040643 
1961	 0.336271026802984 
1962	 0.336739948737161 
1963	 0.337222885127802 
1964	 0.337690802519984 
1965	 0.338163616247238 
1966	 0.338674370029008 
1967	 0.339194128485334 
1968	 0.339699137285941 
1969	 0.340202578826856 
1970	 0.34070840841979 
1971	 0.341214095357308 
1972	 0.341709521375266 
1973	 0.34220914427888 
1974	 0.342700570499176 
1975	 0.34317950873173 
1976	 0.343650710490095 
1977	 0.344149405947805 
1978	 0.344631468533386 
1979	 0.345100022162522 
1980	 0.345602917280026 
1981	 0.346104281693595 
1982	 0.346600738599993 
1983	 0.347114623752229 
1984	 0.347658865952298 
1985	 0.348181212389836 
1986	 0.348701523006602 
1987	 0.349216084068048 
1988	 0.349718878051344 
1989	 0.350234619664434 
1990	 0.350738964932723 
1991	 0.351234015926154 
1992	 0.351727475525625 
1993	 0.352207216740789 
1994	 0.352702455604639 
1995	 0.353198467197097 
1996	 0.353705133721139 
1997	 0.35423120567392 
1998	 0.35474576047544 
1999	 0.355273924278754 
2000	 0.355773029824693 
2001	 0.356257262332178 
2002	 0.356733286970593 
2003	 0.357181407414665 
2004	 0.357643319802966 
2005	 0.358112921699379 
2006	 0.358586827763913 
2007	 0.35906396347475 
2008	 0.359547833258401 
2009	 0.360035228760746 
2010	 0.36052639764433 
2011	 0.361025325509472 
2012	 0.361535179446914 
2013	 0.362040268738741 
2014	 0.362571600168813 
2015	 0.36306247761838 
2016	 0.363530858308154 
2017	 0.364007415112978 
2018	 0.364469252577441 
2019	 0.36491249364808 
2020	 0.365352087238209 
2021	 0.365783682116819 
2022	 0.366216277115282 
2023	 0.366628765091511 
2024	 0.367057711116764 
2025	 0.367508060122066 
2026	 0.367938272025337 
2027	 0.368370627792782 
2028	 0.368782045942424 
2029	 0.369199326353823 
2030	 0.369595077118166 
2031	 0.370031372498304 
2032	 0.370492576173115 
2033	 0.370937112253 
2034	 0.371414543631471 
2035	 0.371840761886746 
2036	 0.372245082459088 
2037	 0.37262696908343 
2038	 0.372959035150828 
2039	 0.373314943204204 
2040	 0.373656681772713 
2041	 0.374008185275709 
2042	 0.374381272483898 
2043	 0.374755714051307 
2044	 0.375111825995226 
2045	 0.375462378906033 
2046	 0.375807709780177 
2047	 0.376139421970009 
2048	 0.376472604857146 
2049	 0.376807785258403 
2050	 0.377132706624455 
2051	 0.37745170250631 
2052	 0.377763984383568 
2053	 0.378061937375921 
2054	 0.378365171071809 
2055	 0.378658464451062 
2056	 0.378965856679641 
2057	 0.379265325971544 
2058	 0.379570499524653 
2059	 0.379864308827078 
2060	 0.380152098307921 
2061	 0.380432981683304 
2062	 0.380696488553123 
2063	 0.380979215684812 
2064	 0.381265230005555 
2065	 0.38155306694858 
2066	 0.38186038642508 
2067	 0.3821541404113 
2068	 0.382445670429693 
2069	 0.382726473458554 
2070	 0.382999051956091 
2071	 0.383259539010701 
2072	 0.383526276696321 
2073	 0.38379299903565 
2074	 0.384044991164493 
2075	 0.384295768672825 
2076	 0.384537312578369 
2077	 0.38474763281144 
2078	 0.384985671678499 
2079	 0.385241623760764 
2080	 0.385484494313581 
2081	 0.385723770154809 
2082	 0.385972571140493 
2083	 0.386216038990729 
2084	 0.386475225999526 
2085	 0.386713911318109 
2086	 0.386952627407869 
2087	 0.387199035927942 
2088	 0.387429652642107 
2089	 0.387675351722306 
2090	 0.387945178134486 
2091	 0.388201799601242 
2092	 0.388453786271281 
2093	 0.388702332839944 
2094	 0.38895535346553 
2095	 0.389198784377782 
2096	 0.389414151173242 
2097	 0.389657155643534 
2098	 0.389927315474443 
2099	 0.390178865147474 
2100	 0.390412058857065 
2101	 0.390648657645924 
2102	 0.390873475603002 
2103	 0.391062331627548 
2104	 0.39127520299848 
2105	 0.391489550655687 
2106	 0.391726504938742 
2107	 0.391960661424836 
2108	 0.392222357418754 
2109	 0.392533194272662 
2110	 0.392821006966565 
2111	 0.393118172483021 
2112	 0.393401815136109 
2113	 0.393678202903865 
2114	 0.393938976799614 
2115	 0.39421600107727 
2116	 0.394496390747783 
2117	 0.394770123783941 
2118	 0.395058134748253 
2119	 0.395314789435037 
2120	 0.39554512148535 
2121	 0.395788438236395 
2122	 0.396012515292805 
2123	 0.396258058549072 
2124	 0.396532882675244 
2125	 0.396778515775023 
2126	 0.397036615922916 
2127	 0.397260468011644 
2128	 0.397454367858622 
2129	 0.397636229044605 
2130	 0.397807073295138 
2131	 0.39794297195454 
2132	 0.398073581059762 
2133	 0.398192327917234 
2134	 0.398289220093799 
2135	 0.398372746926229 
2136	 0.398426270077732 
2137	 0.398452948381672 
2138	 0.398465231698305 
2139	 0.398449685876587 
2140	 0.398424809643647 
2141	 0.398361723303628 
2142	 0.39832803716907 
2143	 0.398302020761053 
2144	 0.39826345427926 
2145	 0.398250801147587 
2146	 0.398209538858816 
2147	 0.39812966355963 
2148	 0.39805711236311 
2149	 0.397987356164006 
2150	 0.397927902672318 
2151	 0.397823406571108 
2152	 0.397726115878628 
2153	 0.397567673151216 
2154	 0.397342302889892 
2155	 0.397133969846923 
2156	 0.39689741463367 
2157	 0.396664492315453 
2158	 0.396426473786654 
2159	 0.396186270433076 
2160	 0.39593401541418 
2161	 0.395687217050377 
2162	 0.395450780426806 
2163	 0.395201915536828 
2164	 0.39496101281444 
2165	 0.394696624361822 
2166	 0.394408673921079 
2167	 0.39410738559282 
2168	 0.39377525359483 
2169	 0.393394789989763 
2170	 0.393048544787783 
2171	 0.392687143913665 
2172	 0.392343705980794 
2173	 0.392038323454966 
2174	 0.391691090918008 
2175	 0.391318683913006 
2176	 0.39096070504997 
2177	 0.390578531332159 
2178	 0.390217357851151 
2179	 0.389890854245068 
2180	 0.389540711749717 
2181	 0.389187799771978 
2182	 0.388827105465036 
2183	 0.388463317630141 
2184	 0.388064254429351 
2185	 0.387691834397109 
2186	 0.38732613209024 
2187	 0.386947628069162 
2188	 0.386550581192908 
2189	 0.386202069556306 
2190	 0.385858972423022 
2191	 0.385531611877692 
2192	 0.38524669395759 
2193	 0.384957783124194 
2194	 0.384649066085884 
2195	 0.384388150432968 
2196	 0.384169447079755 
2197	 0.383949386403252 
2198	 0.383717752887787 
2199	 0.383551814682046 
2200	 0.383429463900064 
2201	 0.383318491740912 
2202	 0.383259240691225 
2203	 0.383226138834819 
2204	 0.383175137914073 
2205	 0.383103973805898 
2206	 0.383091732087055 
2207	 0.383090440338769 
2208	 0.383141705377103 
2209	 0.383258320767101 
2210	 0.383357501039928 
2211	 0.383468664327008 
2212	 0.383613755329871 
2213	 0.383799647115177 
2214	 0.383949439666235 
2215	 0.384121882961844 
2216	 0.384276767456487 
2217	 0.384407798027733 
2218	 0.384521892181033 
2219	 0.384645066352168 
2220	 0.38473884652769 
2221	 0.384798186771313 
2222	 0.384839217781669 
2223	 0.384854881023861 
2224	 0.384893192654418 
2225	 0.384935812085198 
2226	 0.384991284344145 
2227	 0.384995659477075 
2228	 0.385003893871771 
2229	 0.384968768166321 
2230	 0.384857583571557 
2231	 0.384797752669955 
2232	 0.384739692024354 
2233	 0.384698470508796 
2234	 0.384670854287317 
2235	 0.38464527412415 
2236	 0.384635646752671 
2237	 0.384614730782677 
2238	 0.384590681344924 
2239	 0.384575235586719 
2240	 0.384570284087491 
2241	 0.384551444090628 
2242	 0.384529913247079 
2243	 0.384501990341711 
2244	 0.384462977458497 
2245	 0.384425744620036 
2246	 0.38433761084754 
2247	 0.384297520517543 
2248	 0.384258719002966 
2249	 0.384211120822312 
2250	 0.384180773110738 
2251	 0.384192264726528 
2252	 0.38415749268471 
2253	 0.384092594665387 
2254	 0.384057758009488 
2255	 0.384038132446503 
2256	 0.383986646723718 
2257	 0.383934293662149 
2258	 0.383871123292205 
2259	 0.383758495976677 
2260	 0.383689217994811 
2261	 0.383645572060202 
2262	 0.383601017182802 
2263	 0.383546881602788 
2264	 0.383535185747891 
2265	 0.383568023898301 
2266	 0.383575805254907 
2267	 0.383612527789434 
2268	 0.383629020693167 
2269	 0.383618592416098 
2270	 0.383602523091732 
2271	 0.383610290021217 
2272	 0.38359367217412 
2273	 0.383545420626472 
2274	 0.383499714567543 
2275	 0.383489604819547 
2276	 0.383482673333818 
2277	 0.383494402933104 
2278	 0.383570784724467 
2279	 0.383566822957528 
2280	 0.383511343804532 
2281	 0.383492104300284 
2282	 0.383445106486505 
2283	 0.38343815269317 
2284	 0.383488933932871 
2285	 0.383499809031129 
2286	 0.383492700009513 
2287	 0.383500786852457 
2288	 0.38350133105604 
2289	 0.383504035069746 
2290	 0.38352542181576 
2291	 0.383541203068328 
2292	 0.383561754605982 
2293	 0.383558027483234 
2294	 0.383554500095913 
2295	 0.383523444423934 
2296	 0.3834550280616 
2297	 0.383386563658356 
2298	 0.383307523868138 
2299	 0.383253139207899 
2300	 0.383218122426656 
2301	 0.383166535629974 
2302	 0.383120258512759 
2303	 0.383057762057923 
2304	 0.382978805688454 
2305	 0.382917304288946 
2306	 0.382825448720177 
2307	 0.38272973157743 
2308	 0.382595397285194 
2309	 0.3824089592612 
2310	 0.382261235358914 
2311	 0.382109105737052 
2312	 0.381966184510699 
2313	 0.381842142178313 
2314	 0.381712138510152 
2315	 0.38158580596183 
2316	 0.381443735923364 
2317	 0.381276852256497 
2318	 0.381158186269728 
2319	 0.381037671745347 
2320	 0.380932656765021 
2321	 0.380918293958866 
2322	 0.38082128009575 
2323	 0.380702160737372 
2324	 0.380542116361135 
2325	 0.380270604484783 
2326	 0.380083284384787 
2327	 0.379893651417828 
2328	 0.379750108615217 
2329	 0.379665995061084 
2330	 0.379572651643264 
2331	 0.379465351230139 
2332	 0.379342565509902 
2333	 0.379198202706512 
2334	 0.37906679031959 
2335	 0.378900959946728 
2336	 0.378708836177444 
2337	 0.378555206808573 
2338	 0.378373822934038 
2339	 0.378152309791564 
2340	 0.377967426058998 
2341	 0.377791486627766 
2342	 0.37757781358749 
2343	 0.377338326887999 
2344	 0.377091528693584 
2345	 0.376846162374669 
2346	 0.376554055622207 
2347	 0.376288513852311 
2348	 0.376065424633194 
2349	 0.375797566633499 
2350	 0.375463340664128 
2351	 0.375185946240476 
2352	 0.374964884546323 
2353	 0.374678161221782 
2354	 0.374391145193051 
2355	 0.374106407688729 
2356	 0.373760820617824 
2357	 0.373427495886461 
2358	 0.373093623610612 
2359	 0.372779675754008 
2360	 0.372473659825368 
2361	 0.372193469495282 
2362	 0.371982605030777 
2363	 0.371694850961113 
2364	 0.371363457145404 
2365	 0.371026847213269 
2366	 0.370638761826827 
2367	 0.370288572372197 
2368	 0.369954405497956 
2369	 0.369613654691583 
2370	 0.369292950492982 
2371	 0.368953977796041 
2372	 0.368562060253409 
2373	 0.368146429761467 
2374	 0.367681287708606 
2375	 0.36722708024336 
2376	 0.366839575904988 
2377	 0.366441394111005 
2378	 0.366077222497275 
2379	 0.36572729040898 
2380	 0.365325478392204 
2381	 0.364971798040294 
2382	 0.36459978414219 
2383	 0.364211141707198 
2384	 0.363848477072818 
2385	 0.363428812352225 
2386	 0.363027205240997 
2387	 0.362597349476405 
2388	 0.362109151589883 
2389	 0.36170116469068 
2390	 0.361336335850684 
2391	 0.361004891918446 
2392	 0.360672492088958 
2393	 0.36030829342382 
2394	 0.35994200741768 
2395	 0.359563506020205 
2396	 0.359171136815582 
2397	 0.358749333435372 
2398	 0.358301214236973 
2399	 0.357821732476367 
2400	 0.357396468506917 
2401	 0.357028965524686 
2402	 0.356736252192606 
2403	 0.356443425751655 
2404	 0.356108286535887 
2405	 0.355821539247414 
2406	 0.3553154621753 
2407	 0.354759642669849 
2408	 0.354338790514323 
2409	 0.353854215141919 
2410	 0.353522696836825 
2411	 0.353193906151635 
2412	 0.352702039294078 
2413	 0.352218865539706 
2414	 0.351673352417579 
2415	 0.35119600906215 
2416	 0.350776274054682 
2417	 0.350434320152288 
2418	 0.350063943182379 
2419	 0.34974134786053 
2420	 0.349371127559008 
2421	 0.348971478002938 
2422	 0.348622763769998 
2423	 0.348313513820723 
2424	 0.347943536569737 
2425	 0.347572184711609 
2426	 0.347165448765986 
2427	 0.346697891569722 
2428	 0.346228505977024 
2429	 0.345757805879299 
2430	 0.345314711565963 
2431	 0.34484436732795 
2432	 0.344376037132084 
2433	 0.343938138656941 
2434	 0.343482164403328 
2435	 0.342968985335584 
2436	 0.342571886602295 
2437	 0.342258596181962 
2438	 0.341884449714057 
2439	 0.341542454537538 
2440	 0.341198201200046 
2441	 0.340837689686058 
2442	 0.340434620503714 
2443	 0.340014898229585 
2444	 0.339680658668988 
2445	 0.339347820230935 
2446	 0.338959090594913 
2447	 0.338675780620496 
2448	 0.33818324174819 
2449	 0.337493737337566 
2450	 0.336978845127216 
2451	 0.33641818545341 
2452	 0.335925786818667 
2453	 0.335542116419327 
2454	 0.335096937416371 
2455	 0.334650856799191 
2456	 0.334215467985436 
2457	 0.333773839500351 
2458	 0.333358198508747 
2459	 0.333000302391938 
2460	 0.332630444857899 
2461	 0.332175104282478 
2462	 0.331817897839168 
2463	 0.331566068809784 
2464	 0.331151916810815 
2465	 0.33073890415303 
2466	 0.330458721563534 
2467	 0.330100388120048 
2468	 0.32975457544717 
2469	 0.329562492077007 
2470	 0.329104387349893 
2471	 0.328722130202387 
2472	 0.32826759301628 
2473	 0.327894438275335 
2474	 0.327637523656224 
2475	 0.327103175404746 
2476	 0.326573799036996 
2477	 0.326214505529003 
2478	 0.325722123576896 
2479	 0.325486160639354 
2480	 0.32543623190783 
2481	 0.325019047819166 
2482	 0.324634946283913 
2483	 0.324347365335742 
2484	 0.32380031805186 
2485	 0.323413136568077 
2486	 0.323278830660308 
2487	 0.322981202356748 
2488	 0.322713157025399 
2489	 0.322548817321247 
2490	 0.322268312940917 
2491	 0.322063241644035 
2492	 0.321855411652759 
2493	 0.321604632018065 
2494	 0.321342370040237 
2495	 0.3210349108732 
2496	 0.320841384238265 
2497	 0.320726313450865 
2498	 0.320676831741836 
2499	 0.320436056834522 
2500	 0.320066753832397 
