Wavelength	MM600009.asd
350	 0.06849587903978 
351	 7.21884413082924E-02 
352	 6.86221989105681E-02 
353	 5.99891581663148E-02 
354	 6.71285582850136E-02 
355	 6.88496887731283E-02 
356	 6.60674023263301E-02 
357	 6.52742903841723E-02 
358	 7.16205932711095E-02 
359	 7.23335308624088E-02 
360	 6.85790411235058E-02 
361	 6.97395388961753E-02 
362	 6.78702502300162E-02 
363	 6.59501928257199E-02 
364	 6.67228578631278E-02 
365	 7.10748954286719E-02 
366	 7.15039408935232E-02 
367	 7.09175173075109E-02 
368	 7.36291689723634E-02 
369	 0.077794463878145 
370	 7.69492319393473E-02 
371	 7.34676842661953E-02 
372	 7.50706379928683E-02 
373	 0.077126379716383 
374	 7.86407897051074E-02 
375	 7.91666492971627E-02 
376	 7.82338952734449E-02 
377	 7.73727082543904E-02 
378	 7.81466557350399E-02 
379	 8.10086986434885E-02 
380	 8.25930036912319E-02 
381	 8.22436398963559E-02 
382	 8.20543416799245E-02 
383	 8.54449960531357E-02 
384	 8.64490965269352E-02 
385	 8.52727169395859E-02 
386	 0.083872406397107 
387	 0.085638498351195 
388	 8.77824334741893E-02 
389	 8.86477518312662E-02 
390	 0.087896690826999 
391	 8.93204615307946E-02 
392	 9.06971537782125E-02 
393	 9.14635192898789E-02 
394	 9.26275176313799E-02 
395	 9.31465343495616E-02 
396	 9.32584113437499E-02 
397	 9.34184432426148E-02 
398	 9.41114327506423E-02 
399	 9.46509630591281E-02 
400	 9.55019438925498E-02 
401	 9.71151542779093E-02 
402	 9.74714993448192E-02 
403	 9.79188180566694E-02 
404	 9.86106628146013E-02 
405	 9.83741351275836E-02 
406	 9.96166772621141E-02 
407	 0.100939581934589 
408	 0.101061239749325 
409	 0.100822164822052 
410	 0.100885812779409 
411	 0.101322856235389 
412	 0.101863688163598 
413	 0.102280824524116 
414	 0.102515475282239 
415	 0.10281034540646 
416	 0.103789557312933 
417	 0.103252888271515 
418	 0.102823107473631 
419	 0.103946938158108 
420	 0.104320328029117 
421	 0.104125554216663 
422	 0.10398920940736 
423	 0.10464235178639 
424	 0.104992803699112 
425	 0.104769889766723 
426	 0.104265834973382 
427	 0.10458785236257 
428	 0.10456385764901 
429	 0.104409036474818 
430	 0.104645503181719 
431	 0.10504171326157 
432	 0.105005945075623 
433	 0.104708962697028 
434	 0.105003817772933 
435	 0.105073062079409 
436	 0.105226158009165 
437	 0.105646354125202 
438	 0.105570427008577 
439	 0.105808394876699 
440	 0.106266799981723 
441	 0.106458436280756 
442	 0.10669449473896 
443	 0.106975544573384 
444	 0.107248363371676 
445	 0.107423283439036 
446	 0.107612761500517 
447	 0.107917633885402 
448	 0.108355295802419 
449	 0.108631437703206 
450	 0.10889684836458 
451	 0.109292118578005 
452	 0.109899750883634 
453	 0.110177795431139 
454	 0.110149361704386 
455	 0.110088590398362 
456	 0.110673254080404 
457	 0.110799933198384 
458	 0.110699053889935 
459	 0.111083227375571 
460	 0.111278510892083 
461	 0.111443478688779 
462	 0.11166094702585 
463	 0.111804254943965 
464	 0.111929305424838 
465	 0.112145218253189 
466	 0.112482794062914 
467	 0.112620050054774 
468	 0.112727238714708 
469	 0.112783004380764 
470	 0.11263484705161 
471	 0.11272224746492 
472	 0.112935496017 
473	 0.113136473065271 
474	 0.113369018137167 
475	 0.113546696484971 
476	 0.113625051377934 
477	 0.113617695958102 
478	 0.113761575771711 
479	 0.113944435234392 
480	 0.114076404428227 
481	 0.114142245709106 
482	 0.114253747218852 
483	 0.114439368295837 
484	 0.114668980787328 
485	 0.11481592261618 
486	 0.114835473518923 
487	 0.114805265841768 
488	 0.114888506596834 
489	 0.114925339361224 
490	 0.115053536310647 
491	 0.115344566325977 
492	 0.115629619829225 
493	 0.115629364443431 
494	 0.115508523913607 
495	 0.115606420451704 
496	 0.115742383355153 
497	 0.115796367339603 
498	 0.115810416444073 
499	 0.116064604688438 
500	 0.116154955978769 
501	 0.116164556887396 
502	 0.116261816529758 
503	 0.116301229682015 
504	 0.116366164436726 
505	 0.116459584172557 
506	 0.116510689890805 
507	 0.116627568797725 
508	 0.11674438536254 
509	 0.116793583334596 
510	 0.116778971209658 
511	 0.116831833555662 
512	 0.116964596844012 
513	 0.117115880191542 
514	 0.117229488446473 
515	 0.117280145561244 
516	 0.117306291816795 
517	 0.117448339576608 
518	 0.117563043921934 
519	 0.117602739852296 
520	 0.117584545923275 
521	 0.117668313063203 
522	 0.117789371317627 
523	 0.117879779829874 
524	 0.117886612396853 
525	 0.118004025921926 
526	 0.118105359202158 
527	 0.118092165523972 
528	 0.118204349194329 
529	 0.118207008164761 
530	 0.118194532938997 
531	 0.11842996027234 
532	 0.118416249166307 
533	 0.118408454199212 
534	 0.118571432811562 
535	 0.118673121323715 
536	 0.118671391224483 
537	 0.118654056558912 
538	 0.118741649414117 
539	 0.118832867413605 
540	 0.118887555662073 
541	 0.118920975825696 
542	 0.119013552933104 
543	 0.119107977457482 
544	 0.119174393638124 
545	 0.11920285761218 
546	 0.119223547051652 
547	 0.119284775496434 
548	 0.119366760948353 
549	 0.119396923115854 
550	 0.11943704654654 
551	 0.119513434433089 
552	 0.119620776746287 
553	 0.1196888884047 
554	 0.119783847724989 
555	 0.119886920705083 
556	 0.119946084045654 
557	 0.120039618905707 
558	 0.120140573600678 
559	 0.120226002775366 
560	 0.120305917669726 
561	 0.120304933731063 
562	 0.120291154798355 
563	 0.120356226117366 
564	 0.120420878068885 
565	 0.120456935362901 
566	 0.120469141786453 
567	 0.120495616616519 
568	 0.120619517230499 
569	 0.120783677193435 
570	 0.120932168068589 
571	 0.121156106545667 
572	 0.121300713998188 
573	 0.121381684096967 
574	 0.121525739745732 
575	 0.121584173535586 
576	 0.121669748179536 
577	 0.121813025185079 
578	 0.12176104486699 
579	 0.121763592713859 
580	 0.121833646300666 
581	 0.121894768352758 
582	 0.121993031496698 
583	 0.122175083913524 
584	 0.122392562690416 
585	 0.122460857819232 
586	 0.122611412110743 
587	 0.122711145607887 
588	 0.122618270440478 
589	 0.122620092072401 
590	 0.122685140497114 
591	 0.122776889268269 
592	 0.122864695940314 
593	 0.122948911026845 
594	 0.123040668620479 
595	 0.123147132199447 
596	 0.123262364174027 
597	 0.123348044511033 
598	 0.123417621736662 
599	 0.123508451951777 
600	 0.123584811571523 
601	 0.123659943854061 
602	 0.123733077914082 
603	 0.123767899750078 
604	 0.123782905809883 
605	 0.123844877601453 
606	 0.123990490251543 
607	 0.123995851165086 
608	 0.124009787379714 
609	 0.124100372268977 
610	 0.124217264135852 
611	 0.12427730822723 
612	 0.124370544018592 
613	 0.124549982301208 
614	 0.124598540770968 
615	 0.124581516138038 
616	 0.124595170829336 
617	 0.124735649809617 
618	 0.124823537155937 
619	 0.124870597521516 
620	 0.124911848857391 
621	 0.124964083423655 
622	 0.125028966666983 
623	 0.125077536156535 
624	 0.125088212629406 
625	 0.125185114274348 
626	 0.12525399466505 
627	 0.125269104314789 
628	 0.125345339496171 
629	 0.125416505206192 
630	 0.125460697602248 
631	 0.125473273932068 
632	 0.125462758069939 
633	 0.125490292402943 
634	 0.12554880138401 
635	 0.125578638772489 
636	 0.125642233391037 
637	 0.125698510328973 
638	 0.125717254954856 
639	 0.125732926504706 
640	 0.125772236378076 
641	 0.125833618563616 
642	 0.12589832074497 
643	 0.125950555152966 
644	 0.125987802292622 
645	 0.126022929795435 
646	 0.126088413511057 
647	 0.126153389350993 
648	 0.12619134052509 
649	 0.126195605789238 
650	 0.126227339025995 
651	 0.126296780299605 
652	 0.126373270425637 
653	 0.126398735531309 
654	 0.126463333377545 
655	 0.126502434883317 
656	 0.126485838668878 
657	 0.126538426675723 
658	 0.12660806104519 
659	 0.126664791935607 
660	 0.126691300246723 
661	 0.126695748090819 
662	 0.126750910126358 
663	 0.126846166118362 
664	 0.126842489113645 
665	 0.126865629516287 
666	 0.126922999329849 
667	 0.126983638634322 
668	 0.127010033370391 
669	 0.127015168098324 
670	 0.127036556865043 
671	 0.127122482021711 
672	 0.127185866066351 
673	 0.127211997960142 
674	 0.127217578964355 
675	 0.12725990753285 
676	 0.127295156143688 
677	 0.127344082764075 
678	 0.127432625836493 
679	 0.127418078200373 
680	 0.127448839901143 
681	 0.127559975307392 
682	 0.127608933753376 
683	 0.127622750124771 
684	 0.127643131684886 
685	 0.127700358493448 
686	 0.127759647127969 
687	 0.127821794301053 
688	 0.127883917978827 
689	 0.127937582924219 
690	 0.127936071695568 
691	 0.127937944153202 
692	 0.127989660564445 
693	 0.128093926139336 
694	 0.128120320237266 
695	 0.128117669424984 
696	 0.12817761070346 
697	 0.128210283847623 
698	 0.128272682643215 
699	 0.128352493203959 
700	 0.128361324913547 
701	 0.128396179240152 
702	 0.12845366954647 
703	 0.128509245098424 
704	 0.12854349115944 
705	 0.128560313293714 
706	 0.128605948764844 
707	 0.128724512909654 
708	 0.128759962096282 
709	 0.128761421767043 
710	 0.12877552139184 
711	 0.128811003991879 
712	 0.128880348046824 
713	 0.128951768085603 
714	 0.129000181685998 
715	 0.129081894452747 
716	 0.129126038507557 
717	 0.12913427935906 
718	 0.129163467266265 
719	 0.129238567786337 
720	 0.129293714778175 
721	 0.129302920633155 
722	 0.129338926543638 
723	 0.129424121778203 
724	 0.129505015562754 
725	 0.1295198885206 
726	 0.129515872696436 
727	 0.129540641514101 
728	 0.129599738683478 
729	 0.129657570360495 
730	 0.129670646499542 
731	 0.129674669611367 
732	 0.12970839025449 
733	 0.129787496187433 
734	 0.129826152787452 
735	 0.129829537882846 
736	 0.129843666689409 
737	 0.129892808062306 
738	 0.129950658909997 
739	 0.129990778588311 
740	 0.12999393654239 
741	 0.130018259175687 
742	 0.130054937674469 
743	 0.130086164021403 
744	 0.130112825651693 
745	 0.130136994113556 
746	 0.130165741906554 
747	 0.130206410573735 
748	 0.130255037779484 
749	 0.130280766985335 
750	 0.130283650043786 
751	 0.130302735537372 
752	 0.130326602008156 
753	 0.130336157858995 
754	 0.130329859177335 
755	 0.130364474391836 
756	 0.130397135203904 
757	 0.130414392868574 
758	 0.130422231540627 
759	 0.130446254159045 
760	 0.130469580138801 
761	 0.130483957824932 
762	 0.130497243948962 
763	 0.13050341704842 
764	 0.130511559887621 
765	 0.130527747943398 
766	 0.130537337848609 
767	 0.130566740904812 
768	 0.130593431520918 
769	 0.130580975426795 
770	 0.130583420786723 
771	 0.13059291908308 
772	 0.130608120450452 
773	 0.130641251139118 
774	 0.130658646602462 
775	 0.130675693198483 
776	 0.130701233553814 
777	 0.130692248664857 
778	 0.130689722654033 
779	 0.130701812015579 
780	 0.130721368985102 
781	 0.130753629298005 
782	 0.130766952491499 
783	 0.130759911027562 
784	 0.130764608281514 
785	 0.130767674945005 
786	 0.130776755530409 
787	 0.130793001779053 
788	 0.130791744554585 
789	 0.13080843706924 
790	 0.130831264154125 
791	 0.130834242137477 
792	 0.130817327752779 
793	 0.130822099929643 
794	 0.130857149211007 
795	 0.130897935917174 
796	 0.13091464651665 
797	 0.130911887231354 
798	 0.13090458868401 
799	 0.130913442513079 
800	 0.130925693887603 
801	 0.130939803225911 
802	 0.130958774395149 
803	 0.130992020622596 
804	 0.131019017529258 
805	 0.131031372069521 
806	 0.131030608924623 
807	 0.131021979310167 
808	 0.131008869499288 
809	 0.131014361292904 
810	 0.131083766622927 
811	 0.131120526011212 
812	 0.131126649736085 
813	 0.131124095265142 
814	 0.131118077932472 
815	 0.13111885049697 
816	 0.131138035782392 
817	 0.131179733060795 
818	 0.131215784682491 
819	 0.13123501012437 
820	 0.131243354466581 
821	 0.131258579795191 
822	 0.131262408675999 
823	 0.131273800766138 
824	 0.131297971064848 
825	 0.131308943458535 
826	 0.131337653790678 
827	 0.131375275487611 
828	 0.131402703524833 
829	 0.131408062606752 
830	 0.131377576178658 
831	 0.131374133334145 
832	 0.131464709683317 
833	 0.131509746507983 
834	 0.131514298288613 
835	 0.131501374807314 
836	 0.13149993096464 
837	 0.13151226504567 
838	 0.13153977477534 
839	 0.131585865735861 
840	 0.131660634315345 
841	 0.13169457871349 
842	 0.131687860291421 
843	 0.131673775566246 
844	 0.131721380478297 
845	 0.13171498403807 
846	 0.131692079568388 
847	 0.131735778591057 
848	 0.131732285363882 
849	 0.131782385541527 
850	 0.131871470041005 
851	 0.131890560833591 
852	 0.131943197220616 
853	 0.131973204893352 
854	 0.131967960765701 
855	 0.132006534008502 
856	 0.132027206514921 
857	 0.132042914955291 
858	 0.132068607110812 
859	 0.132078980422649 
860	 0.13209337626383 
861	 0.132113418000119 
862	 0.132140763042816 
863	 0.13220741567223 
864	 0.132262644216874 
865	 0.132292872383723 
866	 0.132309742151553 
867	 0.132306320878968 
868	 0.132291293097239 
869	 0.132290637683561 
870	 0.132339885217474 
871	 0.132400380582703 
872	 0.132418863969062 
873	 0.132411867557839 
874	 0.132504752274654 
875	 0.132584674300046 
876	 0.132590838791318 
877	 0.13253331060194 
878	 0.132563435891061 
879	 0.132598559914449 
880	 0.1326398383007 
881	 0.132698080424555 
882	 0.132707985487714 
883	 0.132726719072662 
884	 0.132767411098599 
885	 0.132814613485447 
886	 0.132861957642678 
887	 0.132889325546226 
888	 0.132893549925638 
889	 0.132892090676329 
890	 0.132943050465832 
891	 0.132987184625452 
892	 0.133011391610141 
893	 0.133074398216495 
894	 0.133090119284 
895	 0.133094452873502 
896	 0.13312612348986 
897	 0.133183512341248 
898	 0.133253578267326 
899	 0.133284808574359 
900	 0.13326838409383 
901	 0.133331933472063 
902	 0.13336043297022 
903	 0.133367721532516 
904	 0.133398877007736 
905	 0.133437980758707 
906	 0.13348306454711 
907	 0.133517602493317 
908	 0.133539190339693 
909	 0.133653954901738 
910	 0.133697869880809 
911	 0.133663387411682 
912	 0.133658120110572 
913	 0.133726131898987 
914	 0.133800929542687 
915	 0.133845744849345 
916	 0.133868811131832 
917	 0.13391992583696 
918	 0.134001341563557 
919	 0.13406764277152 
920	 0.134043248109911 
921	 0.134069453119359 
922	 0.134140714624975 
923	 0.134221456468008 
924	 0.134274741336156 
925	 0.134284449602442 
926	 0.134290259110272 
927	 0.134326523742856 
928	 0.134391774630897 
929	 0.134461984893123 
930	 0.134510922620239 
931	 0.134541443590192 
932	 0.134620120925397 
933	 0.134676675620174 
934	 0.13470110171104 
935	 0.134711831552096 
936	 0.134748141305021 
937	 0.134804845317001 
938	 0.134857280768594 
939	 0.134888600331498 
940	 0.134929070682686 
941	 0.135016855355445 
942	 0.135112528136895 
943	 0.135158991230039 
944	 0.135163485656831 
945	 0.135190598951308 
946	 0.13522639583564 
947	 0.135245861023773 
948	 0.135364333142736 
949	 0.135382587311831 
950	 0.135372286753269 
951	 0.135489462055108 
952	 0.135538561236019 
953	 0.135579166022469 
954	 0.13562375639916 
955	 0.135666088395748 
956	 0.135779003457625 
957	 0.135882526904509 
958	 0.13592814975573 
959	 0.135914204547734 
960	 0.135917442491086 
961	 0.135984625932287 
962	 0.136061903551177 
963	 0.136069204752379 
964	 0.136166728960604 
965	 0.136266935560449 
966	 0.136329007678494 
967	 0.13636336218609 
968	 0.136395264864835 
969	 0.136433525419944 
970	 0.136512780499779 
971	 0.13664187998994 
972	 0.13658381249996 
973	 0.136576163971844 
974	 0.136624938317433 
975	 0.136606339281407 
976	 0.136762493200749 
977	 0.136940150782324 
978	 0.137026733623592 
979	 0.136999564343581 
980	 0.137018773170832 
981	 0.13707843211955 
982	 0.137130330649421 
983	 0.137133089185394 
984	 0.137183791158059 
985	 0.137282473956274 
986	 0.137314615769532 
987	 0.137202605150593 
988	 0.137326554717693 
989	 0.137502189722303 
990	 0.137572829093749 
991	 0.137494760934415 
992	 0.137541280228997 
993	 0.137573773340296 
994	 0.1376643518187 
995	 0.137886939533853 
996	 0.137932863474017 
997	 0.137872735512072 
998	 0.137881483295899 
999	 0.138078278147003 
1000	 0.138265812490019 
1001	 0.138392485179899 
1002	 0.138454833171754 
1003	 0.138549672750603 
1004	 0.138613192184751 
1005	 0.138666635537753 
1006	 0.13870128676811 
1007	 0.138713406724295 
1008	 0.138726718212372 
1009	 0.138730928820887 
1010	 0.138744755790333 
1011	 0.138752398773669 
1012	 0.138765944431389 
1013	 0.138852361206998 
1014	 0.138934455714384 
1015	 0.138975932247261 
1016	 0.139046534959075 
1017	 0.139107590489742 
1018	 0.139138634163641 
1019	 0.139192345376123 
1020	 0.139293456194309 
1021	 0.139347557733177 
1022	 0.139413766989781 
1023	 0.139433043174622 
1024	 0.139410997624441 
1025	 0.139439778712464 
1026	 0.139417601985086 
1027	 0.139396862703359 
1028	 0.139441453727524 
1029	 0.139474552918121 
1030	 0.139498005794456 
1031	 0.139526647012237 
1032	 0.139561728545436 
1033	 0.139594114855123 
1034	 0.139632764788281 
1035	 0.139699624711992 
1036	 0.139741140692563 
1037	 0.139735703549398 
1038	 0.139781507354025 
1039	 0.139793452335787 
1040	 0.139820525297527 
1041	 0.139891694842185 
1042	 0.1398844416496 
1043	 0.139910837257153 
1044	 0.13996398022813 
1045	 0.140044904072455 
1046	 0.140134978955547 
1047	 0.140229429402145 
1048	 0.140249772954539 
1049	 0.140313080899562 
1050	 0.140422620276562 
1051	 0.140508192094946 
1052	 0.140631475910933 
1053	 0.140713000707388 
1054	 0.140707847966053 
1055	 0.140745534882989 
1056	 0.140826765266716 
1057	 0.140881816630176 
1058	 0.140970506188109 
1059	 0.141010539382128 
1060	 0.141016298458337 
1061	 0.140989253204898 
1062	 0.141000492961811 
1063	 0.141047262753594 
1064	 0.141068444443916 
1065	 0.141119909615822 
1066	 0.141179199306944 
1067	 0.141189123363915 
1068	 0.141200871048058 
1069	 0.141164719431787 
1070	 0.141165818623673 
1071	 0.141154476769702 
1072	 0.14116899149441 
1073	 0.141255345330333 
1074	 0.141280888428813 
1075	 0.141282149370234 
1076	 0.141257681501345 
1077	 0.141229025387398 
1078	 0.141150355369425 
1079	 0.141116245233373 
1080	 0.141077113725036 
1081	 0.141039520102938 
1082	 0.141049756493497 
1083	 0.141031281177848 
1084	 0.141001025506063 
1085	 0.14099211854596 
1086	 0.140980158934852 
1087	 0.1409753739702 
1088	 0.140990208412788 
1089	 0.141011216245536 
1090	 0.140996091545116 
1091	 0.140961061356699 
1092	 0.140928357484563 
1093	 0.140887287587492 
1094	 0.140884195669417 
1095	 0.140909139847488 
1096	 0.140951533914487 
1097	 0.140998016508895 
1098	 0.141013597755073 
1099	 0.140993895635592 
1100	 0.141016452738705 
1101	 0.141038733357322 
1102	 0.141062079170665 
1103	 0.141112976356621 
1104	 0.141156268672556 
1105	 0.141161756309289 
1106	 0.141176964059546 
1107	 0.141205923998903 
1108	 0.141222699090031 
1109	 0.141249678856923 
1110	 0.141283316986571 
1111	 0.141317110024123 
1112	 0.141337974243526 
1113	 0.141394125296824 
1114	 0.141476486071451 
1115	 0.141551317435542 
1116	 0.141658129192556 
1117	 0.141730887847253 
1118	 0.141790349834595 
1119	 0.141827475655927 
1120	 0.141871619890363 
1121	 0.141925112508154 
1122	 0.142012381991768 
1123	 0.142100285649534 
1124	 0.142170945029506 
1125	 0.142244629305142 
1126	 0.142313909182629 
1127	 0.142357287227466 
1128	 0.142424611716652 
1129	 0.142513688337025 
1130	 0.142584573935975 
1131	 0.142659582621526 
1132	 0.142722782858267 
1133	 0.142771420165498 
1134	 0.142818644567995 
1135	 0.142843306880346 
1136	 0.142899909088877 
1137	 0.142964463409475 
1138	 0.143025312748662 
1139	 0.143087305459597 
1140	 0.143163846289524 
1141	 0.143224684845072 
1142	 0.143275060242614 
1143	 0.143326324469169 
1144	 0.143383764459972 
1145	 0.143425027819164 
1146	 0.143446767982923 
1147	 0.143482999921457 
1148	 0.143520837822012 
1149	 0.143554159083448 
1150	 0.143592320494924 
1151	 0.143624904454075 
1152	 0.143657300727485 
1153	 0.143703743859271 
1154	 0.143746008988085 
1155	 0.143800702092 
1156	 0.143840026737111 
1157	 0.143874261867348 
1158	 0.143900177652507 
1159	 0.143915189238198 
1160	 0.143940535395723 
1161	 0.143959885615657 
1162	 0.143983833410684 
1163	 0.144016704908848 
1164	 0.144046563806009 
1165	 0.144076285971896 
1166	 0.144107802291896 
1167	 0.144132454405504 
1168	 0.14414694936211 
1169	 0.144165460127743 
1170	 0.144178546937134 
1171	 0.144190868288255 
1172	 0.144195072679207 
1173	 0.144219249478359 
1174	 0.144253434820886 
1175	 0.144279704757796 
1176	 0.144326081230127 
1177	 0.144351401773263 
1178	 0.144347270540586 
1179	 0.144361602827905 
1180	 0.144379761645853 
1181	 0.144400159589146 
1182	 0.144428009081857 
1183	 0.144457055508193 
1184	 0.144485370762745 
1185	 0.144517037959641 
1186	 0.144537463540547 
1187	 0.144558923832384 
1188	 0.144570096782315 
1189	 0.144561998586374 
1190	 0.144569258313417 
1191	 0.144581547000846 
1192	 0.144588569429701 
1193	 0.144593342001619 
1194	 0.144607200266294 
1195	 0.144619956396946 
1196	 0.144636777414876 
1197	 0.144664791182946 
1198	 0.144690978785603 
1199	 0.144717369045128 
1200	 0.144744250446743 
1201	 0.144765919293881 
1202	 0.144789756365579 
1203	 0.144806905852433 
1204	 0.144810769491644 
1205	 0.144829303681787 
1206	 0.144855257003398 
1207	 0.144874434875338 
1208	 0.144894817769958 
1209	 0.144917786473703 
1210	 0.144941216747895 
1211	 0.144959161898089 
1212	 0.144978424162329 
1213	 0.144997061455845 
1214	 0.145012951273169 
1215	 0.145022776801071 
1216	 0.145030141239147 
1217	 0.145036289147508 
1218	 0.145047168157378 
1219	 0.145052069300505 
1220	 0.145062841133865 
1221	 0.14507816959925 
1222	 0.145100708795694 
1223	 0.145126222726293 
1224	 0.145152128015076 
1225	 0.145198267739222 
1226	 0.14522134608824 
1227	 0.145224850126387 
1228	 0.145238880787156 
1229	 0.145255216421303 
1230	 0.14526142615708 
1231	 0.145251402915989 
1232	 0.145263704156152 
1233	 0.145282342920204 
1234	 0.145296299017831 
1235	 0.145322750330219 
1236	 0.14538058605143 
1237	 0.1454072822646 
1238	 0.14542305415051 
1239	 0.145434873087974 
1240	 0.145428001865263 
1241	 0.145440889683861 
1242	 0.145462623250097 
1243	 0.145474892330914 
1244	 0.145490271917881 
1245	 0.145507344589611 
1246	 0.145511535427042 
1247	 0.145526841100484 
1248	 0.145556861015519 
1249	 0.14558789603084 
1250	 0.145600757788653 
1251	 0.145608656324114 
1252	 0.145621678600366 
1253	 0.145624814775544 
1254	 0.145637751515506 
1255	 0.145664528710216 
1256	 0.14567664265425 
1257	 0.145679387286868 
1258	 0.145691284183342 
1259	 0.145703835942637 
1260	 0.145714583477341 
1261	 0.145731308228241 
1262	 0.145741767994356 
1263	 0.145747160327478 
1264	 0.145750932729558 
1265	 0.145751866735843 
1266	 0.145752621901551 
1267	 0.145740875211935 
1268	 0.14574457518556 
1269	 0.145754366911102 
1270	 0.145773238903601 
1271	 0.145785770151308 
1272	 0.145797784292729 
1273	 0.145824089683298 
1274	 0.145847619486951 
1275	 0.145885959212229 
1276	 0.145948541176331 
1277	 0.146004775489299 
1278	 0.146069093332991 
1279	 0.146121889518947 
1280	 0.14617417882648 
1281	 0.146222035341141 
1282	 0.146253505571924 
1283	 0.146296419206899 
1284	 0.146347238125117 
1285	 0.146394518200261 
1286	 0.146446931849365 
1287	 0.146502204208981 
1288	 0.146529011720692 
1289	 0.146545133736101 
1290	 0.146552384750837 
1291	 0.146532237267928 
1292	 0.146523049568911 
1293	 0.146514307486669 
1294	 0.146502790504385 
1295	 0.146495018588267 
1296	 0.146472325965095 
1297	 0.146446898243752 
1298	 0.146406775726743 
1299	 0.146337368810334 
1300	 0.146285943835769 
1301	 0.146238129290732 
1302	 0.146187844597942 
1303	 0.146143428241662 
1304	 0.146098887624184 
1305	 0.146041967514578 
1306	 0.145973144428982 
1307	 0.145928625723483 
1308	 0.145889996287806 
1309	 0.145842486460659 
1310	 0.145807850700522 
1311	 0.145758540534823 
1312	 0.145685558440411 
1313	 0.145637138167177 
1314	 0.145595107661839 
1315	 0.145556699498974 
1316	 0.145528545657873 
1317	 0.145502932011732 
1318	 0.145473025041692 
1319	 0.145459584932449 
1320	 0.145465497804923 
1321	 0.145460062561413 
1322	 0.145451049742108 
1323	 0.145463658977812 
1324	 0.145448398896601 
1325	 0.14543665225284 
1326	 0.145451745190648 
1327	 0.145455820755129 
1328	 0.145463749781031 
1329	 0.145485938683403 
1330	 0.145509525481977 
1331	 0.145525779979269 
1332	 0.145562903124087 
1333	 0.145626735453803 
1334	 0.145667714760167 
1335	 0.145701833218639 
1336	 0.145742821819742 
1337	 0.145776807398023 
1338	 0.14581756634471 
1339	 0.14586649640777 
1340	 0.145917172336649 
1341	 0.145972735614662 
1342	 0.14602502174099 
1343	 0.146076661385846 
1344	 0.146135512987186 
1345	 0.146192955366653 
1346	 0.146226048663673 
1347	 0.146272152957187 
1348	 0.14632282798801 
1349	 0.146357965592394 
1350	 0.14641044105735 
1351	 0.146466487149611 
1352	 0.146529082022134 
1353	 0.14658237938641 
1354	 0.146645309937172 
1355	 0.146692369292553 
1356	 0.146727232680686 
1357	 0.146760326965494 
1358	 0.146775914483477 
1359	 0.146816191041458 
1360	 0.146863818175458 
1361	 0.146908389997153 
1362	 0.146973227952965 
1363	 0.147026120851495 
1364	 0.147070282009516 
1365	 0.147112878342447 
1366	 0.147155794041943 
1367	 0.147194356926401 
1368	 0.147224817139225 
1369	 0.147234769306958 
1370	 0.147257060167483 
1371	 0.147284747355763 
1372	 0.147300345520009 
1373	 0.147318626534206 
1374	 0.147336105506795 
1375	 0.147350949224022 
1376	 0.147356632026713 
1377	 0.147367810347687 
1378	 0.147361294830162 
1379	 0.147336559646896 
1380	 0.14730859247286 
1381	 0.147274043730976 
1382	 0.147238693153816 
1383	 0.147201475620436 
1384	 0.147151124587933 
1385	 0.147093524970193 
1386	 0.14702934744817 
1387	 0.146948981429275 
1388	 0.146873820646707 
1389	 0.146810347553855 
1390	 0.146722342934342 
1391	 0.146624311597989 
1392	 0.146520972730199 
1393	 0.146387343808679 
1394	 0.146251779447752 
1395	 0.146109126424917 
1396	 0.145957413607246 
1397	 0.145817659175989 
1398	 0.145686943672884 
1399	 0.145538583835641 
1400	 0.145388203642396 
1401	 0.145236173544404 
1402	 0.145062569564808 
1403	 0.144912810897352 
1404	 0.144773172128706 
1405	 0.144638921935624 
1406	 0.144520288365935 
1407	 0.144391742460982 
1408	 0.144257285775362 
1409	 0.144140319329086 
1410	 0.144014728518016 
1411	 0.143914425386199 
1412	 0.143837039145645 
1413	 0.143768184545947 
1414	 0.143704949513301 
1415	 0.143654913113629 
1416	 0.143614755693282 
1417	 0.143561765008294 
1418	 0.143520506784475 
1419	 0.143492343136734 
1420	 0.143443082334291 
1421	 0.143419718837347 
1422	 0.143409375797108 
1423	 0.143373379522767 
1424	 0.143355956989768 
1425	 0.143357586427183 
1426	 0.143342170534575 
1427	 0.143321749042535 
1428	 0.143308490992577 
1429	 0.143281706510106 
1430	 0.143280462328569 
1431	 0.143303969073994 
1432	 0.143305358851539 
1433	 0.143310809877933 
1434	 0.143314357839724 
1435	 0.143297105273662 
1436	 0.143298153600935 
1437	 0.14331931263072 
1438	 0.143328916724904 
1439	 0.143339059307458 
1440	 0.143342600247883 
1441	 0.14334339411835 
1442	 0.143352198958341 
1443	 0.143359614102829 
1444	 0.14337684352845 
1445	 0.143405933026566 
1446	 0.143427280429077 
1447	 0.143446127535453 
1448	 0.143465706897311 
1449	 0.143479186917247 
1450	 0.143480651713414 
1451	 0.143493943973591 
1452	 0.143512523972729 
1453	 0.143533752142227 
1454	 0.143561790212782 
1455	 0.14358391501986 
1456	 0.143606383069212 
1457	 0.143627823380964 
1458	 0.143643386394382 
1459	 0.143666880561742 
1460	 0.143690765143597 
1461	 0.143721517685042 
1462	 0.143762409044588 
1463	 0.143795628168672 
1464	 0.143829043324374 
1465	 0.143867322470382 
1466	 0.143898922317683 
1467	 0.143940678570313 
1468	 0.143995603515047 
1469	 0.14404407328562 
1470	 0.14409578140431 
1471	 0.144145716168729 
1472	 0.14417781150339 
1473	 0.144222675476291 
1474	 0.144261889480835 
1475	 0.144293026207751 
1476	 0.144347870338233 
1477	 0.144402391829974 
1478	 0.14446142754264 
1479	 0.144537970485346 
1480	 0.144608189404143 
1481	 0.144668800347076 
1482	 0.144724346694564 
1483	 0.144771221590122 
1484	 0.144826299944302 
1485	 0.144876817965806 
1486	 0.144933923109321 
1487	 0.144996309406773 
1488	 0.14505911707966 
1489	 0.14513017037409 
1490	 0.145189588790978 
1491	 0.145246834541229 
1492	 0.145304069493654 
1493	 0.145348763211481 
1494	 0.145398171198169 
1495	 0.14545346993569 
1496	 0.145508749103313 
1497	 0.145564721906037 
1498	 0.145618702383628 
1499	 0.145675001873692 
1500	 0.145727062899733 
1501	 0.145771041780625 
1502	 0.145819753067918 
1503	 0.14586799242537 
1504	 0.145922831457795 
1505	 0.145971154404922 
1506	 0.146025724450698 
1507	 0.146090954673454 
1508	 0.146136592285787 
1509	 0.146175978552242 
1510	 0.146225549348805 
1511	 0.146275990952027 
1512	 0.146325048183967 
1513	 0.146378096162585 
1514	 0.146436624918393 
1515	 0.146480768390543 
1516	 0.146521843056811 
1517	 0.14656744978335 
1518	 0.146620232568968 
1519	 0.14665719614944 
1520	 0.146686873060405 
1521	 0.146715485321678 
1522	 0.14673287480483 
1523	 0.146762380164278 
1524	 0.146799323115481 
1525	 0.146832907860035 
1526	 0.146866376762877 
1527	 0.146899316610172 
1528	 0.146930685458074 
1529	 0.146960505664861 
1530	 0.146989715919229 
1531	 0.147024344298998 
1532	 0.147062671247343 
1533	 0.147095207653223 
1534	 0.147132391149031 
1535	 0.147161369260013 
1536	 0.147175294501663 
1537	 0.14719922278409 
1538	 0.147231109234779 
1539	 0.14725463881655 
1540	 0.147277291882205 
1541	 0.147297822441572 
1542	 0.147302522008659 
1543	 0.147323657123517 
1544	 0.147365096360392 
1545	 0.147389998989571 
1546	 0.147412438564926 
1547	 0.147432992816171 
1548	 0.147456707075996 
1549	 0.147468227257407 
1550	 0.147487875186773 
1551	 0.147525144980647 
1552	 0.147560457833433 
1553	 0.147574045403889 
1554	 0.147591971332712 
1555	 0.147612587791737 
1556	 0.147614870455596 
1557	 0.147632909502693 
1558	 0.147653509459165 
1559	 0.147667899035243 
1560	 0.147685866170223 
1561	 0.147698375656149 
1562	 0.147726797361141 
1563	 0.147769366019371 
1564	 0.147791593465411 
1565	 0.147808453608382 
1566	 0.147838189495237 
1567	 0.147866434885294 
1568	 0.14789053077372 
1569	 0.147932487855051 
1570	 0.147950088911828 
1571	 0.147939899451406 
1572	 0.147946766724249 
1573	 0.147951142592206 
1574	 0.147965709515283 
1575	 0.147982512702895 
1576	 0.148010808086656 
1577	 0.148063030989819 
1578	 0.148089422871563 
1579	 0.14811583199426 
1580	 0.148132282589544 
1581	 0.148126851791235 
1582	 0.148128995949243 
1583	 0.148131890717051 
1584	 0.148129075792646 
1585	 0.14811333113133 
1586	 0.148116665051534 
1587	 0.148125109835114 
1588	 0.148140733383215 
1589	 0.148185759258034 
1590	 0.148198793277794 
1591	 0.148185614407911 
1592	 0.148197144000464 
1593	 0.148201954221101 
1594	 0.148216212838813 
1595	 0.148264806355893 
1596	 0.148289148855843 
1597	 0.148294995391642 
1598	 0.148311303910666 
1599	 0.148323660479699 
1600	 0.148336729481167 
1601	 0.148359929794383 
1602	 0.148374366731494 
1603	 0.14837889204523 
1604	 0.14838954378607 
1605	 0.148400336897772 
1606	 0.148409397850668 
1607	 0.14841832098376 
1608	 0.148432347570408 
1609	 0.1484401609079 
1610	 0.148448716326812 
1611	 0.148470622617634 
1612	 0.148490757555261 
1613	 0.14849421492552 
1614	 0.148509826446332 
1615	 0.148517805563816 
1616	 0.148522140779266 
1617	 0.148545944455815 
1618	 0.148562040709887 
1619	 0.148576043005904 
1620	 0.148592780416908 
1621	 0.148602968401566 
1622	 0.148610766849383 
1623	 0.148615892315135 
1624	 0.148613726491318 
1625	 0.148621406348034 
1626	 0.148631819112717 
1627	 0.14864112162793 
1628	 0.14864957498522 
1629	 0.148672008799182 
1630	 0.148701283768866 
1631	 0.148723320809881 
1632	 0.148758618427276 
1633	 0.148775949685548 
1634	 0.148781929312927 
1635	 0.148782196064036 
1636	 0.148772898078352 
1637	 0.148770251325882 
1638	 0.148753167754925 
1639	 0.148760446719862 
1640	 0.148782256457576 
1641	 0.14880737865018 
1642	 0.148851984437122 
1643	 0.148872536709908 
1644	 0.148892097570616 
1645	 0.148899761575546 
1646	 0.148881144112059 
1647	 0.148889054917064 
1648	 0.148909550684736 
1649	 0.148915874218718 
1650	 0.148931508210073 
1651	 0.148929518172479 
1652	 0.148899489015947 
1653	 0.148898392721309 
1654	 0.148907979028193 
1655	 0.148911183852787 
1656	 0.148923274832679 
1657	 0.148932489442377 
1658	 0.148937860970613 
1659	 0.148939745258184 
1660	 0.148944376093763 
1661	 0.148946885449389 
1662	 0.148936866630318 
1663	 0.148939945839127 
1664	 0.148956911918991 
1665	 0.148961251713091 
1666	 0.148962783620148 
1667	 0.148964146784854 
1668	 0.148957603230222 
1669	 0.148958508837087 
1670	 0.148961175179333 
1671	 0.148969459264537 
1672	 0.148979985426463 
1673	 0.148996937994149 
1674	 0.149031266466946 
1675	 0.149043067807901 
1676	 0.149053610519355 
1677	 0.149050273528608 
1678	 0.149016491822014 
1679	 0.149010417149394 
1680	 0.149007219452174 
1681	 0.149013036324704 
1682	 0.149041661805353 
1683	 0.149053153913485 
1684	 0.149054773964702 
1685	 0.149070623389472 
1686	 0.149090987804833 
1687	 0.149105963840895 
1688	 0.149134987696621 
1689	 0.149143766573501 
1690	 0.14913236087148 
1691	 0.149131881759336 
1692	 0.149122698489982 
1693	 0.149128462220123 
1694	 0.149148709448221 
1695	 0.149160001641121 
1696	 0.149175309326623 
1697	 0.1491881986003 
1698	 0.149190157118529 
1699	 0.149202573796291 
1700	 0.149232227789593 
1701	 0.149238789815003 
1702	 0.149242214397228 
1703	 0.149233738782066 
1704	 0.149192332675806 
1705	 0.149183602328749 
1706	 0.149186262195543 
1707	 0.149188814344066 
1708	 0.14921040664203 
1709	 0.149217971943686 
1710	 0.149212595209352 
1711	 0.149222026609414 
1712	 0.149238744100189 
1713	 0.149248451964657 
1714	 0.149256363799926 
1715	 0.14927360463482 
1716	 0.149292932052207 
1717	 0.149313584143086 
1718	 0.149356659194595 
1719	 0.14936449352403 
1720	 0.149350679034095 
1721	 0.149340534462018 
1722	 0.149312333646861 
1723	 0.149295111688768 
1724	 0.149282170788827 
1725	 0.149266272257208 
1726	 0.149249080432908 
1727	 0.14923503899746 
1728	 0.149230146439008 
1729	 0.149208054116877 
1730	 0.149170338856079 
1731	 0.149152052151064 
1732	 0.149129851872733 
1733	 0.149115797635386 
1734	 0.149124855214468 
1735	 0.149121661220011 
1736	 0.149104789332716 
1737	 0.149103015849473 
1738	 0.149107951902875 
1739	 0.149108758958176 
1740	 0.149131533200009 
1741	 0.149107867173857 
1742	 0.149059721945469 
1743	 0.149022852417041 
1744	 0.148953524458283 
1745	 0.148916919965437 
1746	 0.148908035493911 
1747	 0.148865702524611 
1748	 0.148837850310127 
1749	 0.148826248110241 
1750	 0.148816338668522 
1751	 0.148807201918628 
1752	 0.148793827616493 
1753	 0.148772959169556 
1754	 0.148724409348124 
1755	 0.148686000354086 
1756	 0.148676523967295 
1757	 0.148667635631661 
1758	 0.148686155208501 
1759	 0.148720054189061 
1760	 0.148721732616832 
1761	 0.148699593854378 
1762	 0.14868654068124 
1763	 0.14868109076131 
1764	 0.148687248022378 
1765	 0.14871508938026 
1766	 0.148704403143315 
1767	 0.148649893398616 
1768	 0.148614524710584 
1769	 0.148611805553033 
1770	 0.148611633024459 
1771	 0.148610176423224 
1772	 0.148611551140449 
1773	 0.14858699043947 
1774	 0.148577961734197 
1775	 0.148594632667892 
1776	 0.148598645944627 
1777	 0.148591664045041 
1778	 0.148573609568322 
1779	 0.148573015234552 
1780	 0.148579771875154 
1781	 0.148560860239099 
1782	 0.148551948873713 
1783	 0.148535255055992 
1784	 0.148535924558392 
1785	 0.148568737938266 
1786	 0.148585104320775 
1787	 0.148602959875912 
1788	 0.148608134537634 
1789	 0.148599556691103 
1790	 0.148609967701673 
1791	 0.148621634557787 
1792	 0.148632633131336 
1793	 0.148659993975185 
1794	 0.148662868187608 
1795	 0.148639849887278 
1796	 0.148640222239444 
1797	 0.14864428930342 
1798	 0.148650354381622 
1799	 0.148673291015311 
1800	 0.148680971453516 
1801	 0.14652819601105 
1802	 0.146518407455744 
1803	 0.146541014009941 
1804	 0.146613660022267 
1805	 0.146654413344279 
1806	 0.146692662665806 
1807	 0.146733294908732 
1808	 0.146763057912185 
1809	 0.1467676893312 
1810	 0.146796642493506 
1811	 0.146837376316736 
1812	 0.146873649276867 
1813	 0.146905759690506 
1814	 0.146932077505196 
1815	 0.146935700592983 
1816	 0.146927447954146 
1817	 0.146929787602956 
1818	 0.146925782078783 
1819	 0.146930725823289 
1820	 0.146946947289966 
1821	 0.146956420683778 
1822	 0.146949169431114 
1823	 0.146959368799964 
1824	 0.146964506211707 
1825	 0.146951423630099 
1826	 0.146955448979211 
1827	 0.146931408418146 
1828	 0.146924020236332 
1829	 0.146928577788584 
1830	 0.146930869348092 
1831	 0.146929599032296 
1832	 0.146944609759533 
1833	 0.14696038460891 
1834	 0.146936739271958 
1835	 0.14695356916929 
1836	 0.14699288039988 
1837	 0.147012659272566 
1838	 0.147044364994739 
1839	 0.147060835329933 
1840	 0.147068971117521 
1841	 0.147049293527635 
1842	 0.147052329885845 
1843	 0.147061818666942 
1844	 0.147050966222081 
1845	 0.147051234060478 
1846	 0.147039165541146 
1847	 0.146993284433813 
1848	 0.146948603239965 
1849	 0.146910760567 
1850	 0.146866277454136 
1851	 0.14681459708567 
1852	 0.146756886842989 
1853	 0.146706938282171 
1854	 0.146660389808629 
1855	 0.146611394582119 
1856	 0.146583771255371 
1857	 0.146565136072115 
1858	 0.146543266935267 
1859	 0.146522295371328 
1860	 0.146474344294237 
1861	 0.146412580389062 
1862	 0.146336485427729 
1863	 0.146257758098934 
1864	 0.146157643356413 
1865	 0.146048111828794 
1866	 0.145923080213954 
1867	 0.145774909023693 
1868	 0.145639170386191 
1869	 0.145502764455628 
1870	 0.145348176122067 
1871	 0.145190982724079 
1872	 0.145032268432569 
1873	 0.144851346013038 
1874	 0.144655923749364 
1875	 0.144465235977777 
1876	 0.144244188365313 
1877	 0.143968683461343 
1878	 0.14366746265294 
1879	 0.143353732884067 
1880	 0.14302261150567 
1881	 0.142677817145815 
1882	 0.142306387818201 
1883	 0.141916013215057 
1884	 0.141493534623341 
1885	 0.141058561609126 
1886	 0.140600384641098 
1887	 0.140130407086103 
1888	 0.139649228490188 
1889	 0.139147198069472 
1890	 0.138630059559266 
1891	 0.138111670796128 
1892	 0.137580814639939 
1893	 0.137052457252019 
1894	 0.136513893159428 
1895	 0.135986992944821 
1896	 0.135452489690402 
1897	 0.134928533277688 
1898	 0.134429597334612 
1899	 0.133943136679938 
1900	 0.133498347310895 
1901	 0.133069654621395 
1902	 0.132656980250209 
1903	 0.132266991808816 
1904	 0.131900363506512 
1905	 0.131549289436222 
1906	 0.131219840329465 
1907	 0.130915804310176 
1908	 0.130634801472807 
1909	 0.130369943714075 
1910	 0.130112908309003 
1911	 0.129904264733163 
1912	 0.129703270159268 
1913	 0.129505492070121 
1914	 0.129318824874961 
1915	 0.129153767493056 
1916	 0.12899472127494 
1917	 0.12884981125313 
1918	 0.128739821875754 
1919	 0.128635589858037 
1920	 0.128548051895903 
1921	 0.128469160980812 
1922	 0.128386828206419 
1923	 0.128329858045369 
1924	 0.128287313252652 
1925	 0.128260490205879 
1926	 0.128241706006264 
1927	 0.128245479892359 
1928	 0.128245525713037 
1929	 0.128245522514322 
1930	 0.128255808310739 
1931	 0.128262981533911 
1932	 0.128291781098528 
1933	 0.128337776042013 
1934	 0.128378420277936 
1935	 0.128433129077624 
1936	 0.12851007664603 
1937	 0.128573248985142 
1938	 0.12862477783073 
1939	 0.12870019411544 
1940	 0.128779290455027 
1941	 0.128870420202733 
1942	 0.12898028515262 
1943	 0.129093113287535 
1944	 0.129206892934698 
1945	 0.129312366098544 
1946	 0.129423482586844 
1947	 0.129540727618147 
1948	 0.129652981396882 
1949	 0.129756745247876 
1950	 0.129878205580482 
1951	 0.130003094661015 
1952	 0.130135744341083 
1953	 0.130281835215677 
1954	 0.13042118731382 
1955	 0.130557098804318 
1956	 0.130683388396119 
1957	 0.130821872145682 
1958	 0.130961719881091 
1959	 0.131111504045776 
1960	 0.131270754712189 
1961	 0.131433034057989 
1962	 0.131616567692733 
1963	 0.13177511007359 
1964	 0.131918863765406 
1965	 0.132075339186858 
1966	 0.132210982950904 
1967	 0.132332547466168 
1968	 0.132487935371416 
1969	 0.132657802076873 
1970	 0.132829388773142 
1971	 0.133038889237481 
1972	 0.133212082536054 
1973	 0.133367526272881 
1974	 0.13352688230944 
1975	 0.133675306952005 
1976	 0.133813674104715 
1977	 0.13397136330907 
1978	 0.134147637906436 
1979	 0.13430744117366 
1980	 0.134471536192241 
1981	 0.134648157057747 
1982	 0.134831876267222 
1983	 0.13500664099284 
1984	 0.135200255612991 
1985	 0.135373541803423 
1986	 0.135524489286078 
1987	 0.135687457991567 
1988	 0.135846708705299 
1989	 0.136007870154211 
1990	 0.136192505373536 
1991	 0.136369578291644 
1992	 0.136535090149083 
1993	 0.136704550215448 
1994	 0.136857860903498 
1995	 0.136985453535115 
1996	 0.137129276637512 
1997	 0.137277811551814 
1998	 0.137424091805187 
1999	 0.137564120449661 
2000	 0.13771352636403 
2001	 0.137874776626257 
2002	 0.138017964465691 
2003	 0.138176252141764 
2004	 0.138345685799464 
2005	 0.138490711902499 
2006	 0.138619042628705 
2007	 0.138761993708421 
2008	 0.138892464526022 
2009	 0.139036054354897 
2010	 0.139198520124948 
2011	 0.139349556484984 
2012	 0.139496347968285 
2013	 0.13964585780008 
2014	 0.1397946660688 
2015	 0.139946179518562 
2016	 0.140091748892571 
2017	 0.140233918393122 
2018	 0.140379694686492 
2019	 0.140526134792665 
2020	 0.140664555250634 
2021	 0.140807462726253 
2022	 0.140938023070374 
2023	 0.141050292417975 
2024	 0.14117421821019 
2025	 0.141298168386353 
2026	 0.141421611742973 
2027	 0.141546571219281 
2028	 0.141675257116844 
2029	 0.141801040765275 
2030	 0.141921673445129 
2031	 0.142047261004366 
2032	 0.142182787755741 
2033	 0.142302794664103 
2034	 0.142415215937381 
2035	 0.142531664203387 
2036	 0.142639346779098 
2037	 0.142748899809496 
2038	 0.142870809087088 
2039	 0.142977421857163 
2040	 0.143067141902861 
2041	 0.14316414775837 
2042	 0.143272002984087 
2043	 0.143386731795075 
2044	 0.143487165845104 
2045	 0.143592475598478 
2046	 0.143695010809625 
2047	 0.143783955702006 
2048	 0.143873273449063 
2049	 0.143963641386807 
2050	 0.144064718596119 
2051	 0.144173430829511 
2052	 0.144264382220841 
2053	 0.144359778696563 
2054	 0.144449073168818 
2055	 0.144520808752875 
2056	 0.144582118369161 
2057	 0.144656713348361 
2058	 0.144744984640622 
2059	 0.14482010343458 
2060	 0.144886610419318 
2061	 0.144959947786566 
2062	 0.145032314462712 
2063	 0.145107189904911 
2064	 0.145183978129579 
2065	 0.14526474600691 
2066	 0.145355184870754 
2067	 0.145434047587391 
2068	 0.145514092451536 
2069	 0.145588153709579 
2070	 0.145651580219984 
2071	 0.145693956930955 
2072	 0.145762473935274 
2073	 0.145834195101143 
2074	 0.145908483977687 
2075	 0.146004155665981 
2076	 0.146079909556294 
2077	 0.146133145242898 
2078	 0.146211866137206 
2079	 0.146300986516115 
2080	 0.146384115997496 
2081	 0.146487222746685 
2082	 0.146573783479872 
2083	 0.146645417921021 
2084	 0.146719247348802 
2085	 0.146782311218456 
2086	 0.146830998759201 
2087	 0.14689761557339 
2088	 0.1469623143741 
2089	 0.147032737410474 
2090	 0.147125562403786 
2091	 0.147195266465439 
2092	 0.147248466301945 
2093	 0.147310991793776 
2094	 0.147360139214871 
2095	 0.147426669422562 
2096	 0.147515558995708 
2097	 0.147591614065692 
2098	 0.147660432333571 
2099	 0.147741982484698 
2100	 0.147825547478834 
2101	 0.147907287007569 
2102	 0.14798656997904 
2103	 0.148078420445124 
2104	 0.148156052898689 
2105	 0.148212115772026 
2106	 0.148289337419684 
2107	 0.148380669956045 
2108	 0.148461444583229 
2109	 0.148544317986911 
2110	 0.148625508472674 
2111	 0.148697390742512 
2112	 0.148773349480967 
2113	 0.148845970570033 
2114	 0.148937281860129 
2115	 0.149012609170237 
2116	 0.149082099914456 
2117	 0.149157812420588 
2118	 0.149235986254413 
2119	 0.149304120057556 
2120	 0.149369143635072 
2121	 0.149439049577886 
2122	 0.149493599729384 
2123	 0.149569305377445 
2124	 0.149674015320614 
2125	 0.149753172601191 
2126	 0.149832299731501 
2127	 0.14990167529298 
2128	 0.14994868140255 
2129	 0.150003021019247 
2130	 0.150066738085733 
2131	 0.150117352085252 
2132	 0.150155359920519 
2133	 0.15018687755706 
2134	 0.15021005116623 
2135	 0.150228503456557 
2136	 0.150219121376725 
2137	 0.150180383307735 
2138	 0.150164074627322 
2139	 0.15013111999146 
2140	 0.150106541776994 
2141	 0.150119074751454 
2142	 0.150094256035082 
2143	 0.15003720729711 
2144	 0.149989606546262 
2145	 0.149924444581226 
2146	 0.149873285251896 
2147	 0.149836218888403 
2148	 0.149792153288316 
2149	 0.149746947407014 
2150	 0.149713178456066 
2151	 0.149650306509527 
2152	 0.149573201041744 
2153	 0.149489709547225 
2154	 0.149389492736754 
2155	 0.149287905914762 
2156	 0.149183388718281 
2157	 0.149069267738255 
2158	 0.148929941044158 
2159	 0.148812274069129 
2160	 0.148691477646414 
2161	 0.148585181104135 
2162	 0.148512930142198 
2163	 0.14841885115489 
2164	 0.148329687339001 
2165	 0.148219691574105 
2166	 0.148107487090756 
2167	 0.147974640057282 
2168	 0.147862383676841 
2169	 0.147752627689014 
2170	 0.147645126547263 
2171	 0.147546272096862 
2172	 0.147441671778474 
2173	 0.147339411565521 
2174	 0.147230353220232 
2175	 0.147119724818332 
2176	 0.147004283144664 
2177	 0.146870118341436 
2178	 0.146753818696188 
2179	 0.146647972767194 
2180	 0.146537708156208 
2181	 0.146445078296434 
2182	 0.146337005127371 
2183	 0.146223559848379 
2184	 0.146087429117041 
2185	 0.14596702451805 
2186	 0.145834711637375 
2187	 0.145730669296284 
2188	 0.145637409814635 
2189	 0.145558305774094 
2190	 0.145503520975082 
2191	 0.145437746701913 
2192	 0.145386757402741 
2193	 0.1453197699007 
2194	 0.14523540861762 
2195	 0.145168968955758 
2196	 0.145096741031756 
2197	 0.145039415818335 
2198	 0.145025938074978 
2199	 0.144969482091478 
2200	 0.14487743739356 
2201	 0.144813888837662 
2202	 0.144736183450096 
2203	 0.144663248227528 
2204	 0.144627888818907 
2205	 0.144635752456994 
2206	 0.144626776555706 
2207	 0.144635132980971 
2208	 0.144624629706151 
2209	 0.144604401478086 
2210	 0.144602221953212 
2211	 0.144597534721009 
2212	 0.144600595852385 
2213	 0.144623836262396 
2214	 0.144633568049145 
2215	 0.144637579982897 
2216	 0.14464431365783 
2217	 0.144645158475603 
2218	 0.144660787084032 
2219	 0.144685821782212 
2220	 0.144704700156365 
2221	 0.144746846351687 
2222	 0.144762429432886 
2223	 0.144724760427644 
2224	 0.14471560705623 
2225	 0.144721925096376 
2226	 0.144720590171273 
2227	 0.144730130046066 
2228	 0.144781860561515 
2229	 0.144794562776282 
2230	 0.144777418957689 
2231	 0.144783274383531 
2232	 0.14479162182249 
2233	 0.144801611185613 
2234	 0.14481659546138 
2235	 0.144832079557343 
2236	 0.144849567935412 
2237	 0.144871030072617 
2238	 0.144914422351952 
2239	 0.144922091007315 
2240	 0.144908978729112 
2241	 0.144900185637206 
2242	 0.144856635768628 
2243	 0.144839588408783 
2244	 0.144856671908729 
2245	 0.144846953829161 
2246	 0.14483197387111 
2247	 0.144830706514279 
2248	 0.144843540564006 
2249	 0.144860177293385 
2250	 0.144882600743798 
2251	 0.144939588327341 
2252	 0.144954199829613 
2253	 0.144942301040878 
2254	 0.144946454123711 
2255	 0.144938583377865 
2256	 0.144936906859553 
2257	 0.144943864447297 
2258	 0.144952296791066 
2259	 0.144961802921473 
2260	 0.144970983425803 
2261	 0.144976121679812 
2262	 0.144994915482517 
2263	 0.145023684569006 
2264	 0.145047409345809 
2265	 0.145096269910033 
2266	 0.145116475940481 
2267	 0.145106325564338 
2268	 0.145101991565307 
2269	 0.145072741573621 
2270	 0.145068861897528 
2271	 0.145097878782834 
2272	 0.145129665223647 
2273	 0.145153084834748 
2274	 0.14519293204198 
2275	 0.145203173541705 
2276	 0.145185673909751 
2277	 0.145180795952527 
2278	 0.145162324292813 
2279	 0.145162259003059 
2280	 0.14516046386724 
2281	 0.145182809878517 
2282	 0.145228124764486 
2283	 0.145269650493269 
2284	 0.145346047517867 
2285	 0.145372193590666 
2286	 0.145370858113129 
2287	 0.145378399745592 
2288	 0.145354182275773 
2289	 0.14535258915341 
2290	 0.145367185539892 
2291	 0.145387701732734 
2292	 0.145410198446567 
2293	 0.145433606136617 
2294	 0.145493356806576 
2295	 0.145504149196532 
2296	 0.145480749054051 
2297	 0.145476416880771 
2298	 0.14541921981132 
2299	 0.145378501232671 
2300	 0.14536825723453 
2301	 0.145335192583655 
2302	 0.145354208305882 
2303	 0.1453620071187 
2304	 0.145315053200083 
2305	 0.145307635407548 
2306	 0.145271668858253 
2307	 0.145175323325641 
2308	 0.145151521919227 
2309	 0.145171190876707 
2310	 0.1451653853955 
2311	 0.145181343117698 
2312	 0.145169847111775 
2313	 0.145138432087237 
2314	 0.14510804509649 
2315	 0.145062256548891 
2316	 0.14504380818764 
2317	 0.145027250430019 
2318	 0.145020825766534 
2319	 0.145047111913516 
2320	 0.145041955199397 
2321	 0.145006999224678 
2322	 0.145014614713534 
2323	 0.145030112540614 
2324	 0.145055022864905 
2325	 0.145126855843456 
2326	 0.145165401977689 
2327	 0.145169980246466 
2328	 0.14521360361122 
2329	 0.145262421680433 
2330	 0.145290039412449 
2331	 0.145332996406854 
2332	 0.145336481787886 
2333	 0.145304324532769 
2334	 0.14530733965181 
2335	 0.145314913446422 
2336	 0.145285835120295 
2337	 0.145282664765547 
2338	 0.145268300077001 
2339	 0.145213532488029 
2340	 0.145230003527163 
2341	 0.145257234262717 
2342	 0.145262908064321 
2343	 0.145334177350793 
2344	 0.145368320766402 
2345	 0.145362221002089 
2346	 0.14532041173759 
2347	 0.145284975551006 
2348	 0.145211768147653 
2349	 0.145147251970684 
2350	 0.14507025144486 
2351	 0.145021660302519 
2352	 0.144976396915504 
2353	 0.144939474529596 
2354	 0.144948610758461 
2355	 0.144913505583792 
2356	 0.144858983928334 
2357	 0.144801209182291 
2358	 0.144703035810985 
2359	 0.14463957576968 
2360	 0.144578102608469 
2361	 0.144529666247915 
2362	 0.144529022358503 
2363	 0.144513592701278 
2364	 0.144482081979991 
2365	 0.144463446206474 
2366	 0.144444511767264 
2367	 0.144415052656915 
2368	 0.144439173822949 
2369	 0.144394668351272 
2370	 0.144300651933922 
2371	 0.144198152853944 
2372	 0.144117223326971 
2373	 0.144010605009419 
2374	 0.143869267010249 
2375	 0.143802307790264 
2376	 0.143772814305522 
2377	 0.143680843490886 
2378	 0.143688836006787 
2379	 0.14373299372931 
2380	 0.143635002520707 
2381	 0.143561943281688 
2382	 0.143549163078123 
2383	 0.143488488695261 
2384	 0.143467525551358 
2385	 0.143443610005807 
2386	 0.143349692300147 
2387	 0.143212005896136 
2388	 0.143064067371368 
2389	 0.142992772590709 
2390	 0.142932606673103 
2391	 0.1428640959275 
2392	 0.142821868058866 
2393	 0.142753794573853 
2394	 0.142664119621272 
2395	 0.142632661497886 
2396	 0.142601173797745 
2397	 0.142513601975405 
2398	 0.142518940846869 
2399	 0.142497587307833 
2400	 0.142405237468141 
2401	 0.142330676289645 
2402	 0.142210821563741 
2403	 0.142119528408886 
2404	 0.142103476858284 
2405	 0.142061009561352 
2406	 0.141911709512963 
2407	 0.141764702878522 
2408	 0.14165866399862 
2409	 0.141594005789469 
2410	 0.141574437874334 
2411	 0.141532411782122 
2412	 0.14144462537727 
2413	 0.141286528634361 
2414	 0.14114990618539 
2415	 0.141006226240554 
2416	 0.140874580762178 
2417	 0.140759795719532 
2418	 0.140632817985168 
2419	 0.140505871735865 
2420	 0.14038224555246 
2421	 0.140234863586402 
2422	 0.140111199402131 
2423	 0.140014933607048 
2424	 0.139900151548933 
2425	 0.13978534319432 
2426	 0.139662557510395 
2427	 0.139524183667938 
2428	 0.139417808134319 
2429	 0.139284473016078 
2430	 0.139198621954515 
2431	 0.139206053585637 
2432	 0.139100917894741 
2433	 0.139013835377099 
2434	 0.138853108659568 
2435	 0.138524481070826 
2436	 0.138363962330605 
2437	 0.138240287794004 
2438	 0.138144713849654 
2439	 0.138171235460192 
2440	 0.138091296556474 
2441	 0.137941855885098 
2442	 0.137861681582639 
2443	 0.137782858891823 
2444	 0.137684554463017 
2445	 0.137663116880166 
2446	 0.137551105134998 
2447	 0.137334790945707 
2448	 0.137244291264737 
2449	 0.13720430858025 
2450	 0.137077452753704 
2451	 0.136957612411433 
2452	 0.136820754216429 
2453	 0.136572797548159 
2454	 0.136455242889654 
2455	 0.136491881224706 
2456	 0.136397261882306 
2457	 0.136254258576374 
2458	 0.13612734340333 
2459	 0.135896870812938 
2460	 0.135738842048104 
2461	 0.135715642168319 
2462	 0.135540108133852 
2463	 0.135264442391379 
2464	 0.135099209920616 
2465	 0.134882699065228 
2466	 0.134781503098876 
2467	 0.134866692310621 
2468	 0.13479928277291 
2469	 0.134714669795705 
2470	 0.134494781374211 
2471	 0.134247336666805 
2472	 0.134081899872893 
2473	 0.13393782577441 
2474	 0.133917408655411 
2475	 0.133807530475929 
2476	 0.1336572494391 
2477	 0.133615881718612 
2478	 0.133476222367451 
2479	 0.133379071499382 
2480	 0.133358179402664 
2481	 0.133150098037367 
2482	 0.132976446350876 
2483	 0.132853157756235 
2484	 0.132699366709729 
2485	 0.132694611592128 
2486	 0.132565788820308 
2487	 0.132417769275191 
2488	 0.13237951555961 
2489	 0.13224449864522 
2490	 0.13208408816488 
2491	 0.132053301955056 
2492	 0.132070953196529 
2493	 0.131848859728141 
2494	 0.131731591716307 
2495	 0.131809020122896 
2496	 0.13173756744486 
2497	 0.131902479502081 
2498	 0.131968315992513 
2499	 0.131723406907468 
2500	 0.131533704556624 
