Wavelength	MM600001.asd
350	 6.50290634300833E-02 
351	 6.10295104971739E-02 
352	 5.61114300786704E-02 
353	 5.75465800970324E-02 
354	 6.73867900323439E-02 
355	 6.62345792585367E-02 
356	 6.12643240552187E-02 
357	 6.28743437666273E-02 
358	 6.64696374061818E-02 
359	 6.61991720170082E-02 
360	 6.42945067158297E-02 
361	 6.71959216692107E-02 
362	 6.73212999990045E-02 
363	 6.90418983932337E-02 
364	 7.23001495117134E-02 
365	 6.76141297586483E-02 
366	 6.75171567896565E-02 
367	 7.08790870698468E-02 
368	 7.34545133402363E-02 
369	 7.57225777240803E-02 
370	 0.074376096137879 
371	 7.14290831679274E-02 
372	 0.072270023065739 
373	 7.77420905229024E-02 
374	 8.02314492458349E-02 
375	 7.77489843593607E-02 
376	 7.96612121540818E-02 
377	 7.96890111543919E-02 
378	 7.85469997141806E-02 
379	 0.078768690822886 
380	 8.19521170125175E-02 
381	 8.20123833980303E-02 
382	 8.04117426959238E-02 
383	 8.37068233116693E-02 
384	 8.48995548911719E-02 
385	 8.38897810488628E-02 
386	 8.27063613882895E-02 
387	 8.54749152141977E-02 
388	 8.77818757686765E-02 
389	 8.85095680093911E-02 
390	 8.80574532105519E-02 
391	 8.82550099417488E-02 
392	 8.83422670721053E-02 
393	 8.88242492640973E-02 
394	 9.11208902825282E-02 
395	 9.19955639360516E-02 
396	 9.29882540775752E-02 
397	 9.49482788260106E-02 
398	 9.56301925040909E-02 
399	 9.50791546442678E-02 
400	 9.53647140850479E-02 
401	 9.79655701341026E-02 
402	 9.64637777426923E-02 
403	 9.64283533320662E-02 
404	 9.85854665990326E-02 
405	 9.82622764816717E-02 
406	 9.89803181151736E-02 
407	 0.100024523843712 
408	 0.100276789154327 
409	 9.94635589044332E-02 
410	 9.99502786401132E-02 
411	 0.100851456931437 
412	 0.100326242305252 
413	 0.101852444403373 
414	 0.102645928910062 
415	 0.102209315243931 
416	 0.10362705184187 
417	 0.103407655901334 
418	 0.102883790157616 
419	 0.10365733535416 
420	 0.104242272084983 
421	 0.104294500520331 
422	 0.10407222934995 
423	 0.104168832670557 
424	 0.104375561531763 
425	 0.104754094105866 
426	 0.105105336349803 
427	 0.104623043416578 
428	 0.104765823257643 
429	 0.105089482060208 
430	 0.104846771275662 
431	 0.10513348327188 
432	 0.105161023474099 
433	 0.104949062698723 
434	 0.105322327595757 
435	 0.105565350581578 
436	 0.105528166209309 
437	 0.105315122161643 
438	 0.105332016754035 
439	 0.105714335057869 
440	 0.10617342040747 
441	 0.106305452003756 
442	 0.106736402818501 
443	 0.107123328602196 
444	 0.107334195310592 
445	 0.10770139645353 
446	 0.107840453086936 
447	 0.107950158284722 
448	 0.108285714140076 
449	 0.108595001288139 
450	 0.108934774765998 
451	 0.109316333974065 
452	 0.109699562472801 
453	 0.109961458582216 
454	 0.110104967551377 
455	 0.110220181047982 
456	 0.110559081598334 
457	 0.110845880076754 
458	 0.11094167427679 
459	 0.110859443634571 
460	 0.111223158031163 
461	 0.111387428804237 
462	 0.111269779774488 
463	 0.111731855617947 
464	 0.111989181933365 
465	 0.112094229756484 
466	 0.112258847411767 
467	 0.11233926437519 
468	 0.112532498574376 
469	 0.112711284044564 
470	 0.112542803520268 
471	 0.112856166565753 
472	 0.113234084373269 
473	 0.113314082091897 
474	 0.113331117219069 
475	 0.113604587377685 
476	 0.11388241502629 
477	 0.113765914348262 
478	 0.113863261532246 
479	 0.11405034538857 
480	 0.114215227409745 
481	 0.114357469365974 
482	 0.114428992597897 
483	 0.114574421795719 
484	 0.114870380168486 
485	 0.114920968477325 
486	 0.114852423592862 
487	 0.114826673784343 
488	 0.115002181914983 
489	 0.115156743037618 
490	 0.115324771350215 
491	 0.115533898864622 
492	 0.115680399792075 
493	 0.115840195402821 
494	 0.115911858511473 
495	 0.115782007696786 
496	 0.115894398650658 
497	 0.116047251252106 
498	 0.116142961591319 
499	 0.11634129655059 
500	 0.116377905580051 
501	 0.116401344378496 
502	 0.116586667140523 
503	 0.11666574345476 
504	 0.116675343774294 
505	 0.116689952642784 
506	 0.11679836415746 
507	 0.116841150493012 
508	 0.116912994916456 
509	 0.117062075251888 
510	 0.117071107743597 
511	 0.117122079001975 
512	 0.117264088504602 
513	 0.1174596958812 
514	 0.117602333639862 
515	 0.117669581495608 
516	 0.117679894250196 
517	 0.117691137639305 
518	 0.117758044406442 
519	 0.117829009068644 
520	 0.117854967888222 
521	 0.118014074068044 
522	 0.118174645423209 
523	 0.118241747708581 
524	 0.118181667823998 
525	 0.11818392525264 
526	 0.118283647916848 
527	 0.118443927419269 
528	 0.118552758857235 
529	 0.118559796880186 
530	 0.118559627408245 
531	 0.118712552230879 
532	 0.11873493075453 
533	 0.118745955959837 
534	 0.118837652997855 
535	 0.118934752376585 
536	 0.118964349561252 
537	 0.11901473046032 
538	 0.119189628441778 
539	 0.119210186088585 
540	 0.119228083567254 
541	 0.119299386317188 
542	 0.119305979544015 
543	 0.119399866271237 
544	 0.11951174509688 
545	 0.119550310393514 
546	 0.119591422157134 
547	 0.1196375730531 
548	 0.119689512067617 
549	 0.119748615902463 
550	 0.119845144596523 
551	 0.119913982334732 
552	 0.11993442612146 
553	 0.120048608323236 
554	 0.120149907248743 
555	 0.120222522812083 
556	 0.120297221982661 
557	 0.120368920907838 
558	 0.120440891734908 
559	 0.12052194174529 
560	 0.120638939300737 
561	 0.120641623070742 
562	 0.12062860119303 
563	 0.120737628001148 
564	 0.120805730104543 
565	 0.120799747705752 
566	 0.120769191178561 
567	 0.120843413149445 
568	 0.121012659155345 
569	 0.121189162729328 
570	 0.121316055130388 
571	 0.121524146024138 
572	 0.121668703304269 
573	 0.121744024157064 
574	 0.121843239809378 
575	 0.121943642303343 
576	 0.122058387686994 
577	 0.122159224031998 
578	 0.122102874131465 
579	 0.122072850800748 
580	 0.12214746602336 
581	 0.122327211284574 
582	 0.122416864815132 
583	 0.122546009375797 
584	 0.12274529045948 
585	 0.122863353245088 
586	 0.123009102844073 
587	 0.123085420029007 
588	 0.123013730719699 
589	 0.123043419327047 
590	 0.123098814625126 
591	 0.123138253504447 
592	 0.123166603662202 
593	 0.123312854686788 
594	 0.12345990706156 
595	 0.123530313293816 
596	 0.12369969030507 
597	 0.123781101751961 
598	 0.12381197061709 
599	 0.12393261306988 
600	 0.124025648790356 
601	 0.124064931929019 
602	 0.124074249927061 
603	 0.124149249279518 
604	 0.124204999642491 
605	 0.124253185249008 
606	 0.124327264907826 
607	 0.124389689846588 
608	 0.124429366637617 
609	 0.12446864830411 
610	 0.124564369137601 
611	 0.124674807759847 
612	 0.124797844035453 
613	 0.124922753584064 
614	 0.124982953248638 
615	 0.125006756934559 
616	 0.125049624491772 
617	 0.125172120559076 
618	 0.125268101931916 
619	 0.125296384373031 
620	 0.125284878393761 
621	 0.125389074105754 
622	 0.125494169636915 
623	 0.125542985522169 
624	 0.125523546857298 
625	 0.12556498029559 
626	 0.125646935761961 
627	 0.125729855502542 
628	 0.125767165699995 
629	 0.125810213113946 
630	 0.125842358243704 
631	 0.125845521369961 
632	 0.125864041985437 
633	 0.12591085639482 
634	 0.125981845778304 
635	 0.126057494716025 
636	 0.126111345319449 
637	 0.126142381158207 
638	 0.126163685396936 
639	 0.126207355107753 
640	 0.126262272235984 
641	 0.126327380310553 
642	 0.126398353134754 
643	 0.126421264828197 
644	 0.126441201519904 
645	 0.126489119627937 
646	 0.126562488200028 
647	 0.126614890065359 
648	 0.126645106380007 
649	 0.126669970832084 
650	 0.126711991024494 
651	 0.126763519559683 
652	 0.126817496182095 
653	 0.12686752054039 
654	 0.12689102530657 
655	 0.126914540933789 
656	 0.126958575311631 
657	 0.127006733760994 
658	 0.127047977635103 
659	 0.127097456969865 
660	 0.127171161892911 
661	 0.127181048977325 
662	 0.12722222128797 
663	 0.127318132400599 
664	 0.127364954984328 
665	 0.127387246076469 
666	 0.127414223239978 
667	 0.127466147653712 
668	 0.127510779804999 
669	 0.127557905558787 
670	 0.12761090956339 
671	 0.127664975205316 
672	 0.127681583561294 
673	 0.127716927319402 
674	 0.127795849738914 
675	 0.127827727261524 
676	 0.127882353943318 
677	 0.127948613243822 
678	 0.127983722344488 
679	 0.127976628129416 
680	 0.128030130488016 
681	 0.128147048195183 
682	 0.128190544129462 
683	 0.128197143270723 
684	 0.128202958135394 
685	 0.128240765444675 
686	 0.128322636010613 
687	 0.128414731287626 
688	 0.128483276808136 
689	 0.128501175083111 
690	 0.128495971288994 
691	 0.128518097084005 
692	 0.128587293714708 
693	 0.128662288768994 
694	 0.128722556500681 
695	 0.128764832682173 
696	 0.128797783163624 
697	 0.12883656267809 
698	 0.128906532192009 
699	 0.12898209126301 
700	 0.128989343226994 
701	 0.129049299241151 
702	 0.129101055230232 
703	 0.129102226436552 
704	 0.129177442012783 
705	 0.129235051290729 
706	 0.129272737125415 
707	 0.129330071031475 
708	 0.129381895739824 
709	 0.129410748531022 
710	 0.129421529213449 
711	 0.129448500170494 
712	 0.129514430113068 
713	 0.129593751569685 
714	 0.129655177729584 
715	 0.129709259920118 
716	 0.12974383620553 
717	 0.129761570346125 
718	 0.129780169366594 
719	 0.129862087164746 
720	 0.129918375968341 
721	 0.129913337214927 
722	 0.129952271876838 
723	 0.130036318041537 
724	 0.130116224389262 
725	 0.130142116428122 
726	 0.1301712496859 
727	 0.13019875465424 
728	 0.130229579512673 
729	 0.130278640394934 
730	 0.130335078272942 
731	 0.130363918657337 
732	 0.130372037690435 
733	 0.130483939641509 
734	 0.130545072707805 
735	 0.130545040496335 
736	 0.13053982753655 
737	 0.130579462447384 
738	 0.130631052263648 
739	 0.13067087752607 
740	 0.130694248427244 
741	 0.130734085740249 
742	 0.130763305047099 
743	 0.130770927971373 
744	 0.130831078582977 
745	 0.130850033699668 
746	 0.130851520508496 
747	 0.130903590679233 
748	 0.130956893351712 
749	 0.130971765416844 
750	 0.130962514009087 
751	 0.131004975489786 
752	 0.131040696449252 
753	 0.131055674335297 
754	 0.131055668034249 
755	 0.131069855477197 
756	 0.131105808742231 
757	 0.131140839988395 
758	 0.131147512442976 
759	 0.131195906938272 
760	 0.131217991719473 
761	 0.131206345661891 
762	 0.131242805092378 
763	 0.131217804504683 
764	 0.131205986786861 
765	 0.131264637513906 
766	 0.131270719744836 
767	 0.131287225458264 
768	 0.131297715541899 
769	 0.131265257214745 
770	 0.131300332348979 
771	 0.131352174041691 
772	 0.13138148717939 
773	 0.131382909504516 
774	 0.131407745831766 
775	 0.13142727289388 
776	 0.131413608479741 
777	 0.131387918307143 
778	 0.131390498738671 
779	 0.131428379181252 
780	 0.13148243487665 
781	 0.131495361047892 
782	 0.131512509727594 
783	 0.131536695706942 
784	 0.131520316307546 
785	 0.131515428943491 
786	 0.131530397201604 
787	 0.131554667187582 
788	 0.131553282852954 
789	 0.131568639661186 
790	 0.131583037478681 
791	 0.131571217247058 
792	 0.131595652629882 
793	 0.131602589637661 
794	 0.131593723426498 
795	 0.131621479006156 
796	 0.131687299168492 
797	 0.131718814192739 
798	 0.131694877131139 
799	 0.131707656359237 
800	 0.131716472232433 
801	 0.131713755200566 
802	 0.131708076978 
803	 0.131733748373474 
804	 0.131761315140151 
805	 0.131789614242168 
806	 0.131828046856618 
807	 0.131807018979775 
808	 0.13178800961755 
809	 0.131818199966389 
810	 0.13190319309577 
811	 0.131918856512816 
812	 0.131893656182315 
813	 0.13188417514075 
814	 0.131920396651312 
815	 0.131924139199252 
816	 0.131915936566258 
817	 0.131948476951608 
818	 0.132001194813142 
819	 0.13205127879005 
820	 0.132073723359148 
821	 0.132052012086798 
822	 0.132071735332418 
823	 0.132105897129002 
824	 0.132126444043503 
825	 0.132133603084566 
826	 0.132162181219161 
827	 0.13220258377788 
828	 0.132230436964329 
829	 0.132217818290856 
830	 0.132201995599645 
831	 0.13222319173257 
832	 0.132301461732314 
833	 0.132346890517671 
834	 0.132364144743509 
835	 0.132350724406749 
836	 0.132298729044313 
837	 0.132293042002366 
838	 0.132347664743248 
839	 0.132436434999893 
840	 0.132492187422131 
841	 0.132517604245535 
842	 0.132505652665056 
843	 0.132476453252958 
844	 0.13253707882745 
845	 0.132558275705646 
846	 0.132545017096856 
847	 0.13256116114938 
848	 0.132603208009896 
849	 0.132635380843226 
850	 0.132658010042532 
851	 0.132701727061607 
852	 0.132752557486226 
853	 0.132780609790474 
854	 0.132784606078232 
855	 0.132806359761194 
856	 0.132843735761145 
857	 0.132864433511757 
858	 0.132850559905187 
859	 0.132833165546873 
860	 0.132872466131002 
861	 0.132943588313437 
862	 0.133000320589787 
863	 0.133069581044507 
864	 0.133105542673208 
865	 0.133110368880109 
866	 0.133113677590758 
867	 0.133090985722457 
868	 0.133094419086322 
869	 0.133143414005128 
870	 0.133212651147646 
871	 0.133237075444293 
872	 0.133263541847139 
873	 0.133317978922819 
874	 0.133360666186706 
875	 0.133434752648265 
876	 0.133471499258109 
877	 0.133430922901701 
878	 0.133407305337448 
879	 0.13347844256576 
880	 0.133542585383054 
881	 0.13350216930091 
882	 0.133573274630947 
883	 0.133606910249352 
884	 0.1336186714785 
885	 0.1336978758463 
886	 0.133758367536466 
887	 0.133773068319534 
888	 0.133759240014404 
889	 0.133765977703966 
890	 0.133793629391302 
891	 0.133827617921144 
892	 0.133862458097108 
893	 0.133906065045185 
894	 0.133922484432262 
895	 0.133943465530436 
896	 0.133995057416509 
897	 0.134068370943807 
898	 0.134132230729183 
899	 0.134149836662776 
900	 0.134135394749994 
901	 0.134240705710799 
902	 0.134265741630029 
903	 0.13424516455807 
904	 0.134271440413796 
905	 0.134319540548507 
906	 0.134368705599919 
907	 0.13442169576774 
908	 0.134488679877059 
909	 0.134559880510208 
910	 0.134558058311592 
911	 0.134522540576177 
912	 0.134560384118038 
913	 0.134658222116921 
914	 0.134745204360414 
915	 0.134780191726528 
916	 0.134769070839319 
917	 0.134807691131388 
918	 0.134894229296554 
919	 0.134960390819056 
920	 0.134903099660805 
921	 0.134957176797498 
922	 0.135053775463893 
923	 0.135119927686687 
924	 0.135159365024545 
925	 0.135144213417212 
926	 0.135185331092919 
927	 0.135304342432532 
928	 0.135314371321862 
929	 0.135303241273661 
930	 0.135326538976123 
931	 0.135402801412633 
932	 0.135483832693198 
933	 0.135578767759915 
934	 0.135623609858453 
935	 0.135602227622924 
936	 0.135690554522911 
937	 0.135708314607479 
938	 0.135724083516185 
939	 0.135828155663686 
940	 0.135887834426859 
941	 0.135928659289532 
942	 0.136004569640161 
943	 0.136125777127513 
944	 0.136096824080506 
945	 0.136015497422126 
946	 0.13602587652821 
947	 0.136200219954169 
948	 0.13624677855953 
949	 0.136306869127012 
950	 0.136375551065085 
951	 0.136395847371049 
952	 0.136472670023322 
953	 0.136588807743567 
954	 0.136663212950379 
955	 0.13663593183357 
956	 0.136718500646733 
957	 0.13681814514015 
958	 0.136855548733459 
959	 0.136808168528046 
960	 0.136824384523008 
961	 0.136902752959756 
962	 0.136985348742914 
963	 0.137006605163561 
964	 0.137034214789975 
965	 0.13713154305138 
966	 0.137251111711535 
967	 0.137291050564052 
968	 0.13729273904184 
969	 0.137344733007296 
970	 0.137470648624266 
971	 0.13761262505558 
972	 0.13756852911401 
973	 0.137514628002257 
974	 0.137520199245446 
975	 0.137562544830564 
976	 0.137680330598192 
977	 0.137811943474442 
978	 0.137909452765584 
979	 0.137950106294298 
980	 0.137945963459795 
981	 0.137946418689565 
982	 0.137971833032021 
983	 0.138024765207417 
984	 0.138143879959065 
985	 0.138238523549524 
986	 0.138257066882841 
987	 0.138225455332009 
988	 0.13837943112643 
989	 0.138397796307341 
990	 0.138330269226573 
991	 0.138391483535142 
992	 0.138519203468468 
993	 0.138606050561003 
994	 0.138687842896382 
995	 0.138819976326554 
996	 0.138838640179294 
997	 0.138901727359691 
998	 0.13892386336986 
999	 0.138863656756158 
1000	 0.13919398983363 
1001	 0.139201737523856 
1002	 0.139223127828128 
1003	 0.139302018024342 
1004	 0.139357519467403 
1005	 0.139435698679708 
1006	 0.139476524031665 
1007	 0.139489604464028 
1008	 0.139508674583529 
1009	 0.139550478868731 
1010	 0.139586925752025 
1011	 0.13961813992333 
1012	 0.139655596813502 
1013	 0.139660494002912 
1014	 0.1396759316163 
1015	 0.139803892565834 
1016	 0.13990545134538 
1017	 0.139941455842361 
1018	 0.139942107603932 
1019	 0.139984527867887 
1020	 0.139994895680078 
1021	 0.140014681177534 
1022	 0.140120594693098 
1023	 0.14015635520733 
1024	 0.140141939911453 
1025	 0.140175594931613 
1026	 0.140240816945115 
1027	 0.140366928358102 
1028	 0.140484383166514 
1029	 0.140527643490508 
1030	 0.140505860509331 
1031	 0.140503838112709 
1032	 0.140464628761762 
1033	 0.140476396358181 
1034	 0.140506833228674 
1035	 0.140563800412665 
1036	 0.140645281447238 
1037	 0.140681046165427 
1038	 0.140726653958346 
1039	 0.140763030854563 
1040	 0.140770787325851 
1041	 0.140837570669972 
1042	 0.140921611719624 
1043	 0.140973219775116 
1044	 0.141017076271672 
1045	 0.141044343401818 
1046	 0.141108005284767 
1047	 0.141190327986952 
1048	 0.141249440144681 
1049	 0.141371023028278 
1050	 0.141454120115436 
1051	 0.141461927618988 
1052	 0.14151666590418 
1053	 0.141589840907055 
1054	 0.14164902186317 
1055	 0.14169449587098 
1056	 0.141739608345299 
1057	 0.141792118915641 
1058	 0.141843929115381 
1059	 0.141879192857807 
1060	 0.141900897601087 
1061	 0.141966287426907 
1062	 0.142020747121629 
1063	 0.142030817878079 
1064	 0.14206711139028 
1065	 0.142078072328272 
1066	 0.142062386557872 
1067	 0.142096199459319 
1068	 0.14212555354375 
1069	 0.142141690378157 
1070	 0.142168465101579 
1071	 0.142200985310216 
1072	 0.142211510685947 
1073	 0.142229013797356 
1074	 0.142229141221583 
1075	 0.142200595220186 
1076	 0.142188942482659 
1077	 0.14217650456715 
1078	 0.142144328003778 
1079	 0.142108614119271 
1080	 0.142060196737563 
1081	 0.142050831710337 
1082	 0.142056089382773 
1083	 0.142039808879733 
1084	 0.1420377064872 
1085	 0.142026643653367 
1086	 0.14197757562664 
1087	 0.141964714229548 
1088	 0.141980555058716 
1089	 0.141987223268195 
1090	 0.141975438738636 
1091	 0.141958009072683 
1092	 0.141952686232651 
1093	 0.141954390817561 
1094	 0.141944599592907 
1095	 0.141936240621599 
1096	 0.141914060667465 
1097	 0.141916303289815 
1098	 0.141931737265921 
1099	 0.141977110842599 
1100	 0.141999078123 
1101	 0.142020692079219 
1102	 0.142039927215477 
1103	 0.142032983372474 
1104	 0.142078816019062 
1105	 0.142118705064906 
1106	 0.142150138222395 
1107	 0.142202283747799 
1108	 0.142246439520319 
1109	 0.142298039458192 
1110	 0.142366203232853 
1111	 0.142413926662038 
1112	 0.14244329513092 
1113	 0.142486422675562 
1114	 0.142524454289416 
1115	 0.142580308379783 
1116	 0.14266280264932 
1117	 0.142727988445683 
1118	 0.142809626714792 
1119	 0.142838353824599 
1120	 0.142882978238101 
1121	 0.142932573056078 
1122	 0.142987868311788 
1123	 0.143079553957352 
1124	 0.143166983597659 
1125	 0.143274258782555 
1126	 0.143357840708249 
1127	 0.14343836774246 
1128	 0.143509300403434 
1129	 0.143568069176601 
1130	 0.143629685077622 
1131	 0.143687517861633 
1132	 0.143748733692695 
1133	 0.143801437179113 
1134	 0.143859932428192 
1135	 0.143910676770161 
1136	 0.143993100235421 
1137	 0.144073407779215 
1138	 0.144156882903312 
1139	 0.144220043241704 
1140	 0.144276997204106 
1141	 0.144325592942882 
1142	 0.14434645392959 
1143	 0.144390998932742 
1144	 0.144437182027159 
1145	 0.144499338633504 
1146	 0.144593031908734 
1147	 0.144658106176811 
1148	 0.14472171684135 
1149	 0.144777286492089 
1150	 0.144814917369432 
1151	 0.144841857384144 
1152	 0.144898864203557 
1153	 0.144943270798877 
1154	 0.144987522387811 
1155	 0.145032919228621 
1156	 0.14507672551345 
1157	 0.145122317912281 
1158	 0.14515784117394 
1159	 0.145188468211331 
1160	 0.145219020225758 
1161	 0.145236173535234 
1162	 0.145260255198079 
1163	 0.145300375023271 
1164	 0.145325394126494 
1165	 0.145347161138064 
1166	 0.145351974437137 
1167	 0.145373901091872 
1168	 0.145389452584518 
1169	 0.145413871811723 
1170	 0.145457665187321 
1171	 0.145478484267631 
1172	 0.145489664054073 
1173	 0.145502149769452 
1174	 0.145497663920484 
1175	 0.145513117764681 
1176	 0.145538541262479 
1177	 0.145562092808667 
1178	 0.145606073177654 
1179	 0.145628400953371 
1180	 0.145630184512475 
1181	 0.145643856071949 
1182	 0.145642485331272 
1183	 0.145661821894425 
1184	 0.14568450459008 
1185	 0.145730662717739 
1186	 0.145743841729888 
1187	 0.145739785004642 
1188	 0.145756076514057 
1189	 0.1457690046197 
1190	 0.145780839025808 
1191	 0.145807737161884 
1192	 0.145827532910419 
1193	 0.145828673904089 
1194	 0.145844901429262 
1195	 0.14588218722649 
1196	 0.145903509664542 
1197	 0.145915037678872 
1198	 0.145932070101216 
1199	 0.145948530320175 
1200	 0.145954004628409 
1201	 0.145983277002005 
1202	 0.146033747772233 
1203	 0.146059673096474 
1204	 0.146089546441477 
1205	 0.146107769918714 
1206	 0.146098936588722 
1207	 0.146113371173945 
1208	 0.146139039530079 
1209	 0.14615965723692 
1210	 0.146191210947795 
1211	 0.146210366291654 
1212	 0.146216092615339 
1213	 0.146229785282704 
1214	 0.146241514016715 
1215	 0.146254896312506 
1216	 0.146270652542073 
1217	 0.146292049592817 
1218	 0.146311563396348 
1219	 0.146328538432761 
1220	 0.146351244336778 
1221	 0.146382224842722 
1222	 0.146403708591194 
1223	 0.14641898467615 
1224	 0.146442773023641 
1225	 0.146468732930295 
1226	 0.146490668801461 
1227	 0.146518670107077 
1228	 0.146542655017729 
1229	 0.146554215889462 
1230	 0.146574785217898 
1231	 0.146614101000158 
1232	 0.146633321454707 
1233	 0.146644938168497 
1234	 0.146648840820178 
1235	 0.146660899591234 
1236	 0.146655820657865 
1237	 0.146674513052598 
1238	 0.146721061006175 
1239	 0.146739548280533 
1240	 0.146753020380409 
1241	 0.146765722728947 
1242	 0.14675950506196 
1243	 0.146768688526861 
1244	 0.146791696902054 
1245	 0.146804274433563 
1246	 0.146815815825342 
1247	 0.146826725666345 
1248	 0.146834060068777 
1249	 0.146838769768614 
1250	 0.146842712835817 
1251	 0.14684814481406 
1252	 0.146859542427029 
1253	 0.146872507966811 
1254	 0.146886996468776 
1255	 0.146917061048505 
1256	 0.146922593673943 
1257	 0.146909836987576 
1258	 0.146911363285196 
1259	 0.146905258032334 
1260	 0.146906820263718 
1261	 0.146920225439727 
1262	 0.146931257445767 
1263	 0.146937104468926 
1264	 0.146950278614899 
1265	 0.146982401850399 
1266	 0.146997630178307 
1267	 0.147009380056069 
1268	 0.147008903340789 
1269	 0.147016380886204 
1270	 0.147009356607262 
1271	 0.147023805213532 
1272	 0.147051602554067 
1273	 0.147083744898225 
1274	 0.147126073296867 
1275	 0.147165470311504 
1276	 0.147207202288458 
1277	 0.147254618896656 
1278	 0.147301252294414 
1279	 0.147357900788118 
1280	 0.147444092240586 
1281	 0.147496478100696 
1282	 0.147536093840995 
1283	 0.14757366648563 
1284	 0.147588393620205 
1285	 0.147600873144991 
1286	 0.147650412587432 
1287	 0.147701984911238 
1288	 0.147736018097926 
1289	 0.147774040047524 
1290	 0.147807296772331 
1291	 0.14782538305881 
1292	 0.147840938371451 
1293	 0.147877605891614 
1294	 0.147867715530395 
1295	 0.147819744658287 
1296	 0.14778503762442 
1297	 0.147723553096331 
1298	 0.147679655159224 
1299	 0.147653245220229 
1300	 0.14761313622185 
1301	 0.147571525641588 
1302	 0.147526165109749 
1303	 0.147482252531841 
1304	 0.147418521154947 
1305	 0.14734843286062 
1306	 0.147277885661113 
1307	 0.147209670537125 
1308	 0.147143056107263 
1309	 0.147089020481226 
1310	 0.147052733288685 
1311	 0.147006801072792 
1312	 0.146961552021353 
1313	 0.146919761909062 
1314	 0.146872156441444 
1315	 0.146836985684678 
1316	 0.146819322344722 
1317	 0.146784560457733 
1318	 0.146745007140986 
1319	 0.146716486175256 
1320	 0.146665561293945 
1321	 0.146648899802657 
1322	 0.146669590487223 
1323	 0.146670260150779 
1324	 0.146680137909342 
1325	 0.146702511350276 
1326	 0.146698484098119 
1327	 0.146686281347057 
1328	 0.146683790322572 
1329	 0.146699775950144 
1330	 0.146729408827551 
1331	 0.146781298130004 
1332	 0.146825331592967 
1333	 0.146882372338172 
1334	 0.146927762205872 
1335	 0.146962878636142 
1336	 0.147013689805058 
1337	 0.147074959413433 
1338	 0.147120882322536 
1339	 0.147160583853227 
1340	 0.147210058422982 
1341	 0.14725396864188 
1342	 0.147306841718316 
1343	 0.147369753448666 
1344	 0.147443628902575 
1345	 0.147501738605341 
1346	 0.147549149626611 
1347	 0.147620892672664 
1348	 0.147690009129932 
1349	 0.147756252025688 
1350	 0.147829629644312 
1351	 0.1478955233679 
1352	 0.147949458434321 
1353	 0.148004874214826 
1354	 0.148065543073651 
1355	 0.148124513744002 
1356	 0.148176306071521 
1357	 0.148235018218867 
1358	 0.148298110062838 
1359	 0.148355648628984 
1360	 0.148405155251329 
1361	 0.148468672248672 
1362	 0.148549992873677 
1363	 0.148612073203071 
1364	 0.148672165304588 
1365	 0.148728093919601 
1366	 0.148772897879179 
1367	 0.148810732248238 
1368	 0.148853421198485 
1369	 0.148894972507638 
1370	 0.148920097205587 
1371	 0.148949334946415 
1372	 0.148983868514766 
1373	 0.149004134295847 
1374	 0.149032550492963 
1375	 0.149069302281805 
1376	 0.149093325455281 
1377	 0.149118446908829 
1378	 0.149130181405854 
1379	 0.149129195033166 
1380	 0.149126965285166 
1381	 0.149117161076028 
1382	 0.14910560100134 
1383	 0.149088756158931 
1384	 0.14907014272664 
1385	 0.149057583088343 
1386	 0.149025748194339 
1387	 0.148979300616168 
1388	 0.148939037284412 
1389	 0.148892694763413 
1390	 0.148836089253936 
1391	 0.148790146646968 
1392	 0.14873419670469 
1393	 0.148662340231817 
1394	 0.148581319136886 
1395	 0.148488506097107 
1396	 0.148391321636834 
1397	 0.148293355247941 
1398	 0.148190123201284 
1399	 0.148086814085087 
1400	 0.147976633961043 
1401	 0.147878587176484 
1402	 0.147780024048569 
1403	 0.147689785950001 
1404	 0.147615079311876 
1405	 0.147533436615025 
1406	 0.14744939042244 
1407	 0.147367282183846 
1408	 0.147279898809733 
1409	 0.147202872699328 
1410	 0.147134263466749 
1411	 0.147070833152056 
1412	 0.147012073891814 
1413	 0.14695817080258 
1414	 0.146915758622317 
1415	 0.146867388578742 
1416	 0.146837103571056 
1417	 0.146813377018011 
1418	 0.146793248907763 
1419	 0.14678939623965 
1420	 0.146785452793327 
1421	 0.146789422084696 
1422	 0.146793298428484 
1423	 0.146785847463267 
1424	 0.146774643602318 
1425	 0.146752627892792 
1426	 0.146737888308133 
1427	 0.14671800542491 
1428	 0.14670898369432 
1429	 0.146708871761115 
1430	 0.146708312284381 
1431	 0.146710065423425 
1432	 0.146714644546029 
1433	 0.146723042694075 
1434	 0.146729701742348 
1435	 0.146739577676875 
1436	 0.146747138916851 
1437	 0.146752971535274 
1438	 0.146758902555389 
1439	 0.14676085593199 
1440	 0.146771889061476 
1441	 0.146780564215746 
1442	 0.146783935446657 
1443	 0.146800416866368 
1444	 0.146811910949248 
1445	 0.146829100270618 
1446	 0.146859463723307 
1447	 0.146881077369267 
1448	 0.146902470697079 
1449	 0.146917935450176 
1450	 0.146926358328319 
1451	 0.146934056782749 
1452	 0.146928750085596 
1453	 0.146946988900238 
1454	 0.146975936913413 
1455	 0.146998961387261 
1456	 0.147035186423544 
1457	 0.147057858799898 
1458	 0.147069395738289 
1459	 0.147086630843506 
1460	 0.147101812870956 
1461	 0.147123014381182 
1462	 0.147146205295839 
1463	 0.147169648236343 
1464	 0.147199619694708 
1465	 0.147225580557167 
1466	 0.147248178544982 
1467	 0.147273086599681 
1468	 0.147293756591839 
1469	 0.147322031494062 
1470	 0.147357232669929 
1471	 0.147392131602117 
1472	 0.147424102180134 
1473	 0.147454735094647 
1474	 0.147472449294372 
1475	 0.147494136609422 
1476	 0.147525234792961 
1477	 0.147559662381709 
1478	 0.147607169382801 
1479	 0.147646759461534 
1480	 0.147685266923588 
1481	 0.147730568938031 
1482	 0.147775804694355 
1483	 0.147825530249654 
1484	 0.147869550831696 
1485	 0.147916123130171 
1486	 0.14795537173461 
1487	 0.147982995264602 
1488	 0.148016980180503 
1489	 0.148054601859537 
1490	 0.148083399366733 
1491	 0.148103949845832 
1492	 0.148139742120261 
1493	 0.148174509448332 
1494	 0.148216591337269 
1495	 0.148283239277227 
1496	 0.148324743972191 
1497	 0.148354463893062 
1498	 0.148387667452471 
1499	 0.14840523235599 
1500	 0.148433620860847 
1501	 0.14846853310297 
1502	 0.148503005915083 
1503	 0.148540013976366 
1504	 0.148583189123999 
1505	 0.148610321163163 
1506	 0.148632842394048 
1507	 0.148658012957328 
1508	 0.148686950554035 
1509	 0.148707813925967 
1510	 0.148739013369916 
1511	 0.148782191909646 
1512	 0.148802198013288 
1513	 0.148825984159775 
1514	 0.148873003807481 
1515	 0.148900133977106 
1516	 0.148920022527887 
1517	 0.148946888992613 
1518	 0.148982043740066 
1519	 0.149007899062732 
1520	 0.149027780001588 
1521	 0.149053845644679 
1522	 0.149086490195928 
1523	 0.149105718966571 
1524	 0.14911584204449 
1525	 0.149134140052226 
1526	 0.149142537071478 
1527	 0.149164830269642 
1528	 0.149207069823261 
1529	 0.149233933433937 
1530	 0.14926167449409 
1531	 0.149282375871272 
1532	 0.149289109564144 
1533	 0.149306006956951 
1534	 0.149325152774024 
1535	 0.149340046598597 
1536	 0.14935265022321 
1537	 0.149369451673958 
1538	 0.149389745048063 
1539	 0.149406219389342 
1540	 0.149427821656671 
1541	 0.149446001629068 
1542	 0.149452863848187 
1543	 0.149464883681344 
1544	 0.149479089486125 
1545	 0.14949585747067 
1546	 0.149522642188429 
1547	 0.149532982620951 
1548	 0.149546326281533 
1549	 0.14956770641425 
1550	 0.149559623780371 
1551	 0.149573452202558 
1552	 0.149613432933537 
1553	 0.149632228505919 
1554	 0.149658095307239 
1555	 0.149687851330949 
1556	 0.149689175047604 
1557	 0.149679111508825 
1558	 0.149689615696457 
1559	 0.149705726252724 
1560	 0.149723647241179 
1561	 0.149753965313053 
1562	 0.149774566422613 
1563	 0.149789320121353 
1564	 0.149812203281205 
1565	 0.149837146388586 
1566	 0.149860969302599 
1567	 0.149890009703952 
1568	 0.149910203944973 
1569	 0.149927537337698 
1570	 0.149940725197265 
1571	 0.149948452624986 
1572	 0.149961262853574 
1573	 0.149973874106249 
1574	 0.149980509545575 
1575	 0.149981901079717 
1576	 0.149990401784431 
1577	 0.14999769160184 
1578	 0.150007517979666 
1579	 0.15002833573223 
1580	 0.150040533174283 
1581	 0.150045514465945 
1582	 0.150052435149734 
1583	 0.150061757362612 
1584	 0.150065109487522 
1585	 0.150057299960345 
1586	 0.150063444103947 
1587	 0.15007603397795 
1588	 0.15008564970396 
1589	 0.150108782179871 
1590	 0.150117396268443 
1591	 0.15010718649919 
1592	 0.150110084028815 
1593	 0.150101107192636 
1594	 0.15011943390581 
1595	 0.150173893574646 
1596	 0.150204292424594 
1597	 0.150248665804007 
1598	 0.150270440118225 
1599	 0.150254210496852 
1600	 0.150255578719422 
1601	 0.150252981767572 
1602	 0.150260043056769 
1603	 0.150281645870496 
1604	 0.150300217575994 
1605	 0.150322014269639 
1606	 0.15034334438841 
1607	 0.150369253820844 
1608	 0.150386050352944 
1609	 0.15040704159807 
1610	 0.150415104751317 
1611	 0.150414690861122 
1612	 0.150422943736028 
1613	 0.150437121914501 
1614	 0.150453113139133 
1615	 0.150461828679632 
1616	 0.150471708716999 
1617	 0.15047875775142 
1618	 0.150479687187943 
1619	 0.150491519353169 
1620	 0.150506171876064 
1621	 0.150516377050449 
1622	 0.150521327807092 
1623	 0.150532835143756 
1624	 0.150550375601594 
1625	 0.150556402820691 
1626	 0.150560450475552 
1627	 0.150562273720443 
1628	 0.150553651024076 
1629	 0.15055565261619 
1630	 0.150560226339068 
1631	 0.150571218065488 
1632	 0.150585799177409 
1633	 0.150604648875001 
1634	 0.150636657912084 
1635	 0.150648994339518 
1636	 0.150653972385656 
1637	 0.150665190750472 
1638	 0.150667910280793 
1639	 0.150677338209459 
1640	 0.150694572355335 
1641	 0.150710948524489 
1642	 0.150724061401205 
1643	 0.150741637855903 
1644	 0.15076883705998 
1645	 0.150785654084181 
1646	 0.15080024183658 
1647	 0.150808656368278 
1648	 0.150814310136499 
1649	 0.150811624953662 
1650	 0.150792348010843 
1651	 0.150792594672835 
1652	 0.150794906618308 
1653	 0.150800501744096 
1654	 0.150821033409463 
1655	 0.150832235597768 
1656	 0.150838818383581 
1657	 0.150845243252914 
1658	 0.150848386426407 
1659	 0.15085950671976 
1660	 0.150876029419305 
1661	 0.150883518368188 
1662	 0.150895984383055 
1663	 0.150898555472321 
1664	 0.150884353602786 
1665	 0.15088228024132 
1666	 0.15088077572619 
1667	 0.150885892033787 
1668	 0.15089678789761 
1669	 0.150908527473746 
1670	 0.15092943857548 
1671	 0.150940277153768 
1672	 0.150943559096595 
1673	 0.15095637662209 
1674	 0.150977710474652 
1675	 0.150980281260988 
1676	 0.150981323614797 
1677	 0.150976842645806 
1678	 0.150942064938007 
1679	 0.150941240015649 
1680	 0.150962243628526 
1681	 0.150971702309644 
1682	 0.150986920242854 
1683	 0.151004973696756 
1684	 0.151015468309991 
1685	 0.151039743009235 
1686	 0.151091372256175 
1687	 0.151110437079783 
1688	 0.151120444288268 
1689	 0.151122319091185 
1690	 0.151093142597022 
1691	 0.151092324498562 
1692	 0.151102916363112 
1693	 0.151110221844158 
1694	 0.151137340706604 
1695	 0.1511376116594 
1696	 0.151106268503638 
1697	 0.151111634059523 
1698	 0.15112004458485 
1699	 0.151138297092406 
1700	 0.151202684631562 
1701	 0.15121755278143 
1702	 0.151205596927824 
1703	 0.151201746161232 
1704	 0.151171790020558 
1705	 0.151167522238353 
1706	 0.151183982763513 
1707	 0.151182940104386 
1708	 0.151178614283626 
1709	 0.15118141369102 
1710	 0.15117646905621 
1711	 0.15118614725921 
1712	 0.151210903922498 
1713	 0.151230328013215 
1714	 0.151256363998334 
1715	 0.151270683583144 
1716	 0.151275553486389 
1717	 0.15129080774342 
1718	 0.151308463404959 
1719	 0.151318531113026 
1720	 0.151348661639369 
1721	 0.151334725583362 
1722	 0.15127154256425 
1723	 0.151258376421362 
1724	 0.151247222126304 
1725	 0.151242441642277 
1726	 0.151278615263601 
1727	 0.151277835638198 
1728	 0.151243814239901 
1729	 0.151231703990211 
1730	 0.151226308226739 
1731	 0.151216720911676 
1732	 0.15121047320087 
1733	 0.15120371984593 
1734	 0.151191181583885 
1735	 0.151184827118669 
1736	 0.151184493436627 
1737	 0.151182895543763 
1738	 0.151184960679633 
1739	 0.151180680621198 
1740	 0.151174037600506 
1741	 0.151166556372614 
1742	 0.15115478265385 
1743	 0.151140472629226 
1744	 0.151126676925428 
1745	 0.151111002490533 
1746	 0.151088267036812 
1747	 0.151078343670483 
1748	 0.151070188082503 
1749	 0.151070060115519 
1750	 0.151069571479198 
1751	 0.151065105259691 
1752	 0.151039140529982 
1753	 0.151001815925864 
1754	 0.150982939979891 
1755	 0.150972967505341 
1756	 0.15096299036268 
1757	 0.150956254810749 
1758	 0.150949907085622 
1759	 0.150942017962469 
1760	 0.150944702627399 
1761	 0.15094935783763 
1762	 0.150947171192591 
1763	 0.150955829417808 
1764	 0.150945879264977 
1765	 0.150931646061447 
1766	 0.150937105878346 
1767	 0.150909082281659 
1768	 0.150889650031677 
1769	 0.150903984270012 
1770	 0.150881370089267 
1771	 0.1508650792874 
1772	 0.150871503410354 
1773	 0.150850700064179 
1774	 0.15085314384031 
1775	 0.150877140157409 
1776	 0.150869665365889 
1777	 0.150860166102539 
1778	 0.150873949203924 
1779	 0.150890816185303 
1780	 0.150907376513059 
1781	 0.15093287971721 
1782	 0.150938584440669 
1783	 0.150898280627731 
1784	 0.150887892511857 
1785	 0.150881882496444 
1786	 0.150886303179187 
1787	 0.150927191951018 
1788	 0.150941305728541 
1789	 0.150938396212145 
1790	 0.150939444875883 
1791	 0.150922266896914 
1792	 0.150921690115668 
1793	 0.150927970164886 
1794	 0.150957484784319 
1795	 0.151018527887479 
1796	 0.151029669298325 
1797	 0.151035708322823 
1798	 0.151038842074759 
1799	 0.150997418694024 
1800	 0.150999488683828 
1801	 0.149061595008408 
1802	 0.149102193195933 
1803	 0.149147881265317 
1804	 0.149186988235337 
1805	 0.149230493733944 
1806	 0.149246883997068 
1807	 0.149238847460501 
1808	 0.149250168395433 
1809	 0.149263759849853 
1810	 0.149276246392065 
1811	 0.149296001075895 
1812	 0.149311820851285 
1813	 0.149327519855058 
1814	 0.149322518421775 
1815	 0.149320215399412 
1816	 0.149362346201384 
1817	 0.149379677791342 
1818	 0.149378332324433 
1819	 0.149408868102621 
1820	 0.149465738675661 
1821	 0.149486472679956 
1822	 0.149493856285326 
1823	 0.149506773780227 
1824	 0.149481770729137 
1825	 0.149455182050335 
1826	 0.149493442300711 
1827	 0.149510942992369 
1828	 0.149495277597399 
1829	 0.149454422946375 
1830	 0.14943655074447 
1831	 0.149386709699833 
1832	 0.14936385787889 
1833	 0.149391520234947 
1834	 0.149407464545816 
1835	 0.149419259201189 
1836	 0.149437668462555 
1837	 0.149465246015682 
1838	 0.149501436273255 
1839	 0.149526587100644 
1840	 0.149555004432691 
1841	 0.149568995754435 
1842	 0.149558672302661 
1843	 0.149559275255907 
1844	 0.149562209095074 
1845	 0.14953414413859 
1846	 0.149501929644918 
1847	 0.149481330689375 
1848	 0.14945622489973 
1849	 0.149455733524829 
1850	 0.149456479592162 
1851	 0.149494258920124 
1852	 0.149477510883342 
1853	 0.149432926911656 
1854	 0.14941616956378 
1855	 0.149415551253419 
1856	 0.14943427398722 
1857	 0.149452787760232 
1858	 0.149451033080018 
1859	 0.14943502227061 
1860	 0.149409712996664 
1861	 0.149363799309643 
1862	 0.149338530381854 
1863	 0.149311835317411 
1864	 0.149249984056369 
1865	 0.14919568775971 
1866	 0.149131117632142 
1867	 0.149048758850121 
1868	 0.148967192850222 
1869	 0.148871611512083 
1870	 0.148778372552519 
1871	 0.148686030541299 
1872	 0.148594974635207 
1873	 0.148507183556475 
1874	 0.148410197527666 
1875	 0.14828823481427 
1876	 0.148154513167449 
1877	 0.14800429712926 
1878	 0.147850915271749 
1879	 0.14768897753204 
1880	 0.147505641466296 
1881	 0.147308002978366 
1882	 0.147099195597554 
1883	 0.146869417469241 
1884	 0.146627280475028 
1885	 0.146396669116156 
1886	 0.146139153980882 
1887	 0.145856258688656 
1888	 0.145553721048155 
1889	 0.145223762706515 
1890	 0.144886271967241 
1891	 0.144558242042638 
1892	 0.144237221631288 
1893	 0.143906488593898 
1894	 0.143577220094705 
1895	 0.143235629985619 
1896	 0.14287981781857 
1897	 0.142526815600143 
1898	 0.142189708543384 
1899	 0.141865101814434 
1900	 0.14156000209787 
1901	 0.141258844538715 
1902	 0.140973441982777 
1903	 0.140700820461865 
1904	 0.140442859130814 
1905	 0.140201447562226 
1906	 0.139969803813913 
1907	 0.139744200950992 
1908	 0.139533315150111 
1909	 0.139316974942642 
1910	 0.139110158600837 
1911	 0.138939883523747 
1912	 0.13878023286965 
1913	 0.138633738890214 
1914	 0.138525532578113 
1915	 0.138402092624328 
1916	 0.138276188075025 
1917	 0.138153975743784 
1918	 0.138045857802629 
1919	 0.13794395941675 
1920	 0.137865719148289 
1921	 0.137794142469361 
1922	 0.137729200898822 
1923	 0.137667471722553 
1924	 0.13761575380848 
1925	 0.13756714182745 
1926	 0.137542555083419 
1927	 0.137535601771092 
1928	 0.137533155671831 
1929	 0.137538949319159 
1930	 0.137537383921181 
1931	 0.137538683150469 
1932	 0.137531561639698 
1933	 0.137538373099535 
1934	 0.137563217497988 
1935	 0.137592197053863 
1936	 0.137632824438194 
1937	 0.137673886436822 
1938	 0.137724739393976 
1939	 0.137772747178963 
1940	 0.137819176946503 
1941	 0.137862099900341 
1942	 0.137925718475909 
1943	 0.137988422923846 
1944	 0.138047677244249 
1945	 0.138117452805889 
1946	 0.138180416181156 
1947	 0.138232028408357 
1948	 0.138292852691029 
1949	 0.138357294314597 
1950	 0.138428505937765 
1951	 0.13849572272802 
1952	 0.138583688470974 
1953	 0.138690937459951 
1954	 0.138790371021465 
1955	 0.138891097078339 
1956	 0.13898749610936 
1957	 0.13907155508367 
1958	 0.139132077143674 
1959	 0.139210374850876 
1960	 0.139276864771458 
1961	 0.139369238936063 
1962	 0.139482239005309 
1963	 0.139593425128155 
1964	 0.13971439331934 
1965	 0.139851077298842 
1966	 0.139968357497607 
1967	 0.140076116358672 
1968	 0.140189310498386 
1969	 0.140295239651797 
1970	 0.140406322834086 
1971	 0.140521200892234 
1972	 0.140640623672151 
1973	 0.140758916994769 
1974	 0.140881250960292 
1975	 0.141011514190801 
1976	 0.141141273513787 
1977	 0.141270377135203 
1978	 0.141410691716307 
1979	 0.141525717899438 
1980	 0.14163689224912 
1981	 0.141756863635776 
1982	 0.141870433325809 
1983	 0.141979489958997 
1984	 0.14209898308593 
1985	 0.142213744281529 
1986	 0.142303219454175 
1987	 0.142418819361303 
1988	 0.142563754301708 
1989	 0.142688063609438 
1990	 0.142805340156783 
1991	 0.142928176195129 
1992	 0.143040080792112 
1993	 0.143130005875215 
1994	 0.143243012245084 
1995	 0.143369823396128 
1996	 0.143482583760285 
1997	 0.143590147139442 
1998	 0.14370775585789 
1999	 0.143828566264019 
2000	 0.143941918792341 
2001	 0.1440618173381 
2002	 0.14418002747418 
2003	 0.144280160947253 
2004	 0.144373839431533 
2005	 0.144485325420864 
2006	 0.144606922433313 
2007	 0.14472905867323 
2008	 0.144864949514133 
2009	 0.144986108077667 
2010	 0.145108611772566 
2011	 0.145219246645059 
2012	 0.145309988240365 
2013	 0.145416021779372 
2014	 0.145531041136744 
2015	 0.145626542595729 
2016	 0.145741641151765 
2017	 0.145858460823446 
2018	 0.145964979500533 
2019	 0.146061037893785 
2020	 0.146169241066544 
2021	 0.146281358283372 
2022	 0.146385397082924 
2023	 0.146493156192652 
2024	 0.146596872499187 
2025	 0.146683047473 
2026	 0.146784590628187 
2027	 0.146900260534498 
2028	 0.147012111363573 
2029	 0.147112024502254 
2030	 0.147204999318667 
2031	 0.147309653182635 
2032	 0.147412972121949 
2033	 0.147511081233599 
2034	 0.147629933018351 
2035	 0.147716600752724 
2036	 0.147759829555453 
2037	 0.147839802274242 
2038	 0.147925813855554 
2039	 0.148012856920236 
2040	 0.148133642072588 
2041	 0.148228148965008 
2042	 0.148299296790728 
2043	 0.148353177663677 
2044	 0.148412773480892 
2045	 0.148448209531987 
2046	 0.148514598856355 
2047	 0.148605728991376 
2048	 0.148673319306229 
2049	 0.148737080525108 
2050	 0.148805514903242 
2051	 0.148857671329212 
2052	 0.148924230632284 
2053	 0.149020388858269 
2054	 0.149093862745127 
2055	 0.149163723495783 
2056	 0.149214610292872 
2057	 0.149275640459919 
2058	 0.149331934137494 
2059	 0.149383311447495 
2060	 0.149437203389477 
2061	 0.149486841823417 
2062	 0.149513250464924 
2063	 0.149564412679142 
2064	 0.149630591097327 
2065	 0.149693591985689 
2066	 0.149770412362177 
2067	 0.149839537656898 
2068	 0.149906895474207 
2069	 0.149970452008018 
2070	 0.150030248153013 
2071	 0.150088429618582 
2072	 0.150140631627799 
2073	 0.150171760934582 
2074	 0.150237970226871 
2075	 0.15032273216858 
2076	 0.150395869172694 
2077	 0.150491229524318 
2078	 0.150569468365301 
2079	 0.150624301678504 
2080	 0.150688879533252 
2081	 0.150766958680362 
2082	 0.150827586917096 
2083	 0.150863549768721 
2084	 0.15092689591208 
2085	 0.150982259921184 
2086	 0.151032362740154 
2087	 0.151083453787301 
2088	 0.151138556406279 
2089	 0.15119549926527 
2090	 0.151246182878803 
2091	 0.151303665602337 
2092	 0.151376811227645 
2093	 0.151437076736586 
2094	 0.151495305987129 
2095	 0.151546212537855 
2096	 0.151584321052243 
2097	 0.151629646425698 
2098	 0.151670362017053 
2099	 0.151708032896515 
2100	 0.151771265069354 
2101	 0.151853744572574 
2102	 0.15192355851111 
2103	 0.152009320222543 
2104	 0.152076510918674 
2105	 0.152130170843832 
2106	 0.152186331770251 
2107	 0.152228832197093 
2108	 0.152291707772187 
2109	 0.152356319215684 
2110	 0.152430718821002 
2111	 0.152527955973504 
2112	 0.152618414259225 
2113	 0.152713690568465 
2114	 0.152806396730489 
2115	 0.152886847246738 
2116	 0.15295813391111 
2117	 0.153038374425582 
2118	 0.153119933614555 
2119	 0.153184755061592 
2120	 0.153252031266343 
2121	 0.153308464059045 
2122	 0.153332963076992 
2123	 0.153381765637781 
2124	 0.153448105810134 
2125	 0.153499274576023 
2126	 0.153551165712671 
2127	 0.153598627172421 
2128	 0.153632014028211 
2129	 0.153672014266768 
2130	 0.153722920398709 
2131	 0.153761236129725 
2132	 0.153791719603293 
2133	 0.153816221716928 
2134	 0.153841068839545 
2135	 0.153869490368856 
2136	 0.153865568508986 
2137	 0.153853113077028 
2138	 0.153826632810056 
2139	 0.153759428147183 
2140	 0.153709964744547 
2141	 0.153664316534656 
2142	 0.153614454071539 
2143	 0.153558376105477 
2144	 0.153505629456268 
2145	 0.153462005575551 
2146	 0.153405590321408 
2147	 0.153325903140755 
2148	 0.15327344453604 
2149	 0.153218726822552 
2150	 0.153165396050235 
2151	 0.153102513453296 
2152	 0.153054074072313 
2153	 0.152980427270672 
2154	 0.15288790935203 
2155	 0.152790135894062 
2156	 0.152673029347792 
2157	 0.15257106348089 
2158	 0.152461278927889 
2159	 0.152360362674134 
2160	 0.152289860401802 
2161	 0.152189990563874 
2162	 0.152068789321394 
2163	 0.151955236903278 
2164	 0.151829681276805 
2165	 0.151703749561864 
2166	 0.151587100758645 
2167	 0.151479616254093 
2168	 0.151371810419765 
2169	 0.151268035797211 
2170	 0.151158173713537 
2171	 0.151053472096772 
2172	 0.150941928128348 
2173	 0.150826988238405 
2174	 0.150703420830442 
2175	 0.15057074800338 
2176	 0.150442238386439 
2177	 0.150311269926779 
2178	 0.15017391695693 
2179	 0.150028564650877 
2180	 0.149894482941566 
2181	 0.149744514994775 
2182	 0.14961645320229 
2183	 0.149506806346637 
2184	 0.149415044739882 
2185	 0.149314404424751 
2186	 0.149226987723105 
2187	 0.149126987247181 
2188	 0.149006154830916 
2189	 0.148922109685863 
2190	 0.148858185286254 
2191	 0.148779340355087 
2192	 0.148722165480727 
2193	 0.14864742574525 
2194	 0.148544218679973 
2195	 0.148461855920871 
2196	 0.148380458781314 
2197	 0.148313034419327 
2198	 0.148265854067806 
2199	 0.148208484648686 
2200	 0.148158117281165 
2201	 0.148108290146678 
2202	 0.148046155307461 
2203	 0.147991174033924 
2204	 0.147952010464876 
2205	 0.147923649274436 
2206	 0.147897318642923 
2207	 0.14788154830659 
2208	 0.147870175431984 
2209	 0.147859881078471 
2210	 0.147864580222881 
2211	 0.147880410031767 
2212	 0.147901490862169 
2213	 0.147936488606427 
2214	 0.147970504890265 
2215	 0.148018224188138 
2216	 0.148051986974466 
2217	 0.14809022245676 
2218	 0.148110705835 
2219	 0.148106239897944 
2220	 0.148115434442967 
2221	 0.148134162995743 
2222	 0.148129945031372 
2223	 0.14810815254877 
2224	 0.148114182078221 
2225	 0.148119561091554 
2226	 0.148111352923919 
2227	 0.148127117611113 
2228	 0.148180719483371 
2229	 0.148191436000989 
2230	 0.14818615569357 
2231	 0.14818317360454 
2232	 0.148157318015182 
2233	 0.14815632861156 
2234	 0.148171913802524 
2235	 0.148178311003307 
2236	 0.148184264631165 
2237	 0.14819830064089 
2238	 0.148212275674345 
2239	 0.148228332885995 
2240	 0.148260423555463 
2241	 0.148280419455665 
2242	 0.148301774554635 
2243	 0.14830741529849 
2244	 0.148298236304078 
2245	 0.148287033771307 
2246	 0.148288544471189 
2247	 0.148268046320962 
2248	 0.148261150882029 
2249	 0.148259247947558 
2250	 0.148276462245374 
2251	 0.1483046442319 
2252	 0.1483186459152 
2253	 0.148348783468599 
2254	 0.14836770430386 
2255	 0.148367268611689 
2256	 0.148377765321681 
2257	 0.148399097624444 
2258	 0.148407704892439 
2259	 0.148396741152025 
2260	 0.148405546862124 
2261	 0.148438361840151 
2262	 0.148445880913791 
2263	 0.148440589497634 
2264	 0.148447216195331 
2265	 0.14843446604348 
2266	 0.148441718017766 
2267	 0.148478790193086 
2268	 0.1485038101805 
2269	 0.14853674808314 
2270	 0.148552356684665 
2271	 0.148563251735501 
2272	 0.148553825873561 
2273	 0.148520174774128 
2274	 0.148519005764228 
2275	 0.14853602133891 
2276	 0.148578197730711 
2277	 0.148601726444866 
2278	 0.148636436574432 
2279	 0.148664218662011 
2280	 0.148680945505991 
2281	 0.148702907977677 
2282	 0.14872538581891 
2283	 0.14876538197227 
2284	 0.148816939080568 
2285	 0.148850933981296 
2286	 0.148898142219241 
2287	 0.148932060430816 
2288	 0.148949735683677 
2289	 0.1489578099964 
2290	 0.148944824478745 
2291	 0.148961953312148 
2292	 0.148982137913498 
2293	 0.14899688224412 
2294	 0.1490468447657 
2295	 0.149069476424663 
2296	 0.149054952660566 
2297	 0.149055287141968 
2298	 0.149078714382073 
2299	 0.149105088537228 
2300	 0.149163935877116 
2301	 0.149204830181485 
2302	 0.149199178755233 
2303	 0.149167932597452 
2304	 0.149159320819176 
2305	 0.149150987559943 
2306	 0.149137316761652 
2307	 0.14914576329797 
2308	 0.149144570400368 
2309	 0.149118671493838 
2310	 0.149115541028218 
2311	 0.149146257454693 
2312	 0.149132368971239 
2313	 0.149086919722647 
2314	 0.149056449083449 
2315	 0.149006750928318 
2316	 0.148989740401792 
2317	 0.148994459798216 
2318	 0.149002475890244 
2319	 0.149021969382821 
2320	 0.149046566270026 
2321	 0.149099818303304 
2322	 0.149124011463785 
2323	 0.149135282553729 
2324	 0.149143006756261 
2325	 0.149113321638154 
2326	 0.14911819778124 
2327	 0.149150982189182 
2328	 0.149179275069196 
2329	 0.149173472309131 
2330	 0.149208359563604 
2331	 0.149226387273931 
2332	 0.149237756796531 
2333	 0.149290766338314 
2334	 0.149320289455839 
2335	 0.149373954368878 
2336	 0.14942275258261 
2337	 0.149450295850314 
2338	 0.149494939365083 
2339	 0.149478698653421 
2340	 0.149437687591217 
2341	 0.149423261446089 
2342	 0.149417214062941 
2343	 0.149424342279281 
2344	 0.149493539197005 
2345	 0.149526539756978 
2346	 0.149561092933894 
2347	 0.14957493261071 
2348	 0.149577680887367 
2349	 0.149567963638255 
2350	 0.149539283307615 
2351	 0.149513626600812 
2352	 0.149471928284948 
2353	 0.149439372656117 
2354	 0.149421187024906 
2355	 0.14940148192125 
2356	 0.149397160941974 
2357	 0.149337631864169 
2358	 0.149210938560093 
2359	 0.149165570611094 
2360	 0.149140026400685 
2361	 0.149109564708287 
2362	 0.14914254644127 
2363	 0.14913055996821 
2364	 0.149047332437243 
2365	 0.149026856966203 
2366	 0.149060349811624 
2367	 0.14906097101783 
2368	 0.14907650923476 
2369	 0.149056054830742 
2370	 0.149013730578222 
2371	 0.148939592359736 
2372	 0.148850385623463 
2373	 0.148789607604552 
2374	 0.148688966782363 
2375	 0.148591063726809 
2376	 0.148503560959383 
2377	 0.148455055803853 
2378	 0.148461197205781 
2379	 0.148450623046656 
2380	 0.148475233274495 
2381	 0.148501647501829 
2382	 0.148519249475436 
2383	 0.14855650738042 
2384	 0.148535218060186 
2385	 0.148446489607255 
2386	 0.148343900073233 
2387	 0.148237369455179 
2388	 0.148099248636284 
2389	 0.147996301739351 
2390	 0.147911458781459 
2391	 0.147794411762288 
2392	 0.147722113623709 
2393	 0.147715381135408 
2394	 0.147707768801518 
2395	 0.147669481586682 
2396	 0.147623780729083 
2397	 0.147552724054354 
2398	 0.147460664446584 
2399	 0.147389007306659 
2400	 0.147416484830664 
2401	 0.14740518058002 
2402	 0.147340340661747 
2403	 0.147314824783111 
2404	 0.147171139993065 
2405	 0.147084347688524 
2406	 0.14700131471508 
2407	 0.146830023946801 
2408	 0.146774620277837 
2409	 0.146669429790678 
2410	 0.146608965075908 
2411	 0.1466850544339 
2412	 0.146650286609759 
2413	 0.146547272403997 
2414	 0.146437557146763 
2415	 0.146312536737071 
2416	 0.146226675717475 
2417	 0.146175288896319 
2418	 0.146135728695986 
2419	 0.146138095917745 
2420	 0.146079223536605 
2421	 0.146052702127654 
2422	 0.145958833782815 
2423	 0.145749005802132 
2424	 0.145620346935013 
2425	 0.145488269038684 
2426	 0.145378297319295 
2427	 0.145335038743041 
2428	 0.145271038281256 
2429	 0.145190495055627 
2430	 0.145092838378385 
2431	 0.145015469783765 
2432	 0.144904310018713 
2433	 0.144721557868045 
2434	 0.144568479891559 
2435	 0.144473628173233 
2436	 0.144305798239312 
2437	 0.144074016699454 
2438	 0.144009850853362 
2439	 0.143913922417194 
2440	 0.143834329246674 
2441	 0.143930132569975 
2442	 0.143908194833999 
2443	 0.143858253349615 
2444	 0.143793221511453 
2445	 0.143669160290685 
2446	 0.143582225493096 
2447	 0.143458942601703 
2448	 0.14336787676646 
2449	 0.143331921908902 
2450	 0.143247452129864 
2451	 0.14312616924508 
2452	 0.142996604425111 
2453	 0.142878808872632 
2454	 0.142807232690137 
2455	 0.142749836435992 
2456	 0.142680764209223 
2457	 0.142638743989779 
2458	 0.142543067007365 
2459	 0.142391530198614 
2460	 0.142253424413874 
2461	 0.142109603058611 
2462	 0.141982352778984 
2463	 0.141842079460332 
2464	 0.141762018750855 
2465	 0.141737076927863 
2466	 0.141618890292969 
2467	 0.141472700322199 
2468	 0.14134754129982 
2469	 0.141184453732035 
2470	 0.141144451586218 
2471	 0.141106561516785 
2472	 0.141049922702018 
2473	 0.140959915566611 
2474	 0.1409395466996 
2475	 0.140862885129523 
2476	 0.140676364481919 
2477	 0.14059802401441 
2478	 0.140477444076142 
2479	 0.140355026611905 
2480	 0.140353163062034 
2481	 0.14028477159637 
2482	 0.140173094708824 
2483	 0.140057494158274 
2484	 0.139960378112204 
2485	 0.139912347070316 
2486	 0.139902779643998 
2487	 0.13991507024229 
2488	 0.139963084396465 
2489	 0.140010218432225 
2490	 0.140021822618257 
2491	 0.140070135949377 
2492	 0.140079738798679 
2493	 0.140056275059062 
2494	 0.139919088284551 
2495	 0.139611439251563 
2496	 0.139287238884124 
2497	 0.139065625512982 
2498	 0.139150692520877 
2499	 0.139349937750863 
2500	 0.139372163301375 
