Wavelength	MM600004.asd
350	 7.08431584009031E-02 
351	 7.72458994558509E-02 
352	 7.45439957514543E-02 
353	 6.63529347445553E-02 
354	 6.32122325620551E-02 
355	 6.24042905898064E-02 
356	 6.33632612990272E-02 
357	 6.56930109736289E-02 
358	 6.87844578737819E-02 
359	 6.81780693809584E-02 
360	 6.70310130518953E-02 
361	 7.18791675668189E-02 
362	 6.99926970440737E-02 
363	 6.88030436101852E-02 
364	 7.14162199311793E-02 
365	 7.06904729754084E-02 
366	 6.85994126755132E-02 
367	 6.81093896352807E-02 
368	 7.11976617338328E-02 
369	 7.56630562161143E-02 
370	 7.60141262644447E-02 
371	 7.31259358087956E-02 
372	 7.22853661210822E-02 
373	 7.59310914974461E-02 
374	 0.079287043409536 
375	 0.079567093711502 
376	 7.89956188882878E-02 
377	 0.077614692051154 
378	 7.74401256103701E-02 
379	 7.97593592550722E-02 
380	 8.11176217531691E-02 
381	 8.07230547531669E-02 
382	 8.07648923932967E-02 
383	 8.47818204847566E-02 
384	 0.084550192424072 
385	 8.36955127413903E-02 
386	 8.48157907849906E-02 
387	 8.52656114990755E-02 
388	 8.56135317632656E-02 
389	 0.086246225254314 
390	 8.73716445225878E-02 
391	 8.84093861515935E-02 
392	 8.95373352967895E-02 
393	 9.10662823988489E-02 
394	 9.32115953027089E-02 
395	 9.25931407988454E-02 
396	 0.092835692857973 
397	 9.54975988448372E-02 
398	 9.52309657797702E-02 
399	 9.55401744729078E-02 
400	 9.65471341956878E-02 
401	 9.72419025898795E-02 
402	 9.75052910250335E-02 
403	 9.79066104986747E-02 
404	 9.85186110237635E-02 
405	 9.88991509961273E-02 
406	 9.98964867818745E-02 
407	 0.101119846108981 
408	 0.10181068576977 
409	 0.10068002078262 
410	 0.100487303112058 
411	 0.101404979766596 
412	 0.102342810401291 
413	 0.103139953138989 
414	 0.103329244809546 
415	 0.103071157652108 
416	 0.103293461297484 
417	 0.103403273952964 
418	 0.103607080144976 
419	 0.104109016353762 
420	 0.104555329000849 
421	 0.104481543150673 
422	 0.104245971187269 
423	 0.104639952675029 
424	 0.105163480743847 
425	 0.105184537030755 
426	 0.104689977423698 
427	 0.104729066457742 
428	 0.105165919745478 
429	 0.105467782180407 
430	 0.10519878636966 
431	 0.105163567949397 
432	 0.105164024427474 
433	 0.10519637756929 
434	 0.105476785903757 
435	 0.105797343461539 
436	 0.105979112398142 
437	 0.105945003507034 
438	 0.105759523241657 
439	 0.106137051172093 
440	 0.106779862326982 
441	 0.106961713671516 
442	 0.107048201620463 
443	 0.107359656450096 
444	 0.107837459012719 
445	 0.10787041276925 
446	 0.107951214957328 
447	 0.108255936716134 
448	 0.108752487679952 
449	 0.108941105527883 
450	 0.109284660907806 
451	 0.109786068581073 
452	 0.110051303493596 
453	 0.110240597183733 
454	 0.110296928172096 
455	 0.110300897946319 
456	 0.110794375904061 
457	 0.111030673335298 
458	 0.111112578844246 
459	 0.111474515161236 
460	 0.111930408993835 
461	 0.111882929939177 
462	 0.11150509109163 
463	 0.112079800954276 
464	 0.112392843186865 
465	 0.112491165324927 
466	 0.112689585871288 
467	 0.112916143603053 
468	 0.11302081082626 
469	 0.112971009460246 
470	 0.112862129889943 
471	 0.113207009406631 
472	 0.113525434563623 
473	 0.113498426184249 
474	 0.113565088705519 
475	 0.113775105043328 
476	 0.114010044483872 
477	 0.114095075463592 
478	 0.114148860720238 
479	 0.114240052055632 
480	 0.114388224932712 
481	 0.114553730979524 
482	 0.114725721932732 
483	 0.114874278301495 
484	 0.114974900973984 
485	 0.115026378791291 
486	 0.115126508954457 
487	 0.115258818875019 
488	 0.115318709020324 
489	 0.115425350154052 
490	 0.115499558204952 
491	 0.115548154438292 
492	 0.115922498523655 
493	 0.11596849490205 
494	 0.115858327429794 
495	 0.116076477848995 
496	 0.116224772199217 
497	 0.116191441808105 
498	 0.116082288252227 
499	 0.116278106493742 
500	 0.116507069262209 
501	 0.116695910486374 
502	 0.116829267757409 
503	 0.11689629085244 
504	 0.116883425118443 
505	 0.116847116056551 
506	 0.116901433916713 
507	 0.117055160176629 
508	 0.117133184429539 
509	 0.117073292504618 
510	 0.11721541140651 
511	 0.117290304439534 
512	 0.117341161195297 
513	 0.11753214558873 
514	 0.117515793987125 
515	 0.117493572499387 
516	 0.117609949506035 
517	 0.117824691874051 
518	 0.117927883439108 
519	 0.11794497315123 
520	 0.117980715878557 
521	 0.118063539177362 
522	 0.118163621461042 
523	 0.118233901660777 
524	 0.118217560354435 
525	 0.118271451469565 
526	 0.118322865100966 
527	 0.118326321269015 
528	 0.118512279492939 
529	 0.118600270847181 
530	 0.118599675778605 
531	 0.118701950602672 
532	 0.118819579848926 
533	 0.118893121460821 
534	 0.118910168763909 
535	 0.118939529808151 
536	 0.119003089086269 
537	 0.119107341528973 
538	 0.119236474125167 
539	 0.119314562519196 
540	 0.11932922141195 
541	 0.119322959644208 
542	 0.119400342593665 
543	 0.119504712154839 
544	 0.119559495275082 
545	 0.119539954771993 
546	 0.119654554985317 
547	 0.119728283367088 
548	 0.119742843462461 
549	 0.119815618127787 
550	 0.119860976479646 
551	 0.119893775991664 
552	 0.11994547569166 
553	 0.120047702193014 
554	 0.120141552619442 
555	 0.120229748478271 
556	 0.120343453309792 
557	 0.120455933329095 
558	 0.120533668079824 
559	 0.120577210404618 
560	 0.120648148465706 
561	 0.120682457795714 
562	 0.120720064077204 
563	 0.120809347284564 
564	 0.120846643417742 
565	 0.120837312930467 
566	 0.120836175280522 
567	 0.120942021679657 
568	 0.121091309680128 
569	 0.121245556019545 
570	 0.121394023235989 
571	 0.121613420787938 
572	 0.121760177138868 
573	 0.121827455519661 
574	 0.121904734651567 
575	 0.121941129077242 
576	 0.122019471679159 
577	 0.122149984975883 
578	 0.122133395795639 
579	 0.122142780584781 
580	 0.122199394059701 
581	 0.122266679816405 
582	 0.122373191212168 
583	 0.122531778612289 
584	 0.122715424474293 
585	 0.122844134177369 
586	 0.122962449269377 
587	 0.123029041170494 
588	 0.123014038346231 
589	 0.123028200506578 
590	 0.123076295441103 
591	 0.123155831378962 
592	 0.123258500218691 
593	 0.123323364937306 
594	 0.123416283838155 
595	 0.123568293582356 
596	 0.123653759279285 
597	 0.123694810172435 
598	 0.123747936849157 
599	 0.123876151501976 
600	 0.123996107599276 
601	 0.124088348534733 
602	 0.124154781009135 
603	 0.124221901367219 
604	 0.124255399775604 
605	 0.12426877777472 
606	 0.124295160597655 
607	 0.124371539368926 
608	 0.124445742447105 
609	 0.12450779079398 
610	 0.124601070021965 
611	 0.124659318221853 
612	 0.124739406137856 
613	 0.124881000789999 
614	 0.124972559768478 
615	 0.125005611354475 
616	 0.125022115756631 
617	 0.125095439876379 
618	 0.125221461240594 
619	 0.125300148854817 
620	 0.125295808126042 
621	 0.125333578515655 
622	 0.125414478410884 
623	 0.12549231431995 
624	 0.125511387664007 
625	 0.125529313784603 
626	 0.125561238545965 
627	 0.125613543490862 
628	 0.125686345727933 
629	 0.125744606977911 
630	 0.125788552859893 
631	 0.125822239366441 
632	 0.125809652549903 
633	 0.125851903228482 
634	 0.125948088027595 
635	 0.126013843828942 
636	 0.126082245508598 
637	 0.126120542856504 
638	 0.126120520411029 
639	 0.126155335679189 
640	 0.126201180480588 
641	 0.126257304387323 
642	 0.126325383984079 
643	 0.126360358665691 
644	 0.126392177148703 
645	 0.126433231281467 
646	 0.126459011525881 
647	 0.12650341661493 
648	 0.126545555507852 
649	 0.12656373807362 
650	 0.126600706961296 
651	 0.126662892525339 
652	 0.126719483038284 
653	 0.126719249220329 
654	 0.126838718557396 
655	 0.126917827740865 
656	 0.126866673083454 
657	 0.126924352620024 
658	 0.126985711242629 
659	 0.12704226445142 
660	 0.12711445063049 
661	 0.127105308936869 
662	 0.127120137442122 
663	 0.127197526543723 
664	 0.12725355306379 
665	 0.127276209612386 
666	 0.127317196427702 
667	 0.12740944622024 
668	 0.127420887072501 
669	 0.127429988829494 
670	 0.127472260681033 
671	 0.127538601621274 
672	 0.127577265906345 
673	 0.127628774777939 
674	 0.127708038504455 
675	 0.12772877786582 
676	 0.127738635979094 
677	 0.127761243894905 
678	 0.127807498002153 
679	 0.127870861810992 
680	 0.127908885578245 
681	 0.127928561062146 
682	 0.128004185958492 
683	 0.128032633400103 
684	 0.128050742786879 
685	 0.128112223173096 
686	 0.12819534072944 
687	 0.12826647961293 
688	 0.128313193683599 
689	 0.128341008091747 
690	 0.128362454902216 
691	 0.128377933420579 
692	 0.128406561947111 
693	 0.12851803890868 
694	 0.128581924346414 
695	 0.128607247451581 
696	 0.128646090282054 
697	 0.128670363224236 
698	 0.128702854525254 
699	 0.128751048609637 
700	 0.12880359942532 
701	 0.128865932404628 
702	 0.128904871697177 
703	 0.128912203428104 
704	 0.128970689706575 
705	 0.129026883128328 
706	 0.12907823277753 
707	 0.129143317953021 
708	 0.129185777759879 
709	 0.129221731110652 
710	 0.129265130415025 
711	 0.129319909792092 
712	 0.129326423868914 
713	 0.129348173121901 
714	 0.129441804034257 
715	 0.129505841228517 
716	 0.129527868109646 
717	 0.12954200918565 
718	 0.129607724805648 
719	 0.129668404319749 
720	 0.129701937933026 
721	 0.129717402504373 
722	 0.129771186350598 
723	 0.12985929932906 
724	 0.129917629871356 
725	 0.12989726101814 
726	 0.129934947670545 
727	 0.129978840290876 
728	 0.130015898027907 
729	 0.130075429257328 
730	 0.13013653886348 
731	 0.130161051755227 
732	 0.130150768008172 
733	 0.130209431981182 
734	 0.130261139860266 
735	 0.130300629726018 
736	 0.130342808742561 
737	 0.130336795629762 
738	 0.130366066375475 
739	 0.130437863927486 
740	 0.130468552776919 
741	 0.130510890940967 
742	 0.130535001163236 
743	 0.130525801841191 
744	 0.130550515954937 
745	 0.130596149896337 
746	 0.130644832789073 
747	 0.130678247494284 
748	 0.130706952376661 
749	 0.130721987124205 
750	 0.130730945385368 
751	 0.130762010538109 
752	 0.130787839255752 
753	 0.130798012632579 
754	 0.130798742043058 
755	 0.130830709217649 
756	 0.130879106620337 
757	 0.130907419157446 
758	 0.13088611321434 
759	 0.130922945693566 
760	 0.130951908886306 
761	 0.130950563322966 
762	 0.130970881723733 
763	 0.130977601505502 
764	 0.130996544928453 
765	 0.131042198043833 
766	 0.131058102312849 
767	 0.131050662394458 
768	 0.13104216370187 
769	 0.13105886176186 
770	 0.131085825976763 
771	 0.131109168873132 
772	 0.131120741827279 
773	 0.131119945137525 
774	 0.13111876826655 
775	 0.131127439271421 
776	 0.131144044781295 
777	 0.131134499217502 
778	 0.131135202225565 
779	 0.131166562605274 
780	 0.131226421880078 
781	 0.131231099356876 
782	 0.131236377068874 
783	 0.131253424986666 
784	 0.131237302037022 
785	 0.131235674477557 
786	 0.131247933781472 
787	 0.131262940803687 
788	 0.131267784176133 
789	 0.131279410515561 
790	 0.131291211127793 
791	 0.131290447701824 
792	 0.131280485477706 
793	 0.131283050217185 
794	 0.131300456712833 
795	 0.131319443979027 
796	 0.131376246986545 
797	 0.13139967909245 
798	 0.131370129376401 
799	 0.131390172982922 
800	 0.131418916569242 
801	 0.13143861130428 
802	 0.131444752864664 
803	 0.131460520236313 
804	 0.131482639592138 
805	 0.131507728465555 
806	 0.131529896318957 
807	 0.131524313121236 
808	 0.131512851633229 
809	 0.13151884778594 
810	 0.131558285033437 
811	 0.131583917282036 
812	 0.131575795725757 
813	 0.131545528158366 
814	 0.1315691707327 
815	 0.131567222825672 
816	 0.131572696535559 
817	 0.131640573178566 
818	 0.131681340547681 
819	 0.13170548679061 
820	 0.131718508571266 
821	 0.131719471774865 
822	 0.13173062371303 
823	 0.131758243266797 
824	 0.131782275725694 
825	 0.131744195102309 
826	 0.131789809464722 
827	 0.131852955894682 
828	 0.131854187178948 
829	 0.131872318902821 
830	 0.13187560994931 
831	 0.131891286110793 
832	 0.131958259005828 
833	 0.132014096832104 
834	 0.132020819024306 
835	 0.131991487970525 
836	 0.131983802522335 
837	 0.13200187694935 
838	 0.13204303937287 
839	 0.132098326995572 
840	 0.132155068943978 
841	 0.13215596785375 
842	 0.132126480222027 
843	 0.132114318069122 
844	 0.132153785048169 
845	 0.132191033311557 
846	 0.1322141510682 
847	 0.132232069320287 
848	 0.132240721657042 
849	 0.132261812490608 
850	 0.132302545798106 
851	 0.132352671932056 
852	 0.132375052659364 
853	 0.132386619167243 
854	 0.132406647942537 
855	 0.132444145863232 
856	 0.132486512199645 
857	 0.132501333423287 
858	 0.132485273083606 
859	 0.132519804559056 
860	 0.132532460090157 
861	 0.132555548879109 
862	 0.132632805301126 
863	 0.132693528793896 
864	 0.132736840475052 
865	 0.132762546318893 
866	 0.132768584927319 
867	 0.132727677834687 
868	 0.132719027256443 
869	 0.132769041864455 
870	 0.132836846257785 
871	 0.132875343534081 
872	 0.132892081723796 
873	 0.132916985423533 
874	 0.132994984512086 
875	 0.133065391052564 
876	 0.133063973673263 
877	 0.132993462597741 
878	 0.133018481847873 
879	 0.133104190850731 
880	 0.133178544223634 
881	 0.13318523376275 
882	 0.133199728740084 
883	 0.133250582894868 
884	 0.133310657613747 
885	 0.133335076914253 
886	 0.133385076661038 
887	 0.133412900808131 
888	 0.133403432452608 
889	 0.133384688836647 
890	 0.133446449872293 
891	 0.133501212996053 
892	 0.133520905641845 
893	 0.133576376012789 
894	 0.13357572128055 
895	 0.133581951233622 
896	 0.133631886665581 
897	 0.133661593271888 
898	 0.133711418557698 
899	 0.133732108769661 
900	 0.133710482382857 
901	 0.133790433222102 
902	 0.133832262323621 
903	 0.133843973677325 
904	 0.133873122701572 
905	 0.133903961749481 
906	 0.133981177559118 
907	 0.134053970627679 
908	 0.134058143748015 
909	 0.134108594086777 
910	 0.134162426226536 
911	 0.134192482492519 
912	 0.134202599799774 
913	 0.134295545146183 
914	 0.134321997741622 
915	 0.134290663748808 
916	 0.134354343040168 
917	 0.134455009927911 
918	 0.134519498790371 
919	 0.134522151371634 
920	 0.134502476418794 
921	 0.134555458467984 
922	 0.134635752171778 
923	 0.134702654404347 
924	 0.13476213716385 
925	 0.134752919781111 
926	 0.13477089583946 
927	 0.134857574227202 
928	 0.134895693153517 
929	 0.134928399296467 
930	 0.134969579425361 
931	 0.135025658807556 
932	 0.135101370434185 
933	 0.135151324871797 
934	 0.135174610265442 
935	 0.135189058924982 
936	 0.135221425488485 
937	 0.135220375604719 
938	 0.135259609357325 
939	 0.135395308978929 
940	 0.135490313372254 
941	 0.135506171785439 
942	 0.135550954299158 
943	 0.135696329960114 
944	 0.135630580876479 
945	 0.135577902896043 
946	 0.135615750154829 
947	 0.13571845519974 
948	 0.135784810542094 
949	 0.135784909851581 
950	 0.135797622758681 
951	 0.135923301398968 
952	 0.136094590845557 
953	 0.13615507946921 
954	 0.136158246333914 
955	 0.136239105153359 
956	 0.136248144954977 
957	 0.136274109362663 
958	 0.136320059501858 
959	 0.136336752698809 
960	 0.136336064178139 
961	 0.136413639605453 
962	 0.136538051100524 
963	 0.13660259477402 
964	 0.136608206596746 
965	 0.136641160793487 
966	 0.136679211889671 
967	 0.136664512717321 
968	 0.136815833084854 
969	 0.136971913120913 
970	 0.137053521503283 
971	 0.137063479503469 
972	 0.136974637393765 
973	 0.137000128396531 
974	 0.137108977734047 
975	 0.137137854572799 
976	 0.137281873564037 
977	 0.137290919999563 
978	 0.137246840691023 
979	 0.137392202654424 
980	 0.137467435433723 
981	 0.137533712868062 
982	 0.137574267897835 
983	 0.137545963068773 
984	 0.13756305275366 
985	 0.137729629723981 
986	 0.137857004999341 
987	 0.137726473646246 
988	 0.137798738063987 
989	 0.137925902841565 
990	 0.13800058631373 
991	 0.137990860107826 
992	 0.138011646324898 
993	 0.138090693579531 
994	 0.138209213716382 
995	 0.138303041248895 
996	 0.138231653971728 
997	 0.138227485349729 
998	 0.138368662860923 
999	 0.138587336609379 
1000	 0.13860864499044 
1001	 0.138838550084946 
1002	 0.138879823411507 
1003	 0.138910951511522 
1004	 0.138950729988136 
1005	 0.138949434508651 
1006	 0.138973264200071 
1007	 0.139009756736108 
1008	 0.139089505686438 
1009	 0.13914186269124 
1010	 0.13916197855905 
1011	 0.139194572455245 
1012	 0.139211331328169 
1013	 0.139223651683924 
1014	 0.139269528667268 
1015	 0.13933266209901 
1016	 0.13941563946451 
1017	 0.139482084377885 
1018	 0.139552422190774 
1019	 0.139588424056982 
1020	 0.139614418546154 
1021	 0.139639484459374 
1022	 0.139674140615856 
1023	 0.139698736842861 
1024	 0.139696800471148 
1025	 0.139715740548083 
1026	 0.139727971330697 
1027	 0.139764877849236 
1028	 0.139879755225189 
1029	 0.139906456075162 
1030	 0.139846310453184 
1031	 0.139863700195454 
1032	 0.139896672028353 
1033	 0.139915490563443 
1034	 0.139947535884305 
1035	 0.14003649798762 
1036	 0.140081355053158 
1037	 0.140086020734173 
1038	 0.140156277535747 
1039	 0.140272263354621 
1040	 0.140306227212912 
1041	 0.140350923416454 
1042	 0.140405573642077 
1043	 0.140403961181899 
1044	 0.140441323125389 
1045	 0.140513062956519 
1046	 0.140574144970007 
1047	 0.140598358087055 
1048	 0.140643352233388 
1049	 0.140706108806796 
1050	 0.140787474968815 
1051	 0.14089875351858 
1052	 0.140995248075838 
1053	 0.141020609505789 
1054	 0.141050259714566 
1055	 0.141079345219858 
1056	 0.141110220498415 
1057	 0.141133763252324 
1058	 0.141164477809322 
1059	 0.14118078783228 
1060	 0.141167608214343 
1061	 0.14117853709829 
1062	 0.141236236264068 
1063	 0.141320115870962 
1064	 0.141431436452306 
1065	 0.141503624249192 
1066	 0.141512094471001 
1067	 0.14154565156873 
1068	 0.141556557206551 
1069	 0.141543874374779 
1070	 0.141550576683126 
1071	 0.141577981538556 
1072	 0.141574747585521 
1073	 0.141562077996797 
1074	 0.141559713487693 
1075	 0.141559030291697 
1076	 0.141545807007229 
1077	 0.141510302190866 
1078	 0.141481500098505 
1079	 0.14145434801988 
1080	 0.141422364406866 
1081	 0.141403191792872 
1082	 0.141396055211272 
1083	 0.141382343463759 
1084	 0.141345761915475 
1085	 0.141323993617086 
1086	 0.141313881655851 
1087	 0.141326348898746 
1088	 0.141340520334599 
1089	 0.141384532706597 
1090	 0.141431463860462 
1091	 0.141404913469625 
1092	 0.14137558948343 
1093	 0.141359946621155 
1094	 0.141354624331997 
1095	 0.141344893202332 
1096	 0.141345220178644 
1097	 0.141388842807099 
1098	 0.141398733685102 
1099	 0.141403003596731 
1100	 0.141418251869424 
1101	 0.141420034714488 
1102	 0.141420712694136 
1103	 0.141416027478317 
1104	 0.141462541161946 
1105	 0.141474973556338 
1106	 0.141479713572795 
1107	 0.141515892526083 
1108	 0.14154018881519 
1109	 0.141592348895509 
1110	 0.141658847995391 
1111	 0.141711790957486 
1112	 0.141766037947424 
1113	 0.141831094852063 
1114	 0.141896463657422 
1115	 0.141957384748017 
1116	 0.142028219421687 
1117	 0.142096740508257 
1118	 0.142163633892048 
1119	 0.142213453682276 
1120	 0.142270430263595 
1121	 0.142341685042187 
1122	 0.142405479956248 
1123	 0.14246680598525 
1124	 0.142529212943908 
1125	 0.14259939276671 
1126	 0.142661286566815 
1127	 0.142710324126125 
1128	 0.142772747244536 
1129	 0.142841402111844 
1130	 0.142912470699839 
1131	 0.142989356782124 
1132	 0.143063082295999 
1133	 0.143140676941295 
1134	 0.143209684392857 
1135	 0.143264896752155 
1136	 0.143345569072599 
1137	 0.143414873827216 
1138	 0.143459670471451 
1139	 0.143510662967641 
1140	 0.14355043372192 
1141	 0.143609482441691 
1142	 0.143676359916958 
1143	 0.143736747320607 
1144	 0.143813222093849 
1145	 0.143866705293702 
1146	 0.143896830895274 
1147	 0.143944593491664 
1148	 0.143994487889097 
1149	 0.144038937350051 
1150	 0.144088526646541 
1151	 0.144135968032179 
1152	 0.144161148756171 
1153	 0.14420540334239 
1154	 0.144250928765872 
1155	 0.144300093729914 
1156	 0.144344385674462 
1157	 0.144408623154825 
1158	 0.144432552637561 
1159	 0.144425205808279 
1160	 0.144442322043084 
1161	 0.144438768054048 
1162	 0.144460479853204 
1163	 0.144522980602286 
1164	 0.144556454548652 
1165	 0.14458836426463 
1166	 0.144602975911734 
1167	 0.14462255028851 
1168	 0.144633584312323 
1169	 0.144646777786262 
1170	 0.144660905238533 
1171	 0.144681025250956 
1172	 0.144704311710477 
1173	 0.14471591143117 
1174	 0.144726390986767 
1175	 0.144741506693242 
1176	 0.144739236393282 
1177	 0.144756544725943 
1178	 0.144799184276163 
1179	 0.144826550081179 
1180	 0.144856232002042 
1181	 0.144878010083266 
1182	 0.144890122501165 
1183	 0.144902837223804 
1184	 0.144912033422064 
1185	 0.144914870744741 
1186	 0.144925090172562 
1187	 0.144928626941914 
1188	 0.144950702992762 
1189	 0.144988317947145 
1190	 0.145015005821633 
1191	 0.145062574021887 
1192	 0.145078098686981 
1193	 0.145058928750063 
1194	 0.1450656484874 
1195	 0.145057792118671 
1196	 0.145072035335246 
1197	 0.145128635181551 
1198	 0.145158737643596 
1199	 0.145182758360287 
1200	 0.145204116623345 
1201	 0.145225322663892 
1202	 0.145229608147066 
1203	 0.145252371964371 
1204	 0.145294723494242 
1205	 0.1453145746352 
1206	 0.145319959220426 
1207	 0.145341927055454 
1208	 0.145365608143085 
1209	 0.145384684166565 
1210	 0.14542330852782 
1211	 0.145439985259629 
1212	 0.145424605441198 
1213	 0.145430586391136 
1214	 0.145437272035143 
1215	 0.145449662860286 
1216	 0.145469114264737 
1217	 0.145504629850058 
1218	 0.145528636526138 
1219	 0.145553537935447 
1220	 0.145572881513185 
1221	 0.145584843381328 
1222	 0.145606228181991 
1223	 0.145627834554945 
1224	 0.14565123453146 
1225	 0.145688191438398 
1226	 0.14571019150645 
1227	 0.145724249557892 
1228	 0.145737782327063 
1229	 0.145736481278042 
1230	 0.145748805049028 
1231	 0.145768872406977 
1232	 0.145786947885673 
1233	 0.14580756138522 
1234	 0.145832608234396 
1235	 0.145862434943575 
1236	 0.1458992817962 
1237	 0.145922938862616 
1238	 0.145956256473849 
1239	 0.145967003770792 
1240	 0.145943597716724 
1241	 0.145950784994892 
1242	 0.145966966406452 
1243	 0.145976811987977 
1244	 0.145997155478763 
1245	 0.146014729946375 
1246	 0.146020579416284 
1247	 0.146033678166073 
1248	 0.146065050579534 
1249	 0.146081909842568 
1250	 0.146075894167547 
1251	 0.146082113547096 
1252	 0.146086003806776 
1253	 0.146075458460101 
1254	 0.146087133646862 
1255	 0.146121239837301 
1256	 0.146134069131349 
1257	 0.14614532372471 
1258	 0.146154377157551 
1259	 0.146154923207292 
1260	 0.146155331473347 
1261	 0.14615493921376 
1262	 0.146156566444008 
1263	 0.146149952260395 
1264	 0.146150456354254 
1265	 0.146159811812739 
1266	 0.146167129991196 
1267	 0.14617296423721 
1268	 0.146185515376757 
1269	 0.146194685258845 
1270	 0.146200231434952 
1271	 0.146215691037489 
1272	 0.146232516223857 
1273	 0.146259162444002 
1274	 0.146288223374216 
1275	 0.146334440240911 
1276	 0.146403605542008 
1277	 0.146455880381852 
1278	 0.146510108649115 
1279	 0.14656997206894 
1280	 0.146628294993542 
1281	 0.146679084771088 
1282	 0.146735470886339 
1283	 0.146791200267531 
1284	 0.1468470772667 
1285	 0.14688729562696 
1286	 0.146910734707778 
1287	 0.146933556382625 
1288	 0.146950986699085 
1289	 0.146941385308251 
1290	 0.14695162378547 
1291	 0.146981953337291 
1292	 0.146986645938092 
1293	 0.146976657080623 
1294	 0.146970699650799 
1295	 0.14696497984419 
1296	 0.146943663209771 
1297	 0.146919237794546 
1298	 0.146883693242063 
1299	 0.146825783423303 
1300	 0.146776401581495 
1301	 0.146725123412255 
1302	 0.14667136860312 
1303	 0.146616329526092 
1304	 0.146559296280697 
1305	 0.14651189176073 
1306	 0.146453469461141 
1307	 0.146390824920598 
1308	 0.146324367205834 
1309	 0.146258642563723 
1310	 0.146175546728698 
1311	 0.146128120679931 
1312	 0.146102307292312 
1313	 0.146061926732485 
1314	 0.146028933111479 
1315	 0.145994018636348 
1316	 0.145948349909928 
1317	 0.14591844701871 
1318	 0.145900608081993 
1319	 0.145885335162905 
1320	 0.145879742769669 
1321	 0.145867597713513 
1322	 0.145850401300794 
1323	 0.145846073469367 
1324	 0.145847177473241 
1325	 0.145838881175243 
1326	 0.145851459597173 
1327	 0.145865851403297 
1328	 0.145865227295288 
1329	 0.145870648674878 
1330	 0.145892347425957 
1331	 0.145916881958143 
1332	 0.145955050519893 
1333	 0.146024113891248 
1334	 0.146066531754832 
1335	 0.146096466683951 
1336	 0.146140663319666 
1337	 0.146180389439819 
1338	 0.146225636850747 
1339	 0.146286824502756 
1340	 0.146339917171359 
1341	 0.146391168767276 
1342	 0.146439631611723 
1343	 0.146482963170356 
1344	 0.146527516025753 
1345	 0.146590549136937 
1346	 0.146648369015573 
1347	 0.146716657680696 
1348	 0.146789512182978 
1349	 0.14684081337532 
1350	 0.146881579063674 
1351	 0.146932678107107 
1352	 0.146981407767512 
1353	 0.147034521387193 
1354	 0.147096339775468 
1355	 0.14715358266923 
1356	 0.147213464973346 
1357	 0.147264456975654 
1358	 0.147305155526226 
1359	 0.147356010465197 
1360	 0.147402351426892 
1361	 0.147454066311721 
1362	 0.147526398136436 
1363	 0.147579948776819 
1364	 0.147623215143813 
1365	 0.147670573470661 
1366	 0.147717453987665 
1367	 0.147750087783356 
1368	 0.147793384858539 
1369	 0.147813704531033 
1370	 0.147823540082523 
1371	 0.147842737663155 
1372	 0.14785850155671 
1373	 0.147880520628805 
1374	 0.147902729519153 
1375	 0.147932694409109 
1376	 0.147949176020096 
1377	 0.147970596453222 
1378	 0.14796769097197 
1379	 0.147950022578377 
1380	 0.147925425699101 
1381	 0.147879388671869 
1382	 0.147840910176683 
1383	 0.14779728932451 
1384	 0.147754013386327 
1385	 0.147720618944645 
1386	 0.147668851640187 
1387	 0.147611019347703 
1388	 0.147547381042636 
1389	 0.147477546192155 
1390	 0.147386299847576 
1391	 0.147296129247044 
1392	 0.147193801777534 
1393	 0.147089719928297 
1394	 0.146991456863706 
1395	 0.146876148372215 
1396	 0.146752787954438 
1397	 0.146620611422643 
1398	 0.146464198027112 
1399	 0.146326406803871 
1400	 0.146191054467797 
1401	 0.146054413308949 
1402	 0.145921039285685 
1403	 0.145788664003417 
1404	 0.145652067576037 
1405	 0.145529209145771 
1406	 0.145408529634567 
1407	 0.14529760148569 
1408	 0.14520128517629 
1409	 0.145100003765812 
1410	 0.145000901503472 
1411	 0.144912499298233 
1412	 0.144824815199929 
1413	 0.144741272692196 
1414	 0.144682805840824 
1415	 0.144632410184853 
1416	 0.144591383541223 
1417	 0.144563412154663 
1418	 0.144545467582231 
1419	 0.144526813674732 
1420	 0.144512675555155 
1421	 0.144507813713638 
1422	 0.144501047938541 
1423	 0.144485551874886 
1424	 0.1444658139845 
1425	 0.144438638608623 
1426	 0.144417530374837 
1427	 0.144388142696459 
1428	 0.144374474724431 
1429	 0.144364457029263 
1430	 0.14436745098982 
1431	 0.144392026021334 
1432	 0.14439878578073 
1433	 0.144413799354778 
1434	 0.144415479356272 
1435	 0.144391390650378 
1436	 0.144387315711922 
1437	 0.144385647699433 
1438	 0.144390583241069 
1439	 0.144408437473661 
1440	 0.14442472860151 
1441	 0.144440287133541 
1442	 0.144443392528308 
1443	 0.14443291454396 
1444	 0.144438913427053 
1445	 0.144450745637731 
1446	 0.144477195529332 
1447	 0.144505651056051 
1448	 0.144523002031685 
1449	 0.144548258815189 
1450	 0.144566399669453 
1451	 0.14458607046221 
1452	 0.144615736263569 
1453	 0.144631868998865 
1454	 0.144634841174543 
1455	 0.144646887441364 
1456	 0.144653238107519 
1457	 0.144673569839627 
1458	 0.144699261272136 
1459	 0.144734608589829 
1460	 0.144789475243224 
1461	 0.144829637523919 
1462	 0.144871348656454 
1463	 0.144906870429918 
1464	 0.144929627872241 
1465	 0.144958428770587 
1466	 0.144985390393175 
1467	 0.145021736926673 
1468	 0.145061057543369 
1469	 0.145104206960875 
1470	 0.145159077108593 
1471	 0.145212780787467 
1472	 0.145244654741542 
1473	 0.145282997002486 
1474	 0.145324096192731 
1475	 0.145351254413805 
1476	 0.145396137518354 
1477	 0.145442682198774 
1478	 0.145483855865657 
1479	 0.14553723622817 
1480	 0.14558564262964 
1481	 0.145642968139242 
1482	 0.14569331262847 
1483	 0.14573735804547 
1484	 0.145789072400486 
1485	 0.145843304741446 
1486	 0.145897190040559 
1487	 0.145957425923592 
1488	 0.146010907564212 
1489	 0.146056669913555 
1490	 0.146108494201604 
1491	 0.146164084112164 
1492	 0.146218189816169 
1493	 0.14627711635252 
1494	 0.146330338909839 
1495	 0.146379896822362 
1496	 0.146424897030464 
1497	 0.146463260669292 
1498	 0.146506613885173 
1499	 0.146546225879546 
1500	 0.146591201586534 
1501	 0.146641063374567 
1502	 0.146688391918335 
1503	 0.146735456154614 
1504	 0.146789389659249 
1505	 0.146835188627667 
1506	 0.14687784673243 
1507	 0.146900399876759 
1508	 0.146921957558943 
1509	 0.146949255307411 
1510	 0.146986792075907 
1511	 0.147037141612705 
1512	 0.147077531490774 
1513	 0.147111815920198 
1514	 0.147145137218697 
1515	 0.147178235583864 
1516	 0.147216533397586 
1517	 0.147254235156945 
1518	 0.14729151871 
1519	 0.147331774239994 
1520	 0.147376427063618 
1521	 0.147419012805983 
1522	 0.147464829120595 
1523	 0.14750030648059 
1524	 0.147531455550536 
1525	 0.147560274484255 
1526	 0.147581681778389 
1527	 0.1476073563925 
1528	 0.147631347366453 
1529	 0.147657032334091 
1530	 0.147683202665542 
1531	 0.14771104570504 
1532	 0.147743705833329 
1533	 0.147771843961771 
1534	 0.147795860681884 
1535	 0.147823478142421 
1536	 0.147852897319989 
1537	 0.147878164893461 
1538	 0.147905853782584 
1539	 0.147928542008732 
1540	 0.147944897646356 
1541	 0.147963326152988 
1542	 0.147976344423362 
1543	 0.147996151060719 
1544	 0.148024175539525 
1545	 0.148044794988925 
1546	 0.148069391704972 
1547	 0.14808413605362 
1548	 0.148092139028157 
1549	 0.148096268334176 
1550	 0.148113457853341 
1551	 0.148148862386057 
1552	 0.148182771218884 
1553	 0.148203792684418 
1554	 0.14820640818357 
1555	 0.148215652105535 
1556	 0.148235479963311 
1557	 0.148257037641388 
1558	 0.148283166076393 
1559	 0.148296702370501 
1560	 0.148319960335432 
1561	 0.148340029416139 
1562	 0.148368755917955 
1563	 0.14840807395992 
1564	 0.148441657337179 
1565	 0.148478765232048 
1566	 0.148502305872915 
1567	 0.148517398641343 
1568	 0.148539502994594 
1569	 0.148558842075048 
1570	 0.148571583649434 
1571	 0.148587902239927 
1572	 0.148601133691875 
1573	 0.14859923660513 
1574	 0.148610212272892 
1575	 0.148632219089562 
1576	 0.148645542115856 
1577	 0.148659149312544 
1578	 0.148668794301586 
1579	 0.1486725725099 
1580	 0.148679678751027 
1581	 0.148683045402385 
1582	 0.148692985919833 
1583	 0.148708922587813 
1584	 0.148720449366473 
1585	 0.148734454958218 
1586	 0.148746542114276 
1587	 0.148753502627107 
1588	 0.148764725096793 
1589	 0.148782557918433 
1590	 0.148790290081697 
1591	 0.148789232888389 
1592	 0.148798838267677 
1593	 0.148801656486116 
1594	 0.148818497311212 
1595	 0.148855321718781 
1596	 0.148882479107757 
1597	 0.148914452306461 
1598	 0.14893931490522 
1599	 0.148957942524339 
1600	 0.148974531493342 
1601	 0.148986157263876 
1602	 0.148998952482009 
1603	 0.149010988417266 
1604	 0.14902088479825 
1605	 0.14902769520189 
1606	 0.149036974533125 
1607	 0.149045564116162 
1608	 0.149055001775562 
1609	 0.149061776375218 
1610	 0.149073499356235 
1611	 0.149099569627419 
1612	 0.149115745381251 
1613	 0.149122652227258 
1614	 0.149146176626218 
1615	 0.149145044962034 
1616	 0.149131045468085 
1617	 0.149138984030415 
1618	 0.149134096243511 
1619	 0.149141802402045 
1620	 0.14916313943782 
1621	 0.14918041961313 
1622	 0.149204850577325 
1623	 0.149220567843212 
1624	 0.149235812357898 
1625	 0.149242890908612 
1626	 0.149239956684991 
1627	 0.14924669136272 
1628	 0.149251101396726 
1629	 0.149263361833827 
1630	 0.149286484181979 
1631	 0.149298859699816 
1632	 0.149309732980037 
1633	 0.149318285648805 
1634	 0.14932078587346 
1635	 0.149327561291584 
1636	 0.149332191282459 
1637	 0.149345049010499 
1638	 0.1493684808025 
1639	 0.149375137708583 
1640	 0.149376484656488 
1641	 0.149385164253431 
1642	 0.149387101692353 
1643	 0.1493901762447 
1644	 0.149401590791195 
1645	 0.149409886012766 
1646	 0.149410624793031 
1647	 0.149414200247816 
1648	 0.149420264914244 
1649	 0.149433702656703 
1650	 0.149443222595359 
1651	 0.149464026354458 
1652	 0.149505680797331 
1653	 0.149528589154046 
1654	 0.14954906207654 
1655	 0.149562055708161 
1656	 0.149571540611993 
1657	 0.149566066653687 
1658	 0.149539093202639 
1659	 0.14953458809556 
1660	 0.14952119605392 
1661	 0.149528705750283 
1662	 0.149570655191104 
1663	 0.149582995149768 
1664	 0.149593003441115 
1665	 0.149591268349264 
1666	 0.149565910552715 
1667	 0.149559204375299 
1668	 0.149550398509952 
1669	 0.14955322730452 
1670	 0.149570764354796 
1671	 0.149582126841511 
1672	 0.149597340710512 
1673	 0.149610152887401 
1674	 0.149627341357546 
1675	 0.149631012792035 
1676	 0.149624083312119 
1677	 0.149624870179751 
1678	 0.149612149988426 
1679	 0.149620368220124 
1680	 0.149649593318253 
1681	 0.14966653045246 
1682	 0.14969151979511 
1683	 0.149701702370931 
1684	 0.149690230970321 
1685	 0.149703566447337 
1686	 0.149728505836083 
1687	 0.149742654070749 
1688	 0.149776115762783 
1689	 0.149779250346674 
1690	 0.1497442214681 
1691	 0.149742107679051 
1692	 0.149738516998945 
1693	 0.149749237645487 
1694	 0.149791849747045 
1695	 0.149808745453426 
1696	 0.149817520602595 
1697	 0.149829054168912 
1698	 0.149831769875172 
1699	 0.149838260201588 
1700	 0.14985632163061 
1701	 0.149854838881165 
1702	 0.149836150668797 
1703	 0.149832712809461 
1704	 0.149821929167417 
1705	 0.149821822282157 
1706	 0.149848388937614 
1707	 0.149841209190808 
1708	 0.149809449996163 
1709	 0.14980372971117 
1710	 0.14979262555059 
1711	 0.149792024350585 
1712	 0.149817081959884 
1713	 0.149825921193364 
1714	 0.149815909756562 
1715	 0.149830821321981 
1716	 0.149861685260294 
1717	 0.149884162786682 
1718	 0.14992094224978 
1719	 0.149940041389444 
1720	 0.149952561376613 
1721	 0.149951427108675 
1722	 0.149934015933101 
1723	 0.149922137256801 
1724	 0.149895514025312 
1725	 0.149885028336607 
1726	 0.149893066432439 
1727	 0.149881268128767 
1728	 0.149860418658647 
1729	 0.149845385031776 
1730	 0.149822956055619 
1731	 0.1498047191278 
1732	 0.149789276195678 
1733	 0.149785390802822 
1734	 0.149794697236136 
1735	 0.149779415387 
1736	 0.149762605131016 
1737	 0.149746428805276 
1738	 0.149699697764377 
1739	 0.14968481580647 
1740	 0.1497030007558 
1741	 0.149696284476244 
1742	 0.149687209590702 
1743	 0.149666999905358 
1744	 0.149639619108566 
1745	 0.149604163708483 
1746	 0.149553619096167 
1747	 0.149541346501392 
1748	 0.149494567228677 
1749	 0.14947838774109 
1750	 0.149463770212082 
1751	 0.149420243698819 
1752	 0.149397708499138 
1753	 0.149379460662041 
1754	 0.14938100655022 
1755	 0.149385226027146 
1756	 0.149376798987353 
1757	 0.149367638281578 
1758	 0.1493550588507 
1759	 0.149392310394587 
1760	 0.149428108920418 
1761	 0.149432843980761 
1762	 0.149435695188194 
1763	 0.149411184666757 
1764	 0.149398158174578 
1765	 0.149394879780723 
1766	 0.149375997791171 
1767	 0.149353191404605 
1768	 0.149325332922364 
1769	 0.149300009461088 
1770	 0.149282227976007 
1771	 0.149269722651317 
1772	 0.1492578338283 
1773	 0.149259469706822 
1774	 0.149285280109981 
1775	 0.149290718197855 
1776	 0.149282535191567 
1777	 0.149275571846548 
1778	 0.149249830732316 
1779	 0.149250967300152 
1780	 0.149248027683311 
1781	 0.149225989271545 
1782	 0.149245774077957 
1783	 0.149249654921503 
1784	 0.149256711936163 
1785	 0.149284750969407 
1786	 0.14928065873325 
1787	 0.149256988404056 
1788	 0.149247003284597 
1789	 0.14922263832571 
1790	 0.14921638580745 
1791	 0.149222317192913 
1792	 0.149236013784973 
1793	 0.149254460256285 
1794	 0.14927648499834 
1795	 0.149324400861306 
1796	 0.149343610343302 
1797	 0.14936557598654 
1798	 0.149348006124214 
1799	 0.149273681197954 
1800	 0.149261211377959 
1801	 0.147253373563714 
1802	 0.147260414176865 
1803	 0.147294215782566 
1804	 0.147302279832605 
1805	 0.14730820201944 
1806	 0.147344160870159 
1807	 0.147369886874487 
1808	 0.147389429497228 
1809	 0.147410753785633 
1810	 0.14743475929503 
1811	 0.147448089117937 
1812	 0.147469131238807 
1813	 0.147495084402971 
1814	 0.147526026962765 
1815	 0.147541721386675 
1816	 0.147562326294358 
1817	 0.147585943995677 
1818	 0.147623950597408 
1819	 0.147635270886215 
1820	 0.14763704651296 
1821	 0.147639621925398 
1822	 0.147620738059348 
1823	 0.147607663430693 
1824	 0.147615371954732 
1825	 0.147611917707242 
1826	 0.147617377518784 
1827	 0.147618280919538 
1828	 0.14761993699263 
1829	 0.147628266429945 
1830	 0.14762731509563 
1831	 0.147616286672568 
1832	 0.147615200682447 
1833	 0.147610180727968 
1834	 0.147597511508035 
1835	 0.147604500647899 
1836	 0.147630269800988 
1837	 0.14768273845065 
1838	 0.147721762721948 
1839	 0.147737570538717 
1840	 0.147743593731496 
1841	 0.147735743055557 
1842	 0.147714655790338 
1843	 0.147691589943768 
1844	 0.147680210341006 
1845	 0.147683303701681 
1846	 0.147650208301817 
1847	 0.147605652096295 
1848	 0.147571320050073 
1849	 0.147531422459675 
1850	 0.147495703510513 
1851	 0.147462911319638 
1852	 0.147447274044207 
1853	 0.147438851656933 
1854	 0.147412686955193 
1855	 0.147376419781582 
1856	 0.147351586819042 
1857	 0.147326151398977 
1858	 0.147288711698853 
1859	 0.147278060790821 
1860	 0.147247912887341 
1861	 0.147216578687703 
1862	 0.147150292263693 
1863	 0.147080085556412 
1864	 0.146979428409258 
1865	 0.146869306473796 
1866	 0.146756361374866 
1867	 0.146647061227212 
1868	 0.146554634357135 
1869	 0.14643924361599 
1870	 0.146320463716174 
1871	 0.1461844637051 
1872	 0.146037354253507 
1873	 0.145849257187295 
1874	 0.145677870091971 
1875	 0.145502602906465 
1876	 0.14530245669459 
1877	 0.145106005306132 
1878	 0.144885696758371 
1879	 0.144617132429539 
1880	 0.144328793430201 
1881	 0.144006429845121 
1882	 0.14368032499241 
1883	 0.143329717748742 
1884	 0.142972960056654 
1885	 0.142607605089296 
1886	 0.142221518866345 
1887	 0.141794384216634 
1888	 0.141334701848694 
1889	 0.140870566933352 
1890	 0.140389415601251 
1891	 0.139915776013854 
1892	 0.13944221264146 
1893	 0.138972437481332 
1894	 0.138501952799151 
1895	 0.138029574831133 
1896	 0.137556365495735 
1897	 0.137096766990904 
1898	 0.136642139728356 
1899	 0.136198807684291 
1900	 0.135791447051186 
1901	 0.135404241963104 
1902	 0.135028413512503 
1903	 0.134675237512936 
1904	 0.134337774777738 
1905	 0.134013486625195 
1906	 0.133704831446242 
1907	 0.133412310604002 
1908	 0.133137167377517 
1909	 0.132885835850002 
1910	 0.132634893346736 
1911	 0.132394446620908 
1912	 0.132181128003458 
1913	 0.131992054984673 
1914	 0.131819021968956 
1915	 0.131669838512995 
1916	 0.131559162103077 
1917	 0.131449287602324 
1918	 0.131343843494518 
1919	 0.131244159404545 
1920	 0.131135244160971 
1921	 0.131053149055811 
1922	 0.130985839397464 
1923	 0.130906304319217 
1924	 0.13085066196173 
1925	 0.130813214047827 
1926	 0.13078821457379 
1927	 0.130770036343355 
1928	 0.130778488881984 
1929	 0.130803721454113 
1930	 0.130811335290521 
1931	 0.130827247207471 
1932	 0.130848489544837 
1933	 0.130859244634184 
1934	 0.130888413617702 
1935	 0.130931720429417 
1936	 0.130985342196544 
1937	 0.131045958757121 
1938	 0.131139695327809 
1939	 0.131210229602702 
1940	 0.131268748149591 
1941	 0.131329763041702 
1942	 0.131408364141494 
1943	 0.131483933447749 
1944	 0.131582039680283 
1945	 0.131703181440845 
1946	 0.131809900316826 
1947	 0.131910534827623 
1948	 0.132019357902311 
1949	 0.132130157443024 
1950	 0.132245259211916 
1951	 0.132364467880475 
1952	 0.132488026099781 
1953	 0.132624480956139 
1954	 0.132749034742911 
1955	 0.132877822189506 
1956	 0.13301264012772 
1957	 0.133142691539024 
1958	 0.133265919705827 
1959	 0.13340093318289 
1960	 0.133545778779769 
1961	 0.133680595926917 
1962	 0.133809684540458 
1963	 0.133947260334124 
1964	 0.134083558866559 
1965	 0.134223639827869 
1966	 0.13436587748866 
1967	 0.134501362663244 
1968	 0.134652062696688 
1969	 0.134802883452941 
1970	 0.134958825595752 
1971	 0.135136759437255 
1972	 0.135303092432821 
1973	 0.135461909377439 
1974	 0.13561760751343 
1975	 0.135776841215303 
1976	 0.13592818092472 
1977	 0.136067269295149 
1978	 0.136205722983772 
1979	 0.136354094040653 
1980	 0.136500760680561 
1981	 0.136648683022595 
1982	 0.136800673507744 
1983	 0.136955994017037 
1984	 0.137110833316143 
1985	 0.137270017883241 
1986	 0.137436957487636 
1987	 0.137600949033112 
1988	 0.137773339743012 
1989	 0.137929309261143 
1990	 0.138078905121528 
1991	 0.13823271707817 
1992	 0.138380298092994 
1993	 0.138511730680479 
1994	 0.138659830113634 
1995	 0.138816561403464 
1996	 0.138968338420218 
1997	 0.139128883811269 
1998	 0.139280854495321 
1999	 0.139426659409032 
2000	 0.139570575047579 
2001	 0.139708579081391 
2002	 0.139848857865883 
2003	 0.139982873987406 
2004	 0.140131493988916 
2005	 0.14026672852575 
2006	 0.140394967194724 
2007	 0.140529011863235 
2008	 0.140659761415519 
2009	 0.140791080261617 
2010	 0.140929071313906 
2011	 0.141063816504431 
2012	 0.14119512952961 
2013	 0.141326695244437 
2014	 0.141462801516491 
2015	 0.141586689088398 
2016	 0.141722013784574 
2017	 0.141862083157835 
2018	 0.141986102125471 
2019	 0.142103129257038 
2020	 0.142228967449634 
2021	 0.142335013467875 
2022	 0.142466068394546 
2023	 0.142638497108775 
2024	 0.142770091461012 
2025	 0.142892879213567 
2026	 0.143009942219951 
2027	 0.143102412903337 
2028	 0.143187089117663 
2029	 0.143295651323095 
2030	 0.143416748464658 
2031	 0.143531360916909 
2032	 0.14365221171946 
2033	 0.143773603020769 
2034	 0.143897623043986 
2035	 0.14401370772907 
2036	 0.144136966627032 
2037	 0.144248447965224 
2038	 0.144341250030273 
2039	 0.144442203410824 
2040	 0.144555089491359 
2041	 0.144642658606911 
2042	 0.144732289519548 
2043	 0.144833333898211 
2044	 0.144919543706281 
2045	 0.144995301300459 
2046	 0.145076308122756 
2047	 0.145148774672445 
2048	 0.145232727790193 
2049	 0.14532475893226 
2050	 0.145411595424771 
2051	 0.145501352783903 
2052	 0.145590715741039 
2053	 0.145677070358134 
2054	 0.145764065852731 
2055	 0.145854757087892 
2056	 0.145949886056246 
2057	 0.146023909070688 
2058	 0.146079134502568 
2059	 0.146158931311748 
2060	 0.146238466038873 
2061	 0.146313900265822 
2062	 0.146403209812042 
2063	 0.14648635409114 
2064	 0.146550904231693 
2065	 0.146629710095193 
2066	 0.146733809352966 
2067	 0.146816584248557 
2068	 0.146881736338594 
2069	 0.146965435736804 
2070	 0.147026942906672 
2071	 0.147071427649462 
2072	 0.147124512595099 
2073	 0.147165701272282 
2074	 0.147226520289327 
2075	 0.147292658809506 
2076	 0.147368985467724 
2077	 0.147468086837876 
2078	 0.147551171355399 
2079	 0.147640982860602 
2080	 0.147716250008648 
2081	 0.147777985658216 
2082	 0.147838398679666 
2083	 0.147885928705448 
2084	 0.14793969685125 
2085	 0.14799548805487 
2086	 0.148052111610915 
2087	 0.148106602274348 
2088	 0.148165075199387 
2089	 0.148218658019291 
2090	 0.148255896412495 
2091	 0.148320430517304 
2092	 0.148409390582528 
2093	 0.148474213620903 
2094	 0.148542374722067 
2095	 0.14860740823663 
2096	 0.148650154882013 
2097	 0.148704033837912 
2098	 0.148773487561052 
2099	 0.148832082369918 
2100	 0.148896704215882 
2101	 0.148955498885968 
2102	 0.149029247404974 
2103	 0.149116366637918 
2104	 0.149194880066941 
2105	 0.149279012619453 
2106	 0.149356536728526 
2107	 0.149414621015659 
2108	 0.149499201538021 
2109	 0.149599419804862 
2110	 0.149695908980761 
2111	 0.149820965748051 
2112	 0.149919294620705 
2113	 0.150009986865962 
2114	 0.150079129337576 
2115	 0.150148033549603 
2116	 0.150195108794544 
2117	 0.150266143141976 
2118	 0.150339135103803 
2119	 0.150418383742178 
2120	 0.150515912688608 
2121	 0.150596803790793 
2122	 0.15067507649289 
2123	 0.150748433265073 
2124	 0.150817559518696 
2125	 0.150879881000396 
2126	 0.150927132480892 
2127	 0.150986162149543 
2128	 0.15105734169069 
2129	 0.151109817648839 
2130	 0.1511570160191 
2131	 0.151210986537413 
2132	 0.151238593873894 
2133	 0.151235248739444 
2134	 0.151250411156515 
2135	 0.151271613091143 
2136	 0.151270793057714 
2137	 0.15126831521582 
2138	 0.151250059836489 
2139	 0.151209916999147 
2140	 0.151166294726685 
2141	 0.151097374859116 
2142	 0.151053875883761 
2143	 0.15101991383493 
2144	 0.150978165224834 
2145	 0.150947390477501 
2146	 0.150916894065321 
2147	 0.150888470866595 
2148	 0.15083774822143 
2149	 0.150794133190006 
2150	 0.15076166258116 
2151	 0.150709363494345 
2152	 0.150649238000273 
2153	 0.15057136197087 
2154	 0.150482931037715 
2155	 0.150384165465142 
2156	 0.150253369767727 
2157	 0.150143228493736 
2158	 0.15003968170939 
2159	 0.149929316841306 
2160	 0.149819005415784 
2161	 0.149710425481086 
2162	 0.149602988950328 
2163	 0.149487154873555 
2164	 0.149361229245307 
2165	 0.149253956037917 
2166	 0.149131567350249 
2167	 0.14899143001013 
2168	 0.148872865693455 
2169	 0.14877230796868 
2170	 0.148647442075947 
2171	 0.148513638645734 
2172	 0.148389674352812 
2173	 0.148246520038607 
2174	 0.148126581331786 
2175	 0.14804197397808 
2176	 0.14792947882031 
2177	 0.147803154698205 
2178	 0.147687778055726 
2179	 0.147562755252099 
2180	 0.147446620891612 
2181	 0.147346837008547 
2182	 0.147241540820666 
2183	 0.147134416624705 
2184	 0.14701910236905 
2185	 0.146926239094516 
2186	 0.146853594509635 
2187	 0.146751654577957 
2188	 0.146643080391612 
2189	 0.146547809218361 
2190	 0.146428468992574 
2191	 0.1463411355798 
2192	 0.146298194223478 
2193	 0.146224498178303 
2194	 0.146131677929228 
2195	 0.146063077010158 
2196	 0.145998730745288 
2197	 0.145936244071239 
2198	 0.145892801879611 
2199	 0.145844690988165 
2200	 0.145789416933149 
2201	 0.145739947702686 
2202	 0.145701726561908 
2203	 0.145648624937069 
2204	 0.14562245417879 
2205	 0.145608613570845 
2206	 0.145587970842532 
2207	 0.145581719137331 
2208	 0.145569302749401 
2209	 0.145539378603117 
2210	 0.145538989981182 
2211	 0.145550229176077 
2212	 0.145575237702523 
2213	 0.14562677045908 
2214	 0.145662002432533 
2215	 0.145709525907584 
2216	 0.145742692048911 
2217	 0.145780104060748 
2218	 0.145788295880468 
2219	 0.145756567163959 
2220	 0.14575175751619 
2221	 0.145744572519053 
2222	 0.145725371096818 
2223	 0.145723580677056 
2224	 0.145755940264184 
2225	 0.145793878686751 
2226	 0.145842075430604 
2227	 0.145877356583407 
2228	 0.145939567920468 
2229	 0.145970977313227 
2230	 0.145978901374409 
2231	 0.145983842366089 
2232	 0.14598815857897 
2233	 0.145970476843024 
2234	 0.145903494838081 
2235	 0.145892415564049 
2236	 0.145900042269334 
2237	 0.145906365943426 
2238	 0.145963001442767 
2239	 0.14597491797823 
2240	 0.145937038635214 
2241	 0.145934818813832 
2242	 0.145932686296673 
2243	 0.145938668310023 
2244	 0.145955854221085 
2245	 0.14601203368832 
2246	 0.146032597770828 
2247	 0.146022552278079 
2248	 0.145996188730862 
2249	 0.145921388133708 
2250	 0.145915949356651 
2251	 0.145922709241849 
2252	 0.145930311945826 
2253	 0.145998231850515 
2254	 0.145998043805323 
2255	 0.145939146151052 
2256	 0.145930157060258 
2257	 0.145913279411052 
2258	 0.145919536396449 
2259	 0.145977734531188 
2260	 0.145992268223028 
2261	 0.145995312738856 
2262	 0.145995494750621 
2263	 0.145953166877255 
2264	 0.145952858033571 
2265	 0.145980482775513 
2266	 0.146002255488894 
2267	 0.146048221035704 
2268	 0.146083404071699 
2269	 0.146116080409717 
2270	 0.146130147693596 
2271	 0.146162376848281 
2272	 0.146183405164746 
2273	 0.146168369277553 
2274	 0.146169943436871 
2275	 0.146177440751951 
2276	 0.1461738780132 
2277	 0.146184917780033 
2278	 0.146224629976934 
2279	 0.146237017528592 
2280	 0.146226275492822 
2281	 0.146245715893711 
2282	 0.146269826173959 
2283	 0.146306500695221 
2284	 0.146392435591137 
2285	 0.146413157564985 
2286	 0.14640225352127 
2287	 0.14639664705079 
2288	 0.146334368812954 
2289	 0.146323957769068 
2290	 0.146342449788983 
2291	 0.146368470170934 
2292	 0.146448258761719 
2293	 0.146477960737684 
2294	 0.14649453033969 
2295	 0.146498795386013 
2296	 0.146454439308702 
2297	 0.146415820833899 
2298	 0.146444963733881 
2299	 0.146483875722982 
2300	 0.146524700257473 
2301	 0.146539150411002 
2302	 0.146524880295799 
2303	 0.146510231758646 
2304	 0.146497422456913 
2305	 0.146490292956183 
2306	 0.146466063491389 
2307	 0.146430368073165 
2308	 0.146378935090217 
2309	 0.146293827346426 
2310	 0.146262492416637 
2311	 0.14624200556578 
2312	 0.146217851164899 
2313	 0.14623429816659 
2314	 0.146222856305921 
2315	 0.146180064049413 
2316	 0.146158992298194 
2317	 0.146136087195167 
2318	 0.146140134576658 
2319	 0.146169843461902 
2320	 0.146188734175138 
2321	 0.146225500987094 
2322	 0.146252018756028 
2323	 0.146272899442589 
2324	 0.146289082957109 
2325	 0.146295626148418 
2326	 0.14631228553378 
2327	 0.146343101544456 
2328	 0.146333010936924 
2329	 0.146333346690274 
2330	 0.146388538551049 
2331	 0.146416124160851 
2332	 0.146382875317873 
2333	 0.146364695712158 
2334	 0.146359963162982 
2335	 0.146325853222071 
2336	 0.146365988709298 
2337	 0.146428484309709 
2338	 0.14641975925778 
2339	 0.146417820899747 
2340	 0.146407566979383 
2341	 0.146388160464009 
2342	 0.146419392215601 
2343	 0.146452219545284 
2344	 0.146477228926136 
2345	 0.146495667856283 
2346	 0.14648499185977 
2347	 0.146484457975615 
2348	 0.146514604674803 
2349	 0.146492895959868 
2350	 0.146433024142289 
2351	 0.146379569846606 
2352	 0.146288934508353 
2353	 0.146246097436076 
2354	 0.146245843732421 
2355	 0.146199042953108 
2356	 0.14612596249623 
2357	 0.14608498332602 
2358	 0.146034389050932 
2359	 0.145995287277612 
2360	 0.146001844232786 
2361	 0.145987951731652 
2362	 0.145949071476146 
2363	 0.145922172106545 
2364	 0.145939779025977 
2365	 0.145897208695122 
2366	 0.145772623404313 
2367	 0.145719535860793 
2368	 0.145687149466884 
2369	 0.145635761345138 
2370	 0.145614517071398 
2371	 0.14560327122162 
2372	 0.145539057872425 
2373	 0.145494585799796 
2374	 0.145442733097676 
2375	 0.145339573555296 
2376	 0.145255344488823 
2377	 0.145179347308517 
2378	 0.145127251038187 
2379	 0.145127694939942 
2380	 0.145111777388982 
2381	 0.145081909159034 
2382	 0.145049338207176 
2383	 0.145011160165266 
2384	 0.144980032668462 
2385	 0.144885203465281 
2386	 0.144751809658839 
2387	 0.144619612443438 
2388	 0.144478952192854 
2389	 0.144377402542836 
2390	 0.144279282336069 
2391	 0.144211811200207 
2392	 0.144195340681447 
2393	 0.14415618348787 
2394	 0.144148693963806 
2395	 0.144117395234527 
2396	 0.144054352383028 
2397	 0.144033669236491 
2398	 0.143979728989937 
2399	 0.14396524274807 
2400	 0.143945028436819 
2401	 0.143834789907656 
2402	 0.143727398546738 
2403	 0.143623432915456 
2404	 0.143509255641847 
2405	 0.143424126898083 
2406	 0.143378145497462 
2407	 0.143309645714233 
2408	 0.143208716284819 
2409	 0.143127140373698 
2410	 0.143016371386639 
2411	 0.142851452913464 
2412	 0.142781639421755 
2413	 0.142689298456221 
2414	 0.142483732640686 
2415	 0.142411059581011 
2416	 0.142341891483189 
2417	 0.142256117332183 
2418	 0.142182653790628 
2419	 0.14220645885653 
2420	 0.142124562648612 
2421	 0.141982950854886 
2422	 0.141819182047785 
2423	 0.141594325500976 
2424	 0.141395323661933 
2425	 0.141145682449009 
2426	 0.141043726751456 
2427	 0.141080191145488 
2428	 0.140990643580961 
2429	 0.140867225549037 
2430	 0.140777319579477 
2431	 0.140626211606615 
2432	 0.140549161519024 
2433	 0.140620933961778 
2434	 0.140535643606363 
2435	 0.140317776160936 
2436	 0.14020003963419 
2437	 0.140131883596783 
2438	 0.140008407148099 
2439	 0.139891858095123 
2440	 0.139836371607055 
2441	 0.139746735053409 
2442	 0.139594855312926 
2443	 0.139463427496434 
2444	 0.139289356336133 
2445	 0.139009699986104 
2446	 0.13889094990427 
2447	 0.138873015632055 
2448	 0.138875912196715 
2449	 0.138963467087108 
2450	 0.138911936335577 
2451	 0.138866222755973 
2452	 0.138767013769603 
2453	 0.138500094009668 
2454	 0.138341049953865 
2455	 0.138243053271936 
2456	 0.13811689981191 
2457	 0.138053031617267 
2458	 0.137933688920667 
2459	 0.137671989592435 
2460	 0.137578555726422 
2461	 0.137612257104096 
2462	 0.137542086997878 
2463	 0.137492291859183 
2464	 0.137373537615937 
2465	 0.137178402156981 
2466	 0.136992306347638 
2467	 0.136823999725274 
2468	 0.136720134118988 
2469	 0.136560529020316 
2470	 0.136434875749686 
2471	 0.136333746000001 
2472	 0.136172675358822 
2473	 0.136038900324119 
2474	 0.135964020093138 
2475	 0.135919939973242 
2476	 0.135733581183581 
2477	 0.135475702458083 
2478	 0.135262197227261 
2479	 0.135068487579779 
2480	 0.135062707886032 
2481	 0.135045060232589 
2482	 0.135079034719301 
2483	 0.135236840237852 
2484	 0.13502299558597 
2485	 0.134830002664354 
2486	 0.134723900337615 
2487	 0.134459239736509 
2488	 0.134498680762989 
2489	 0.134490443192477 
2490	 0.134441980628535 
2491	 0.134474572871518 
2492	 0.13431694703763 
2493	 0.134285556879344 
2494	 0.134103475456841 
2495	 0.133781006355489 
2496	 0.133685859126713 
2497	 0.133775853071554 
2498	 0.133948609798479 
2499	 0.133973096217495 
2500	 0.133926624755594 
