Wavelength	MM600008.asd
350	 7.36054839415208E-02 
351	 6.97910004948458E-02 
352	 6.18616170044355E-02 
353	 5.75938175143559E-02 
354	 6.80496102878854E-02 
355	 7.01534802144458E-02 
356	 6.81143104937988E-02 
357	 7.05994288019551E-02 
358	 7.46079336344494E-02 
359	 7.28276517899099E-02 
360	 6.91298054425668E-02 
361	 7.28546909204071E-02 
362	 6.99954839826542E-02 
363	 6.74600007706957E-02 
364	 6.95825436686284E-02 
365	 7.33944994883994E-02 
366	 0.072891977164831 
367	 7.13102579603843E-02 
368	 7.31772030209345E-02 
369	 7.76212163118161E-02 
370	 7.59719794524532E-02 
371	 7.20416152210381E-02 
372	 7.65780461934084E-02 
373	 0.075447772899733 
374	 7.45550375810683E-02 
375	 7.78495659843277E-02 
376	 8.18590030498894E-02 
377	 8.01026967504304E-02 
378	 7.66082928418489E-02 
379	 7.73671097899089E-02 
380	 8.15551222223274E-02 
381	 8.39220535185973E-02 
382	 0.084418914372165 
383	 8.67743347421289E-02 
384	 8.86457388275376E-02 
385	 8.82720194550783E-02 
386	 8.59639223175766E-02 
387	 8.54420352898814E-02 
388	 0.086951119769603 
389	 8.85542112481782E-02 
390	 8.83533718454949E-02 
391	 8.86095431464226E-02 
392	 0.089353828706672 
393	 9.04127841539207E-02 
394	 9.14770587792442E-02 
395	 9.10690947034779E-02 
396	 9.15453074924517E-02 
397	 9.40142342325906E-02 
398	 9.58038640953677E-02 
399	 0.096999494650147 
400	 9.75402954983093E-02 
401	 9.75726976620131E-02 
402	 9.81118494496224E-02 
403	 9.82464043759668E-02 
404	 9.80919740206375E-02 
405	 9.88623236170263E-02 
406	 0.100281776703233 
407	 0.101619024122236 
408	 0.102140190770339 
409	 0.101015072419385 
410	 0.101370694724471 
411	 0.102647462755532 
412	 0.102795988062183 
413	 0.102937058906886 
414	 0.102754505427331 
415	 0.102532457090684 
416	 0.103461777151219 
417	 0.103965082848827 
418	 0.104269960783927 
419	 0.104767629787791 
420	 0.104828762045314 
421	 0.104454411452289 
422	 0.104246980957916 
423	 0.104997137763953 
424	 0.105303742415264 
425	 0.105137152296416 
426	 0.104758999184092 
427	 0.104555046991611 
428	 0.104539420747898 
429	 0.104686941485785 
430	 0.104933368221106 
431	 0.105226465808161 
432	 0.105330159829563 
433	 0.105349784769282 
434	 0.105689248347788 
435	 0.105820626402285 
436	 0.105816520769311 
437	 0.105810049738168 
438	 0.105720669095461 
439	 0.105948017249555 
440	 0.106362662931632 
441	 0.106624695411037 
442	 0.107109113878164 
443	 0.107533874470881 
444	 0.107691337812902 
445	 0.107545192035029 
446	 0.107800963280143 
447	 0.108315853351187 
448	 0.108729408563512 
449	 0.108977309914337 
450	 0.109150149516099 
451	 0.10933362554224 
452	 0.109602171664293 
453	 0.110077741016328 
454	 0.11040223012223 
455	 0.110436192110021 
456	 0.110782213288576 
457	 0.111017521812128 
458	 0.111118903531409 
459	 0.111244880153001 
460	 0.111497013968642 
461	 0.111603767648707 
462	 0.111602073355899 
463	 0.112005611967935 
464	 0.112260292150998 
465	 0.112380840042953 
466	 0.112515926149796 
467	 0.112668070979903 
468	 0.112790042053342 
469	 0.112938415733694 
470	 0.113228421393249 
471	 0.113298128946326 
472	 0.113360704346524 
473	 0.113557100887841 
474	 0.113629450189252 
475	 0.113616830759575 
476	 0.113666028613735 
477	 0.113909556416231 
478	 0.113963853530772 
479	 0.114048183234297 
480	 0.114251013042978 
481	 0.114409003172329 
482	 0.1145562367503 
483	 0.114751179899173 
484	 0.114984572027232 
485	 0.114922743322912 
486	 0.114979739833982 
487	 0.115145604705504 
488	 0.115074175684713 
489	 0.115180647579877 
490	 0.115410079891933 
491	 0.11559988523082 
492	 0.11551468853716 
493	 0.115481375719402 
494	 0.115606582079326 
495	 0.115852613633843 
496	 0.115981358857753 
497	 0.116049528044894 
498	 0.116139907138897 
499	 0.116331539298486 
500	 0.116413143963398 
501	 0.116410870592713 
502	 0.116435526440436 
503	 0.116638712259202 
504	 0.116692201205583 
505	 0.116616902923315 
506	 0.11674816261769 
507	 0.116867754312266 
508	 0.117006917558654 
509	 0.11715061081745 
510	 0.116998583897502 
511	 0.117054086836689 
512	 0.117256717540566 
513	 0.117287060294619 
514	 0.117494775704974 
515	 0.117594825408788 
516	 0.117514086003441 
517	 0.117651135843403 
518	 0.117816279020315 
519	 0.117903019649452 
520	 0.117874506776021 
521	 0.117926185464843 
522	 0.117978437582781 
523	 0.118007033181455 
524	 0.118061599873194 
525	 0.118164947240018 
526	 0.118258272374098 
527	 0.118292401328077 
528	 0.118299139363726 
529	 0.118350125244688 
530	 0.118468093454309 
531	 0.118626221495811 
532	 0.118631668884627 
533	 0.118667665629141 
534	 0.118813202254625 
535	 0.118808052400581 
536	 0.118862834300821 
537	 0.118943713237359 
538	 0.118955030956685 
539	 0.11906594286554 
540	 0.11915429574229 
541	 0.119179417810719 
542	 0.119236920184218 
543	 0.119298773400394 
544	 0.11933837885904 
545	 0.119350157530374 
546	 0.119413407835949 
547	 0.119495889483702 
548	 0.11957359273926 
549	 0.119631872525241 
550	 0.119623989243262 
551	 0.119675939765182 
552	 0.119844737754653 
553	 0.11993858714712 
554	 0.119977090561897 
555	 0.120017265480267 
556	 0.120127268459362 
557	 0.120236245884136 
558	 0.120332828076469 
559	 0.120414862460833 
560	 0.120484703223823 
561	 0.120517029586091 
562	 0.120546932471173 
563	 0.120616248526852 
564	 0.120687909170441 
565	 0.120689790972628 
566	 0.120642336807008 
567	 0.120668830615717 
568	 0.120875514712808 
569	 0.121095903880328 
570	 0.121196355918776 
571	 0.12140457915725 
572	 0.121556287462425 
573	 0.121633172140404 
574	 0.121721140267936 
575	 0.121791341866858 
576	 0.121887034779726 
577	 0.121997304385688 
578	 0.121956516078144 
579	 0.121973430360311 
580	 0.12204919078846 
581	 0.122111411125905 
582	 0.122249282257642 
583	 0.122417076437952 
584	 0.122574696198421 
585	 0.122708895021374 
586	 0.122781496424082 
587	 0.122807408268294 
588	 0.122823628971389 
589	 0.122875415201885 
590	 0.12291957188856 
591	 0.122973587157078 
592	 0.123106216187223 
593	 0.12320204060683 
594	 0.12330769067122 
595	 0.123445831217724 
596	 0.123479360584842 
597	 0.123548124016759 
598	 0.123664314597021 
599	 0.123769081781201 
600	 0.123838139451738 
601	 0.123894069788605 
602	 0.123951201056926 
603	 0.12399680136882 
604	 0.124048341361737 
605	 0.124112325492892 
606	 0.124183237148949 
607	 0.12421362967472 
608	 0.124259508134815 
609	 0.124344039418363 
610	 0.124445475241322 
611	 0.124503597369683 
612	 0.124589183240065 
613	 0.12474581656194 
614	 0.124817212420159 
615	 0.124852359993222 
616	 0.124896202114524 
617	 0.124982898576317 
618	 0.125054712571727 
619	 0.125098292131578 
620	 0.125122390677403 
621	 0.125163158845606 
622	 0.125234259017889 
623	 0.125310206595079 
624	 0.12535400866632 
625	 0.125383164753735 
626	 0.125420951715409 
627	 0.125477519168488 
628	 0.125545548352086 
629	 0.125607461381538 
630	 0.12563604903653 
631	 0.125628801764707 
632	 0.125678476911839 
633	 0.125746242792298 
634	 0.125803648797529 
635	 0.125836471400779 
636	 0.125884931150195 
637	 0.125931292204676 
638	 0.125956724560857 
639	 0.125958096070184 
640	 0.126007397479576 
641	 0.126080385089625 
642	 0.126115918998099 
643	 0.126163602438842 
644	 0.126212989434639 
645	 0.126261106976558 
646	 0.126324414181547 
647	 0.126365252035744 
648	 0.126383598581403 
649	 0.126397723796101 
650	 0.126444386246651 
651	 0.126517719805563 
652	 0.126583484661817 
653	 0.126591389193903 
654	 0.126633775601067 
655	 0.12666398901986 
656	 0.126663062976877 
657	 0.126750120292057 
658	 0.126830298980753 
659	 0.126883682886877 
660	 0.126921496580701 
661	 0.126900721121768 
662	 0.126919420491203 
663	 0.127003777932797 
664	 0.127059543542373 
665	 0.127090136798445 
666	 0.127145696048888 
667	 0.127248516719679 
668	 0.127238626503456 
669	 0.127240150029569 
670	 0.127291942557718 
671	 0.127352432976565 
672	 0.127381062546093 
673	 0.127418056015862 
674	 0.127483480780313 
675	 0.127511720566786 
676	 0.127553538248639 
677	 0.127598567519128 
678	 0.127617500521269 
679	 0.127637856671575 
680	 0.127702071290069 
681	 0.12779961848153 
682	 0.127852133610188 
683	 0.127841499750109 
684	 0.127840366744817 
685	 0.127910733477483 
686	 0.127985615029161 
687	 0.12803790231829 
688	 0.12808220901791 
689	 0.128155687683146 
690	 0.128182153438644 
691	 0.128173492657054 
692	 0.128174944797197 
693	 0.128279814148899 
694	 0.128330543836384 
695	 0.128364514098489 
696	 0.128456945913599 
697	 0.1284625711984 
698	 0.128487717764345 
699	 0.128553556386125 
700	 0.128579759340471 
701	 0.128643004973914 
702	 0.128704269942097 
703	 0.128733512528369 
704	 0.128796582522667 
705	 0.128847252787967 
706	 0.128887243476517 
707	 0.128938472844193 
708	 0.128971456885301 
709	 0.128982481709411 
710	 0.128995162184488 
711	 0.129068766252182 
712	 0.129114590802233 
713	 0.129157333900432 
714	 0.129235172226567 
715	 0.129317030418325 
716	 0.129337133779411 
717	 0.129333693011396 
718	 0.129409974927405 
719	 0.129480282105942 
720	 0.129507192950536 
721	 0.129507513910874 
722	 0.129588491877018 
723	 0.129673084764546 
724	 0.129726523892212 
725	 0.129738597132167 
726	 0.129742911016928 
727	 0.129758383368555 
728	 0.129801863627447 
729	 0.129883811561326 
730	 0.129932244580655 
731	 0.129936430687093 
732	 0.129931380077866 
733	 0.130038058801797 
734	 0.130094629756284 
735	 0.13009879264545 
736	 0.130111611963458 
737	 0.13012673682845 
738	 0.130176491523677 
739	 0.130240540959603 
740	 0.130243207997591 
741	 0.130265803487663 
742	 0.130289203065202 
743	 0.130298985571193 
744	 0.130357898740342 
745	 0.130385064373542 
746	 0.13040279590371 
747	 0.130466057404737 
748	 0.130480725491477 
749	 0.130493071935039 
750	 0.130523941910904 
751	 0.130548660633976 
752	 0.130588734780513 
753	 0.130600551482596 
754	 0.130567890980969 
755	 0.130595114568277 
756	 0.13063287587285 
757	 0.130659155815675 
758	 0.130671793666276 
759	 0.130709512367767 
760	 0.130736598264056 
761	 0.130742513286046 
762	 0.130756481260994 
763	 0.130752488467895 
764	 0.130756872009408 
765	 0.130781366111184 
766	 0.130753017830577 
767	 0.1307755607482 
768	 0.130827472923851 
769	 0.130834330569188 
770	 0.13084943739502 
771	 0.130853429396993 
772	 0.130845112710004 
773	 0.130851560029658 
774	 0.130891421325844 
775	 0.130910665535718 
776	 0.130879430340142 
777	 0.130875267984441 
778	 0.130896581745946 
779	 0.130936099570948 
780	 0.130976497658012 
781	 0.130976462766913 
782	 0.130972384412746 
783	 0.130981292593795 
784	 0.130992499417503 
785	 0.131005211841827 
786	 0.131013459864054 
787	 0.131017112646398 
788	 0.131032767228916 
789	 0.131035345278929 
790	 0.131044837063153 
791	 0.131079660505764 
792	 0.131055426417997 
793	 0.131046875370964 
794	 0.131074751604591 
795	 0.131105466913167 
796	 0.131141291994661 
797	 0.131146685681174 
798	 0.131122777038954 
799	 0.131145032554201 
800	 0.131168722358919 
801	 0.131188408196787 
802	 0.131209676137772 
803	 0.131236126283983 
804	 0.131257871440108 
805	 0.131277588101789 
806	 0.131300510947552 
807	 0.131280928021488 
808	 0.131253375421407 
809	 0.131252429371815 
810	 0.13129802282947 
811	 0.131341824107032 
812	 0.131363860996008 
813	 0.131363961943715 
814	 0.131374428051263 
815	 0.131353917490073 
816	 0.131340399049306 
817	 0.131387156235119 
818	 0.131443098915867 
819	 0.131491269501819 
820	 0.13151395842727 
821	 0.131498032677191 
822	 0.131488300667283 
823	 0.131510290745316 
824	 0.131553964798881 
825	 0.131558667095749 
826	 0.13159636857918 
827	 0.131633589102817 
828	 0.131637836393606 
829	 0.131680449469764 
830	 0.13166541693061 
831	 0.131649213312592 
832	 0.131728188035887 
833	 0.131751783460663 
834	 0.131746167299443 
835	 0.131745460152796 
836	 0.131774632950621 
837	 0.131794779275749 
838	 0.13182296995939 
839	 0.131869176062141 
840	 0.131916970387891 
841	 0.131936696915488 
842	 0.131924850667429 
843	 0.131904683319963 
844	 0.131952979605509 
845	 0.131992934239032 
846	 0.132005001377629 
847	 0.13200508056557 
848	 0.132033548847853 
849	 0.132053088080107 
850	 0.132072380321928 
851	 0.13213412874129 
852	 0.132165022662604 
853	 0.132171998949271 
854	 0.132190822276453 
855	 0.132277030844112 
856	 0.132275359271086 
857	 0.132262010844808 
858	 0.132303257330939 
859	 0.132288470415328 
860	 0.132306947863255 
861	 0.132365023510758 
862	 0.132436245122513 
863	 0.132497177244173 
864	 0.132554685042669 
865	 0.132580757533299 
866	 0.132540904388696 
867	 0.13249880886444 
868	 0.132504667035243 
869	 0.132551502096343 
870	 0.132580693017342 
871	 0.132634521383707 
872	 0.13266861997537 
873	 0.132676883678459 
874	 0.132733126309258 
875	 0.132791821812907 
876	 0.132811857786102 
877	 0.13279006862196 
878	 0.132813254688993 
879	 0.132868934839892 
880	 0.132919090088138 
881	 0.132932320346752 
882	 0.132950864224948 
883	 0.132979463588053 
884	 0.133013881638646 
885	 0.133052954432123 
886	 0.13316200224941 
887	 0.133171115398812 
888	 0.133099312542079 
889	 0.133126058056518 
890	 0.13320210697907 
891	 0.133235180387374 
892	 0.133231854629393 
893	 0.133317655323911 
894	 0.133313086547641 
895	 0.133314889871733 
896	 0.133387968188119 
897	 0.133443388706692 
898	 0.133486994765958 
899	 0.133505595419897 
900	 0.133506817068646 
901	 0.133559002383927 
902	 0.133597796449888 
903	 0.133635581502837 
904	 0.133691881730882 
905	 0.133708508849454 
906	 0.133741159803195 
907	 0.13378342797365 
908	 0.133817343131379 
909	 0.13394714071111 
910	 0.133961660333743 
911	 0.133900087402185 
912	 0.133947568728892 
913	 0.133985266830557 
914	 0.134027726207013 
915	 0.134079996056458 
916	 0.134131903106958 
917	 0.134199797834842 
918	 0.134226754568187 
919	 0.134219111431405 
920	 0.134260370469609 
921	 0.134336573849957 
922	 0.134420289253691 
923	 0.134479886360005 
924	 0.134488368813006 
925	 0.134480591440243 
926	 0.134551752612953 
927	 0.134683554985108 
928	 0.134641660947697 
929	 0.134616667251434 
930	 0.134657408966104 
931	 0.134746249853008 
932	 0.13480335398501 
933	 0.134891033586414 
934	 0.134969774683503 
935	 0.134991853934732 
936	 0.134964931831946 
937	 0.134983739199133 
938	 0.135047926607109 
939	 0.135120223663181 
940	 0.135171071518825 
941	 0.135260483318613 
942	 0.135362109004647 
943	 0.135421589219735 
944	 0.135429242353315 
945	 0.135384532984027 
946	 0.135384135904054 
947	 0.13551016058898 
948	 0.13560376032866 
949	 0.135633745505337 
950	 0.135644845897625 
951	 0.135710535473949 
952	 0.135839944409741 
953	 0.135891928363527 
954	 0.135888241620519 
955	 0.135937088259044 
956	 0.136034521144932 
957	 0.136100768860817 
958	 0.136080307872431 
959	 0.135988241746006 
960	 0.136075138959383 
961	 0.136179393271606 
962	 0.136244473636318 
963	 0.136311886130344 
964	 0.136452667851035 
965	 0.136491413573222 
966	 0.136456945761139 
967	 0.136502945613558 
968	 0.136555665957698 
969	 0.136681655145818 
970	 0.136809787636834 
971	 0.136808301392324 
972	 0.13678863131484 
973	 0.136821565258847 
974	 0.136866813845134 
975	 0.13685690160388 
976	 0.137033041059585 
977	 0.137112530479544 
978	 0.137096620463761 
979	 0.137167488656118 
980	 0.137246413775687 
981	 0.137294112409003 
982	 0.137315395714681 
983	 0.137353723728311 
984	 0.137498163555253 
985	 0.137561153726391 
986	 0.137536184621249 
987	 0.137541655552688 
988	 0.137678809002323 
989	 0.137794957298591 
990	 0.137827878832712 
991	 0.137819575866054 
992	 0.137991150041992 
993	 0.13796354112164 
994	 0.137862382883331 
995	 0.13795452199677 
996	 0.138005805973462 
997	 0.138205061176075 
998	 0.138395658846423 
999	 0.138383479242379 
1000	 0.138334249130275 
1001	 0.138493949577569 
1002	 0.13855396339329 
1003	 0.138595172517164 
1004	 0.138639664600668 
1005	 0.138668380857605 
1006	 0.138732703481867 
1007	 0.138833186008791 
1008	 0.138877778351335 
1009	 0.138927224233904 
1010	 0.138962169925434 
1011	 0.13894667360338 
1012	 0.138940915991481 
1013	 0.138965862548347 
1014	 0.139004953692119 
1015	 0.139080362287052 
1016	 0.139181442364504 
1017	 0.139239767337133 
1018	 0.139299069557277 
1019	 0.139320913962874 
1020	 0.1392966560494 
1021	 0.139309047039447 
1022	 0.139364271444608 
1023	 0.139418544772957 
1024	 0.139522377551469 
1025	 0.139588101573594 
1026	 0.13961883363329 
1027	 0.139656945257454 
1028	 0.139663078140431 
1029	 0.139673620601258 
1030	 0.139667443407994 
1031	 0.139679348797378 
1032	 0.139692487484872 
1033	 0.139737371133688 
1034	 0.139779032202854 
1035	 0.139840432579819 
1036	 0.139880010321229 
1037	 0.139875366361118 
1038	 0.139924943446237 
1039	 0.139999101222499 
1040	 0.140000661216073 
1041	 0.140055375947665 
1042	 0.140124617269899 
1043	 0.140108181380052 
1044	 0.140161168815331 
1045	 0.140284430053083 
1046	 0.1404098512961 
1047	 0.140434985989988 
1048	 0.140502115630505 
1049	 0.140558230359076 
1050	 0.140584402760433 
1051	 0.140673649149426 
1052	 0.140739442358863 
1053	 0.140796236354534 
1054	 0.140848435726023 
1055	 0.140856364086144 
1056	 0.140906327580068 
1057	 0.140939370169429 
1058	 0.140934684271576 
1059	 0.140984719153438 
1060	 0.141071282067679 
1061	 0.141136507231631 
1062	 0.141199114014366 
1063	 0.141240560899763 
1064	 0.14122956829738 
1065	 0.141227511258211 
1066	 0.141253882843305 
1067	 0.141275330041498 
1068	 0.141305939932194 
1069	 0.141341136907119 
1070	 0.141358513534644 
1071	 0.141368598010264 
1072	 0.141372264565147 
1073	 0.141349537149487 
1074	 0.141342603622357 
1075	 0.141326074804685 
1076	 0.141354161592354 
1077	 0.141360275692317 
1078	 0.141341936800273 
1079	 0.141314280413934 
1080	 0.141273445096354 
1081	 0.141267258844602 
1082	 0.141262590509058 
1083	 0.141261510941125 
1084	 0.141290358673216 
1085	 0.141278495993927 
1086	 0.1412455059478 
1087	 0.141225713808295 
1088	 0.141201763218282 
1089	 0.141156530918852 
1090	 0.141135654518046 
1091	 0.141138249002371 
1092	 0.141142888552989 
1093	 0.141158118271012 
1094	 0.141182774812519 
1095	 0.141197361300141 
1096	 0.141207100139668 
1097	 0.141230827424829 
1098	 0.141242671932011 
1099	 0.141245190853758 
1100	 0.14125161056053 
1101	 0.141249974262508 
1102	 0.141260382153445 
1103	 0.141269602770664 
1104	 0.141303490028802 
1105	 0.141337185005435 
1106	 0.141351063266645 
1107	 0.14138583013809 
1108	 0.141420164269554 
1109	 0.141434589025932 
1110	 0.141464433479601 
1111	 0.141506318755422 
1112	 0.141546655436815 
1113	 0.141596943197534 
1114	 0.14167142042112 
1115	 0.141738869369326 
1116	 0.141807921127661 
1117	 0.141866967711643 
1118	 0.141921365420485 
1119	 0.14198219760105 
1120	 0.142051542698763 
1121	 0.142105024396157 
1122	 0.142157199648062 
1123	 0.142230778724212 
1124	 0.142300361135384 
1125	 0.142359568158385 
1126	 0.142430991252312 
1127	 0.14252750057345 
1128	 0.142593437665792 
1129	 0.142638385287091 
1130	 0.14270210975977 
1131	 0.142758815868523 
1132	 0.142825302405713 
1133	 0.142904627938844 
1134	 0.142981173992276 
1135	 0.143063173480447 
1136	 0.143149073192512 
1137	 0.143194795259718 
1138	 0.14325375878637 
1139	 0.143318189239139 
1140	 0.143377731634721 
1141	 0.143424741706259 
1142	 0.143477417162846 
1143	 0.143529967031369 
1144	 0.143562619071437 
1145	 0.143603174380422 
1146	 0.143659896608662 
1147	 0.143712029968522 
1148	 0.143756265269869 
1149	 0.143802396736028 
1150	 0.143859758419789 
1151	 0.143900619645787 
1152	 0.143957322069761 
1153	 0.143991829996729 
1154	 0.144026865607967 
1155	 0.144067618377536 
1156	 0.144092917431127 
1157	 0.144094023742229 
1158	 0.144116707381594 
1159	 0.144137562122971 
1160	 0.144169236565679 
1161	 0.144226048238625 
1162	 0.144260043858374 
1163	 0.144295328255514 
1164	 0.144316076279563 
1165	 0.144315059971893 
1166	 0.144314649279904 
1167	 0.144318251391608 
1168	 0.144334899810939 
1169	 0.144362741506187 
1170	 0.144412122309941 
1171	 0.144441277600076 
1172	 0.144476094300695 
1173	 0.144496887219341 
1174	 0.144497824829039 
1175	 0.144517249304546 
1176	 0.144546796241877 
1177	 0.144561829484037 
1178	 0.144566959264119 
1179	 0.144586754737368 
1180	 0.144614086959032 
1181	 0.1446283429517 
1182	 0.144645878411069 
1183	 0.144663027337768 
1184	 0.144683059012073 
1185	 0.144686975542278 
1186	 0.144705843956776 
1187	 0.144748198294429 
1188	 0.144768159017496 
1189	 0.144776867217717 
1190	 0.144784932602282 
1191	 0.144785778035585 
1192	 0.144790430234857 
1193	 0.144787975206839 
1194	 0.144795856350318 
1195	 0.144812207764242 
1196	 0.144825798863905 
1197	 0.144840395486056 
1198	 0.144858256640159 
1199	 0.144877727788353 
1200	 0.144897020634855 
1201	 0.144918011597733 
1202	 0.144939893849297 
1203	 0.144970076864668 
1204	 0.145009628920985 
1205	 0.145035920576174 
1206	 0.145063819169122 
1207	 0.145089084874243 
1208	 0.145113218962937 
1209	 0.145120956550596 
1210	 0.145115776329512 
1211	 0.145120774533243 
1212	 0.145105784475246 
1213	 0.145108572407016 
1214	 0.14513725581413 
1215	 0.145156629132803 
1216	 0.145175215950094 
1217	 0.145194169789681 
1218	 0.145211074396094 
1219	 0.14522530451857 
1220	 0.145240511806301 
1221	 0.145253959482499 
1222	 0.145271065804856 
1223	 0.145286784776471 
1224	 0.145308532625068 
1225	 0.145330339543446 
1226	 0.145361881123299 
1227	 0.145414978362054 
1228	 0.145445474784704 
1229	 0.145476005783145 
1230	 0.14549700985561 
1231	 0.145484401599531 
1232	 0.14549359439592 
1233	 0.145510004743052 
1234	 0.145531645092284 
1235	 0.145557372023469 
1236	 0.145599300492467 
1237	 0.145627590255465 
1238	 0.145659407352753 
1239	 0.145675902274522 
1240	 0.145680792572588 
1241	 0.145687545082215 
1242	 0.14567674046105 
1243	 0.14568334130405 
1244	 0.145696942788964 
1245	 0.145713472667909 
1246	 0.145741314872236 
1247	 0.145765419267673 
1248	 0.145784754368172 
1249	 0.145818628040754 
1250	 0.145849856351513 
1251	 0.145860796523572 
1252	 0.14587087418243 
1253	 0.1458709188675 
1254	 0.145877537811809 
1255	 0.145879604552135 
1256	 0.145884381292794 
1257	 0.145892842851803 
1258	 0.145898613188469 
1259	 0.145903335048897 
1260	 0.145906493132844 
1261	 0.145907679412211 
1262	 0.14591099662721 
1263	 0.145911890047945 
1264	 0.145915120875026 
1265	 0.14592012738638 
1266	 0.145928057826636 
1267	 0.14593515303296 
1268	 0.145948481321727 
1269	 0.1459635507273 
1270	 0.145983663190677 
1271	 0.146001741806772 
1272	 0.146016733610577 
1273	 0.146042354666977 
1274	 0.146066468278346 
1275	 0.146105475821703 
1276	 0.146164780464504 
1277	 0.146215565635324 
1278	 0.146273397049761 
1279	 0.146325513611734 
1280	 0.146375402115868 
1281	 0.146419429862329 
1282	 0.146454567173871 
1283	 0.146497488131092 
1284	 0.146539257673995 
1285	 0.146585902383317 
1286	 0.146634108750013 
1287	 0.146671746184118 
1288	 0.146700503812894 
1289	 0.146716680609667 
1290	 0.146734900656501 
1291	 0.146753952730763 
1292	 0.146757577285304 
1293	 0.14675232813539 
1294	 0.146743177306269 
1295	 0.146723248417693 
1296	 0.146696473903819 
1297	 0.146662368368259 
1298	 0.146630163596368 
1299	 0.146593115835993 
1300	 0.14654944559011 
1301	 0.146503146345778 
1302	 0.146455693857547 
1303	 0.146400576841505 
1304	 0.146345236044516 
1305	 0.146281564254505 
1306	 0.14621692149436 
1307	 0.146155092248023 
1308	 0.146088849332356 
1309	 0.146032640245339 
1310	 0.145991894921054 
1311	 0.145942958624702 
1312	 0.145890936938743 
1313	 0.145840191978846 
1314	 0.145788553159047 
1315	 0.145740037726887 
1316	 0.145678303236542 
1317	 0.145651362821845 
1318	 0.145650985002424 
1319	 0.145638036137338 
1320	 0.145643218263691 
1321	 0.145638376687106 
1322	 0.145608718301933 
1323	 0.145604338466593 
1324	 0.145620948391646 
1325	 0.145637745293172 
1326	 0.145661891252757 
1327	 0.145660759840891 
1328	 0.145647911119633 
1329	 0.14565415341058 
1330	 0.145681068817031 
1331	 0.145731149987278 
1332	 0.145768633688172 
1333	 0.145829325369089 
1334	 0.145862752020121 
1335	 0.145861976346819 
1336	 0.145897362983435 
1337	 0.145944954570006 
1338	 0.145985107921673 
1339	 0.146043229015344 
1340	 0.146091701020721 
1341	 0.146122837762667 
1342	 0.146168067744461 
1343	 0.146220030095351 
1344	 0.146272251856292 
1345	 0.146340156347587 
1346	 0.146406793692309 
1347	 0.146462090078861 
1348	 0.146511535152092 
1349	 0.146552162348801 
1350	 0.146592752652986 
1351	 0.146648759008404 
1352	 0.146723797481188 
1353	 0.14678053684426 
1354	 0.146841664696601 
1355	 0.146889659926514 
1356	 0.146921580068698 
1357	 0.146961217747213 
1358	 0.146995387674552 
1359	 0.147037898887409 
1360	 0.147083123352897 
1361	 0.147131441611962 
1362	 0.147190266971219 
1363	 0.147239781883398 
1364	 0.147290686659192 
1365	 0.147333953497842 
1366	 0.147367652275833 
1367	 0.147405003744996 
1368	 0.147434565784532 
1369	 0.147460474557387 
1370	 0.147490727297906 
1371	 0.147519138070502 
1372	 0.147541717151554 
1373	 0.147564805556966 
1374	 0.147582999753779 
1375	 0.147595015912428 
1376	 0.147598573802297 
1377	 0.147604763279434 
1378	 0.14759571894866 
1379	 0.147578033271899 
1380	 0.147548141422621 
1381	 0.147501544674932 
1382	 0.147457143648652 
1383	 0.14739995372298 
1384	 0.147344723654431 
1385	 0.147301892858254 
1386	 0.147234031721089 
1387	 0.147145083976439 
1388	 0.147066783566028 
1389	 0.146983728935464 
1390	 0.146895874810742 
1391	 0.146812084594191 
1392	 0.14672166243547 
1393	 0.146600866753015 
1394	 0.146466262489051 
1395	 0.146336465499543 
1396	 0.146190221494508 
1397	 0.146044096279666 
1398	 0.145898588295582 
1399	 0.145747196212049 
1400	 0.145579569555625 
1401	 0.145430771830433 
1402	 0.145284488404268 
1403	 0.145145329418755 
1404	 0.145021302745314 
1405	 0.144888625318854 
1406	 0.144748870288217 
1407	 0.144621292639905 
1408	 0.144490922126156 
1409	 0.144376749774639 
1410	 0.144282416487793 
1411	 0.144186271858857 
1412	 0.144088014928162 
1413	 0.144005410763609 
1414	 0.143949141198415 
1415	 0.143895763708035 
1416	 0.143870144893163 
1417	 0.143846392124585 
1418	 0.143809519867839 
1419	 0.143779727092644 
1420	 0.143750416568233 
1421	 0.143729308413963 
1422	 0.143711406317746 
1423	 0.143689726601019 
1424	 0.143662907407963 
1425	 0.14362899503044 
1426	 0.143603602927724 
1427	 0.143573483060423 
1428	 0.143554339732132 
1429	 0.143541378999773 
1430	 0.143538429528152 
1431	 0.143549850633852 
1432	 0.143552223495093 
1433	 0.143556233941049 
1434	 0.143562330689692 
1435	 0.143564940307263 
1436	 0.143569024991501 
1437	 0.143577284014167 
1438	 0.143591911203624 
1439	 0.143613774820731 
1440	 0.143624212058996 
1441	 0.143628206839325 
1442	 0.143630098903044 
1443	 0.143640349240614 
1444	 0.143646121721767 
1445	 0.143672536114643 
1446	 0.143712677512864 
1447	 0.143727110902491 
1448	 0.143739101017035 
1449	 0.143750839875539 
1450	 0.143762311908689 
1451	 0.143786934309162 
1452	 0.14382452263404 
1453	 0.143855473747692 
1454	 0.143897235869382 
1455	 0.14391797120744 
1456	 0.143922261353408 
1457	 0.143941162573299 
1458	 0.143955278063865 
1459	 0.143978381175842 
1460	 0.144013956022322 
1461	 0.144043921551825 
1462	 0.144064610650316 
1463	 0.144101631219041 
1464	 0.144154833710732 
1465	 0.14419534421078 
1466	 0.144236503644933 
1467	 0.144283044904427 
1468	 0.144327266362154 
1469	 0.144369178352743 
1470	 0.144416975921062 
1471	 0.144461667319201 
1472	 0.144499765231785 
1473	 0.144543791492213 
1474	 0.144592048130796 
1475	 0.144634261823374 
1476	 0.144675869084378 
1477	 0.144720971621844 
1478	 0.144774521098335 
1479	 0.144828454257218 
1480	 0.144884002156471 
1481	 0.144938909266011 
1482	 0.144991897857857 
1483	 0.145042196870218 
1484	 0.145099927505243 
1485	 0.145157856230997 
1486	 0.145217867406301 
1487	 0.145289015059478 
1488	 0.145347365522864 
1489	 0.145397410074656 
1490	 0.14545401586223 
1491	 0.145505093450738 
1492	 0.145564159501423 
1493	 0.145635596047455 
1494	 0.14569652069289 
1495	 0.145756902147286 
1496	 0.145811358775024 
1497	 0.145858371922581 
1498	 0.145904076084376 
1499	 0.145936877441706 
1500	 0.145989072086236 
1501	 0.146056403594437 
1502	 0.146113204767868 
1503	 0.146180471811514 
1504	 0.146237039209831 
1505	 0.146274346260479 
1506	 0.146306688177976 
1507	 0.146346135262101 
1508	 0.146390916763478 
1509	 0.146446216835122 
1510	 0.146492505104195 
1511	 0.146534512768144 
1512	 0.146584048205561 
1513	 0.146628422245349 
1514	 0.146673833255129 
1515	 0.146714588531256 
1516	 0.146752244896565 
1517	 0.146795526261011 
1518	 0.146837171439167 
1519	 0.146878804610228 
1520	 0.146929272294068 
1521	 0.146962360029126 
1522	 0.146985943202436 
1523	 0.147015107398328 
1524	 0.147035537838427 
1525	 0.14706744924632 
1526	 0.147105555139845 
1527	 0.147134245181317 
1528	 0.147164533153895 
1529	 0.147195538279557 
1530	 0.147218916496898 
1531	 0.147252049922961 
1532	 0.147297873114428 
1533	 0.147328589511394 
1534	 0.147348418425645 
1535	 0.147384102395046 
1536	 0.147422154238227 
1537	 0.147456250436323 
1538	 0.147509059011863 
1539	 0.147541499545417 
1540	 0.147556627018642 
1541	 0.147573429670355 
1542	 0.147584814782845 
1543	 0.14759188220536 
1544	 0.147589076851209 
1545	 0.147592366466082 
1546	 0.147594896792602 
1547	 0.147595155755939 
1548	 0.147606026354876 
1549	 0.14763375579265 
1550	 0.147665713139765 
1551	 0.147688560271456 
1552	 0.147721609398737 
1553	 0.147749539470926 
1554	 0.14777087762339 
1555	 0.147809535189952 
1556	 0.147834407800633 
1557	 0.147841958870393 
1558	 0.147859888192247 
1559	 0.14788837965714 
1560	 0.147911782299096 
1561	 0.14794306194535 
1562	 0.14797044580142 
1563	 0.147989194143234 
1564	 0.148012103351579 
1565	 0.148042475861066 
1566	 0.148069682241998 
1567	 0.148099789423567 
1568	 0.148117090599143 
1569	 0.148124376812918 
1570	 0.148139286266519 
1571	 0.148152451704633 
1572	 0.148158689208068 
1573	 0.148164878365417 
1574	 0.148175417291266 
1575	 0.148165251399246 
1576	 0.14818538795877 
1577	 0.148246429413986 
1578	 0.148270582372861 
1579	 0.148290726343743 
1580	 0.148302547460954 
1581	 0.14827826329603 
1582	 0.148286334500929 
1583	 0.148317409198661 
1584	 0.148330083071762 
1585	 0.148351603357988 
1586	 0.148359530791673 
1587	 0.148337629117578 
1588	 0.148345705302892 
1589	 0.148380064933724 
1590	 0.148382596846135 
1591	 0.148369475630053 
1592	 0.148377132948734 
1593	 0.14836475272747 
1594	 0.148377960163802 
1595	 0.14843676227006 
1596	 0.148471934853795 
1597	 0.148508798057716 
1598	 0.148531636276351 
1599	 0.148530221171348 
1600	 0.148546985702077 
1601	 0.148569015955226 
1602	 0.148583663599996 
1603	 0.148611589153665 
1604	 0.148627475544181 
1605	 0.148612470868242 
1606	 0.148619266602452 
1607	 0.148637922782616 
1608	 0.148660479039924 
1609	 0.148667613496557 
1610	 0.148687725937485 
1611	 0.148703417364909 
1612	 0.148702224780188 
1613	 0.148723228221645 
1614	 0.148755917764978 
1615	 0.148761390110506 
1616	 0.148767384763651 
1617	 0.14877400035554 
1618	 0.148771540631257 
1619	 0.148776874503699 
1620	 0.14879404343842 
1621	 0.148808760130055 
1622	 0.148826059199096 
1623	 0.14883541440394 
1624	 0.148846660094772 
1625	 0.148853216255107 
1626	 0.148849831107319 
1627	 0.148854373915118 
1628	 0.148857309267163 
1629	 0.148874179609491 
1630	 0.148902196206207 
1631	 0.148918550188147 
1632	 0.148943490290719 
1633	 0.148954010886339 
1634	 0.148949308887872 
1635	 0.148949229487534 
1636	 0.148942010814013 
1637	 0.148952839143028 
1638	 0.148968256254602 
1639	 0.148985620720161 
1640	 0.149020290467493 
1641	 0.149040116047956 
1642	 0.149053088694938 
1643	 0.149064284792649 
1644	 0.149073919007167 
1645	 0.149079061527273 
1646	 0.149079835925703 
1647	 0.149075630464876 
1648	 0.149055501028356 
1649	 0.149064690896154 
1650	 0.149085740883505 
1651	 0.149099611100309 
1652	 0.14913975313659 
1653	 0.149146110191883 
1654	 0.14911858044073 
1655	 0.149119561326456 
1656	 0.149119068268325 
1657	 0.149130084790685 
1658	 0.149167025997178 
1659	 0.149178291226631 
1660	 0.14918446195186 
1661	 0.149182451028093 
1662	 0.149158094523161 
1663	 0.149155683872276 
1664	 0.149160472912613 
1665	 0.149161462336605 
1666	 0.149168028192963 
1667	 0.149177390772434 
1668	 0.149184588426341 
1669	 0.149193835647944 
1670	 0.149207537943433 
1671	 0.149227351695169 
1672	 0.149255672467888 
1673	 0.149267219756083 
1674	 0.149278761811149 
1675	 0.1492878604899 
1676	 0.149281751920474 
1677	 0.149279834384601 
1678	 0.149280467805303 
1679	 0.149286718044781 
1680	 0.149289863810193 
1681	 0.149294538678852 
1682	 0.149309376114795 
1683	 0.149319751663438 
1684	 0.149318115080557 
1685	 0.149334248783527 
1686	 0.14937670032824 
1687	 0.149384677012508 
1688	 0.149378313181287 
1689	 0.149379263510748 
1690	 0.149352659285628 
1691	 0.149356643864531 
1692	 0.149395094276451 
1693	 0.149406239489416 
1694	 0.149403056458244 
1695	 0.149421154828831 
1696	 0.149446059073708 
1697	 0.149458809086537 
1698	 0.149484995518318 
1699	 0.149499657120526 
1700	 0.14949324165828 
1701	 0.149492677682921 
1702	 0.14949762879857 
1703	 0.149497828402045 
1704	 0.149490188687121 
1705	 0.149484635789884 
1706	 0.149485103603041 
1707	 0.149477296862646 
1708	 0.149458873848644 
1709	 0.149448632302887 
1710	 0.149431538288666 
1711	 0.149432955817575 
1712	 0.149451295295208 
1713	 0.149457247260119 
1714	 0.149466577542409 
1715	 0.149478936237948 
1716	 0.149476529515005 
1717	 0.149502248828768 
1718	 0.149564221980335 
1719	 0.149585875010468 
1720	 0.149610228783903 
1721	 0.149606563145182 
1722	 0.149561464203037 
1723	 0.149537481687907 
1724	 0.149506405542057 
1725	 0.149489543843809 
1726	 0.149480952116466 
1727	 0.149473249275216 
1728	 0.149479518233411 
1729	 0.149462390797935 
1730	 0.149430899146268 
1731	 0.149412606672548 
1732	 0.149390602275632 
1733	 0.149369608893983 
1734	 0.149357608875923 
1735	 0.149346510924446 
1736	 0.149321124494845 
1737	 0.149321313049337 
1738	 0.149352659894633 
1739	 0.149346255694809 
1740	 0.149336751850161 
1741	 0.149316760537117 
1742	 0.149264762128448 
1743	 0.149234642791094 
1744	 0.149213090720544 
1745	 0.149193620588683 
1746	 0.149188511839213 
1747	 0.14914991147651 
1748	 0.149102299694054 
1749	 0.149079900384342 
1750	 0.149044950840732 
1751	 0.149024502865323 
1752	 0.149023798514325 
1753	 0.148984260571418 
1754	 0.148950396052987 
1755	 0.148979832050456 
1756	 0.148991598758679 
1757	 0.14897840103211 
1758	 0.149003524052136 
1759	 0.148984725935406 
1760	 0.148950172032911 
1761	 0.14897154776108 
1762	 0.14897495787479 
1763	 0.148978418121359 
1764	 0.148987119814009 
1765	 0.148958323967898 
1766	 0.148917050743471 
1767	 0.148869282265235 
1768	 0.14884044090582 
1769	 0.148841589986631 
1770	 0.148837942188668 
1771	 0.14883811257519 
1772	 0.148836163609369 
1773	 0.148834852427924 
1774	 0.14884976059114 
1775	 0.148862146443503 
1776	 0.14886833118487 
1777	 0.148849502610949 
1778	 0.148810372342289 
1779	 0.14879239866706 
1780	 0.148797707389924 
1781	 0.148807340680078 
1782	 0.14883500335525 
1783	 0.148848525965886 
1784	 0.148851223507304 
1785	 0.148852556455287 
1786	 0.148857637347999 
1787	 0.148845043554486 
1788	 0.148856957965309 
1789	 0.148888290892076 
1790	 0.148902142827819 
1791	 0.14893749915986 
1792	 0.148946758748486 
1793	 0.148923025331078 
1794	 0.148924189797236 
1795	 0.148926451106166 
1796	 0.148921306493374 
1797	 0.148911725315279 
1798	 0.148912588274995 
1799	 0.148921762160753 
1800	 0.148919914300679 
1801	 0.146840198007286 
1802	 0.146853045096477 
1803	 0.146875997330315 
1804	 0.146916761151258 
1805	 0.146944690938447 
1806	 0.1469564642404 
1807	 0.146968193415199 
1808	 0.146995240312026 
1809	 0.147037284951682 
1810	 0.147057528561759 
1811	 0.147075607595685 
1812	 0.147099856806524 
1813	 0.14712018003281 
1814	 0.147118916101992 
1815	 0.147114461198081 
1816	 0.147134270355142 
1817	 0.147149229711866 
1818	 0.147158935796252 
1819	 0.147159805456415 
1820	 0.147165357125057 
1821	 0.147168244996346 
1822	 0.147152380854609 
1823	 0.147140527676892 
1824	 0.147164667323229 
1825	 0.147180073590677 
1826	 0.147171410730851 
1827	 0.14716161211244 
1828	 0.147156568113033 
1829	 0.147130257686382 
1830	 0.147126381635413 
1831	 0.147140755811356 
1832	 0.14716156472855 
1833	 0.147157513506655 
1834	 0.147154658549651 
1835	 0.147160102882628 
1836	 0.147172834405893 
1837	 0.147203043078981 
1838	 0.14723576318715 
1839	 0.147244650477551 
1840	 0.147241502880171 
1841	 0.147222464089434 
1842	 0.147202504381523 
1843	 0.147187153601343 
1844	 0.147184185136099 
1845	 0.147175278274457 
1846	 0.147156994811228 
1847	 0.147126141727783 
1848	 0.147081137404337 
1849	 0.147044311372361 
1850	 0.147009922194594 
1851	 0.146970695794031 
1852	 0.146943931423442 
1853	 0.146934829136994 
1854	 0.146906172554069 
1855	 0.146885715245858 
1856	 0.146874204070752 
1857	 0.146844867331825 
1858	 0.146812349284712 
1859	 0.146773013264289 
1860	 0.146722025693988 
1861	 0.146652362920518 
1862	 0.146580334361486 
1863	 0.146505793074596 
1864	 0.146418709441467 
1865	 0.146325031694787 
1866	 0.146216941015631 
1867	 0.146102526874003 
1868	 0.145973870842437 
1869	 0.145836705552155 
1870	 0.145696285823736 
1871	 0.145527847966894 
1872	 0.145334781323042 
1873	 0.145142611650657 
1874	 0.144943348528514 
1875	 0.144717141109024 
1876	 0.144490655398034 
1877	 0.144257186394727 
1878	 0.143985555403648 
1879	 0.143683733857735 
1880	 0.143368744791976 
1881	 0.143034021555801 
1882	 0.142674959462511 
1883	 0.14229688073881 
1884	 0.141895962424463 
1885	 0.141471448385353 
1886	 0.141025222579744 
1887	 0.1405350437059 
1888	 0.140013463417085 
1889	 0.139484226232866 
1890	 0.138966161224737 
1891	 0.138455482139967 
1892	 0.137967266292037 
1893	 0.137459199850144 
1894	 0.136952457425908 
1895	 0.136419229447397 
1896	 0.135884519310963 
1897	 0.135371391015787 
1898	 0.134865530501953 
1899	 0.134375243160168 
1900	 0.133902781862501 
1901	 0.133463144970799 
1902	 0.133046838897134 
1903	 0.132658139493909 
1904	 0.132295403973564 
1905	 0.131970878137544 
1906	 0.131643854435808 
1907	 0.131323964031919 
1908	 0.131051182596085 
1909	 0.130774203678476 
1910	 0.130495170827433 
1911	 0.130261642520257 
1912	 0.13005342185634 
1913	 0.129864016816473 
1914	 0.129704523534247 
1915	 0.129557327299553 
1916	 0.129437535020895 
1917	 0.12931569218823 
1918	 0.129194618546133 
1919	 0.129086909604593 
1920	 0.128994560632897 
1921	 0.128917173042118 
1922	 0.128845905919048 
1923	 0.128786166426983 
1924	 0.128742763113037 
1925	 0.12870927137141 
1926	 0.128685093186639 
1927	 0.128677382182041 
1928	 0.128679546246729 
1929	 0.128685113462581 
1930	 0.128706285491941 
1931	 0.12872821280914 
1932	 0.12875255865112 
1933	 0.128801256756455 
1934	 0.128846730177235 
1935	 0.128891347104078 
1936	 0.128941530242225 
1937	 0.129006374148053 
1938	 0.129060269084453 
1939	 0.129133603866176 
1940	 0.129233268377956 
1941	 0.129333461942051 
1942	 0.129424799023145 
1943	 0.129534154856084 
1944	 0.129634062323941 
1945	 0.129747734600723 
1946	 0.129856048562967 
1947	 0.129963771362698 
1948	 0.130072985422467 
1949	 0.130167424091183 
1950	 0.130288728002161 
1951	 0.130416349301206 
1952	 0.130574506350879 
1953	 0.130737433678954 
1954	 0.130897162823897 
1955	 0.131044654883731 
1956	 0.131181090871874 
1957	 0.131315741072479 
1958	 0.131431753960139 
1959	 0.131573260744779 
1960	 0.131726253104829 
1961	 0.131872799459477 
1962	 0.13204005107992 
1963	 0.132188436832491 
1964	 0.132316724597933 
1965	 0.132445937737319 
1966	 0.1325989817569 
1967	 0.132755785500706 
1968	 0.132910116298884 
1969	 0.133073805320012 
1970	 0.133240499728828 
1971	 0.133408250139723 
1972	 0.133569420199654 
1973	 0.133737887913883 
1974	 0.133906512769433 
1975	 0.134065707825161 
1976	 0.134225380447045 
1977	 0.13439658895779 
1978	 0.134567612368925 
1979	 0.134745714801344 
1980	 0.134906814926297 
1981	 0.135073930252746 
1982	 0.135249906302407 
1983	 0.135414944875799 
1984	 0.135563299843188 
1985	 0.135732082630629 
1986	 0.13591555721462 
1987	 0.136082512831451 
1988	 0.136256438857514 
1989	 0.136414210362494 
1990	 0.136567957755199 
1991	 0.136725236283453 
1992	 0.136880023452454 
1993	 0.137038699590277 
1994	 0.137198643133148 
1995	 0.137351619113386 
1996	 0.137511072969438 
1997	 0.137682118393027 
1998	 0.137846749898479 
1999	 0.13801745884178 
2000	 0.138172604998858 
2001	 0.138323316306022 
2002	 0.138459234115232 
2003	 0.138592738181896 
2004	 0.138735859590651 
2005	 0.138878259346689 
2006	 0.139024017910555 
2007	 0.139175751109744 
2008	 0.139332872078189 
2009	 0.139483996543099 
2010	 0.139644168095143 
2011	 0.139794107660917 
2012	 0.139936169609814 
2013	 0.140074516838159 
2014	 0.140204906189832 
2015	 0.140339809230949 
2016	 0.140468074390415 
2017	 0.140590621636811 
2018	 0.140727452939749 
2019	 0.140877437606425 
2020	 0.141012845419419 
2021	 0.141154973930303 
2022	 0.141282636791237 
2023	 0.141385079226937 
2024	 0.14150716740732 
2025	 0.141639054712184 
2026	 0.14176332843905 
2027	 0.141896154064271 
2028	 0.142015296104998 
2029	 0.142139726571789 
2030	 0.142253682048032 
2031	 0.142381292575231 
2032	 0.142526255493331 
2033	 0.142649650371182 
2034	 0.142767996396649 
2035	 0.142884265516313 
2036	 0.142979480845987 
2037	 0.143092918877124 
2038	 0.143223473828002 
2039	 0.143339503099339 
2040	 0.143459029412761 
2041	 0.143567049319665 
2042	 0.143678643406155 
2043	 0.143790545910158 
2044	 0.143878061439955 
2045	 0.143950089944686 
2046	 0.144038453029914 
2047	 0.144108260140549 
2048	 0.144190806178349 
2049	 0.144295519609411 
2050	 0.144393166436968 
2051	 0.144480261944581 
2052	 0.144574382506528 
2053	 0.144690763535371 
2054	 0.144783447081302 
2055	 0.144850651593259 
2056	 0.144942711960557 
2057	 0.145019440036466 
2058	 0.14508115042649 
2059	 0.145155711144786 
2060	 0.145240243505051 
2061	 0.145310807390227 
2062	 0.145364100098894 
2063	 0.145443404252401 
2064	 0.145533369669188 
2065	 0.145617447145014 
2066	 0.145729062682996 
2067	 0.145814615638084 
2068	 0.145883257828122 
2069	 0.145942152241558 
2070	 0.145999772993863 
2071	 0.146043947514588 
2072	 0.14610291906671 
2073	 0.146156733008772 
2074	 0.146228298928151 
2075	 0.146312614565377 
2076	 0.146398920745427 
2077	 0.14650189222458 
2078	 0.146591134166491 
2079	 0.146671754134124 
2080	 0.146763710960528 
2081	 0.146872278218896 
2082	 0.146956916729998 
2083	 0.147034264818337 
2084	 0.147114724112816 
2085	 0.14718063022677 
2086	 0.147217163156299 
2087	 0.147273356540383 
2088	 0.147330816530329 
2089	 0.147400455591408 
2090	 0.147482759310518 
2091	 0.147550183646515 
2092	 0.147621010675431 
2093	 0.147688764452908 
2094	 0.147741300633556 
2095	 0.147802288459802 
2096	 0.147868427544997 
2097	 0.147939028167015 
2098	 0.148018722282412 
2099	 0.148081762428251 
2100	 0.148159495438338 
2101	 0.148245320734772 
2102	 0.148333737367421 
2103	 0.14843132198359 
2104	 0.148514746822221 
2105	 0.148591871406756 
2106	 0.148679581143154 
2107	 0.148770942796771 
2108	 0.148850143808329 
2109	 0.148935612799759 
2110	 0.14901420770041 
2111	 0.149067774039961 
2112	 0.149134786349359 
2113	 0.149215980077089 
2114	 0.149290178286667 
2115	 0.149358604251565 
2116	 0.149420015748511 
2117	 0.149492748725479 
2118	 0.149564760685947 
2119	 0.14963808781001 
2120	 0.149731355637024 
2121	 0.149796135916438 
2122	 0.149837297270007 
2123	 0.149894054725424 
2124	 0.149940570226681 
2125	 0.149997501920539 
2126	 0.150072887578971 
2127	 0.150137930413191 
2128	 0.150205230395598 
2129	 0.150261745738334 
2130	 0.150303670952491 
2131	 0.150360073894653 
2132	 0.150394983552709 
2133	 0.150416828734763 
2134	 0.150440925896236 
2135	 0.150462279942696 
2136	 0.150469058341883 
2137	 0.15046425048691 
2138	 0.150462317019537 
2139	 0.150465536976949 
2140	 0.150438047721647 
2141	 0.150391589058654 
2142	 0.15035259929227 
2143	 0.150281729453164 
2144	 0.150228631341719 
2145	 0.150210718619904 
2146	 0.150163939040812 
2147	 0.150089568566698 
2148	 0.150030688153823 
2149	 0.149972479268766 
2150	 0.149907631272156 
2151	 0.149842162721821 
2152	 0.149793967082311 
2153	 0.149719556854644 
2154	 0.149625818518066 
2155	 0.149533925237976 
2156	 0.149435044047644 
2157	 0.149332452284352 
2158	 0.149216044862196 
2159	 0.149110453999664 
2160	 0.149010857460916 
2161	 0.14890605256836 
2162	 0.148802718612176 
2163	 0.148699613182013 
2164	 0.148598919171398 
2165	 0.148482869668012 
2166	 0.148373577946052 
2167	 0.148265993049961 
2168	 0.148161213795277 
2169	 0.148060138091251 
2170	 0.14794491036146 
2171	 0.147825799627885 
2172	 0.147708709445313 
2173	 0.147576775677351 
2174	 0.147458679796911 
2175	 0.147359411223457 
2176	 0.147243735028427 
2177	 0.147123478069001 
2178	 0.1469979006973 
2179	 0.146856488487117 
2180	 0.146725678040124 
2181	 0.146580080480428 
2182	 0.146462382512912 
2183	 0.14636353241667 
2184	 0.146279665388942 
2185	 0.146184643378477 
2186	 0.14610456236516 
2187	 0.146013964309379 
2188	 0.145900614474299 
2189	 0.145822203772953 
2190	 0.145770036383525 
2191	 0.145699440095451 
2192	 0.145642221534526 
2193	 0.145566363025533 
2194	 0.145453011076718 
2195	 0.145383242617557 
2196	 0.145343600285426 
2197	 0.145281018501788 
2198	 0.14522714073194 
2199	 0.14517213621532 
2200	 0.145091445368408 
2201	 0.14502790932459 
2202	 0.144957772363156 
2203	 0.144935888364887 
2204	 0.144915297293454 
2205	 0.144905079769882 
2206	 0.144896909037441 
2207	 0.144921716850328 
2208	 0.144907508395106 
2209	 0.144866525625332 
2210	 0.144852953344573 
2211	 0.144824694472161 
2212	 0.144833843934555 
2213	 0.14488333375582 
2214	 0.14491268023424 
2215	 0.144970446594439 
2216	 0.144988380572636 
2217	 0.144970887222124 
2218	 0.144969028114213 
2219	 0.144949479968884 
2220	 0.144939706893837 
2221	 0.144935812747609 
2222	 0.144945503386337 
2223	 0.144944082705227 
2224	 0.144955469781843 
2225	 0.144969524945794 
2226	 0.144993827280579 
2227	 0.145010606536213 
2228	 0.145029392920531 
2229	 0.145044590818239 
2230	 0.145067195088609 
2231	 0.145066811730715 
2232	 0.145044086116043 
2233	 0.14504287572246 
2234	 0.145036266098945 
2235	 0.145027811094249 
2236	 0.145031096791368 
2237	 0.145038475656236 
2238	 0.145044080995604 
2239	 0.145048253951889 
2240	 0.145060430651304 
2241	 0.14506949881173 
2242	 0.14505828779729 
2243	 0.145063164887134 
2244	 0.145086573824289 
2245	 0.14511446909836 
2246	 0.145113883109363 
2247	 0.145110725694796 
2248	 0.145093988146645 
2249	 0.145040371513176 
2250	 0.145031038762514 
2251	 0.145033378122473 
2252	 0.145048763243106 
2253	 0.145099015960557 
2254	 0.145113427520973 
2255	 0.145127489392911 
2256	 0.145119570506964 
2257	 0.145068809138832 
2258	 0.145061662065307 
2259	 0.145065479517461 
2260	 0.145067198144631 
2261	 0.145079172380047 
2262	 0.145105912886506 
2263	 0.145140713288719 
2264	 0.14517309875646 
2265	 0.145231668939986 
2266	 0.145275297288013 
2267	 0.145304485228114 
2268	 0.14533302255579 
2269	 0.145369831106908 
2270	 0.145375748071133 
2271	 0.145425509928231 
2272	 0.145464961570755 
2273	 0.145469382974122 
2274	 0.145489951895927 
2275	 0.145478872822651 
2276	 0.145403237782293 
2277	 0.145396057316107 
2278	 0.145422077832882 
2279	 0.145426722486483 
2280	 0.145438125982203 
2281	 0.145460310443128 
2282	 0.145480665052305 
2283	 0.145494293777428 
2284	 0.145532559272976 
2285	 0.14554343543113 
2286	 0.145523405932681 
2287	 0.145522550114092 
2288	 0.145507503834274 
2289	 0.145521276038535 
2290	 0.145567593303539 
2291	 0.145588766733248 
2292	 0.14561950546097 
2293	 0.14564168065824 
2294	 0.145627477550084 
2295	 0.145637216816528 
2296	 0.145660542722517 
2297	 0.145697072192061 
2298	 0.145717781186321 
2299	 0.145746071844019 
2300	 0.145757128103381 
2301	 0.145730853443102 
2302	 0.145690659104931 
2303	 0.145639462423555 
2304	 0.145534847876867 
2305	 0.145483085189196 
2306	 0.145468166913157 
2307	 0.145493695342784 
2308	 0.145495140069971 
2309	 0.145535123469723 
2310	 0.145532807470608 
2311	 0.145495207280073 
2312	 0.14546556263419 
2313	 0.145420372040836 
2314	 0.145411546823189 
2315	 0.145421065138298 
2316	 0.145411518826106 
2317	 0.145429337206823 
2318	 0.145433450303879 
2319	 0.145386161524094 
2320	 0.145385517925853 
2321	 0.145425466444204 
2322	 0.14543687677451 
2323	 0.145454172808396 
2324	 0.145466993031696 
2325	 0.14546203813962 
2326	 0.145469927512437 
2327	 0.145486182337834 
2328	 0.14549663267784 
2329	 0.145532422934264 
2330	 0.145562600263199 
2331	 0.145557735784411 
2332	 0.145584366573884 
2333	 0.145612727906978 
2334	 0.145588887099647 
2335	 0.145572925088269 
2336	 0.145586338515733 
2337	 0.145571614964591 
2338	 0.145551262099946 
2339	 0.145562617090666 
2340	 0.145599031554559 
2341	 0.145641562622271 
2342	 0.145689545828437 
2343	 0.145728614423886 
2344	 0.145710339168931 
2345	 0.145694155724693 
2346	 0.145642971231068 
2347	 0.145615819329999 
2348	 0.145595655846343 
2349	 0.145572719398984 
2350	 0.145563308603203 
2351	 0.145516122828166 
2352	 0.145445001447426 
2353	 0.145372205618198 
2354	 0.145250733538152 
2355	 0.145193407470499 
2356	 0.145176523783479 
2357	 0.14513426603518 
2358	 0.145107989365176 
2359	 0.145091149539887 
2360	 0.14506263300729 
2361	 0.145043804825237 
2362	 0.145077182140556 
2363	 0.145048389321376 
2364	 0.144961447403043 
2365	 0.144917464571712 
2366	 0.144886480391069 
2367	 0.144823263265049 
2368	 0.144773056617124 
2369	 0.144687251028561 
2370	 0.144562511177579 
2371	 0.144397247236063 
2372	 0.144293493636599 
2373	 0.144218181179372 
2374	 0.144127790413948 
2375	 0.144114123739241 
2376	 0.144101105322251 
2377	 0.144072605408849 
2378	 0.144051241153426 
2379	 0.144028240401138 
2380	 0.144013647395522 
2381	 0.143974869955744 
2382	 0.143923928539635 
2383	 0.143880299643387 
2384	 0.143826196708465 
2385	 0.143727451821039 
2386	 0.143664406010312 
2387	 0.143619688890912 
2388	 0.143432288946316 
2389	 0.143297718276963 
2390	 0.143240326274177 
2391	 0.14313337070001 
2392	 0.143119836798742 
2393	 0.143097011349718 
2394	 0.143034467430849 
2395	 0.143009763831983 
2396	 0.142940839097499 
2397	 0.142833792506466 
2398	 0.142804087066627 
2399	 0.142760628113606 
2400	 0.14264869529205 
2401	 0.142636122817606 
2402	 0.142583325187271 
2403	 0.142479509659328 
2404	 0.142428843711935 
2405	 0.142370457799179 
2406	 0.142318480847326 
2407	 0.142166413430327 
2408	 0.142052657075432 
2409	 0.142038737712164 
2410	 0.141925795260217 
2411	 0.141827478208667 
2412	 0.141688584436742 
2413	 0.141470972885875 
2414	 0.141276829825028 
2415	 0.141124739716097 
2416	 0.14101522576706 
2417	 0.140962348736345 
2418	 0.140892049788644 
2419	 0.140873302633453 
2420	 0.140789803087549 
2421	 0.14067727255912 
2422	 0.140571689174718 
2423	 0.140423678257631 
2424	 0.140303836001739 
2425	 0.140227864281614 
2426	 0.14009924679105 
2427	 0.139941171647346 
2428	 0.139829995432776 
2429	 0.139710529425046 
2430	 0.139584672086318 
2431	 0.139475771027826 
2432	 0.139322458617688 
2433	 0.139146012928219 
2434	 0.139030584285307 
2435	 0.1389159696416 
2436	 0.138824356655592 
2437	 0.138797479773722 
2438	 0.138652199245567 
2439	 0.1384520790049 
2440	 0.138332835366563 
2441	 0.138141924513913 
2442	 0.138035183236275 
2443	 0.138036623798828 
2444	 0.138004332562698 
2445	 0.138058727982517 
2446	 0.138014095299247 
2447	 0.137935935131643 
2448	 0.137744134626703 
2449	 0.137358267427442 
2450	 0.137099635400368 
2451	 0.136832585283083 
2452	 0.136695952317116 
2453	 0.136683433392296 
2454	 0.136659787077244 
2455	 0.136712223764977 
2456	 0.136668825026432 
2457	 0.136603262906332 
2458	 0.136494783121165 
2459	 0.136344792626194 
2460	 0.136179716654246 
2461	 0.135981039865374 
2462	 0.135838300383334 
2463	 0.135663756669463 
2464	 0.135495048955836 
2465	 0.135375904481658 
2466	 0.135201336154148 
2467	 0.134980571787069 
2468	 0.134864819341835 
2469	 0.134789351180334 
2470	 0.134741352169356 
2471	 0.134639764237589 
2472	 0.134481794692168 
2473	 0.134350694962963 
2474	 0.134416604139452 
2475	 0.134436279150085 
2476	 0.134167642535496 
2477	 0.1338596702501 
2478	 0.133558177157355 
2479	 0.133389021511327 
2480	 0.133524652954987 
2481	 0.133627719120603 
2482	 0.133462742314776 
2483	 0.133084793942268 
2484	 0.132788600718085 
2485	 0.132735261331226 
2486	 0.13281117655243 
2487	 0.132965079249939 
2488	 0.133059748670456 
2489	 0.132910654148748 
2490	 0.132686487808427 
2491	 0.13273473016882 
2492	 0.132629240730695 
2493	 0.132483398583869 
2494	 0.132506349726864 
2495	 0.132240154223376 
2496	 0.132132304901278 
2497	 0.132097010697904 
2498	 0.131885937102854 
2499	 0.131819143627074 
2500	 0.13184363673754 
