Wavelength	MM600002.asd
350	 5.66752905491815E-02 
351	 5.83599569513036E-02 
352	 5.83410475022472E-02 
353	 5.79362325025303E-02 
354	 6.40638398679796E-02 
355	 6.54113254728844E-02 
356	 6.50894538011619E-02 
357	 0.066899528547365 
358	 6.13617667837637E-02 
359	 5.96195891250856E-02 
360	 6.47496949738782E-02 
361	 7.28083987579335E-02 
362	 6.82594266732547E-02 
363	 6.35321390164832E-02 
364	 6.56619864040434E-02 
365	 6.85493918848484E-02 
366	 0.069619403436862 
367	 6.86507373365505E-02 
368	 6.74040659035288E-02 
369	 7.16374651478278E-02 
370	 7.33153732815919E-02 
371	 7.28452099753034E-02 
372	 7.58986314804943E-02 
373	 7.49914063729391E-02 
374	 7.45099210796403E-02 
375	 7.68626099818796E-02 
376	 7.86996133718264E-02 
377	 7.67362594831983E-02 
378	 7.65696743476638E-02 
379	 8.27150011858609E-02 
380	 0.083690684187833 
381	 8.20900695190513E-02 
382	 8.18366651978311E-02 
383	 0.086484275208804 
384	 8.64390325314492E-02 
385	 8.47160367612376E-02 
386	 8.43874802746905E-02 
387	 8.49283183989951E-02 
388	 8.63094774986255E-02 
389	 8.69206204637924E-02 
390	 8.58303820633793E-02 
391	 8.77305216962278E-02 
392	 8.75660894455448E-02 
393	 0.086526803137566 
394	 0.090698026310058 
395	 9.20257259450612E-02 
396	 0.092516430200062 
397	 9.43501190810054E-02 
398	 0.096702528208906 
399	 9.70216286268834E-02 
400	 9.67182001616603E-02 
401	 0.097825669628925 
402	 9.63377660342854E-02 
403	 9.67043592576197E-02 
404	 9.90279951525598E-02 
405	 9.87563391256309E-02 
406	 9.84023058209139E-02 
407	 9.89643492728672E-02 
408	 0.100337020712803 
409	 0.100423191988918 
410	 0.10031262186536 
411	 0.10080714773673 
412	 0.10226174296148 
413	 0.103091045170756 
414	 0.103150964827093 
415	 0.102880999723256 
416	 0.103220185435756 
417	 0.103814354693036 
418	 0.104128938976999 
419	 0.103983657594993 
420	 0.104668915088908 
421	 0.104088017765299 
422	 0.103116674257229 
423	 0.104201879941682 
424	 0.104564331784352 
425	 0.104507357663689 
426	 0.10457757823284 
427	 0.1050681185502 
428	 0.104944892065284 
429	 0.104618926000024 
430	 0.104815570973085 
431	 0.105367010368611 
432	 0.105220745967211 
433	 0.104620200720227 
434	 0.104992798024648 
435	 0.105368702190998 
436	 0.105611485123908 
437	 0.105736041982498 
438	 0.105665526662628 
439	 0.105890817569104 
440	 0.106327287700366 
441	 0.106640933926758 
442	 0.107146741533462 
443	 0.107415815006653 
444	 0.107397446488182 
445	 0.107701551494187 
446	 0.107874341172451 
447	 0.107952928929504 
448	 0.108168725389925 
449	 0.109034142990768 
450	 0.109417182785428 
451	 0.109349274026637 
452	 0.109821412638807 
453	 0.109942051647403 
454	 0.110035435051886 
455	 0.110400070636067 
456	 0.110803579794054 
457	 0.110939153590481 
458	 0.110954972184898 
459	 0.111184795159456 
460	 0.111555712366931 
461	 0.111710104835302 
462	 0.111650285288226 
463	 0.111903771024473 
464	 0.112280306197172 
465	 0.112491753893025 
466	 0.112404711101142 
467	 0.112607028541572 
468	 0.112916508279313 
469	 0.113077590772034 
470	 0.112849548123647 
471	 0.112925859845875 
472	 0.113171227782082 
473	 0.113376040821452 
474	 0.113521791511256 
475	 0.113578625325489 
476	 0.113664261974621 
477	 0.113920085834047 
478	 0.114156152164876 
479	 0.114267622903496 
480	 0.114295814821081 
481	 0.114465654905796 
482	 0.114636115506328 
483	 0.114769604770261 
484	 0.114866429267949 
485	 0.114977902388052 
486	 0.114968257021155 
487	 0.114934319088078 
488	 0.11514443714496 
489	 0.115338582237936 
490	 0.115506589616653 
491	 0.115653664001225 
492	 0.115709014818407 
493	 0.115707821097612 
494	 0.115726285158445 
495	 0.115845470543438 
496	 0.116030392005535 
497	 0.116116425390858 
498	 0.116118034010048 
499	 0.116329746619851 
500	 0.116509867437375 
501	 0.116587186144219 
502	 0.116578693891207 
503	 0.116635757984083 
504	 0.116764202903578 
505	 0.116883362136819 
506	 0.11685893696825 
507	 0.117049182701045 
508	 0.117303783505003 
509	 0.117418452113093 
510	 0.117294070230648 
511	 0.117260342767257 
512	 0.117399700647425 
513	 0.117623925701829 
514	 0.117679737096676 
515	 0.117665471704409 
516	 0.117688010443196 
517	 0.117793934190472 
518	 0.117947258472606 
519	 0.118033724013574 
520	 0.117986216670862 
521	 0.118110687860475 
522	 0.118208231184791 
523	 0.118225002243638 
524	 0.118286168958303 
525	 0.118338352000536 
526	 0.118397136806224 
527	 0.118483670760078 
528	 0.118606584684324 
529	 0.118647303617259 
530	 0.118648141190427 
531	 0.118742061884129 
532	 0.118770056058703 
533	 0.118825548784961 
534	 0.118954485222991 
535	 0.119040345482612 
536	 0.11904400153986 
537	 0.119084795482417 
538	 0.1192917550466 
539	 0.119391295895677 
540	 0.119382318477574 
541	 0.119355517676896 
542	 0.119490850474417 
543	 0.119558137887071 
544	 0.119602339083498 
545	 0.119697236031965 
546	 0.119708926121947 
547	 0.119740110865071 
548	 0.119805895849426 
549	 0.119845715840436 
550	 0.119929636229157 
551	 0.120002636922551 
552	 0.120037892474754 
553	 0.120143142781212 
554	 0.120237740255212 
555	 0.120318979989575 
556	 0.120419476778264 
557	 0.12049839630644 
558	 0.120589025179933 
559	 0.120686399734229 
560	 0.120700994748385 
561	 0.120725086443604 
562	 0.120766431308199 
563	 0.120810954301604 
564	 0.120907572789695 
565	 0.120916101644111 
566	 0.120856993963827 
567	 0.120936409033205 
568	 0.121116849392937 
569	 0.121333165566981 
570	 0.121518850471395 
571	 0.12163967703422 
572	 0.121769962087935 
573	 0.121916535849667 
574	 0.122033328984294 
575	 0.12205500397351 
576	 0.122117178475945 
577	 0.122258629030667 
578	 0.122226774729499 
579	 0.122218708455732 
580	 0.122273954135229 
581	 0.122366975553335 
582	 0.122498461357497 
583	 0.122680061849117 
584	 0.122872279146104 
585	 0.122960641881632 
586	 0.123083400520791 
587	 0.123165330555868 
588	 0.123128568387545 
589	 0.123159641492946 
590	 0.12318647062943 
591	 0.123217437691748 
592	 0.123335054887209 
593	 0.123440132192661 
594	 0.12355645069951 
595	 0.123694458724463 
596	 0.123759712108009 
597	 0.123830722611546 
598	 0.123927062355295 
599	 0.124032675217988 
600	 0.124116167498365 
601	 0.124192607976093 
602	 0.124258283257826 
603	 0.124259867669646 
604	 0.124290385642637 
605	 0.124373440535571 
606	 0.124487282260015 
607	 0.124524293687208 
608	 0.124545487601519 
609	 0.124589532484778 
610	 0.12465714034795 
611	 0.124777796180743 
612	 0.124898265612334 
613	 0.124978141147802 
614	 0.125103375282415 
615	 0.125141933745872 
616	 0.125135294519148 
617	 0.125233764986101 
618	 0.1253252006658 
619	 0.12538579765883 
620	 0.125418861552273 
621	 0.12544918744444 
622	 0.125534752709797 
623	 0.125618387785868 
624	 0.125624066819545 
625	 0.125710147046942 
626	 0.125784244281264 
627	 0.125813811964544 
628	 0.125870907877415 
629	 0.125928500001232 
630	 0.125943237687659 
631	 0.125900618421396 
632	 0.125901893506473 
633	 0.125997960215135 
634	 0.126120418194793 
635	 0.126119776111956 
636	 0.126184132680688 
637	 0.126247252947646 
638	 0.126255036354229 
639	 0.12628874789234 
640	 0.126346900660276 
641	 0.126410743463858 
642	 0.126458339426725 
643	 0.126537932958557 
644	 0.126600649067873 
645	 0.126627234392969 
646	 0.126653152917161 
647	 0.126690712607559 
648	 0.126723461606344 
649	 0.126738823346105 
650	 0.126780481389831 
651	 0.126846763111994 
652	 0.126908181045074 
653	 0.126919567292434 
654	 0.126977993192668 
655	 0.127047224824013 
656	 0.127085513823687 
657	 0.12709472182059 
658	 0.127133066751956 
659	 0.127194588032897 
660	 0.127245543604239 
661	 0.127311378318009 
662	 0.127383959461676 
663	 0.127443428157924 
664	 0.127457085699676 
665	 0.127463347084061 
666	 0.127490472091245 
667	 0.127543804647547 
668	 0.12754457383012 
669	 0.127602394422937 
670	 0.127710841430099 
671	 0.127765735493887 
672	 0.127774267082544 
673	 0.127800835792386 
674	 0.127872223690321 
675	 0.127899525164334 
676	 0.127938580946759 
677	 0.127982923086434 
678	 0.128007110928739 
679	 0.128041600835413 
680	 0.128116139964763 
681	 0.128215421820562 
682	 0.128268109857211 
683	 0.128267637410197 
684	 0.128267776966427 
685	 0.128317297647415 
686	 0.128381242933115 
687	 0.128465443523815 
688	 0.128532230318687 
689	 0.128524410603502 
690	 0.12853104731614 
691	 0.128558368296092 
692	 0.128607515831127 
693	 0.128702199905023 
694	 0.128771548871998 
695	 0.128814662040788 
696	 0.128853987478834 
697	 0.128872413234662 
698	 0.128917641938081 
699	 0.128988526907122 
700	 0.129031110852585 
701	 0.129085875931873 
702	 0.129121924438904 
703	 0.129126689127842 
704	 0.12917845204861 
705	 0.129241190547425 
706	 0.129304778711755 
707	 0.129367031740778 
708	 0.129379370807439 
709	 0.129412233936613 
710	 0.129480544565012 
711	 0.1295008759657 
712	 0.12956458106299 
713	 0.129647467752112 
714	 0.129703548168108 
715	 0.129734873260928 
716	 0.129751274468262 
717	 0.129773017182465 
718	 0.12982318915014 
719	 0.129875679217655 
720	 0.12990304332683 
721	 0.129907409904019 
722	 0.12994182585712 
723	 0.130044162595061 
724	 0.130137776212211 
725	 0.130139826711499 
726	 0.130155760585229 
727	 0.130187645090065 
728	 0.13023612975054 
729	 0.130302732694025 
730	 0.130360890996556 
731	 0.130393793781058 
732	 0.130407625227217 
733	 0.130456361216519 
734	 0.130502109920019 
735	 0.130541455668696 
736	 0.130581161886367 
737	 0.1305976416709 
738	 0.130641663015233 
739	 0.130701068634865 
740	 0.130694301630771 
741	 0.13074092528493 
742	 0.130786810466059 
743	 0.130783344474654 
744	 0.130796473587205 
745	 0.130836719436438 
746	 0.130888413620692 
747	 0.130924960214205 
748	 0.130959997241367 
749	 0.130973313818657 
750	 0.130966830401012 
751	 0.130971681868208 
752	 0.131010051603583 
753	 0.13104374616485 
754	 0.131043422568291 
755	 0.131047006807685 
756	 0.13106919686524 
757	 0.131106955093504 
758	 0.131145183300325 
759	 0.131168909074755 
760	 0.131179912300334 
761	 0.131185487228052 
762	 0.131196716219769 
763	 0.131197235262111 
764	 0.131212260931551 
765	 0.131255165982741 
766	 0.131276889153736 
767	 0.131308043525837 
768	 0.13132239041687 
769	 0.131284882196567 
770	 0.131304898290386 
771	 0.131351234909468 
772	 0.131382435926241 
773	 0.131364091596476 
774	 0.131359699307309 
775	 0.131380101988336 
776	 0.13140808723938 
777	 0.131382734842961 
778	 0.131379222023241 
779	 0.131419728540005 
780	 0.131484151782785 
781	 0.131464666096805 
782	 0.13147262023003 
783	 0.131526630746899 
784	 0.131532476135877 
785	 0.131535088912749 
786	 0.131541845427603 
787	 0.131551467947158 
788	 0.131558251894414 
789	 0.131560844383557 
790	 0.131567077037165 
791	 0.131581129170091 
792	 0.131567463736767 
793	 0.131564452179034 
794	 0.131585136788589 
795	 0.131615908410394 
796	 0.131647151500053 
797	 0.131665477979869 
798	 0.13166827354676 
799	 0.13167207690506 
800	 0.131661375326853 
801	 0.131672377929171 
802	 0.13172899140453 
803	 0.131751092740409 
804	 0.131764268569373 
805	 0.131781461938626 
806	 0.131803868371223 
807	 0.131814172241636 
808	 0.131816826832871 
809	 0.131828250712259 
810	 0.131875074430321 
811	 0.131927405925257 
812	 0.131938239307056 
813	 0.131899115353424 
814	 0.13191218105255 
815	 0.131896610168971 
816	 0.131883917372155 
817	 0.131934394496853 
818	 0.132005038175869 
819	 0.132041504057551 
820	 0.132043815983214 
821	 0.132056714484543 
822	 0.13205140867289 
823	 0.132064702291591 
824	 0.132099546287486 
825	 0.132088935613666 
826	 0.132128938752868 
827	 0.132172282528143 
828	 0.132171911286995 
829	 0.132215900318243 
830	 0.132230447440872 
831	 0.132222591343 
832	 0.132235258842132 
833	 0.132261843476094 
834	 0.132287060014481 
835	 0.132297197475123 
836	 0.132285631417834 
837	 0.132294313795269 
838	 0.132330772500426 
839	 0.132391868811139 
840	 0.132470348432647 
841	 0.132479776269389 
842	 0.132453759465926 
843	 0.132451702518463 
844	 0.132496597316996 
845	 0.132515885813686 
846	 0.132521678652759 
847	 0.132555253669789 
848	 0.132567010629617 
849	 0.132597643243013 
850	 0.132651090301841 
851	 0.132695558642949 
852	 0.132718932241303 
853	 0.132751566591508 
854	 0.132794719593698 
855	 0.132800022785794 
856	 0.132819208073011 
857	 0.132838776142929 
858	 0.132845043132246 
859	 0.132864016631029 
860	 0.132881452855703 
861	 0.132909787526581 
862	 0.132963082345483 
863	 0.133026924431415 
864	 0.133060143990764 
865	 0.133068390091557 
866	 0.13308202622674 
867	 0.133067143187133 
868	 0.133077579299825 
869	 0.133125362405521 
870	 0.133172604294204 
871	 0.13321441560693 
872	 0.133258225039356 
873	 0.133307129298407 
874	 0.133352576299126 
875	 0.133412700905807 
876	 0.133424602173568 
877	 0.133369957153124 
878	 0.133392497100475 
879	 0.133444364689613 
880	 0.133484253199645 
881	 0.133491527816571 
882	 0.133529620478368 
883	 0.133567122780589 
884	 0.133597037342768 
885	 0.133631918959689 
886	 0.133710042606738 
887	 0.133752617694666 
888	 0.133747209803516 
889	 0.133746954801349 
890	 0.133776299869945 
891	 0.133812299791407 
892	 0.133845752371842 
893	 0.133891427603717 
894	 0.133896435904884 
895	 0.133900824066156 
896	 0.133947066386569 
897	 0.134047483744998 
898	 0.134097373491523 
899	 0.134078474129292 
900	 0.134044418138539 
901	 0.134169912655999 
902	 0.134227468259597 
903	 0.134223579403388 
904	 0.134238629943162 
905	 0.134290995547466 
906	 0.134346689222732 
907	 0.134389632518888 
908	 0.13442269932866 
909	 0.134492002985976 
910	 0.13451320122525 
911	 0.134504688777813 
912	 0.134546470493845 
913	 0.134605793511379 
914	 0.134675375611713 
915	 0.134721873769002 
916	 0.134709121683728 
917	 0.134792594882644 
918	 0.134865539294243 
919	 0.134859399546277 
920	 0.134804782340867 
921	 0.13489542686317 
922	 0.13501621445134 
923	 0.135072623492439 
924	 0.135088717861105 
925	 0.13509921946053 
926	 0.135131636521961 
927	 0.135188153129671 
928	 0.135232115109572 
929	 0.135292487633072 
930	 0.135342067890359 
931	 0.135382128091454 
932	 0.135514890770292 
933	 0.13552000636804 
934	 0.135499316680957 
935	 0.135578457431531 
936	 0.135671228383846 
937	 0.135618590036393 
938	 0.135600501877662 
939	 0.135780141767185 
940	 0.135846455032218 
941	 0.135892319939808 
942	 0.135981469819266 
943	 0.136109682598343 
944	 0.136055439965494 
945	 0.136028915788454 
946	 0.136103710450938 
947	 0.136235063242012 
948	 0.136216620657101 
949	 0.136195312290137 
950	 0.136197401792697 
951	 0.136211197288738 
952	 0.136407095074427 
953	 0.136541789412273 
954	 0.136573915584208 
955	 0.136600031159512 
956	 0.136684090864003 
957	 0.136770730980022 
958	 0.136777544634603 
959	 0.136669689879583 
960	 0.136691827300218 
961	 0.136834441000055 
962	 0.136987985662758 
963	 0.137030779858853 
964	 0.13709887322815 
965	 0.137157757925594 
966	 0.137196714684879 
967	 0.137226965230939 
968	 0.137236012651773 
969	 0.137304999857523 
970	 0.137404883052587 
971	 0.137445071756795 
972	 0.137475527227141 
973	 0.137511354207453 
974	 0.137563865959045 
975	 0.137641674454055 
976	 0.137766100083182 
977	 0.137818263434668 
978	 0.137817784826153 
979	 0.13786207280892 
980	 0.137886946253814 
981	 0.137950921842616 
982	 0.138013438401595 
983	 0.13800637489513 
984	 0.138066319834467 
985	 0.138205242909265 
986	 0.138274832846327 
987	 0.138151852853972 
988	 0.138241709272039 
989	 0.138382454665937 
990	 0.138434399514528 
991	 0.138361612770562 
992	 0.138426935446629 
993	 0.138511738055943 
994	 0.138622863752681 
995	 0.138770084350769 
996	 0.138715257126792 
997	 0.138787750378255 
998	 0.138945765103896 
999	 0.13902144142107 
1000	 0.139001257679005 
1001	 0.139363006968196 
1002	 0.139411202027096 
1003	 0.139514839612912 
1004	 0.139560318812375 
1005	 0.139503169427412 
1006	 0.139529316197629 
1007	 0.13960920113181 
1008	 0.139622746635364 
1009	 0.139619202962615 
1010	 0.139716319644161 
1011	 0.13979349269588 
1012	 0.139797464015537 
1013	 0.139802595274668 
1014	 0.139833751429904 
1015	 0.139839922957915 
1016	 0.139873928384108 
1017	 0.139940336167272 
1018	 0.140076979582696 
1019	 0.140143947320551 
1020	 0.140156526610219 
1021	 0.14019625428853 
1022	 0.140236134378881 
1023	 0.140261760417176 
1024	 0.140293157019059 
1025	 0.140355052562097 
1026	 0.140403250534774 
1027	 0.14039642076137 
1028	 0.140414641481772 
1029	 0.140449402308637 
1030	 0.140456778864214 
1031	 0.140473651117177 
1032	 0.140515387999944 
1033	 0.14054345144264 
1034	 0.140518262761444 
1035	 0.140528920030234 
1036	 0.140573791588062 
1037	 0.140615317139611 
1038	 0.140693131667596 
1039	 0.140781575356779 
1040	 0.140807479746332 
1041	 0.140824621860495 
1042	 0.140891315577842 
1043	 0.140947224091801 
1044	 0.141001632766525 
1045	 0.141063841601727 
1046	 0.141147552603517 
1047	 0.141211030047637 
1048	 0.141250945225102 
1049	 0.141298763303051 
1050	 0.141384336437396 
1051	 0.141449658244939 
1052	 0.141508391179778 
1053	 0.141587584007789 
1054	 0.141656047487756 
1055	 0.141710094807485 
1056	 0.141768748184708 
1057	 0.141829334906352 
1058	 0.141878357556945 
1059	 0.141937216252429 
1060	 0.142014075306294 
1061	 0.142082304881114 
1062	 0.142103931278265 
1063	 0.142078161979948 
1064	 0.142068315194382 
1065	 0.142068161712531 
1066	 0.142061661912251 
1067	 0.1421106222321 
1068	 0.142139052635022 
1069	 0.142148997514087 
1070	 0.142182968884688 
1071	 0.142277378389067 
1072	 0.14227577789365 
1073	 0.142203964826583 
1074	 0.142198393436542 
1075	 0.14217985359271 
1076	 0.14216625207921 
1077	 0.142195629079455 
1078	 0.142225589488162 
1079	 0.142150708823849 
1080	 0.142061957386369 
1081	 0.142057677220517 
1082	 0.142028967928849 
1083	 0.142001457118653 
1084	 0.142001246688972 
1085	 0.1420031521642 
1086	 0.141997094460014 
1087	 0.141983000001246 
1088	 0.141986566303708 
1089	 0.141971857951618 
1090	 0.141943896919315 
1091	 0.141927848787505 
1092	 0.141914625007515 
1093	 0.141941790197156 
1094	 0.141978487475162 
1095	 0.141986606028205 
1096	 0.142021191169515 
1097	 0.142050556011337 
1098	 0.142058218211316 
1099	 0.142037349693411 
1100	 0.142039148183161 
1101	 0.142022864218792 
1102	 0.142033834635137 
1103	 0.142062467669851 
1104	 0.142101308348655 
1105	 0.142133629474435 
1106	 0.142177530725128 
1107	 0.14223759426974 
1108	 0.142295429902061 
1109	 0.142339606746093 
1110	 0.142385605312378 
1111	 0.142427192354062 
1112	 0.142439324888783 
1113	 0.142480352055098 
1114	 0.142544220978217 
1115	 0.142602019984972 
1116	 0.142668243490549 
1117	 0.142723802543067 
1118	 0.142775125220132 
1119	 0.142820890250092 
1120	 0.142867159416943 
1121	 0.142948911153646 
1122	 0.143025595908299 
1123	 0.143101822584803 
1124	 0.143177985145807 
1125	 0.143248449006305 
1126	 0.143313739361628 
1127	 0.143386124458642 
1128	 0.143450901855869 
1129	 0.143497526787943 
1130	 0.143566486418806 
1131	 0.14364756702704 
1132	 0.143719320262756 
1133	 0.143795043810834 
1134	 0.143870841192243 
1135	 0.143955023482447 
1136	 0.144015464506954 
1137	 0.144070821715517 
1138	 0.144136021885116 
1139	 0.144193389399241 
1140	 0.144239901194099 
1141	 0.144298117056393 
1142	 0.144362558008578 
1143	 0.144418862310348 
1144	 0.144470568318631 
1145	 0.14452269861264 
1146	 0.144568349672512 
1147	 0.144624634215851 
1148	 0.144702815093994 
1149	 0.144756904895842 
1150	 0.144804468019231 
1151	 0.144837320225083 
1152	 0.144883984508181 
1153	 0.144935794853497 
1154	 0.144982993517421 
1155	 0.145057044760038 
1156	 0.145093650253203 
1157	 0.145100582535292 
1158	 0.145115850124493 
1159	 0.145108206509462 
1160	 0.145131151745386 
1161	 0.145176687903207 
1162	 0.145206788519793 
1163	 0.14524525095486 
1164	 0.145279970771327 
1165	 0.145303477418032 
1166	 0.145327219633768 
1167	 0.145363162711645 
1168	 0.145381738953677 
1169	 0.145399569858231 
1170	 0.145402563256066 
1171	 0.145422304211478 
1172	 0.145450919055622 
1173	 0.145469635058585 
1174	 0.145489580468682 
1175	 0.145509923089618 
1176	 0.145515785382687 
1177	 0.145537680174255 
1178	 0.145585081187028 
1179	 0.145607947121236 
1180	 0.145620154839012 
1181	 0.145637241236559 
1182	 0.145647588368498 
1183	 0.145647556623105 
1184	 0.145663040432094 
1185	 0.145689969134257 
1186	 0.145712422231765 
1187	 0.145735826080744 
1188	 0.145761530762037 
1189	 0.145797999537083 
1190	 0.145815360198682 
1191	 0.145823607131253 
1192	 0.14583409376627 
1193	 0.145826428336033 
1194	 0.145836449417273 
1195	 0.145861398671933 
1196	 0.145879132771667 
1197	 0.14589181509339 
1198	 0.145916577867671 
1199	 0.145946086712566 
1200	 0.145984875062539 
1201	 0.145998778321592 
1202	 0.146007596593905 
1203	 0.14602519486817 
1204	 0.14602031915711 
1205	 0.146041358885383 
1206	 0.146093267499683 
1207	 0.146125621731204 
1208	 0.146158724694976 
1209	 0.146181281291295 
1210	 0.146198296116506 
1211	 0.146210569038985 
1212	 0.146202419442274 
1213	 0.146210732279389 
1214	 0.14622434002362 
1215	 0.146239369844086 
1216	 0.146258917903575 
1217	 0.146288425595794 
1218	 0.146314176586085 
1219	 0.14634450448616 
1220	 0.146362495696469 
1221	 0.146374641224575 
1222	 0.146392552819996 
1223	 0.146397546085669 
1224	 0.146419432704272 
1225	 0.146466372527656 
1226	 0.146490124475826 
1227	 0.146504244479497 
1228	 0.146523801541817 
1229	 0.146533149078639 
1230	 0.146546974609331 
1231	 0.146565973967385 
1232	 0.146588807027042 
1233	 0.146613414115733 
1234	 0.146638524633523 
1235	 0.146660392569328 
1236	 0.146691052722406 
1237	 0.146706030617444 
1238	 0.146705372226895 
1239	 0.146716359332767 
1240	 0.14672257975687 
1241	 0.146737619732453 
1242	 0.146765337213432 
1243	 0.146784057761924 
1244	 0.146800833797346 
1245	 0.14681955199097 
1246	 0.146839114462877 
1247	 0.146853523414629 
1248	 0.146868183689792 
1249	 0.146878376820196 
1250	 0.146891743537228 
1251	 0.146906596382081 
1252	 0.146915881058691 
1253	 0.146926065794844 
1254	 0.146938387183275 
1255	 0.146948562917189 
1256	 0.146953731743171 
1257	 0.146961885303515 
1258	 0.146966837157009 
1259	 0.146957780601662 
1260	 0.146959481504305 
1261	 0.14696825529407 
1262	 0.146978547949789 
1263	 0.146998221147377 
1264	 0.147006247028948 
1265	 0.147010111928233 
1266	 0.147013638348641 
1267	 0.146996947606822 
1268	 0.147001948987792 
1269	 0.147013554252355 
1270	 0.147033857960089 
1271	 0.147056229348704 
1272	 0.147090455105286 
1273	 0.147121231787141 
1274	 0.14715023893143 
1275	 0.147185872724482 
1276	 0.147223102289455 
1277	 0.147268343354121 
1278	 0.147324307487974 
1279	 0.147378287253853 
1280	 0.147446113262564 
1281	 0.147497402089145 
1282	 0.147532698492556 
1283	 0.147578332853811 
1284	 0.147629747828598 
1285	 0.147669138259511 
1286	 0.147700752140516 
1287	 0.147732434563212 
1288	 0.147760900491479 
1289	 0.147773333854235 
1290	 0.147789969462414 
1291	 0.14782211438448 
1292	 0.147827203435481 
1293	 0.1478103556449 
1294	 0.147802938916135 
1295	 0.147794160210859 
1296	 0.147772108596391 
1297	 0.147747790680309 
1298	 0.147713417688908 
1299	 0.147659832945394 
1300	 0.147611150285665 
1301	 0.147558196250612 
1302	 0.147506046729965 
1303	 0.147450231132811 
1304	 0.147401937219359 
1305	 0.147353129106222 
1306	 0.14729586489204 
1307	 0.147228294561683 
1308	 0.147167537739141 
1309	 0.147114160249765 
1310	 0.147063538631926 
1311	 0.147011588790742 
1312	 0.146963942419247 
1313	 0.146921565316458 
1314	 0.146878274012573 
1315	 0.146839091840225 
1316	 0.146813465180798 
1317	 0.146778784378893 
1318	 0.146722986641469 
1319	 0.146697744732085 
1320	 0.146692307352269 
1321	 0.14668366935105 
1322	 0.146691790209552 
1323	 0.146695762345789 
1324	 0.146688121727508 
1325	 0.146679387721684 
1326	 0.146688919337612 
1327	 0.146705713031637 
1328	 0.146720052855281 
1329	 0.14673964792801 
1330	 0.146767989643223 
1331	 0.146796464983548 
1332	 0.14683410116766 
1333	 0.146888479249399 
1334	 0.146934399099789 
1335	 0.146975846804867 
1336	 0.147027090871408 
1337	 0.147088461416631 
1338	 0.147137811035451 
1339	 0.147185205690973 
1340	 0.147234757236784 
1341	 0.147274065717488 
1342	 0.147322493969193 
1343	 0.147378191005892 
1344	 0.147436486791692 
1345	 0.147495028118544 
1346	 0.147562998239112 
1347	 0.147631468223189 
1348	 0.14769633942255 
1349	 0.147752773456986 
1350	 0.147812105684122 
1351	 0.147873706059086 
1352	 0.147935835032071 
1353	 0.147999283268312 
1354	 0.148063479633757 
1355	 0.148131802927385 
1356	 0.148207914297582 
1357	 0.148267681502827 
1358	 0.148329610460673 
1359	 0.148383492464645 
1360	 0.148414146834709 
1361	 0.148464320699094 
1362	 0.148518460930348 
1363	 0.148573050209077 
1364	 0.148647403778337 
1365	 0.14870069590828 
1366	 0.148745965338283 
1367	 0.148788605509738 
1368	 0.148807934859227 
1369	 0.148826547715286 
1370	 0.148863956434107 
1371	 0.14890221149402 
1372	 0.148930049673065 
1373	 0.148964655239301 
1374	 0.14899937661849 
1375	 0.149027949320791 
1376	 0.149049993326669 
1377	 0.149090662257032 
1378	 0.149093554833469 
1379	 0.149066463646083 
1380	 0.149050463291265 
1381	 0.14901377623723 
1382	 0.148993427114231 
1383	 0.148989764041649 
1384	 0.148964553802629 
1385	 0.14893645801188 
1386	 0.148902767402567 
1387	 0.148859630756639 
1388	 0.148809721951662 
1389	 0.148759550206252 
1390	 0.148697170605121 
1391	 0.148621999222218 
1392	 0.14853224769187 
1393	 0.148435016066594 
1394	 0.148348002114268 
1395	 0.148246866437121 
1396	 0.148133440589717 
1397	 0.148029281318794 
1398	 0.147925516836534 
1399	 0.147813969040709 
1400	 0.147704060881507 
1401	 0.147590952576512 
1402	 0.14745960353248 
1403	 0.147347046274041 
1404	 0.14724565238803 
1405	 0.147144037896975 
1406	 0.147048250911965 
1407	 0.146956061500343 
1408	 0.146860713878849 
1409	 0.146776867189841 
1410	 0.146701455532285 
1411	 0.146630910601506 
1412	 0.146564793922197 
1413	 0.146511754593542 
1414	 0.146457384562267 
1415	 0.146406679862741 
1416	 0.14637877429256 
1417	 0.146353377732075 
1418	 0.146336789286988 
1419	 0.146337118516513 
1420	 0.14633174799577 
1421	 0.146325432390744 
1422	 0.146320211704915 
1423	 0.146300990710508 
1424	 0.146278040961167 
1425	 0.146238681533432 
1426	 0.14621759816486 
1427	 0.146196059530675 
1428	 0.146186779556647 
1429	 0.146188941083172 
1430	 0.146193165180309 
1431	 0.146209261799115 
1432	 0.146212806267361 
1433	 0.146214224076047 
1434	 0.146219731402645 
1435	 0.146221519244511 
1436	 0.146224122909712 
1437	 0.146225843519677 
1438	 0.146236137900271 
1439	 0.146249917644648 
1440	 0.146262349549497 
1441	 0.146278475292179 
1442	 0.146292640580712 
1443	 0.146299700556706 
1444	 0.146305048209575 
1445	 0.146303205766425 
1446	 0.146306706488871 
1447	 0.146311298058633 
1448	 0.146312777192922 
1449	 0.146331684221793 
1450	 0.146354860111 
1451	 0.146383207225679 
1452	 0.146421797788292 
1453	 0.14645097250528 
1454	 0.146484633746115 
1455	 0.146508150852815 
1456	 0.146519450533432 
1457	 0.146536271044284 
1458	 0.146547694673963 
1459	 0.146574861279789 
1460	 0.14661244670461 
1461	 0.146640586029996 
1462	 0.146671927782663 
1463	 0.146704075249043 
1464	 0.146732961072233 
1465	 0.146761116837307 
1466	 0.146792720011334 
1467	 0.146825122667962 
1468	 0.1468495536817 
1469	 0.146882117769117 
1470	 0.146928888682084 
1471	 0.146964770092429 
1472	 0.146993375098572 
1473	 0.147018383104736 
1474	 0.147038107259106 
1475	 0.147070572384815 
1476	 0.147117134311365 
1477	 0.147183376962212 
1478	 0.147242724017716 
1479	 0.147282633637386 
1480	 0.14732367797582 
1481	 0.147344282313626 
1482	 0.147379858257885 
1483	 0.147420893439388 
1484	 0.147468052877989 
1485	 0.147521764565761 
1486	 0.147569861380052 
1487	 0.147620049108242 
1488	 0.147665724796576 
1489	 0.147711410255299 
1490	 0.147752334683546 
1491	 0.147788547767177 
1492	 0.147826562118915 
1493	 0.147856945559638 
1494	 0.147894553130084 
1495	 0.1479374667704 
1496	 0.147979753729421 
1497	 0.148026485131418 
1498	 0.14806586888239 
1499	 0.148102942806818 
1500	 0.148143258190464 
1501	 0.148186284532936 
1502	 0.148220686598959 
1503	 0.148252806866779 
1504	 0.148277870773895 
1505	 0.14830874246284 
1506	 0.148334345025459 
1507	 0.148372684240026 
1508	 0.148417186923675 
1509	 0.148456852807556 
1510	 0.148492157829118 
1511	 0.148513961227327 
1512	 0.148534805631883 
1513	 0.148561506224646 
1514	 0.148588396153615 
1515	 0.14861784591559 
1516	 0.148656283534405 
1517	 0.148694625826708 
1518	 0.148729322589834 
1519	 0.1487662767857 
1520	 0.148813501080398 
1521	 0.148847833725114 
1522	 0.148871741269811 
1523	 0.148900104341069 
1524	 0.148928750075728 
1525	 0.148960152652006 
1526	 0.148995343498561 
1527	 0.149019971650506 
1528	 0.149037571216546 
1529	 0.149060176040248 
1530	 0.149080646224787 
1531	 0.149100162721532 
1532	 0.149127437945895 
1533	 0.149144384018785 
1534	 0.149141970359041 
1535	 0.149157411409044 
1536	 0.149180151981751 
1537	 0.149201981742589 
1538	 0.149241521035815 
1539	 0.149265179304391 
1540	 0.149275726592252 
1541	 0.149290616573535 
1542	 0.14930041127343 
1543	 0.149307788271127 
1544	 0.149311605544256 
1545	 0.149323471826237 
1546	 0.149336446724743 
1547	 0.149353376088229 
1548	 0.149368642996287 
1549	 0.149385657944321 
1550	 0.149397401687817 
1551	 0.149414509252374 
1552	 0.149434427713545 
1553	 0.149440100101259 
1554	 0.149449270411078 
1555	 0.149471348837926 
1556	 0.149498520848337 
1557	 0.149532649236526 
1558	 0.149572307645057 
1559	 0.149592734313812 
1560	 0.149611542862923 
1561	 0.149624984510081 
1562	 0.149640165152459 
1563	 0.149644729318998 
1564	 0.149662021029273 
1565	 0.14968594619874 
1566	 0.149707956013217 
1567	 0.14973560209936 
1568	 0.149759310998709 
1569	 0.149786443680803 
1570	 0.149798479691844 
1571	 0.149798855325422 
1572	 0.149808633210499 
1573	 0.149806578649379 
1574	 0.149820707071424 
1575	 0.149854284133949 
1576	 0.149876257209197 
1577	 0.149907304660129 
1578	 0.1499157064265 
1579	 0.149900628771892 
1580	 0.149902149458091 
1581	 0.149900942086767 
1582	 0.149899866070768 
1583	 0.14990525711751 
1584	 0.149914029243464 
1585	 0.149913560288302 
1586	 0.14992430869687 
1587	 0.149957152101109 
1588	 0.149976522714944 
1589	 0.149993111999058 
1590	 0.150004846445259 
1591	 0.150001144949133 
1592	 0.150012642003185 
1593	 0.150028380636418 
1594	 0.15004777071519 
1595	 0.150082164603677 
1596	 0.150108050267026 
1597	 0.150138878320765 
1598	 0.150154634316609 
1599	 0.150151983826652 
1600	 0.150162189423501 
1601	 0.150167097620662 
1602	 0.150174965450264 
1603	 0.150197892051651 
1604	 0.150212696692526 
1605	 0.150218619542529 
1606	 0.150230461511607 
1607	 0.150245329563499 
1608	 0.150258195224819 
1609	 0.15027560120129 
1610	 0.150271547311025 
1611	 0.150273848678349 
1612	 0.150277450068345 
1613	 0.150294551768291 
1614	 0.150328894051223 
1615	 0.150343005833534 
1616	 0.150366440846797 
1617	 0.150385494484525 
1618	 0.150382643050638 
1619	 0.150393742573532 
1620	 0.150411522596627 
1621	 0.150429852455609 
1622	 0.150449315638334 
1623	 0.150466066084065 
1624	 0.150490856132442 
1625	 0.150495054006317 
1626	 0.150488116842194 
1627	 0.150483079823092 
1628	 0.150461920166818 
1629	 0.150465498048173 
1630	 0.150477287136014 
1631	 0.150492719484989 
1632	 0.150524972958947 
1633	 0.150541166997931 
1634	 0.150553074979724 
1635	 0.150564734092434 
1636	 0.150573803264361 
1637	 0.150578852290538 
1638	 0.150579976975689 
1639	 0.1505842871616 
1640	 0.150578740055517 
1641	 0.150593756152279 
1642	 0.150626098177823 
1643	 0.15064451942062 
1644	 0.150671449751909 
1645	 0.150680587579728 
1646	 0.150667501430817 
1647	 0.150677188762873 
1648	 0.150693178551887 
1649	 0.150704673288682 
1650	 0.150731268235251 
1651	 0.150734403424134 
1652	 0.150710087497038 
1653	 0.150717541149865 
1654	 0.150733870612928 
1655	 0.150744661536291 
1656	 0.150776768475353 
1657	 0.150784809354796 
1658	 0.150774361410334 
1659	 0.150765987040485 
1660	 0.15074403711303 
1661	 0.150742210186016 
1662	 0.150740915074503 
1663	 0.150751376397103 
1664	 0.150789583307149 
1665	 0.150802526419973 
1666	 0.15080417967046 
1667	 0.150814660103349 
1668	 0.150819517098182 
1669	 0.150827767062793 
1670	 0.150839264869441 
1671	 0.150858997598606 
1672	 0.15088577095832 
1673	 0.150901202594783 
1674	 0.150931776748576 
1675	 0.150933380698775 
1676	 0.150901396679548 
1677	 0.150892056420486 
1678	 0.150880937826454 
1679	 0.150872588503143 
1680	 0.150880437968589 
1681	 0.15086896104396 
1682	 0.150828109544842 
1683	 0.150828977832489 
1684	 0.150838518147771 
1685	 0.150863272044552 
1686	 0.150941365362869 
1687	 0.150965524345411 
1688	 0.15096400049182 
1689	 0.150974055738105 
1690	 0.150964883798763 
1691	 0.150966895678954 
1692	 0.150981940705543 
1693	 0.150990844259452 
1694	 0.150996576771943 
1695	 0.150997465652721 
1696	 0.150986036623345 
1697	 0.151001930246613 
1698	 0.15103179204707 
1699	 0.151048118605408 
1700	 0.151091731607299 
1701	 0.151099193883945 
1702	 0.151070102357235 
1703	 0.151056421002292 
1704	 0.151027973988496 
1705	 0.151024852722248 
1706	 0.151042636423 
1707	 0.151038519677511 
1708	 0.151034680894931 
1709	 0.151035230816979 
1710	 0.151015938843138 
1711	 0.151023776921317 
1712	 0.151058122272536 
1713	 0.151081324543384 
1714	 0.151113151776337 
1715	 0.151128593677517 
1716	 0.151130788662512 
1717	 0.151148738095541 
1718	 0.151171557694407 
1719	 0.151179301456625 
1720	 0.151193715710962 
1721	 0.151192635864278 
1722	 0.151169026765544 
1723	 0.151155478382904 
1724	 0.151138943846539 
1725	 0.151130312358304 
1726	 0.151121576629502 
1727	 0.151115330004718 
1728	 0.151122695254021 
1729	 0.151117037142359 
1730	 0.151109439826601 
1731	 0.151088826303329 
1732	 0.151049340495243 
1733	 0.151033174033441 
1734	 0.151019267684932 
1735	 0.151005278078599 
1736	 0.151005077578911 
1737	 0.151000509437341 
1738	 0.150979438222447 
1739	 0.150982692634612 
1740	 0.151016541724772 
1741	 0.151011092385065 
1742	 0.151001706156313 
1743	 0.150983195615222 
1744	 0.15093157265833 
1745	 0.1509109243783 
1746	 0.150898796406404 
1747	 0.150904448037458 
1748	 0.150910042813889 
1749	 0.150892962341368 
1750	 0.150860638224789 
1751	 0.150822444368301 
1752	 0.150803918053274 
1753	 0.150789828636112 
1754	 0.150770361342255 
1755	 0.150751639035358 
1756	 0.150739634638198 
1757	 0.150746994928052 
1758	 0.150767843074109 
1759	 0.150796164389561 
1760	 0.150797441732784 
1761	 0.150769551881777 
1762	 0.150773244348989 
1763	 0.150801932901985 
1764	 0.150797268280761 
1765	 0.15079837002326 
1766	 0.150802497356348 
1767	 0.150743323959511 
1768	 0.150697973989738 
1769	 0.150673184635682 
1770	 0.150646168847131 
1771	 0.150662844274126 
1772	 0.150665976982772 
1773	 0.150659767145678 
1774	 0.150660990480136 
1775	 0.150627634809981 
1776	 0.150625522176405 
1777	 0.150663739001021 
1778	 0.150679694550288 
1779	 0.150691502361816 
1780	 0.150691771418192 
1781	 0.150666508186717 
1782	 0.150635445132945 
1783	 0.150640168589998 
1784	 0.150658275248957 
1785	 0.150704170737824 
1786	 0.150712873874435 
1787	 0.150708382758081 
1788	 0.15070795094094 
1789	 0.150678936010241 
1790	 0.15067970177322 
1791	 0.150706673909045 
1792	 0.150726165936474 
1793	 0.150746265812857 
1794	 0.15077008955816 
1795	 0.150813799493267 
1796	 0.15082361634656 
1797	 0.150808294199187 
1798	 0.150813322796031 
1799	 0.15080657420946 
1800	 0.150805296548328 
1801	 0.148892020400465 
1802	 0.148903402767923 
1803	 0.148896797299244 
1804	 0.148921898112179 
1805	 0.148958422187682 
1806	 0.148987392284039 
1807	 0.149038280961519 
1808	 0.149058239699204 
1809	 0.149046207766981 
1810	 0.149057555650802 
1811	 0.149079784641713 
1812	 0.149069496387417 
1813	 0.149083451063617 
1814	 0.149093521255681 
1815	 0.14909160929434 
1816	 0.149127183667554 
1817	 0.149142518214328 
1818	 0.149154349638423 
1819	 0.149173778863069 
1820	 0.149200884670114 
1821	 0.149198753029745 
1822	 0.1492201386376 
1823	 0.149239891513309 
1824	 0.149260368604965 
1825	 0.149287636615494 
1826	 0.149264681104438 
1827	 0.149231255906392 
1828	 0.149220901136932 
1829	 0.149193314530392 
1830	 0.14918004919446 
1831	 0.149187408587327 
1832	 0.149216012777115 
1833	 0.149212668767182 
1834	 0.149202292021446 
1835	 0.149191064606743 
1836	 0.14921225157461 
1837	 0.149247539710074 
1838	 0.149261261147778 
1839	 0.149283134853164 
1840	 0.149319954572789 
1841	 0.149333560474509 
1842	 0.149339951716983 
1843	 0.149375746691785 
1844	 0.149378981918568 
1845	 0.149344390167287 
1846	 0.149299322858348 
1847	 0.149252566324493 
1848	 0.149237417960277 
1849	 0.149240596604108 
1850	 0.149229974691131 
1851	 0.149227252783054 
1852	 0.149216742373348 
1853	 0.14917629483867 
1854	 0.149139333499057 
1855	 0.149124210181921 
1856	 0.149099520269787 
1857	 0.149104251299535 
1858	 0.149122237402535 
1859	 0.149112426438546 
1860	 0.149091684051642 
1861	 0.14907100969732 
1862	 0.149022268365755 
1863	 0.148935759295203 
1864	 0.148854317042896 
1865	 0.148773942270142 
1866	 0.148699846592393 
1867	 0.148607207402687 
1868	 0.148485195523408 
1869	 0.148372945914378 
1870	 0.14824758217967 
1871	 0.148119565820586 
1872	 0.147993123113514 
1873	 0.147876263536395 
1874	 0.147760366936133 
1875	 0.147635975877523 
1876	 0.14749661614315 
1877	 0.147363130779687 
1878	 0.147179260582585 
1879	 0.146959534906154 
1880	 0.14673411845402 
1881	 0.146479153343638 
1882	 0.14622720185386 
1883	 0.145974262303118 
1884	 0.14570246373492 
1885	 0.145410145500238 
1886	 0.145091970310726 
1887	 0.144732781966604 
1888	 0.144354204362371 
1889	 0.143978089509416 
1890	 0.14360693226409 
1891	 0.143235409401577 
1892	 0.142880517468182 
1893	 0.142497903096945 
1894	 0.142096674615152 
1895	 0.141694411632928 
1896	 0.141300016466783 
1897	 0.140914257839504 
1898	 0.140532252398444 
1899	 0.140166701813998 
1900	 0.139811209308336 
1901	 0.139480487912421 
1902	 0.139165763478319 
1903	 0.138890523820517 
1904	 0.13861046956287 
1905	 0.138343445747468 
1906	 0.138062927903339 
1907	 0.137809914816045 
1908	 0.137571298229964 
1909	 0.13733503765732 
1910	 0.137121594007006 
1911	 0.136927920858101 
1912	 0.136743222292012 
1913	 0.136580199478311 
1914	 0.136445693126435 
1915	 0.136318322939421 
1916	 0.136209910509663 
1917	 0.136102004875787 
1918	 0.136001936168598 
1919	 0.135902358848896 
1920	 0.135804975721307 
1921	 0.135736194819362 
1922	 0.135682344458867 
1923	 0.135619056983481 
1924	 0.135563107661429 
1925	 0.135502561605819 
1926	 0.135463434087863 
1927	 0.135428946384751 
1928	 0.135421190360616 
1929	 0.135411146651019 
1930	 0.135408741094274 
1931	 0.135406580561426 
1932	 0.135402728430067 
1933	 0.13543194636047 
1934	 0.13546807873822 
1935	 0.135498534341213 
1936	 0.135519856537738 
1937	 0.135570516610585 
1938	 0.13563227746646 
1939	 0.135697394567424 
1940	 0.135782889185603 
1941	 0.135883346658888 
1942	 0.135950033747706 
1943	 0.13601704812045 
1944	 0.1361077778875 
1945	 0.136185877128807 
1946	 0.136251669548817 
1947	 0.136304302166659 
1948	 0.136374071990006 
1949	 0.136427119722183 
1950	 0.136504665258603 
1951	 0.136598455241907 
1952	 0.136715817951612 
1953	 0.136839197858369 
1954	 0.136944270188426 
1955	 0.137041704649081 
1956	 0.13714239407687 
1957	 0.137253374748324 
1958	 0.137361215125032 
1959	 0.137476213549297 
1960	 0.137615805373521 
1961	 0.137730846532359 
1962	 0.13782404601517 
1963	 0.137935128418524 
1964	 0.138046235718255 
1965	 0.138166132574628 
1966	 0.138286867077774 
1967	 0.138390700340729 
1968	 0.138512760606757 
1969	 0.138627880262658 
1970	 0.13876132795499 
1971	 0.138925868522992 
1972	 0.139066386796217 
1973	 0.139196305476155 
1974	 0.139336144379407 
1975	 0.139477397198659 
1976	 0.139617188072507 
1977	 0.139747637034425 
1978	 0.139871990700739 
1979	 0.140003513382289 
1980	 0.14013173840278 
1981	 0.140268166544201 
1982	 0.140427513339037 
1983	 0.140566704955268 
1984	 0.14069256278667 
1985	 0.140827593782443 
1986	 0.140966738335276 
1987	 0.141097794881434 
1988	 0.141219820524088 
1989	 0.141356786192694 
1990	 0.141485316996897 
1991	 0.141612319238584 
1992	 0.141750314390575 
1993	 0.14190800016633 
1994	 0.142038355583956 
1995	 0.142165744390144 
1996	 0.142284425770364 
1997	 0.142374319443948 
1998	 0.142488903181711 
1999	 0.142610281916274 
2000	 0.142732404602986 
2001	 0.142865890019252 
2002	 0.142999509938607 
2003	 0.143126980099254 
2004	 0.143252426822911 
2005	 0.143376216056974 
2006	 0.143498020276774 
2007	 0.143621668492389 
2008	 0.143739214458585 
2009	 0.143866231769877 
2010	 0.144006569926764 
2011	 0.144131556142948 
2012	 0.144255865026707 
2013	 0.144376889151747 
2014	 0.144484574097653 
2015	 0.14459641177078 
2016	 0.144713422907705 
2017	 0.14482869355586 
2018	 0.144946367210452 
2019	 0.145072557916635 
2020	 0.145182859618844 
2021	 0.145275466372779 
2022	 0.14538873017894 
2023	 0.145513099661101 
2024	 0.145623195489583 
2025	 0.145739202846394 
2026	 0.14585355858171 
2027	 0.14595916417358 
2028	 0.146046565680805 
2029	 0.146158471813004 
2030	 0.146292619005691 
2031	 0.146402868377048 
2032	 0.146509931372379 
2033	 0.146613311152885 
2034	 0.146702051335612 
2035	 0.146799488273674 
2036	 0.146906162730433 
2037	 0.147000231014989 
2038	 0.147085804141986 
2039	 0.147175569745305 
2040	 0.147260953226085 
2041	 0.14734910532048 
2042	 0.147425755015502 
2043	 0.147506204895984 
2044	 0.147581588596463 
2045	 0.147647756996811 
2046	 0.147712482193118 
2047	 0.147773733028448 
2048	 0.147839794733614 
2049	 0.147891822281338 
2050	 0.147967144315473 
2051	 0.148071305832981 
2052	 0.148157111728954 
2053	 0.148242540688363 
2054	 0.148326742697457 
2055	 0.148415067029795 
2056	 0.148476553073749 
2057	 0.148546111623308 
2058	 0.148627309142846 
2059	 0.148684736006676 
2060	 0.148715124606346 
2061	 0.148767845442376 
2062	 0.148812192954015 
2063	 0.148872764626146 
2064	 0.148960667284897 
2065	 0.149030022423103 
2066	 0.149089742196775 
2067	 0.149159662974183 
2068	 0.149232030092059 
2069	 0.149297943346642 
2070	 0.149368697528031 
2071	 0.149453575991035 
2072	 0.149519812602135 
2073	 0.149573270670687 
2074	 0.149634025135445 
2075	 0.149688167670223 
2076	 0.149752380095109 
2077	 0.149825307809798 
2078	 0.149893047442467 
2079	 0.149963363264548 
2080	 0.150032739476334 
2081	 0.150100018977151 
2082	 0.150164859050952 
2083	 0.150229540452445 
2084	 0.150293126364694 
2085	 0.150359228982805 
2086	 0.150430063104125 
2087	 0.150484702513751 
2088	 0.150531679588562 
2089	 0.150586511121236 
2090	 0.150635540171771 
2091	 0.15067939273942 
2092	 0.15072687460334 
2093	 0.150773901097992 
2094	 0.150798670658521 
2095	 0.150847186424888 
2096	 0.15091182129607 
2097	 0.150980090997431 
2098	 0.151052202093407 
2099	 0.151141706364294 
2100	 0.151227982342712 
2101	 0.151334957459033 
2102	 0.151400579715604 
2103	 0.151451528973162 
2104	 0.151502520650116 
2105	 0.151510047790686 
2106	 0.151565999765103 
2107	 0.151641732707654 
2108	 0.15172664908557 
2109	 0.151852017300069 
2110	 0.151946604959096 
2111	 0.152044843135674 
2112	 0.152125529801045 
2113	 0.152168476644839 
2114	 0.152234558529507 
2115	 0.152298124385306 
2116	 0.152352648475714 
2117	 0.152429225021235 
2118	 0.152530672034251 
2119	 0.152601197037201 
2120	 0.15266783739935 
2121	 0.152735704278675 
2122	 0.152787166280971 
2123	 0.152842907528357 
2124	 0.152913577028258 
2125	 0.152967663435332 
2126	 0.152994001689035 
2127	 0.153044563946832 
2128	 0.153112375335088 
2129	 0.153164320435526 
2130	 0.153229648053396 
2131	 0.153274721324894 
2132	 0.153313557091073 
2133	 0.15333948751843 
2134	 0.153352364194656 
2135	 0.15335954573611 
2136	 0.153350211207626 
2137	 0.153315622881017 
2138	 0.153284768890516 
2139	 0.153238745880933 
2140	 0.153204828700896 
2141	 0.153161010678207 
2142	 0.153136950802851 
2143	 0.153155602762927 
2144	 0.153129262334768 
2145	 0.15308599492415 
2146	 0.153043980342363 
2147	 0.152970132123948 
2148	 0.152899963203875 
2149	 0.152840799150858 
2150	 0.152806697452364 
2151	 0.152735723622915 
2152	 0.15265233044438 
2153	 0.152564054398566 
2154	 0.152456379633066 
2155	 0.152354675775514 
2156	 0.152247990687 
2157	 0.152146129165485 
2158	 0.152046709812058 
2159	 0.151939804954531 
2160	 0.15183081186199 
2161	 0.151724313023051 
2162	 0.151613937654068 
2163	 0.15150230771744 
2164	 0.151395839023729 
2165	 0.151287745067456 
2166	 0.151168052607249 
2167	 0.151031305180482 
2168	 0.15091628006928 
2169	 0.150807199129368 
2170	 0.150689828792931 
2171	 0.150584507984038 
2172	 0.150463382208546 
2173	 0.150319063047225 
2174	 0.15019572397103 
2175	 0.150079059284746 
2176	 0.149962435485073 
2177	 0.149864280527008 
2178	 0.14974275751676 
2179	 0.149601165363277 
2180	 0.149472937569887 
2181	 0.149335164330321 
2182	 0.149206084938216 
2183	 0.149103978930974 
2184	 0.14897505863345 
2185	 0.148856981478937 
2186	 0.148734161741236 
2187	 0.14862591161727 
2188	 0.148519553654564 
2189	 0.148425925092488 
2190	 0.148348210136947 
2191	 0.148264244062375 
2192	 0.148180891922284 
2193	 0.14810835402744 
2194	 0.148031177567239 
2195	 0.147976984127492 
2196	 0.147962932456944 
2197	 0.147914013490066 
2198	 0.147856000220847 
2199	 0.147801981922586 
2200	 0.147730859205884 
2201	 0.147665077656422 
2202	 0.147584045950362 
2203	 0.14754128228356 
2204	 0.147521948890429 
2205	 0.147515401055237 
2206	 0.147503751105602 
2207	 0.147543566859146 
2208	 0.147524904989189 
2209	 0.147435947862796 
2210	 0.147440511631409 
2211	 0.147484499886443 
2212	 0.147507088107857 
2213	 0.147576149334157 
2214	 0.147615144015419 
2215	 0.147622002599881 
2216	 0.147634669907348 
2217	 0.147663324351295 
2218	 0.147672075695513 
2219	 0.147639908225367 
2220	 0.147639457713859 
2221	 0.147656573114252 
2222	 0.147662098142679 
2223	 0.147681306441213 
2224	 0.147713460859393 
2225	 0.147735836004953 
2226	 0.147753594262317 
2227	 0.147770416796154 
2228	 0.147793690631599 
2229	 0.147800300845716 
2230	 0.147783885975215 
2231	 0.147794504284159 
2232	 0.147825100970838 
2233	 0.147824967107862 
2234	 0.147815660060285 
2235	 0.14781752600758 
2236	 0.147805309657732 
2237	 0.147789423937351 
2238	 0.147783627359198 
2239	 0.147781395026781 
2240	 0.147757638270087 
2241	 0.147753382688799 
2242	 0.147786145293056 
2243	 0.147795687829231 
2244	 0.147800279290313 
2245	 0.147793767426838 
2246	 0.147771144305511 
2247	 0.147759520768119 
2248	 0.147754925549262 
2249	 0.147748247745678 
2250	 0.147758613097377 
2251	 0.147783471133961 
2252	 0.14780602055138 
2253	 0.147841741198908 
2254	 0.147870235710212 
2255	 0.14790510178393 
2256	 0.147921771942906 
2257	 0.147931631836333 
2258	 0.147932599449084 
2259	 0.147903842011544 
2260	 0.147905583490036 
2261	 0.147918923130062 
2262	 0.147928704971013 
2263	 0.147949727412132 
2264	 0.147975065211794 
2265	 0.147994627065957 
2266	 0.148023801963081 
2267	 0.148082331582067 
2268	 0.148115115060851 
2269	 0.14814650967817 
2270	 0.148153292745554 
2271	 0.148153796916822 
2272	 0.148154685810156 
2273	 0.148144602983719 
2274	 0.148155102111139 
2275	 0.148170894541811 
2276	 0.148192895347626 
2277	 0.148210338555459 
2278	 0.14823776783006 
2279	 0.148263910921761 
2280	 0.148290435952061 
2281	 0.148307168969089 
2282	 0.148324391402482 
2283	 0.14833855104548 
2284	 0.148330500917144 
2285	 0.14834738916742 
2286	 0.148392749505773 
2287	 0.148413594276603 
2288	 0.148430735080806 
2289	 0.148445183002191 
2290	 0.148436786183909 
2291	 0.148442771996341 
2292	 0.14845128833369 
2293	 0.148472278078928 
2294	 0.148526047948738 
2295	 0.148543253731219 
2296	 0.148552683582679 
2297	 0.148558001723895 
2298	 0.148508013413007 
2299	 0.148472848682832 
2300	 0.14847865198899 
2301	 0.148508460050433 
2302	 0.148550923062615 
2303	 0.148592368591838 
2304	 0.14861526238179 
2305	 0.148596319781596 
2306	 0.148601007347481 
2307	 0.148616747689213 
2308	 0.14860239064873 
2309	 0.148572634119902 
2310	 0.148551323706466 
2311	 0.148522697248913 
2312	 0.148481406726672 
2313	 0.148427822208777 
2314	 0.148401286861757 
2315	 0.148360565843073 
2316	 0.148335855995704 
2317	 0.148344921370391 
2318	 0.148355377830376 
2319	 0.148363000834032 
2320	 0.148374576462648 
2321	 0.14840652869588 
2322	 0.148431070826913 
2323	 0.148444901725085 
2324	 0.14847366252915 
2325	 0.148525105645638 
2326	 0.148558885384684 
2327	 0.148584885285812 
2328	 0.148611084596858 
2329	 0.148662719607012 
2330	 0.148685008807409 
2331	 0.148694877527684 
2332	 0.14872370365331 
2333	 0.148688503395344 
2334	 0.148670476607703 
2335	 0.148712630683567 
2336	 0.148727836035811 
2337	 0.148780996664034 
2338	 0.148826492423019 
2339	 0.14882414118409 
2340	 0.148840320808275 
2341	 0.148845531579562 
2342	 0.148866317791047 
2343	 0.148890898127751 
2344	 0.14891091725323 
2345	 0.148914835971399 
2346	 0.148893224956265 
2347	 0.148877310183479 
2348	 0.14886359526622 
2349	 0.148847627771448 
2350	 0.148844184964089 
2351	 0.148805095789663 
2352	 0.148721673035123 
2353	 0.148655306798058 
2354	 0.148567205637763 
2355	 0.14852925324411 
2356	 0.148563458473907 
2357	 0.14852731003617 
2358	 0.148438033170095 
2359	 0.148403944518806 
2360	 0.148359894697581 
2361	 0.148325283142684 
2362	 0.148374617824305 
2363	 0.148361479977467 
2364	 0.148264640296201 
2365	 0.148230557630448 
2366	 0.148227214139781 
2367	 0.148206060516388 
2368	 0.148216235129542 
2369	 0.14819597100499 
2370	 0.148161511546182 
2371	 0.148093919149502 
2372	 0.148006160463676 
2373	 0.147944222226882 
2374	 0.147881017372356 
2375	 0.147835847282199 
2376	 0.147828498241754 
2377	 0.14780652995759 
2378	 0.14779458175004 
2379	 0.147778113178394 
2380	 0.147734347865193 
2381	 0.147733455802829 
2382	 0.147706368070277 
2383	 0.147640533815663 
2384	 0.147584313950046 
2385	 0.147491686426859 
2386	 0.147414817308666 
2387	 0.147357036398314 
2388	 0.147331624866569 
2389	 0.147282095589178 
2390	 0.147193680922776 
2391	 0.147117085081663 
2392	 0.146978246290693 
2393	 0.146841167138662 
2394	 0.146734091968144 
2395	 0.146633503797009 
2396	 0.14652573575183 
2397	 0.146461595090025 
2398	 0.146443534562722 
2399	 0.146403027905723 
2400	 0.146345147800682 
2401	 0.146262037431654 
2402	 0.146199741328852 
2403	 0.146171307854391 
2404	 0.146160289477531 
2405	 0.146132866280442 
2406	 0.146042671056227 
2407	 0.145913900457581 
2408	 0.145784017651629 
2409	 0.145683722371197 
2410	 0.145625782644856 
2411	 0.145580826403608 
2412	 0.145564478826826 
2413	 0.145486239679201 
2414	 0.145335352645986 
2415	 0.145212828476364 
2416	 0.145150672324236 
2417	 0.145146897043739 
2418	 0.145127941439999 
2419	 0.145180831817756 
2420	 0.145112231752634 
2421	 0.144912312351509 
2422	 0.144784549097498 
2423	 0.144665714407081 
2424	 0.144587013110953 
2425	 0.144583100104049 
2426	 0.144502150157451 
2427	 0.144362095410777 
2428	 0.144241934962645 
2429	 0.144117809673857 
2430	 0.143981416683962 
2431	 0.143834281725818 
2432	 0.143727928635616 
2433	 0.143652521755938 
2434	 0.143525878098763 
2435	 0.143399386148942 
2436	 0.143280389410292 
2437	 0.143067349940115 
2438	 0.142951798188428 
2439	 0.142938567965859 
2440	 0.142905844087878 
2441	 0.14294776591415 
2442	 0.142880695292644 
2443	 0.142742415990238 
2444	 0.142589920665107 
2445	 0.142320470993437 
2446	 0.142143467099852 
2447	 0.142046772583041 
2448	 0.141932953684733 
2449	 0.141872769655918 
2450	 0.14176629086606 
2451	 0.141586501867713 
2452	 0.141459359832644 
2453	 0.141349694439421 
2454	 0.141213655671453 
2455	 0.141049830912753 
2456	 0.141016446539609 
2457	 0.141053975451465 
2458	 0.141015282347338 
2459	 0.141096078444106 
2460	 0.140996688664261 
2461	 0.140652231403378 
2462	 0.140548911857281 
2463	 0.140570484205506 
2464	 0.140528241688093 
2465	 0.140533156199741 
2466	 0.140506099596471 
2467	 0.140411981003341 
2468	 0.14023488036852 
2469	 0.140018804467238 
2470	 0.139848245883953 
2471	 0.139786920530945 
2472	 0.139788211885947 
2473	 0.139781279907008 
2474	 0.139683730659517 
2475	 0.139515612571845 
2476	 0.139306145510865 
2477	 0.139119200796557 
2478	 0.139117972561942 
2479	 0.139173928188062 
2480	 0.139097906719829 
2481	 0.139049686872011 
2482	 0.138962692522359 
2483	 0.138677717699614 
2484	 0.13859495095121 
2485	 0.138625615926288 
2486	 0.1383498857738 
2487	 0.138133137205959 
2488	 0.138139620737502 
2489	 0.13815137113307 
2490	 0.138313429565362 
2491	 0.138481967245403 
2492	 0.138383032991814 
2493	 0.138204310714465 
2494	 0.138054785930641 
2495	 0.138035226958422 
2496	 0.138016095026945 
2497	 0.137836901067186 
2498	 0.137644866715989 
2499	 0.137459523720555 
2500	 0.137607339757116 
