Wavelength	MM700006.asd
350	 6.77721004488681E-02 
351	 0.071669827661083 
352	 6.82257166268127E-02 
353	 6.16499688003794E-02 
354	 6.30525546151118E-02 
355	 5.98507153618267E-02 
356	 5.66170231953517E-02 
357	 5.87125696978467E-02 
358	 5.78170496898664E-02 
359	 5.89174300480073E-02 
360	 6.17001528926764E-02 
361	 0.062335336663663 
362	 6.03667293969843E-02 
363	 5.83858338329394E-02 
364	 5.82111380424502E-02 
365	 6.01963955361044E-02 
366	 6.05536809483697E-02 
367	 6.05431272308915E-02 
368	 6.21392639285468E-02 
369	 6.44262978611305E-02 
370	 0.06445545556506 
371	 6.32491952571264E-02 
372	 6.42534047398408E-02 
373	 6.55527901078998E-02 
374	 6.60565871540613E-02 
375	 6.58138253465001E-02 
376	 6.66701931212076E-02 
377	 6.58887067701229E-02 
378	 6.55828405295283E-02 
379	 6.75384587820341E-02 
380	 6.58586701415872E-02 
381	 6.43740522110947E-02 
382	 6.51733262594596E-02 
383	 6.83335510603126E-02 
384	 7.01338585446016E-02 
385	 6.86601138479503E-02 
386	 6.55536885491908E-02 
387	 6.86239409724314E-02 
388	 6.85873014351183E-02 
389	 6.74688419140546E-02 
390	 0.069305741484862 
391	 6.91123092629012E-02 
392	 7.04189203067571E-02 
393	 7.27651186025252E-02 
394	 7.23719148966447E-02 
395	 7.21953296979503E-02 
396	 7.28738061280702E-02 
397	 7.41619980823946E-02 
398	 7.49709341234468E-02 
399	 7.45796653496868E-02 
400	 7.48967221406565E-02 
401	 7.75010897833021E-02 
402	 7.63504187460301E-02 
403	 7.56018057878583E-02 
404	 7.67936932399126E-02 
405	 7.81518970280697E-02 
406	 7.75589949370015E-02 
407	 7.78652977064304E-02 
408	 8.02823597004663E-02 
409	 7.92538927045261E-02 
410	 7.81997711517334E-02 
411	 7.86091081688165E-02 
412	 8.05642566948915E-02 
413	 8.15151544745738E-02 
414	 8.14245578194636E-02 
415	 8.09757134750157E-02 
416	 8.13787586878438E-02 
417	 8.15085367821143E-02 
418	 8.18240737561591E-02 
419	 8.26347084865368E-02 
420	 0.082451394730603 
421	 8.21931852800276E-02 
422	 0.082292708651923 
423	 8.27733017674226E-02 
424	 8.32527815792223E-02 
425	 0.083285859591391 
426	 8.29471617669661E-02 
427	 8.32504219617855E-02 
428	 0.08316044337808 
429	 8.30262237352049E-02 
430	 0.083403979465445 
431	 8.36530982538719E-02 
432	 8.33572278827934E-02 
433	 8.27813342721272E-02 
434	 8.27734449668425E-02 
435	 8.30311538634124E-02 
436	 8.30565890555505E-02 
437	 8.26595443427793E-02 
438	 8.24938406011072E-02 
439	 8.26003215385476E-02 
440	 8.29348383810552E-02 
441	 0.083355552269988 
442	 8.34502999192794E-02 
443	 8.36958964009332E-02 
444	 8.41188777505228E-02 
445	 8.39179178590865E-02 
446	 8.42099568792655E-02 
447	 8.46554236394956E-02 
448	 8.47623351117179E-02 
449	 8.53203090748923E-02 
450	 8.57461854480805E-02 
451	 8.58670757949429E-02 
452	 8.59148302117566E-02 
453	 8.63052816654206E-02 
454	 8.67394637273274E-02 
455	 8.69548866635299E-02 
456	 8.70896748428412E-02 
457	 8.73572004467106E-02 
458	 8.75014013018742E-02 
459	 8.72336283619491E-02 
460	 8.77796959121267E-02 
461	 8.82340843498437E-02 
462	 0.088226567121242 
463	 8.83956292165679E-02 
464	 8.86283080083298E-02 
465	 8.88477092315992E-02 
466	 8.89845889142861E-02 
467	 8.90106668455021E-02 
468	 8.91073317181435E-02 
469	 8.91713488616817E-02 
470	 8.89232420734769E-02 
471	 8.91791173603478E-02 
472	 8.94108140306955E-02 
473	 8.92763960424924E-02 
474	 0.089412226248906 
475	 8.95598731612131E-02 
476	 8.96408491301901E-02 
477	 8.96710120295987E-02 
478	 8.98215338019815E-02 
479	 8.99575085392076E-02 
480	 9.00028830393425E-02 
481	 8.99907809224522E-02 
482	 9.02856855421583E-02 
483	 9.06322262141725E-02 
484	 9.07068481541116E-02 
485	 9.06692075156659E-02 
486	 0.090654469112106 
487	 9.07039490646221E-02 
488	 9.07757270770645E-02 
489	 9.08315426228426E-02 
490	 9.08738344812236E-02 
491	 9.09447333166124E-02 
492	 9.11924751449144E-02 
493	 9.12594892559012E-02 
494	 0.091172583474998 
495	 9.11501665157257E-02 
496	 9.13055909379195E-02 
497	 0.091457044168171 
498	 9.15424393444791E-02 
499	 9.17280549886327E-02 
500	 9.17355973763112E-02 
501	 9.17434289590264E-02 
502	 9.19360758118326E-02 
503	 0.091902580333977 
504	 9.18450927166886E-02 
505	 9.18895843601784E-02 
506	 9.20614392888735E-02 
507	 9.21720352204995E-02 
508	 9.22878565275771E-02 
509	 9.24528499858714E-02 
510	 0.09251592563963 
511	 9.24823093762601E-02 
512	 9.24559404652486E-02 
513	 9.25623131354786E-02 
514	 9.25797975680013E-02 
515	 9.26032860642571E-02 
516	 9.26878637068607E-02 
517	 9.27651534192777E-02 
518	 9.27919801325126E-02 
519	 9.28140983507414E-02 
520	 0.092893096137879 
521	 9.29904819042057E-02 
522	 9.31147290095458E-02 
523	 9.32144236094634E-02 
524	 9.31792384247027E-02 
525	 9.32513348747503E-02 
526	 9.33506462422092E-02 
527	 9.33925595325388E-02 
528	 9.35360295219212E-02 
529	 9.35920777414125E-02 
530	 9.36047112566141E-02 
531	 9.37490018283182E-02 
532	 9.37902537309626E-02 
533	 9.38471834371285E-02 
534	 9.39917393093767E-02 
535	 9.41017787154682E-02 
536	 9.41700007010531E-02 
537	 0.094236008391132 
538	 0.094350548159517 
539	 0.094472525323357 
540	 9.45705327178286E-02 
541	 9.46578168994104E-02 
542	 0.094805471357454 
543	 9.49096548061957E-02 
544	 0.095010347375003 
545	 9.51580367866514E-02 
546	 9.52833025932146E-02 
547	 9.53703720155307E-02 
548	 9.54847050275039E-02 
549	 9.57432478609919E-02 
550	 9.59083918098144E-02 
551	 9.60344505960717E-02 
552	 9.62093205203025E-02 
553	 9.64760913427265E-02 
554	 9.66395210138375E-02 
555	 9.67638605108532E-02 
556	 9.70272015852573E-02 
557	 9.72670230850057E-02 
558	 9.74924054280583E-02 
559	 9.77334759759466E-02 
560	 0.098028853481144 
561	 9.82587628483256E-02 
562	 0.098509717407018 
563	 9.89098225543881E-02 
564	 9.93912632537615E-02 
565	 0.099873607882382 
566	 0.100321387864613 
567	 0.100751663318587 
568	 0.101206595873356 
569	 0.101686351256719 
570	 0.10217938892752 
571	 0.102678572539463 
572	 0.103195685556083 
573	 0.103716853300023 
574	 0.104213838612513 
575	 0.104703062626203 
576	 0.105302415796284 
577	 0.106029676349408 
578	 0.106648232930126 
579	 0.107336619088491 
580	 0.108034776963413 
581	 0.108618759487208 
582	 0.109243606492287 
583	 0.10996886123849 
584	 0.110813352266795 
585	 0.111758159026023 
586	 0.112724012566735 
587	 0.113702363204573 
588	 0.114692193942092 
589	 0.115614791307739 
590	 0.116576176580636 
591	 0.117584667810174 
592	 0.11855530769302 
593	 0.119416191686444 
594	 0.12021283421238 
595	 0.120988696570232 
596	 0.121691887581788 
597	 0.122502786954078 
598	 0.123413708979784 
599	 0.124318145287612 
600	 0.125219743832193 
601	 0.12616811616361 
602	 0.127151838440932 
603	 0.128044483671728 
604	 0.128891627886261 
605	 0.129743858381138 
606	 0.13062996180731 
607	 0.131427929160847 
608	 0.132204285559232 
609	 0.133008483706075 
610	 0.133856518532822 
611	 0.134575139370889 
612	 0.135274104606271 
613	 0.136040893999883 
614	 0.136652248796306 
615	 0.137184687037427 
616	 0.137723808495734 
617	 0.138342732177205 
618	 0.138916751648659 
619	 0.139380484069923 
620	 0.139757042097233 
621	 0.140230405248782 
622	 0.140713988806572 
623	 0.141159832208293 
624	 0.141548640919982 
625	 0.141977879348063 
626	 0.142381064425718 
627	 0.142736028897789 
628	 0.143095128820487 
629	 0.143489271070379 
630	 0.143883974734277 
631	 0.144229928824391 
632	 0.144487590989121 
633	 0.1448223500689 
634	 0.145207504898459 
635	 0.145469012371638 
636	 0.145776294894265 
637	 0.14610809177981 
638	 0.146421907468735 
639	 0.146702527954866 
640	 0.147010523904043 
641	 0.147336771235657 
642	 0.147644807195287 
643	 0.147973054881846 
644	 0.148290303757057 
645	 0.148592830079617 
646	 0.148926271767938 
647	 0.149217728902777 
648	 0.149498331385826 
649	 0.149818112763891 
650	 0.150168004186517 
651	 0.15052570000958 
652	 0.150876948262412 
653	 0.151218264171795 
654	 0.151581586933026 
655	 0.151944015079227 
656	 0.152302461277747 
657	 0.152736443557401 
658	 0.153125590717796 
659	 0.153475074323674 
660	 0.153848201648886 
661	 0.154243469180896 
662	 0.154675646392718 
663	 0.155126228187145 
664	 0.155527836612743 
665	 0.15594490580713 
666	 0.156405757247531 
667	 0.156905784426435 
668	 0.157350328906809 
669	 0.157807500115953 
670	 0.158300692560357 
671	 0.15880876231481 
672	 0.159295271387204 
673	 0.159808772377765 
674	 0.160368780664946 
675	 0.160889085533851 
676	 0.161420577150523 
677	 0.161947487431781 
678	 0.162442831704827 
679	 0.162994064106469 
680	 0.163622275405579 
681	 0.164300137931698 
682	 0.164948991442628 
683	 0.165550258912406 
684	 0.166148161754662 
685	 0.166784671626231 
686	 0.167414052722495 
687	 0.168106206690992 
688	 0.168823747989326 
689	 0.169465114443916 
690	 0.17014167383227 
691	 0.170831372614871 
692	 0.171518916688631 
693	 0.172239819560643 
694	 0.173014390151148 
695	 0.173779880090638 
696	 0.174473621684104 
697	 0.175211721258663 
698	 0.176004331241107 
699	 0.176806540839489 
700	 0.177527923844916 
701	 0.17830666498731 
702	 0.179096795709142 
703	 0.179856543442703 
704	 0.180677013267141 
705	 0.181494478090234 
706	 0.182268000541667 
707	 0.182988464088578 
708	 0.18379591953552 
709	 0.18462336501189 
710	 0.185419798167029 
711	 0.186193489970361 
712	 0.186967091550027 
713	 0.187761053906478 
714	 0.188566518201452 
715	 0.189266319635397 
716	 0.189955663292332 
717	 0.19068848205355 
718	 0.191474376224204 
719	 0.192256068016039 
720	 0.19295344964435 
721	 0.193565176548107 
722	 0.194239630543606 
723	 0.194950476540811 
724	 0.195610223459527 
725	 0.196147395565562 
726	 0.196693071636478 
727	 0.197246815226358 
728	 0.19779770596421 
729	 0.198329963232254 
730	 0.198845475541261 
731	 0.199304951361273 
732	 0.19970691326439 
733	 0.200160730730651 
734	 0.200545064835689 
735	 0.2008753625219 
736	 0.20121056061396 
737	 0.201496170134772 
738	 0.201772284110145 
739	 0.202026403453229 
740	 0.202184613468617 
741	 0.20229740900331 
742	 0.202400653353206 
743	 0.202510115984079 
744	 0.202605575325133 
745	 0.202619655772666 
746	 0.202592732190977 
747	 0.202597487189241 
748	 0.202525958846083 
749	 0.202405673815277 
750	 0.202260518449287 
751	 0.202094873566939 
752	 0.201931293043632 
753	 0.201717598738897 
754	 0.201440411712404 
755	 0.201258887269577 
756	 0.201000342549035 
757	 0.200657994241721 
758	 0.200308834103389 
759	 0.199942488792596 
760	 0.199562733957687 
761	 0.199177789108469 
762	 0.198799759242732 
763	 0.198331197856622 
764	 0.19786763200503 
765	 0.197475421105783 
766	 0.196994975148578 
767	 0.196518020091372 
768	 0.19604690892121 
769	 0.195548763249387 
770	 0.195089649175645 
771	 0.194586753057467 
772	 0.194023005044743 
773	 0.193473554925402 
774	 0.192931075802032 
775	 0.192392244749044 
776	 0.191853128601763 
777	 0.19131227203162 
778	 0.190750362442115 
779	 0.190193631266895 
780	 0.189670034115497 
781	 0.189076661554794 
782	 0.188506580483305 
783	 0.187982305219824 
784	 0.187438640393053 
785	 0.186875613841964 
786	 0.186300232093192 
787	 0.185727307670364 
788	 0.185180891896258 
789	 0.184655368872571 
790	 0.18414621388569 
791	 0.183644317702716 
792	 0.183132486888978 
793	 0.182564918734684 
794	 0.181978401074739 
795	 0.181475268196011 
796	 0.181021992555354 
797	 0.180545681012442 
798	 0.18002235691999 
799	 0.179526781960906 
800	 0.179031300382732 
801	 0.178534596406358 
802	 0.178050806354666 
803	 0.177630132787827 
804	 0.177185453054616 
805	 0.176702633810771 
806	 0.176223128128401 
807	 0.17579862110701 
808	 0.175388326843392 
809	 0.174964324924126 
810	 0.174530759185589 
811	 0.174164412731179 
812	 0.173767986992803 
813	 0.17329273141751 
814	 0.172929817113616 
815	 0.172572161312797 
816	 0.17221507806077 
817	 0.171884007204273 
818	 0.171539167946075 
819	 0.171183665875648 
820	 0.170817287129587 
821	 0.170441807204737 
822	 0.170131810774138 
823	 0.169847544906635 
824	 0.169554622711764 
825	 0.16925771117323 
826	 0.169013833555078 
827	 0.168785130207041 
828	 0.168522994852215 
829	 0.168233616503334 
830	 0.167931814417691 
831	 0.167671151956224 
832	 0.167489224523295 
833	 0.167223929940858 
834	 0.166965312339438 
835	 0.166753359321827 
836	 0.166559325332597 
837	 0.166329390607735 
838	 0.16612388994756 
839	 0.165979922623947 
840	 0.165864188418966 
841	 0.165693915897226 
842	 0.165462879970517 
843	 0.165228139436234 
844	 0.165165185504587 
845	 0.165050839707167 
846	 0.164901662840305 
847	 0.164820590787628 
848	 0.164689642969416 
849	 0.164568583134651 
850	 0.164476530816556 
851	 0.164390108687808 
852	 0.164323794346761 
853	 0.164264490020435 
854	 0.164194514085672 
855	 0.164096854218621 
856	 0.164042708378563 
857	 0.164011142082508 
858	 0.163974386530292 
859	 0.163947830795878 
860	 0.163932536634771 
861	 0.163924845139619 
862	 0.163927243601678 
863	 0.163979693065326 
864	 0.164022243901026 
865	 0.164039205535889 
866	 0.164044363438817 
867	 0.164022229962957 
868	 0.164019038071527 
869	 0.164057633822214 
870	 0.164127864104352 
871	 0.164197727180669 
872	 0.16426340896875 
873	 0.164348703146474 
874	 0.164509612560235 
875	 0.164604906044489 
876	 0.164653789375688 
877	 0.164706999367092 
878	 0.164772347489639 
879	 0.164917788611872 
880	 0.165094776056203 
881	 0.1652267472701 
882	 0.165311233575779 
883	 0.165469500201967 
884	 0.165685934220052 
885	 0.165876839087765 
886	 0.166089137415723 
887	 0.166271383003291 
888	 0.166425751141546 
889	 0.166604009260062 
890	 0.166815601393725 
891	 0.167031705903555 
892	 0.167243636717801 
893	 0.167476083237361 
894	 0.16778222384559 
895	 0.16805464982403 
896	 0.168256377456217 
897	 0.168530176921726 
898	 0.168815577654383 
899	 0.169127209673725 
900	 0.169465296007562 
901	 0.169745643313169 
902	 0.170027228020731 
903	 0.170326996074916 
904	 0.170642162962194 
905	 0.170945131865167 
906	 0.171322998944952 
907	 0.171725304942415 
908	 0.172074898436918 
909	 0.172537097139215 
910	 0.172925494056438 
911	 0.173251385834453 
912	 0.173655011032949 
913	 0.174113022197028 
914	 0.174507926415105 
915	 0.174833427860221 
916	 0.175199764202584 
917	 0.175731414276023 
918	 0.176284762761458 
919	 0.176767168799133 
920	 0.177201032460983 
921	 0.177738165416668 
922	 0.178292522999386 
923	 0.178796567729019 
924	 0.179279619123013 
925	 0.179797526340502 
926	 0.180338076291982 
927	 0.180884344288414 
928	 0.181439439413895 
929	 0.182055045309272 
930	 0.182685912310144 
931	 0.183291464081619 
932	 0.183903514325184 
933	 0.184542741335536 
934	 0.18519939448535 
935	 0.185859259952426 
936	 0.186539186167699 
937	 0.187069126438375 
938	 0.187647627466525 
939	 0.18846239473261 
940	 0.189221367322965 
941	 0.189987563042037 
942	 0.190770775376099 
943	 0.191552225893095 
944	 0.192274752575569 
945	 0.192972802814519 
946	 0.193703931938619 
947	 0.194507506082513 
948	 0.195315672752458 
949	 0.196131076928439 
950	 0.196906225413039 
951	 0.197632323753799 
952	 0.198591184432561 
953	 0.199511423431738 
954	 0.200357358967023 
955	 0.201239227994152 
956	 0.202154562944142 
957	 0.203155550265567 
958	 0.204087700422382 
959	 0.204785029241161 
960	 0.2057200686468 
961	 0.20670352865007 
962	 0.207697678364555 
963	 0.208747984249558 
964	 0.209620750594967 
965	 0.210580882533267 
966	 0.211642838164634 
967	 0.212654177586929 
968	 0.213700533137493 
969	 0.214725450991623 
970	 0.215786092399438 
971	 0.216953721250738 
972	 0.217908895598219 
973	 0.218875169951095 
974	 0.219953078976862 
975	 0.221102912902122 
976	 0.222187477737065 
977	 0.223375778794212 
978	 0.224569403822125 
979	 0.225583787916099 
980	 0.226850254619232 
981	 0.228069868448142 
982	 0.229209598410833 
983	 0.230400440795813 
984	 0.231520494269577 
985	 0.232690431147046 
986	 0.233852670697086 
987	 0.234908186627801 
988	 0.236118018899069 
989	 0.237298776781484 
990	 0.238455049034542 
991	 0.239695282966205 
992	 0.241088949732509 
993	 0.242224831131216 
994	 0.243301410556248 
995	 0.244637960812951 
996	 0.245791047304947 
997	 0.247010374226098 
998	 0.248217144861987 
999	 0.249322996335924 
1000	 0.250683467600459 
1001	 0.255768483201019 
1002	 0.256950359275594 
1003	 0.258190394635558 
1004	 0.259414835355544 
1005	 0.260699015719669 
1006	 0.261885370184798 
1007	 0.263020258983786 
1008	 0.264175230642575 
1009	 0.265272843913833 
1010	 0.266378278041182 
1011	 0.26757974490905 
1012	 0.268701000047998 
1013	 0.269772759989879 
1014	 0.27090400707877 
1015	 0.272037947638202 
1016	 0.273134006234256 
1017	 0.274229254671292 
1018	 0.275334330973018 
1019	 0.276423921660844 
1020	 0.277456712336257 
1021	 0.278489794024171 
1022	 0.279540322727015 
1023	 0.280560188022459 
1024	 0.281583986355881 
1025	 0.282644543882149 
1026	 0.283661536377548 
1027	 0.284675925114019 
1028	 0.285756542294996 
1029	 0.286776298198396 
1030	 0.287778325456018 
1031	 0.28879568495193 
1032	 0.289824340970192 
1033	 0.290808491644506 
1034	 0.291826309273776 
1035	 0.292800595605229 
1036	 0.293776656611743 
1037	 0.294762070980449 
1038	 0.295705896275568 
1039	 0.296759730868101 
1040	 0.297815243787829 
1041	 0.298787892639413 
1042	 0.299791085702699 
1043	 0.300797661754684 
1044	 0.301805261520146 
1045	 0.30280901886545 
1046	 0.303853844162689 
1047	 0.304856532618736 
1048	 0.30582502510251 
1049	 0.306803909480531 
1050	 0.307758049401115 
1051	 0.308732818058392 
1052	 0.309703994211991 
1053	 0.310632462881945 
1054	 0.311570995971006 
1055	 0.312535864301075 
1056	 0.313511509307257 
1057	 0.314442324098798 
1058	 0.315365810457109 
1059	 0.316261685964388 
1060	 0.317130221237467 
1061	 0.317933383447687 
1062	 0.318753376512963 
1063	 0.319576892128552 
1064	 0.320377249675042 
1065	 0.321222376380217 
1066	 0.322056920055339 
1067	 0.322892245659963 
1068	 0.323738757786576 
1069	 0.324517012613805 
1070	 0.325317500997318 
1071	 0.326146335497194 
1072	 0.326907017289491 
1073	 0.327635092582795 
1074	 0.328367264624404 
1075	 0.329052215156184 
1076	 0.329719267186896 
1077	 0.33048588044034 
1078	 0.331203265038484 
1079	 0.331857492687654 
1080	 0.33255960140853 
1081	 0.333276210003398 
1082	 0.333965521478696 
1083	 0.334666764763189 
1084	 0.335422565284873 
1085	 0.336138350138101 
1086	 0.336779123787338 
1087	 0.337498218861042 
1088	 0.33825685075939 
1089	 0.339018420132171 
1090	 0.339774999449674 
1091	 0.340545002954001 
1092	 0.341294429220033 
1093	 0.342029909397076 
1094	 0.342798446273707 
1095	 0.343571568071786 
1096	 0.344372643275758 
1097	 0.345194663352254 
1098	 0.345985636049926 
1099	 0.346738559638119 
1100	 0.34755752670796 
1101	 0.34837372329137 
1102	 0.349226000185473 
1103	 0.350130025717015 
1104	 0.351052162704321 
1105	 0.351947908834395 
1106	 0.352881821222608 
1107	 0.353824493545378 
1108	 0.354772504238588 
1109	 0.355758344311356 
1110	 0.3567258018688 
1111	 0.357721831200581 
1112	 0.358729339649789 
1113	 0.359762011253797 
1114	 0.360820852285986 
1115	 0.361893202563402 
1116	 0.362999774615112 
1117	 0.364096629453636 
1118	 0.365215618753151 
1119	 0.366283559896953 
1120	 0.367388067870718 
1121	 0.368503036796174 
1122	 0.369616497696951 
1123	 0.370753610079955 
1124	 0.371876609071949 
1125	 0.372980830282094 
1126	 0.374120093102399 
1127	 0.375283920347247 
1128	 0.37642703858654 
1129	 0.377577213947741 
1130	 0.378725274242791 
1131	 0.379852479467072 
1132	 0.380997680525419 
1133	 0.382165939631628 
1134	 0.383320483201518 
1135	 0.384470074635301 
1136	 0.385623437815883 
1137	 0.38676001314812 
1138	 0.387871443779891 
1139	 0.389005146312796 
1140	 0.390142839972944 
1141	 0.39126680288323 
1142	 0.392419711670877 
1143	 0.393515277165904 
1144	 0.394552715820452 
1145	 0.395625463416565 
1146	 0.396688641192694 
1147	 0.397750870774296 
1148	 0.398853635607676 
1149	 0.399911900642409 
1150	 0.40094575316263 
1151	 0.401949515385832 
1152	 0.402957900118108 
1153	 0.403951859358465 
1154	 0.40495210638197 
1155	 0.405965867073977 
1156	 0.406944197207341 
1157	 0.407906492585805 
1158	 0.408865552314844 
1159	 0.409804010647222 
1160	 0.410746170158245 
1161	 0.411703401995461 
1162	 0.412628578821343 
1163	 0.413543606834453 
1164	 0.414435993355721 
1165	 0.41530136002056 
1166	 0.416157061440358 
1167	 0.417020483393786 
1168	 0.41789042813989 
1169	 0.418740579444309 
1170	 0.419603329607945 
1171	 0.420428142396291 
1172	 0.42121815960041 
1173	 0.422018625626952 
1174	 0.422812553581938 
1175	 0.42359766141859 
1176	 0.424378661582576 
1177	 0.42515432965836 
1178	 0.425923602367022 
1179	 0.426682693228072 
1180	 0.427446708710026 
1181	 0.428188711008188 
1182	 0.428903635759238 
1183	 0.429623262962178 
1184	 0.430342065856694 
1185	 0.431066488548119 
1186	 0.431752453345503 
1187	 0.432429224343904 
1188	 0.43309163840667 
1189	 0.43372761193111 
1190	 0.434348986551037 
1191	 0.434952515486677 
1192	 0.435565674103114 
1193	 0.436163060820759 
1194	 0.436758216685338 
1195	 0.437353526574272 
1196	 0.437959273810659 
1197	 0.438566102684338 
1198	 0.439161549031892 
1199	 0.439757032603923 
1200	 0.440378058313516 
1201	 0.44095242662033 
1202	 0.441497297272306 
1203	 0.442043648790458 
1204	 0.442577832600877 
1205	 0.443104312806789 
1206	 0.443627440227564 
1207	 0.444131605717299 
1208	 0.444615688126258 
1209	 0.445102891821833 
1210	 0.445590343367721 
1211	 0.446054988122577 
1212	 0.446499992824445 
1213	 0.446953043307888 
1214	 0.447383480469037 
1215	 0.447826168015974 
1216	 0.448276345457288 
1217	 0.448748089737901 
1218	 0.449195391143149 
1219	 0.449646195581858 
1220	 0.450069991828494 
1221	 0.450464878304591 
1222	 0.450883574789387 
1223	 0.451304253540941 
1224	 0.451711535511532 
1225	 0.452126458131366 
1226	 0.452532841211194 
1227	 0.452924522696235 
1228	 0.453310215804759 
1229	 0.453707194555847 
1230	 0.454082412583614 
1231	 0.454423768822943 
1232	 0.454777554347235 
1233	 0.455130698072823 
1234	 0.455482925625983 
1235	 0.455823968547562 
1236	 0.45616675974243 
1237	 0.456500471083342 
1238	 0.456827266785938 
1239	 0.457140599787128 
1240	 0.457444670341946 
1241	 0.457748882213669 
1242	 0.458030112550626 
1243	 0.458328945234771 
1244	 0.458645582841325 
1245	 0.458949297162688 
1246	 0.459256974665075 
1247	 0.459554117853255 
1248	 0.459841681342073 
1249	 0.460125038455843 
1250	 0.460410603625745 
1251	 0.460682461295439 
1252	 0.460944842742385 
1253	 0.46119823968735 
1254	 0.461446912361258 
1255	 0.461688129586726 
1256	 0.461918015541868 
1257	 0.462143159302393 
1258	 0.462358167192431 
1259	 0.462542734428283 
1260	 0.462752460760777 
1261	 0.462967560037662 
1262	 0.463184791177783 
1263	 0.46341399793491 
1264	 0.463644215154535 
1265	 0.463870968807521 
1266	 0.46410627796428 
1267	 0.464348122655069 
1268	 0.464591190913565 
1269	 0.464857758026421 
1270	 0.46515032975725 
1271	 0.465407497940326 
1272	 0.465673905022721 
1273	 0.465920657613081 
1274	 0.46610452914232 
1275	 0.466370732725973 
1276	 0.466679644357579 
1277	 0.466973444710591 
1278	 0.467314809025259 
1279	 0.46761774935239 
1280	 0.467904263983765 
1281	 0.468175942630324 
1282	 0.468452274234973 
1283	 0.468688181324536 
1284	 0.4688962077708 
1285	 0.469073735224696 
1286	 0.46924397121447 
1287	 0.469386187249954 
1288	 0.469505400859046 
1289	 0.469615274879725 
1290	 0.469685037194228 
1291	 0.469718755196676 
1292	 0.469726780181016 
1293	 0.469702023490923 
1294	 0.469665853534432 
1295	 0.469606553004789 
1296	 0.469520400222824 
1297	 0.469417063384885 
1298	 0.469284040113091 
1299	 0.469106898367427 
1300	 0.468932226773405 
1301	 0.468753497450905 
1302	 0.468545520275937 
1303	 0.468311849952642 
1304	 0.468070803848483 
1305	 0.467819035768949 
1306	 0.46755436155049 
1307	 0.467319883104839 
1308	 0.467082156747868 
1309	 0.466830782923923 
1310	 0.466558883576223 
1311	 0.466329918231213 
1312	 0.466103357483014 
1313	 0.465892132570275 
1314	 0.465701500342995 
1315	 0.465542588109813 
1316	 0.465391143942958 
1317	 0.465268800720151 
1318	 0.46518522703646 
1319	 0.46511473348691 
1320	 0.46505249110151 
1321	 0.465022193664859 
1322	 0.465028769897915 
1323	 0.465043619254072 
1324	 0.465079436022673 
1325	 0.465126432949384 
1326	 0.465186564564991 
1327	 0.465284780282221 
1328	 0.465389589714123 
1329	 0.465517465346306 
1330	 0.465691509142799 
1331	 0.465896328493498 
1332	 0.466127339127287 
1333	 0.466417815762676 
1334	 0.466685145490915 
1335	 0.466954447907841 
1336	 0.467243044794687 
1337	 0.467532537016375 
1338	 0.4678404231851 
1339	 0.468172687836073 
1340	 0.468507114038507 
1341	 0.46885617466326 
1342	 0.469205271009808 
1343	 0.46956242061479 
1344	 0.469918852015365 
1345	 0.470268364330918 
1346	 0.47063087485441 
1347	 0.470997590044612 
1348	 0.471370999834175 
1349	 0.471762758720369 
1350	 0.472150502874782 
1351	 0.472538965259261 
1352	 0.472937056217174 
1353	 0.473317522693285 
1354	 0.473703906067863 
1355	 0.474056589835111 
1356	 0.47438441074635 
1357	 0.474718376625533 
1358	 0.47502734394295 
1359	 0.475352519153546 
1360	 0.475689495178948 
1361	 0.476013348106141 
1362	 0.476340217834907 
1363	 0.476656353886433 
1364	 0.476963340721328 
1365	 0.477262665201357 
1366	 0.477557486419781 
1367	 0.477831279441844 
1368	 0.478106984985271 
1369	 0.478406268574374 
1370	 0.478700362897033 
1371	 0.478985597337594 
1372	 0.479239531054981 
1373	 0.479471287158757 
1374	 0.479694855376927 
1375	 0.479900121693861 
1376	 0.480085687384549 
1377	 0.480275933182941 
1378	 0.480416420569406 
1379	 0.480522434299871 
1380	 0.480604538832475 
1381	 0.48065306729479 
1382	 0.480680606070221 
1383	 0.48068071141636 
1384	 0.480662749743654 
1385	 0.480629969594758 
1386	 0.480564287560457 
1387	 0.480475227603638 
1388	 0.480360566251446 
1389	 0.480223876397307 
1390	 0.480046212210674 
1391	 0.479848617410976 
1392	 0.479618946677708 
1393	 0.479343487685827 
1394	 0.479059151563167 
1395	 0.47875962710414 
1396	 0.47842430935296 
1397	 0.4780860592971 
1398	 0.477727316826649 
1399	 0.477376688972676 
1400	 0.477013183406707 
1401	 0.476664693299268 
1402	 0.476318980664223 
1403	 0.475987878037965 
1404	 0.475664151338093 
1405	 0.475339976576354 
1406	 0.475040857820593 
1407	 0.47471371285468 
1408	 0.474359288434419 
1409	 0.474035483189462 
1410	 0.473687202782271 
1411	 0.473389389796813 
1412	 0.473109968984097 
1413	 0.472880106223883 
1414	 0.472700612428787 
1415	 0.472570007553213 
1416	 0.47249471281288 
1417	 0.472430807715282 
1418	 0.472377262862518 
1419	 0.472336891742339 
1420	 0.472303751481172 
1421	 0.472277871281087 
1422	 0.472240774573878 
1423	 0.472190528911411 
1424	 0.472117303030416 
1425	 0.472007001260787 
1426	 0.471928524025413 
1427	 0.471837672103058 
1428	 0.471771483110102 
1429	 0.471734406373086 
1430	 0.471680234466501 
1431	 0.471631106595747 
1432	 0.471576798565 
1433	 0.471525487977284 
1434	 0.471456671846116 
1435	 0.471367602572409 
1436	 0.471295670917342 
1437	 0.471202537697747 
1438	 0.471147699924166 
1439	 0.471133525001749 
1440	 0.471099783856121 
1441	 0.471063646239726 
1442	 0.471038365379475 
1443	 0.471000209822332 
1444	 0.470968006209863 
1445	 0.470967788535166 
1446	 0.470949864210984 
1447	 0.470917668884729 
1448	 0.470890564265897 
1449	 0.470850665940881 
1450	 0.470819357535091 
1451	 0.470796219080371 
1452	 0.470787335956591 
1453	 0.47076622096498 
1454	 0.470743187571884 
1455	 0.470720273013355 
1456	 0.470690165469281 
1457	 0.470668385453117 
1458	 0.470650149126836 
1459	 0.470642142329822 
1460	 0.47064049178227 
1461	 0.470638839480872 
1462	 0.470633332597125 
1463	 0.470649552895011 
1464	 0.47067245502146 
1465	 0.470708777072092 
1466	 0.470771713314127 
1467	 0.470835578075528 
1468	 0.47089341318212 
1469	 0.470972873005414 
1470	 0.471069069937624 
1471	 0.471176513430831 
1472	 0.471286433553807 
1473	 0.47140861990633 
1474	 0.471541999479231 
1475	 0.471662709506278 
1476	 0.471778002973573 
1477	 0.471910611257488 
1478	 0.472041527828899 
1479	 0.472168278551094 
1480	 0.472326798501828 
1481	 0.472503270352751 
1482	 0.472666210912885 
1483	 0.472832340417544 
1484	 0.473004562649775 
1485	 0.473171830898785 
1486	 0.473344681058734 
1487	 0.473534684287249 
1488	 0.47370413997133 
1489	 0.473858161512362 
1490	 0.474025906174988 
1491	 0.474195255009755 
1492	 0.474362306835331 
1493	 0.474540426251105 
1494	 0.474710642107081 
1495	 0.474866332651146 
1496	 0.475026408827343 
1497	 0.475203028553209 
1498	 0.475350787772592 
1499	 0.475473348644123 
1500	 0.475618800323351 
1501	 0.475760878198796 
1502	 0.475894687756978 
1503	 0.476033315877708 
1504	 0.476178240932387 
1505	 0.476314365414099 
1506	 0.476447926769942 
1507	 0.47659622038788 
1508	 0.476748137131435 
1509	 0.476871282623134 
1510	 0.476982954900666 
1511	 0.477102585575777 
1512	 0.477219525386235 
1513	 0.477355526617593 
1514	 0.477501093468686 
1515	 0.47762411273499 
1516	 0.477746119769554 
1517	 0.477856330013471 
1518	 0.477950729798334 
1519	 0.478040853643567 
1520	 0.478119139893727 
1521	 0.478210330614616 
1522	 0.478293523125989 
1523	 0.478390454911676 
1524	 0.478513322312229 
1525	 0.478603859986227 
1526	 0.478682305182917 
1527	 0.478757119997926 
1528	 0.478820121373644 
1529	 0.478881040467617 
1530	 0.478934242105124 
1531	 0.478994205248833 
1532	 0.47904245177989 
1533	 0.479105719010426 
1534	 0.479182490502485 
1535	 0.47925608635636 
1536	 0.47933793259911 
1537	 0.479414556082909 
1538	 0.479485565842202 
1539	 0.479564817943032 
1540	 0.479640104156201 
1541	 0.479726382259121 
1542	 0.479837625731235 
1543	 0.47992747209616 
1544	 0.480014041346625 
1545	 0.480096065118538 
1546	 0.480176544450462 
1547	 0.480213419063661 
1548	 0.480286640128281 
1549	 0.480392319269692 
1550	 0.480491972952184 
1551	 0.480617073113876 
1552	 0.480734125405036 
1553	 0.480807608154393 
1554	 0.480870153787353 
1555	 0.48094339536014 
1556	 0.480993458052018 
1557	 0.481041870699528 
1558	 0.481111308466525 
1559	 0.481173215478651 
1560	 0.481241773679246 
1561	 0.481332855539066 
1562	 0.481392249769119 
1563	 0.481430482310604 
1564	 0.481482898786849 
1565	 0.481521835057245 
1566	 0.481588271338714 
1567	 0.481677359259152 
1568	 0.481753340237001 
1569	 0.48183673213747 
1570	 0.481908247574221 
1571	 0.481969490277624 
1572	 0.48203915195995 
1573	 0.482112455133947 
1574	 0.482181646977334 
1575	 0.482248868371925 
1576	 0.482315586952415 
1577	 0.482388612459572 
1578	 0.48244486370112 
1579	 0.482489403831152 
1580	 0.482535940701371 
1581	 0.48257062105345 
1582	 0.482609701742813 
1583	 0.482648112454486 
1584	 0.482697965372956 
1585	 0.482754995896249 
1586	 0.48280448801107 
1587	 0.482844703761813 
1588	 0.482914570783817 
1589	 0.483001928909104 
1590	 0.483073863244138 
1591	 0.483162148437423 
1592	 0.48325088838866 
1593	 0.483319281783808 
1594	 0.483399727825197 
1595	 0.483500452368029 
1596	 0.483593747033317 
1597	 0.483701060948929 
1598	 0.483776601285494 
1599	 0.48383508520927 
1600	 0.483890930346595 
1601	 0.483922904722466 
1602	 0.483950645533166 
1603	 0.483976870722209 
1604	 0.484001369045405 
1605	 0.483996384542415 
1606	 0.484017030057645 
1607	 0.484051081383038 
1608	 0.48410250301038 
1609	 0.484142392782215 
1610	 0.484178579046813 
1611	 0.484223547971041 
1612	 0.484264863675901 
1613	 0.484313967827873 
1614	 0.484394624598879 
1615	 0.484451652752117 
1616	 0.484503343853717 
1617	 0.484559889900252 
1618	 0.48461140869306 
1619	 0.484707766531904 
1620	 0.484786594529117 
1621	 0.484869248482669 
1622	 0.484972535595545 
1623	 0.485044270582677 
1624	 0.48509919718182 
1625	 0.485145490925329 
1626	 0.485170783496215 
1627	 0.485220291172206 
1628	 0.485266212425852 
1629	 0.48531918735466 
1630	 0.485395369123053 
1631	 0.485448113392248 
1632	 0.485481006592727 
1633	 0.485536440472647 
1634	 0.485603639103138 
1635	 0.485650676675944 
1636	 0.485694600377568 
1637	 0.48574559526506 
1638	 0.485794511372492 
1639	 0.485824653547346 
1640	 0.485853601891719 
1641	 0.485886545187502 
1642	 0.485891346795374 
1643	 0.485926501226588 
1644	 0.485986749140062 
1645	 0.4860430286277 
1646	 0.486101854444012 
1647	 0.486163203805849 
1648	 0.486231078993389 
1649	 0.486306189039932 
1650	 0.486385995977366 
1651	 0.486463011784365 
1652	 0.486546646820422 
1653	 0.486632243970043 
1654	 0.486721959856821 
1655	 0.486796148644598 
1656	 0.486876692652978 
1657	 0.486936744931783 
1658	 0.48697215631515 
1659	 0.487012376841834 
1660	 0.487046771484568 
1661	 0.487081183877529 
1662	 0.487122617663103 
1663	 0.487133788581285 
1664	 0.48712099446879 
1665	 0.487126760669945 
1666	 0.487109025639221 
1667	 0.487121699584496 
1668	 0.487163012142903 
1669	 0.487199444177378 
1670	 0.487233596874248 
1671	 0.48728851780043 
1672	 0.487362972799067 
1673	 0.487431062418989 
1674	 0.487527268287151 
1675	 0.487580741811957 
1676	 0.487603370073353 
1677	 0.487645805384928 
1678	 0.487659501764282 
1679	 0.48771538835483 
1680	 0.487821568888576 
1681	 0.48788119378168 
1682	 0.487934861194238 
1683	 0.487985874755494 
1684	 0.488006335902453 
1685	 0.488050311150315 
1686	 0.488109099092074 
1687	 0.488167475844607 
1688	 0.488228831587632 
1689	 0.48828865130738 
1690	 0.488358789048597 
1691	 0.488416698171526 
1692	 0.488456707861889 
1693	 0.488518921464848 
1694	 0.488593279965727 
1695	 0.488657139669829 
1696	 0.488729395275529 
1697	 0.488796564070675 
1698	 0.488856309162253 
1699	 0.488909231621925 
1700	 0.488973927680247 
1701	 0.489006277797671 
1702	 0.48901073583002 
1703	 0.489018091558765 
1704	 0.488994783360262 
1705	 0.489011690728503 
1706	 0.489048169145033 
1707	 0.489075094806209 
1708	 0.489115290082462 
1709	 0.489155797908733 
1710	 0.489174548524604 
1711	 0.489237676273886 
1712	 0.489347633269313 
1713	 0.48941659075937 
1714	 0.489484816878397 
1715	 0.489555742910442 
1716	 0.489604156919787 
1717	 0.489671203752371 
1718	 0.489766264101284 
1719	 0.489831939213199 
1720	 0.48990654155647 
1721	 0.489922954016322 
1722	 0.489905163216728 
1723	 0.489876460923729 
1724	 0.489789597444002 
1725	 0.489739592876389 
1726	 0.489705281217372 
1727	 0.489656639444737 
1728	 0.48960323257218 
1729	 0.489549665998888 
1730	 0.489483858345517 
1731	 0.489427974043927 
1732	 0.489369483617002 
1733	 0.489347973016501 
1734	 0.489349651472891 
1735	 0.489338925952242 
1736	 0.489352650317074 
1737	 0.489342705209218 
1738	 0.489308944331856 
1739	 0.489295352454525 
1740	 0.48929958263109 
1741	 0.489272930827767 
1742	 0.489237858251483 
1743	 0.489196730915867 
1744	 0.489132593365801 
1745	 0.489084031676754 
1746	 0.489028932999594 
1747	 0.488978737144303 
1748	 0.488965482570632 
1749	 0.488961098232445 
1750	 0.488974421468317 
1751	 0.488989037454134 
1752	 0.488992872729675 
1753	 0.488988998914274 
1754	 0.488975102147011 
1755	 0.488954262840411 
1756	 0.488941298837785 
1757	 0.488931334272247 
1758	 0.488935901481325 
1759	 0.488950507659453 
1760	 0.488951933141964 
1761	 0.48895401223814 
1762	 0.488968822683964 
1763	 0.488988352889664 
1764	 0.489007747100067 
1765	 0.489029524055528 
1766	 0.489035261132709 
1767	 0.489028846246834 
1768	 0.489039753937894 
1769	 0.489061895123197 
1770	 0.489079000279009 
1771	 0.489119077332721 
1772	 0.489159652109611 
1773	 0.489153348016126 
1774	 0.489173152054681 
1775	 0.489220843129748 
1776	 0.489218588310797 
1777	 0.489230774408509 
1778	 0.489241521709398 
1779	 0.489176579287135 
1780	 0.489128187859555 
1781	 0.489100717755004 
1782	 0.489089704182111 
1783	 0.489138677100872 
1784	 0.489169721496187 
1785	 0.489203285789086 
1786	 0.489250113927255 
1787	 0.489305220141473 
1788	 0.489354963777131 
1789	 0.489427993950854 
1790	 0.489483430392383 
1791	 0.489509458085952 
1792	 0.489562214397595 
1793	 0.489628853013554 
1794	 0.489683230567589 
1795	 0.489759339306094 
1796	 0.489796585521708 
1797	 0.489785932676977 
1798	 0.489818888686213 
1799	 0.489851058962545 
1800	 0.489886027792576 
1801	 0.487190224626809 
1802	 0.487212105660783 
1803	 0.487250557490961 
1804	 0.487327242401409 
1805	 0.487404083439809 
1806	 0.487464016320049 
1807	 0.487509401253812 
1808	 0.487547987184769 
1809	 0.487562748080211 
1810	 0.487610386480924 
1811	 0.487673697513472 
1812	 0.487718515003983 
1813	 0.487787615984863 
1814	 0.487813065004861 
1815	 0.487794743791557 
1816	 0.487791717481089 
1817	 0.487776954105695 
1818	 0.487748747947499 
1819	 0.487719423770871 
1820	 0.48770017921077 
1821	 0.487645565846226 
1822	 0.487554480610727 
1823	 0.487459221652275 
1824	 0.487371857076042 
1825	 0.487293211115792 
1826	 0.487218506874498 
1827	 0.487150314647329 
1828	 0.487080176315544 
1829	 0.487007240472668 
1830	 0.48691245317743 
1831	 0.486798088723581 
1832	 0.486719028400903 
1833	 0.48664215879371 
1834	 0.486559941884188 
1835	 0.486524417002157 
1836	 0.48648283549203 
1837	 0.486414712378018 
1838	 0.486361060691897 
1839	 0.486309397012253 
1840	 0.486255923136481 
1841	 0.486216691000417 
1842	 0.486218411425296 
1843	 0.486198347763248 
1844	 0.486173597481671 
1845	 0.486138358974612 
1846	 0.486034445784164 
1847	 0.485935706057301 
1848	 0.485849394613545 
1849	 0.485746398171493 
1850	 0.485647900234559 
1851	 0.485558118695983 
1852	 0.485458833390066 
1853	 0.485328494027182 
1854	 0.485215355103592 
1855	 0.485133932432661 
1856	 0.485049230994689 
1857	 0.485015063299629 
1858	 0.484990772292593 
1859	 0.4849255713119 
1860	 0.4848286062182 
1861	 0.484721167482444 
1862	 0.484554001151855 
1863	 0.484332122600323 
1864	 0.484072433233374 
1865	 0.483776752390108 
1866	 0.483459358482399 
1867	 0.483149910181391 
1868	 0.482831586315803 
1869	 0.482521301639684 
1870	 0.482252399316088 
1871	 0.481943973701262 
1872	 0.481629233682575 
1873	 0.481302648497654 
1874	 0.480939599136649 
1875	 0.480502166899296 
1876	 0.48003105099628 
1877	 0.479523146717016 
1878	 0.478950902018141 
1879	 0.47831042265781 
1880	 0.477618828818513 
1881	 0.476864334242384 
1882	 0.476059193673524 
1883	 0.475198362969186 
1884	 0.474291028798525 
1885	 0.473333406696042 
1886	 0.472299282041746 
1887	 0.471192974868933 
1888	 0.470028929599103 
1889	 0.468803678483432 
1890	 0.467531242883335 
1891	 0.466244363640317 
1892	 0.464916352662136 
1893	 0.4635765669126 
1894	 0.462209012529442 
1895	 0.460828589307034 
1896	 0.459419738611601 
1897	 0.458022317692009 
1898	 0.456649368539591 
1899	 0.455304051104533 
1900	 0.454007925316921 
1901	 0.452783823895716 
1902	 0.451600953064812 
1903	 0.450480076799464 
1904	 0.449385688197158 
1905	 0.448348633010292 
1906	 0.447328483156112 
1907	 0.446305451990044 
1908	 0.445317139100247 
1909	 0.444398051705864 
1910	 0.443506129291699 
1911	 0.442665600400055 
1912	 0.441908554722749 
1913	 0.441165566167364 
1914	 0.440433666308035 
1915	 0.439758699879515 
1916	 0.439139622038875 
1917	 0.438540524116548 
1918	 0.437972650789667 
1919	 0.437468460965358 
1920	 0.43700934025205 
1921	 0.436582568627011 
1922	 0.436202944075164 
1923	 0.435865973637276 
1924	 0.435553031391807 
1925	 0.435276274283309 
1926	 0.435026306805469 
1927	 0.434809517827972 
1928	 0.434609963599178 
1929	 0.434428454903515 
1930	 0.434266569858414 
1931	 0.434150110381301 
1932	 0.434053656555671 
1933	 0.433997983967365 
1934	 0.433984342630508 
1935	 0.433976188580542 
1936	 0.433965500779894 
1937	 0.434015276092713 
1938	 0.4340986946288 
1939	 0.434207753797782 
1940	 0.434364982899958 
1941	 0.434545323431134 
1942	 0.434716213668155 
1943	 0.434924056209615 
1944	 0.43513164509996 
1945	 0.435339709135062 
1946	 0.435557065314501 
1947	 0.435785032603358 
1948	 0.436006178004277 
1949	 0.436224963610755 
1950	 0.436461550048689 
1951	 0.436696187260282 
1952	 0.436945499661582 
1953	 0.437243803676537 
1954	 0.437549039295971 
1955	 0.437853241005186 
1956	 0.438200176381478 
1957	 0.438519679426315 
1958	 0.438811689976328 
1959	 0.439143425429169 
1960	 0.439487367789022 
1961	 0.439834992488379 
1962	 0.440223403592924 
1963	 0.440586913562666 
1964	 0.440931870823938 
1965	 0.441288566051844 
1966	 0.44166050023266 
1967	 0.442013899802734 
1968	 0.442393227369287 
1969	 0.442794514967896 
1970	 0.443196231033486 
1971	 0.443618160606151 
1972	 0.444018251476123 
1973	 0.444404202643395 
1974	 0.444807353550501 
1975	 0.44520052012827 
1976	 0.445613317288359 
1977	 0.446037109009597 
1978	 0.446464197556923 
1979	 0.446896932496147 
1980	 0.447316928347161 
1981	 0.44775451414758 
1982	 0.448217068089179 
1983	 0.448659581752902 
1984	 0.449102144237508 
1985	 0.44953930542247 
1986	 0.449972379125589 
1987	 0.450394311033534 
1988	 0.45081503808028 
1989	 0.451214344115526 
1990	 0.451613464351791 
1991	 0.452020526563702 
1992	 0.452433196063833 
1993	 0.452852329530568 
1994	 0.453278476826129 
1995	 0.453720150436691 
1996	 0.454140185648025 
1997	 0.454554018986302 
1998	 0.454976470175139 
1999	 0.455387429406023 
2000	 0.455805038450671 
2001	 0.456256763311614 
2002	 0.456673722851282 
2003	 0.457049359415741 
2004	 0.457423165396736 
2005	 0.457796197673595 
2006	 0.458131582694223 
2007	 0.458511469702256 
2008	 0.458915213757599 
2009	 0.459315511706888 
2010	 0.459735847489687 
2011	 0.460142752968902 
2012	 0.460545292519195 
2013	 0.460949527006619 
2014	 0.461360243191201 
2015	 0.461748638264033 
2016	 0.462132702137394 
2017	 0.462572234768152 
2018	 0.46297832732904 
2019	 0.463383805607349 
2020	 0.463780073037438 
2021	 0.464163894777134 
2022	 0.464549178076763 
2023	 0.464937589501325 
2024	 0.465319081532433 
2025	 0.465689491654893 
2026	 0.466064044764651 
2027	 0.466446798784824 
2028	 0.466801824871513 
2029	 0.467174575807095 
2030	 0.467558418334881 
2031	 0.467930324560157 
2032	 0.46830875843698 
2033	 0.468665242857049 
2034	 0.468999905051976 
2035	 0.469344419054331 
2036	 0.469698044631087 
2037	 0.470018467244283 
2038	 0.470343346817576 
2039	 0.470637320881264 
2040	 0.470907908134147 
2041	 0.471122132242713 
2042	 0.471369345213023 
2043	 0.471619055775562 
2044	 0.471865796994976 
2045	 0.472104631166529 
2046	 0.472377658086662 
2047	 0.472666082740335 
2048	 0.472947054133917 
2049	 0.473254600186342 
2050	 0.47354793184689 
2051	 0.473838196294618 
2052	 0.474109326063439 
2053	 0.474380274130538 
2054	 0.474639840651367 
2055	 0.474887050889339 
2056	 0.475099459837999 
2057	 0.475326986649812 
2058	 0.47555504764927 
2059	 0.475775928461946 
2060	 0.475981961487466 
2061	 0.476203946863572 
2062	 0.47642993390587 
2063	 0.476657824963256 
2064	 0.476896545489114 
2065	 0.477128699184423 
2066	 0.477362436445723 
2067	 0.477587421536311 
2068	 0.477818791222089 
2069	 0.478036378062407 
2070	 0.478219980666046 
2071	 0.478370564585501 
2072	 0.478552861481451 
2073	 0.478714563202247 
2074	 0.478897814707384 
2075	 0.479112061543854 
2076	 0.479311090825922 
2077	 0.479496594429988 
2078	 0.479696113980499 
2079	 0.479913868545396 
2080	 0.480117770522195 
2081	 0.480313662360636 
2082	 0.480516546432894 
2083	 0.480704688204752 
2084	 0.480923009068147 
2085	 0.481126499045908 
2086	 0.481333237765008 
2087	 0.481537093987651 
2088	 0.48174091209776 
2089	 0.48193829869706 
2090	 0.482141036383049 
2091	 0.482331791773527 
2092	 0.48250742615693 
2093	 0.482684831956284 
2094	 0.482874804394834 
2095	 0.483033653780071 
2096	 0.483140772505696 
2097	 0.48330028736358 
2098	 0.48347272318334 
2099	 0.483636237155071 
2100	 0.483826080563309 
2101	 0.484072005403913 
2102	 0.484268898105209 
2103	 0.484448368153402 
2104	 0.484627798014337 
2105	 0.484773268823032 
2106	 0.484977254654303 
2107	 0.485190454723976 
2108	 0.485431980671674 
2109	 0.485750320356483 
2110	 0.486019708871101 
2111	 0.486264585932595 
2112	 0.486530103263481 
2113	 0.48679175783489 
2114	 0.48706141162797 
2115	 0.487318899298034 
2116	 0.4875990310715 
2117	 0.487843641963521 
2118	 0.48804926517924 
2119	 0.48828284064519 
2120	 0.488513667122362 
2121	 0.488756885440021 
2122	 0.489009962412702 
2123	 0.489267517183795 
2124	 0.489551710637174 
2125	 0.489802414916379 
2126	 0.490049581855022 
2127	 0.490279714368106 
2128	 0.490471831877863 
2129	 0.490677182222575 
2130	 0.490892889056427 
2131	 0.491104617912567 
2132	 0.491259321689921 
2133	 0.49140017387114 
2134	 0.491501197673287 
2135	 0.491561144057737 
2136	 0.491577366189432 
2137	 0.491567176108626 
2138	 0.491515925288703 
2139	 0.491388417256775 
2140	 0.491270249015354 
2141	 0.491123055639835 
2142	 0.490982706101823 
2143	 0.490825266632639 
2144	 0.490673033159709 
2145	 0.490539239904918 
2146	 0.490378242013775 
2147	 0.490199286608929 
2148	 0.490018903393202 
2149	 0.489822553538467 
2150	 0.489606411032024 
2151	 0.489385136020003 
2152	 0.489180214616198 
2153	 0.488906665530367 
2154	 0.488590160167807 
2155	 0.488271985906201 
2156	 0.48790332887764 
2157	 0.487547361735486 
2158	 0.48719537680287 
2159	 0.486831248179917 
2160	 0.486461660645349 
2161	 0.486073796216736 
2162	 0.485667282815933 
2163	 0.485263564626126 
2164	 0.484844370900757 
2165	 0.484416636432632 
2166	 0.484006431105289 
2167	 0.483604618791117 
2168	 0.483206303927858 
2169	 0.482813074505598 
2170	 0.482423450319246 
2171	 0.48205942953704 
2172	 0.481653737149036 
2173	 0.481233939943098 
2174	 0.480807563563226 
2175	 0.480343794780321 
2176	 0.479900883466434 
2177	 0.47947090393813 
2178	 0.479026362538926 
2179	 0.478576737534582 
2180	 0.478128422354964 
2181	 0.477658226589918 
2182	 0.477212371517613 
2183	 0.476791010304011 
2184	 0.476348157812577 
2185	 0.475929956627103 
2186	 0.47553348999353 
2187	 0.475122424221444 
2188	 0.474694557940949 
2189	 0.474313260686093 
2190	 0.473928213081746 
2191	 0.473597944451812 
2192	 0.473326889114617 
2193	 0.473050900830606 
2194	 0.472804915526918 
2195	 0.472560498054296 
2196	 0.47233057502397 
2197	 0.472100626700538 
2198	 0.471882980717607 
2199	 0.47166239023262 
2200	 0.471448077940352 
2201	 0.471226711583331 
2202	 0.470985169825084 
2203	 0.470763399261252 
2204	 0.470576267305835 
2205	 0.470392603299895 
2206	 0.470250778497631 
2207	 0.47015472820361 
2208	 0.470067110980444 
2209	 0.469982200462628 
2210	 0.469959373572667 
2211	 0.469988633152218 
2212	 0.470024187942617 
2213	 0.470125815013463 
2214	 0.470187703152357 
2215	 0.470260414669181 
2216	 0.470299431550821 
2217	 0.47033071877935 
2218	 0.470324197557992 
2219	 0.470287966902659 
2220	 0.470230889332076 
2221	 0.470136768477444 
2222	 0.47002661470108 
2223	 0.469936051977359 
2224	 0.469806209260591 
2225	 0.469677879630981 
2226	 0.469558771935741 
2227	 0.469396221562187 
2228	 0.469195227913387 
2229	 0.46900625146389 
2230	 0.468801580235754 
2231	 0.468590057286885 
2232	 0.468375003100649 
2233	 0.468156015067985 
2234	 0.467911741717384 
2235	 0.467689169107668 
2236	 0.467473860991745 
2237	 0.467264245288297 
2238	 0.467085831302345 
2239	 0.466865900694618 
2240	 0.466618216097586 
2241	 0.466389269320626 
2242	 0.466102394997075 
2243	 0.465891653719278 
2244	 0.465752914147749 
2245	 0.465602374699717 
2246	 0.465454275017191 
2247	 0.465317450032771 
2248	 0.465176320624843 
2249	 0.464997909011883 
2250	 0.464889952259123 
2251	 0.464831643589613 
2252	 0.464749686191273 
2253	 0.464690696567292 
2254	 0.464611688040913 
2255	 0.464510710117629 
2256	 0.464441246410299 
2257	 0.464372408974645 
2258	 0.464334750563823 
2259	 0.464326399961519 
2260	 0.464316483217454 
2261	 0.464341548643064 
2262	 0.464336999753933 
2263	 0.464315248517674 
2264	 0.464307531928995 
2265	 0.464289548768708 
2266	 0.464284383619685 
2267	 0.464302048582367 
2268	 0.464312820892854 
2269	 0.464343422840198 
2270	 0.46432665299629 
2271	 0.464323980678428 
2272	 0.464313232655643 
2273	 0.464290677344907 
2274	 0.464297300385964 
2275	 0.46432066498197 
2276	 0.464358700173853 
2277	 0.464416922029616 
2278	 0.464512269318785 
2279	 0.464583311912807 
2280	 0.464634429901279 
2281	 0.464747976417425 
2282	 0.464873888382094 
2283	 0.46502550964698 
2284	 0.465276266531663 
2285	 0.465439853649933 
2286	 0.465566096042363 
2287	 0.465696182418497 
2288	 0.465782577428157 
2289	 0.465893275622036 
2290	 0.466001761688632 
2291	 0.466144832102526 
2292	 0.466312661962906 
2293	 0.466479804799911 
2294	 0.46668552273071 
2295	 0.46685901627281 
2296	 0.46701589619533 
2297	 0.467175488315907 
2298	 0.467300845636953 
2299	 0.467452030244753 
2300	 0.467588555349418 
2301	 0.467716959912448 
2302	 0.467909818281591 
2303	 0.468125814691537 
2304	 0.468312736978734 
2305	 0.468492254629461 
2306	 0.468644459776683 
2307	 0.468746023582904 
2308	 0.468850110285445 
2309	 0.468941289263733 
2310	 0.469049825341657 
2311	 0.469135761448712 
2312	 0.469245965722942 
2313	 0.46937900852168 
2314	 0.469515763169777 
2315	 0.469686052902035 
2316	 0.469806434639335 
2317	 0.469904188016209 
2318	 0.470013058869351 
2319	 0.470065941928295 
2320	 0.470172422708636 
2321	 0.470336516392495 
2322	 0.470483608218072 
2323	 0.47066613286385 
2324	 0.470797058897866 
2325	 0.47088209064025 
2326	 0.470983468469968 
2327	 0.471065164599864 
2328	 0.471146013630148 
2329	 0.471253582191607 
2330	 0.47140961939353 
2331	 0.471552984414501 
2332	 0.471716583411302 
2333	 0.471879769157908 
2334	 0.472025587669398 
2335	 0.472201059212198 
2336	 0.472320366754179 
2337	 0.472448196465864 
2338	 0.472609821163478 
2339	 0.472700569784264 
2340	 0.47277897938565 
2341	 0.472821353166944 
2342	 0.47279658955911 
2343	 0.472774632688448 
2344	 0.47274136146029 
2345	 0.472683680957115 
2346	 0.472591532825671 
2347	 0.47252135265948 
2348	 0.472476476988069 
2349	 0.472340427812256 
2350	 0.472143104235595 
2351	 0.471989050418754 
2352	 0.471796616785418 
2353	 0.471590940283314 
2354	 0.471435328686809 
2355	 0.471228275476341 
2356	 0.470927915720655 
2357	 0.470703706732984 
2358	 0.470488095313966 
2359	 0.470307058719582 
2360	 0.470181959671774 
2361	 0.470009379365423 
2362	 0.46986312087108 
2363	 0.469706648617603 
2364	 0.469481363310961 
2365	 0.469329374994995 
2366	 0.469235097581586 
2367	 0.469077920473231 
2368	 0.468965751851812 
2369	 0.468794374111462 
2370	 0.468555970118707 
2371	 0.468319971276458 
2372	 0.46806818694812 
2373	 0.467691365187011 
2374	 0.467339942780009 
2375	 0.467027752016767 
2376	 0.46675713504813 
2377	 0.466477190843745 
2378	 0.466122953534563 
2379	 0.465807622726556 
2380	 0.465463948463939 
2381	 0.46519931655208 
2382	 0.465041932795078 
2383	 0.464816159411588 
2384	 0.464576420805578 
2385	 0.46425205834532 
2386	 0.463839995429877 
2387	 0.463471916299454 
2388	 0.463092981308988 
2389	 0.462704392770396 
2390	 0.462361845463965 
2391	 0.462050473222446 
2392	 0.461749295910369 
2393	 0.461470892419181 
2394	 0.461197157206218 
2395	 0.460872066875397 
2396	 0.460454499788771 
2397	 0.45998511092194 
2398	 0.459565388279565 
2399	 0.459143614943308 
2400	 0.458800504478703 
2401	 0.458589133982325 
2402	 0.458286042426571 
2403	 0.457917128466574 
2404	 0.457594273760697 
2405	 0.45717590924503 
2406	 0.456722882793084 
2407	 0.456386891831779 
2408	 0.455995456305267 
2409	 0.45560471217543 
2410	 0.455332922725611 
2411	 0.454982264507453 
2412	 0.45452910928264 
2413	 0.454102324874211 
2414	 0.453680701338435 
2415	 0.453256371203964 
2416	 0.452861928425439 
2417	 0.45254024255772 
2418	 0.452206317736692 
2419	 0.451862543524308 
2420	 0.45150283047908 
2421	 0.451199372598679 
2422	 0.450834359544348 
2423	 0.450377751293453 
2424	 0.449990010010349 
2425	 0.44964362214501 
2426	 0.449279947454083 
2427	 0.448906416504871 
2428	 0.448575532193393 
2429	 0.448243756909404 
2430	 0.447878042140627 
2431	 0.447584478433529 
2432	 0.447183250148321 
2433	 0.446683861688324 
2434	 0.446326444585901 
2435	 0.445931836690994 
2436	 0.445616056756671 
2437	 0.445430960406902 
2438	 0.44513602931957 
2439	 0.444849523487438 
2440	 0.444599196424012 
2441	 0.444311641461374 
2442	 0.44404841091447 
2443	 0.443874017338678 
2444	 0.443511179797379 
2445	 0.443023071733052 
2446	 0.442734503086723 
2447	 0.442437489517193 
2448	 0.442062823324621 
2449	 0.441793865294118 
2450	 0.44141144349334 
2451	 0.440857172269087 
2452	 0.440441590173307 
2453	 0.440075083676817 
2454	 0.439785250266059 
2455	 0.439584189019489 
2456	 0.439309572539362 
2457	 0.439100589201207 
2458	 0.438715747407083 
2459	 0.438138477574735 
2460	 0.437715222360347 
2461	 0.437297002872124 
2462	 0.43701749952511 
2463	 0.436856606178307 
2464	 0.436599855479959 
2465	 0.436391918485843 
2466	 0.436105190283942 
2467	 0.435802941799278 
2468	 0.435500548409549 
2469	 0.435095047137903 
2470	 0.434868079517864 
2471	 0.434603564869813 
2472	 0.434296479671484 
2473	 0.433914630294269 
2474	 0.433556677868054 
2475	 0.433067174616387 
2476	 0.432400604017305 
2477	 0.432087097718384 
2478	 0.43195763572257 
2479	 0.431803618203594 
2480	 0.431783215181467 
2481	 0.43145946347124 
2482	 0.430873990691645 
2483	 0.430244240044041 
2484	 0.42967002238296 
2485	 0.429457133585563 
2486	 0.429423357402831 
2487	 0.429367108720877 
2488	 0.429184069848453 
2489	 0.428851768164693 
2490	 0.428430435005951 
2491	 0.428057218077554 
2492	 0.427894461509771 
2493	 0.427820354495417 
2494	 0.427648973593903 
2495	 0.427442987974113 
2496	 0.427150184491114 
2497	 0.426869413940168 
2498	 0.426512985800725 
2499	 0.425918304390458 
2500	 0.425562819748349 
