Wavelength	MM700004.asd
350	 5.84187428099586E-02 
351	 6.38253879257645E-02 
352	 5.89709054699715E-02 
353	 4.59656549950952E-02 
354	 5.12925559180718E-02 
355	 5.43245735149982E-02 
356	 5.49490742269453E-02 
357	 5.73453271874223E-02 
358	 6.12066896822305E-02 
359	 5.89627731341779E-02 
360	 0.053774154000791 
361	 5.48766058402192E-02 
362	 5.81954604401715E-02 
363	 5.88294258509809E-02 
364	 5.65503293102367E-02 
365	 5.81742598869667E-02 
366	 0.059679513538682 
367	 5.98415356064417E-02 
368	 5.93966461723857E-02 
369	 6.40708847710605E-02 
370	 6.45882917365989E-02 
371	 6.12527758813005E-02 
372	 6.07632943401746E-02 
373	 6.04167417319696E-02 
374	 6.05500126387699E-02 
375	 6.18886127618993E-02 
376	 6.57293388617677E-02 
377	 6.34337228037445E-02 
378	 0.061323046560636 
379	 0.066108165803859 
380	 6.62917774936653E-02 
381	 6.30147478865866E-02 
382	 6.15863041151189E-02 
383	 6.85871195805622E-02 
384	 6.99583964561039E-02 
385	 6.68072460067718E-02 
386	 6.35400329898427E-02 
387	 0.066236203310587 
388	 6.84965088279172E-02 
389	 6.91664027538065E-02 
390	 6.89903523305085E-02 
391	 6.89017365210594E-02 
392	 6.86261575300939E-02 
393	 6.88419958420686E-02 
394	 7.08486912337853E-02 
395	 7.21890128108412E-02 
396	 7.24198426778427E-02 
397	 7.23318017983327E-02 
398	 7.47992409782735E-02 
399	 7.52725616910297E-02 
400	 0.074936585261707 
401	 7.61529210855669E-02 
402	 0.074867802701562 
403	 7.43102750519033E-02 
404	 7.54625021984482E-02 
405	 7.66012937850541E-02 
406	 7.63002265646926E-02 
407	 7.71080775969045E-02 
408	 7.97674087319038E-02 
409	 0.078215044734776 
410	 7.75586595573773E-02 
411	 7.86667476562004E-02 
412	 8.01622118227652E-02 
413	 8.04183215365657E-02 
414	 8.01692435140602E-02 
415	 8.00351275582391E-02 
416	 0.080153389505858 
417	 8.06585715373095E-02 
418	 8.13951011074217E-02 
419	 8.20919301670356E-02 
420	 8.24403251837888E-02 
421	 8.21119663590788E-02 
422	 8.17467439287576E-02 
423	 8.24186333706636E-02 
424	 8.29233599898452E-02 
425	 8.29428775884183E-02 
426	 8.25168982772018E-02 
427	 8.19612660899108E-02 
428	 8.22742246255433E-02 
429	 8.28034214377031E-02 
430	 8.26269578503006E-02 
431	 8.25156695583986E-02 
432	 0.082210999920529 
433	 8.18840085554967E-02 
434	 8.21163184714795E-02 
435	 8.22747046270084E-02 
436	 0.082351100541946 
437	 8.23736149901445E-02 
438	 8.20690194521231E-02 
439	 8.19765062359552E-02 
440	 8.23020672468699E-02 
441	 8.29439252163277E-02 
442	 8.29175464216026E-02 
443	 8.28050794643321E-02 
444	 0.083015409752917 
445	 8.34735888982221E-02 
446	 8.36566772438156E-02 
447	 8.38450233754952E-02 
448	 8.43377577306102E-02 
449	 8.43983560502879E-02 
450	 8.46621430160684E-02 
451	 0.08519805205547 
452	 8.55692409729746E-02 
453	 8.57823986024916E-02 
454	 8.59584798083895E-02 
455	 8.62303736751526E-02 
456	 8.67520536655618E-02 
457	 8.68966333591099E-02 
458	 0.08684757452826 
459	 8.71046104250626E-02 
460	 8.74462872675341E-02 
461	 8.75637515028354E-02 
462	 8.75072948651663E-02 
463	 8.78336953690645E-02 
464	 8.80391604066957E-02 
465	 8.80995818847777E-02 
466	 8.81656239750881E-02 
467	 8.85500487208846E-02 
468	 8.87049538261132E-02 
469	 8.86075272469182E-02 
470	 8.86640031640939E-02 
471	 8.87509934965022E-02 
472	 8.88261346204778E-02 
473	 8.88864593141458E-02 
474	 8.89983703798787E-02 
475	 8.91450961881913E-02 
476	 8.93082925691216E-02 
477	 8.94619630933553E-02 
478	 8.95601980095001E-02 
479	 8.95899695296393E-02 
480	 0.089572652658389 
481	 8.95631582725173E-02 
482	 8.97726481242135E-02 
483	 9.00439850153673E-02 
484	 9.01614050303879E-02 
485	 9.01094606956331E-02 
486	 9.02651142517134E-02 
487	 9.05210864270434E-02 
488	 9.03977107326125E-02 
489	 9.03007908882648E-02 
490	 0.090355380780167 
491	 9.05392361807117E-02 
492	 9.06125772098802E-02 
493	 9.06421625405262E-02 
494	 9.06556465394405E-02 
495	 9.06863596630989E-02 
496	 9.09207154385255E-02 
497	 9.10345524774516E-02 
498	 9.09636565197554E-02 
499	 9.10926020261406E-02 
500	 9.12371499676104E-02 
501	 9.13720575330958E-02 
502	 9.14879416012259E-02 
503	 9.14480682380142E-02 
504	 9.14715945839145E-02 
505	 9.16024357727896E-02 
506	 0.091713416144052 
507	 9.17368021254157E-02 
508	 9.17577545926857E-02 
509	 9.18355425150596E-02 
510	 9.18678984629115E-02 
511	 9.19226309858314E-02 
512	 9.20448973259735E-02 
513	 9.22381594298782E-02 
514	 9.22448801464667E-02 
515	 9.23179710015756E-02 
516	 9.25184552312782E-02 
517	 9.24813548387479E-02 
518	 9.24424968655512E-02 
519	 9.24746327102409E-02 
520	 9.25801918133365E-02 
521	 9.26895758801451E-02 
522	 9.27435461872468E-02 
523	 9.27469090730278E-02 
524	 9.27685698775013E-02 
525	 0.092827775484225 
526	 9.29582954558825E-02 
527	 9.31178391889023E-02 
528	 9.30009453212891E-02 
529	 9.30397121328541E-02 
530	 9.32480372054765E-02 
531	 9.33687206458175E-02 
532	 9.34709143607783E-02 
533	 9.36007393067606E-02 
534	 9.37419475331188E-02 
535	 9.37385783707256E-02 
536	 9.37630329156381E-02 
537	 9.38509819324606E-02 
538	 9.39764830757742E-02 
539	 9.41035554382353E-02 
540	 9.41870158460752E-02 
541	 9.42539705188819E-02 
542	 9.44274474084708E-02 
543	 9.45023307464275E-02 
544	 9.45772821700833E-02 
545	 9.47698137787595E-02 
546	 9.49353751837295E-02 
547	 9.49996433774973E-02 
548	 0.095058736935217 
549	 9.53286974365182E-02 
550	 9.54852708912836E-02 
551	 9.56147720257971E-02 
552	 9.58196955223153E-02 
553	 9.60459489421359E-02 
554	 9.62567244949228E-02 
555	 9.64409028195574E-02 
556	 9.66126302553887E-02 
557	 9.68528305738238E-02 
558	 9.71161372709884E-02 
559	 9.73764055868484E-02 
560	 0.097672329284526 
561	 0.097923443953224 
562	 9.81826438705446E-02 
563	 9.85379469269971E-02 
564	 9.89869696788712E-02 
565	 9.94896665778028E-02 
566	 9.99872310696453E-02 
567	 0.100407467899193 
568	 0.100909451316858 
569	 0.101416862079522 
570	 0.101859271149469 
571	 0.102392088491267 
572	 0.102906100881608 
573	 0.103366605713583 
574	 0.103806124729045 
575	 0.104363578596895 
576	 0.105007782627636 
577	 0.105687136700722 
578	 0.106380204480313 
579	 0.107046711826921 
580	 0.107670896585314 
581	 0.10826649749675 
582	 0.108929443816569 
583	 0.109666476007739 
584	 0.110491160133225 
585	 0.11144651060398 
586	 0.112400696415357 
587	 0.113360616382383 
588	 0.114355220400993 
589	 0.115312165493953 
590	 0.1162915394561 
591	 0.11728996471084 
592	 0.118245811191718 
593	 0.119141620204044 
594	 0.119950663742237 
595	 0.120677449161518 
596	 0.121387360907814 
597	 0.122216592469729 
598	 0.123121206513757 
599	 0.123973546572506 
600	 0.124858488420305 
601	 0.125852305522497 
602	 0.126902080927724 
603	 0.12772292811064 
604	 0.128577635331216 
605	 0.129473328125909 
606	 0.13033217866695 
607	 0.131130974311013 
608	 0.131884824743294 
609	 0.132629245048885 
610	 0.133418787525019 
611	 0.134195289052096 
612	 0.13494265199385 
613	 0.135648100739026 
614	 0.136287740171182 
615	 0.136849070210034 
616	 0.137385738016137 
617	 0.137984834523182 
618	 0.138575608530031 
619	 0.139062448681138 
620	 0.139443625699063 
621	 0.139921006682567 
622	 0.140377594467331 
623	 0.140797271351272 
624	 0.141203575800793 
625	 0.141624800067403 
626	 0.142021159079982 
627	 0.142382449580907 
628	 0.142744270566712 
629	 0.143094579440975 
630	 0.143457063661236 
631	 0.14383414844476 
632	 0.144102223166615 
633	 0.144411693303301 
634	 0.144782153429658 
635	 0.145120922165367 
636	 0.145412590267334 
637	 0.145714916352128 
638	 0.146053824600589 
639	 0.146341185586105 
640	 0.146649407792381 
641	 0.146986450749719 
642	 0.147322544242996 
643	 0.14758680358095 
644	 0.14787146935285 
645	 0.148210626659555 
646	 0.148531016137399 
647	 0.148873124929279 
648	 0.149196532867868 
649	 0.149472950129904 
650	 0.149818920188805 
651	 0.150166222279871 
652	 0.150494044707588 
653	 0.150830008410829 
654	 0.151218399895317 
655	 0.151596632695479 
656	 0.151932985936733 
657	 0.152319814059011 
658	 0.152725649208758 
659	 0.15313681123513 
660	 0.153543107573421 
661	 0.153918359541013 
662	 0.154301890436436 
663	 0.154721489935497 
664	 0.15518097515937 
665	 0.155592666274078 
666	 0.156017492497727 
667	 0.156519324809041 
668	 0.156980649504556 
669	 0.157427484909146 
670	 0.157896275784454 
671	 0.158420544826487 
672	 0.158902378200032 
673	 0.159424991920374 
674	 0.160015822968728 
675	 0.160486617735045 
676	 0.161007181651015 
677	 0.161578102206674 
678	 0.162132038228633 
679	 0.162675767508298 
680	 0.163281060636071 
681	 0.163943699888667 
682	 0.16455571576787 
683	 0.165160026149398 
684	 0.165760990806066 
685	 0.16637359616808 
686	 0.167085842846313 
687	 0.167769127247461 
688	 0.168410559416294 
689	 0.169083156195512 
690	 0.169803589373989 
691	 0.170499526103293 
692	 0.171157187919753 
693	 0.171908879775107 
694	 0.172663269084058 
695	 0.173394789714731 
696	 0.174110858937 
697	 0.174861776317194 
698	 0.17564875135139 
699	 0.17643747925698 
700	 0.177164186337385 
701	 0.177954119067544 
702	 0.178766406306636 
703	 0.179545648268461 
704	 0.18029711765897 
705	 0.181103434587915 
706	 0.181919331734215 
707	 0.182653608937687 
708	 0.183454826739316 
709	 0.184263082544603 
710	 0.18504357159939 
711	 0.185832511859118 
712	 0.18661368506256 
713	 0.18740563093447 
714	 0.188211395423247 
715	 0.188937118723358 
716	 0.189639164091467 
717	 0.190357512990182 
718	 0.191111869972489 
719	 0.191893340193059 
720	 0.192596203287607 
721	 0.193203703915043 
722	 0.193891242662326 
723	 0.194621101786556 
724	 0.195286478132573 
725	 0.195805849241139 
726	 0.196356791777761 
727	 0.196938565841783 
728	 0.197520612188846 
729	 0.198053775704395 
730	 0.198542382549059 
731	 0.19900648275933 
732	 0.199456363559435 
733	 0.199873157389236 
734	 0.200236699406486 
735	 0.200571968848304 
736	 0.200912707527161 
737	 0.201215368738537 
738	 0.201488274178252 
739	 0.201712499461561 
740	 0.201839118385415 
741	 0.201964511148699 
742	 0.202089121644693 
743	 0.202195046200616 
744	 0.202284061021629 
745	 0.20229897828425 
746	 0.202268581488932 
747	 0.202250610479785 
748	 0.202178649138401 
749	 0.202081850108548 
750	 0.201949385260252 
751	 0.20171581837651 
752	 0.20156339354834 
753	 0.201390455333774 
754	 0.201110984011595 
755	 0.200893041286688 
756	 0.200616791260566 
757	 0.200286917700219 
758	 0.199963413803104 
759	 0.199599093118216 
760	 0.199223103931651 
761	 0.198850580769031 
762	 0.198470131975351 
763	 0.198013994838529 
764	 0.197552819356446 
765	 0.197137370716031 
766	 0.196656175236579 
767	 0.196188326805124 
768	 0.195720967801689 
769	 0.195209566300783 
770	 0.194745979231697 
771	 0.194250727837352 
772	 0.193691190706455 
773	 0.193109799984609 
774	 0.192588473878542 
775	 0.192075467658945 
776	 0.19152094963499 
777	 0.190972400633927 
778	 0.190403791613095 
779	 0.189832868123242 
780	 0.189287128045552 
781	 0.188726264343065 
782	 0.188168823399916 
783	 0.187621752803278 
784	 0.187076488722182 
785	 0.186519612426312 
786	 0.185949300706281 
787	 0.185376776648088 
788	 0.184835897621149 
789	 0.184304050088038 
790	 0.183791578105065 
791	 0.183301052955825 
792	 0.18274081467016 
793	 0.182152747959568 
794	 0.181593537995362 
795	 0.181117938877442 
796	 0.180674368898186 
797	 0.180182265155293 
798	 0.179631469219676 
799	 0.179141658630048 
800	 0.178682436792812 
801	 0.178205093007233 
802	 0.177688673674289 
803	 0.177249532099942 
804	 0.176800407192506 
805	 0.176327782880833 
806	 0.1758694680131 
807	 0.175440169083296 
808	 0.175030065578107 
809	 0.17462179435695 
810	 0.174193436649527 
811	 0.173782694300221 
812	 0.17337883002472 
813	 0.172973305274255 
814	 0.172599672812249 
815	 0.172195860349817 
816	 0.171808392576847 
817	 0.171498155938939 
818	 0.171144996510778 
819	 0.170787333506975 
820	 0.170440571946935 
821	 0.170094577114489 
822	 0.169759181810889 
823	 0.169461710532976 
824	 0.169189558522385 
825	 0.168861657075307 
826	 0.168616587153759 
827	 0.168400511399749 
828	 0.168135390217026 
829	 0.167845787183132 
830	 0.167525564800195 
831	 0.16724992825675 
832	 0.167088560912562 
833	 0.166840006027545 
834	 0.166592231850104 
835	 0.16638033292686 
836	 0.166169381376606 
837	 0.165945394604735 
838	 0.165747598805664 
839	 0.165599159205116 
840	 0.165482784970924 
841	 0.165315489929634 
842	 0.16509054375097 
843	 0.164859001010492 
844	 0.164770387658469 
845	 0.164673221833956 
846	 0.164545142636567 
847	 0.164424228091269 
848	 0.164301953584755 
849	 0.164191935410856 
850	 0.164104495543111 
851	 0.164041011017466 
852	 0.16395976699847 
853	 0.163857667695123 
854	 0.163759571816402 
855	 0.163718163474116 
856	 0.16367559704187 
857	 0.163654613899832 
858	 0.163661350219581 
859	 0.163609581915901 
860	 0.163570012134424 
861	 0.163555350434008 
862	 0.16355902951018 
863	 0.163592198294424 
864	 0.16359829827241 
865	 0.163581964535464 
866	 0.163584996223617 
867	 0.16360354351707 
868	 0.163622689445234 
869	 0.163657267336073 
870	 0.163745743281376 
871	 0.163810727053441 
872	 0.163869783727023 
873	 0.163953704501771 
874	 0.164085841638529 
875	 0.164185218259539 
876	 0.164245439683777 
877	 0.164293893478191 
878	 0.164380886974468 
879	 0.164549526896762 
880	 0.16472367836399 
881	 0.16481983539888 
882	 0.164913668353202 
883	 0.165058304703132 
884	 0.16524954074291 
885	 0.165450929549122 
886	 0.16567281588776 
887	 0.165843507625745 
888	 0.165976610111866 
889	 0.166160531340559 
890	 0.16642590046965 
891	 0.16664897586704 
892	 0.16682357933406 
893	 0.16710471989851 
894	 0.167391727870233 
895	 0.167628888617305 
896	 0.167843261887593 
897	 0.168189831783194 
898	 0.168469322543034 
899	 0.168734636931349 
900	 0.169053459487879 
901	 0.169347265451295 
902	 0.169647070358611 
903	 0.16995662825639 
904	 0.170272715616524 
905	 0.170595884343837 
906	 0.170937906911253 
907	 0.171279022482585 
908	 0.17161633280565 
909	 0.172117501067817 
910	 0.172544616604255 
911	 0.172860339849097 
912	 0.173194818501187 
913	 0.173714916617815 
914	 0.174152391931572 
915	 0.174471180780794 
916	 0.174871923960056 
917	 0.175361788785649 
918	 0.175911216747785 
919	 0.176452557001936 
920	 0.176898513301972 
921	 0.177345592088126 
922	 0.177834074827418 
923	 0.178360382431055 
924	 0.178877144845811 
925	 0.179422351944964 
926	 0.179972990437979 
927	 0.180517456477724 
928	 0.18108481124615 
929	 0.181675986689935 
930	 0.182274218175003 
931	 0.182881582078327 
932	 0.183558774491768 
933	 0.184186786916971 
934	 0.184805862912444 
935	 0.185462970004401 
936	 0.186078931481227 
937	 0.18667381849988 
938	 0.187343929237707 
939	 0.188135775169718 
940	 0.188843627974554 
941	 0.189624674250585 
942	 0.190408757321923 
943	 0.19109587014189 
944	 0.191837136317815 
945	 0.192570380396368 
946	 0.193328458186291 
947	 0.194151169581655 
948	 0.194913617933184 
949	 0.195722357124908 
950	 0.196554221443503 
951	 0.197354478436722 
952	 0.19827623446199 
953	 0.199179832642865 
954	 0.200050407396697 
955	 0.200948954824313 
956	 0.201876146662126 
957	 0.202820417738484 
958	 0.203690444799714 
959	 0.204427300203478 
960	 0.205394750922572 
961	 0.206347355139088 
962	 0.20728673963917 
963	 0.208339680166309 
964	 0.209216759937281 
965	 0.210156499920345 
966	 0.211225928389816 
967	 0.212334295400359 
968	 0.213362299145519 
969	 0.214469669684503 
970	 0.215597421498883 
971	 0.216574507122919 
972	 0.217602801632009 
973	 0.218652563251375 
974	 0.219687669205085 
975	 0.220712048804713 
976	 0.221923662550508 
977	 0.223077804955411 
978	 0.22417947911047 
979	 0.225385960238954 
980	 0.226599042227431 
981	 0.227751883385091 
982	 0.228850317454249 
983	 0.229967659672174 
984	 0.231264637666995 
985	 0.23242298242582 
986	 0.233451581042087 
987	 0.234550792224149 
988	 0.235735005900712 
989	 0.237028475175963 
990	 0.238281972854457 
991	 0.239387865990806 
992	 0.24082079913404 
993	 0.242062302383264 
994	 0.243202888894511 
995	 0.244486004922207 
996	 0.245476358218152 
997	 0.246634005297599 
998	 0.247887823229941 
999	 0.24906184030615 
1000	 0.250450659228727 
1001	 0.255676060614205 
1002	 0.256860775240049 
1003	 0.258105145500753 
1004	 0.259305873157507 
1005	 0.260531023962779 
1006	 0.261688622843191 
1007	 0.262785008821427 
1008	 0.263904970693823 
1009	 0.265037935340927 
1010	 0.266216319779655 
1011	 0.267412086034989 
1012	 0.268566623916272 
1013	 0.269634144328842 
1014	 0.270652714074531 
1015	 0.271767004287923 
1016	 0.272890841819362 
1017	 0.273994343215523 
1018	 0.275106725614009 
1019	 0.276277720408607 
1020	 0.277367755751503 
1021	 0.278391345317463 
1022	 0.279431486101142 
1023	 0.280469329386734 
1024	 0.281489680203741 
1025	 0.28251166680728 
1026	 0.283506535049376 
1027	 0.284532214723241 
1028	 0.2856020179662 
1029	 0.286637034139456 
1030	 0.287694755771725 
1031	 0.288709108262911 
1032	 0.289693624348384 
1033	 0.290630960252169 
1034	 0.291635984657486 
1035	 0.292636779958851 
1036	 0.293655095370478 
1037	 0.294742902217772 
1038	 0.295827024230065 
1039	 0.29683286717983 
1040	 0.297814916552736 
1041	 0.298799280116283 
1042	 0.299703179371787 
1043	 0.300594983803515 
1044	 0.30154549544661 
1045	 0.302545100309948 
1046	 0.303520385302225 
1047	 0.30452875918758 
1048	 0.305607065349957 
1049	 0.306636005460803 
1050	 0.307637852470216 
1051	 0.308642840254005 
1052	 0.309589506881113 
1053	 0.310517729122475 
1054	 0.311442957233337 
1055	 0.312391344607086 
1056	 0.313374509882765 
1057	 0.314301681061814 
1058	 0.315240867979291 
1059	 0.316131926010322 
1060	 0.316960538582379 
1061	 0.317774512359737 
1062	 0.318606544113221 
1063	 0.319443420838064 
1064	 0.320317767155959 
1065	 0.321150044390764 
1066	 0.321998020275856 
1067	 0.322872451169888 
1068	 0.32365545587852 
1069	 0.324404752189126 
1070	 0.325182398229896 
1071	 0.32593590224946 
1072	 0.326688584874635 
1073	 0.327471717203638 
1074	 0.32823319052069 
1075	 0.328975596298885 
1076	 0.329676393208605 
1077	 0.330379063479003 
1078	 0.331081004081059 
1079	 0.331745848853755 
1080	 0.332421120846885 
1081	 0.333156980694529 
1082	 0.333877424489694 
1083	 0.33459044693269 
1084	 0.335327996123775 
1085	 0.336029835113308 
1086	 0.336680783069762 
1087	 0.337368341353122 
1088	 0.33805517988211 
1089	 0.338733212265838 
1090	 0.339473996319447 
1091	 0.340272543039906 
1092	 0.341046049722493 
1093	 0.341821026075481 
1094	 0.342595738228852 
1095	 0.343328814705454 
1096	 0.344092449081066 
1097	 0.344919173918697 
1098	 0.345719770017212 
1099	 0.346509470337558 
1100	 0.347327931273867 
1101	 0.348136557909405 
1102	 0.34898783448337 
1103	 0.349865983210409 
1104	 0.35078029214892 
1105	 0.351710705157402 
1106	 0.352673736147165 
1107	 0.353643239923088 
1108	 0.354631899368914 
1109	 0.355612967560421 
1110	 0.356549614669873 
1111	 0.357535925575618 
1112	 0.358515943113431 
1113	 0.359543697887998 
1114	 0.360623152859829 
1115	 0.361708600980511 
1116	 0.362824329673598 
1117	 0.363924956988056 
1118	 0.365046265022379 
1119	 0.366129288372023 
1120	 0.367241273813866 
1121	 0.36834832741093 
1122	 0.369437267955921 
1123	 0.370582865004461 
1124	 0.371717133263562 
1125	 0.372841988394281 
1126	 0.37399442535192 
1127	 0.375174971257254 
1128	 0.376331909266153 
1129	 0.37750136061419 
1130	 0.37864658822714 
1131	 0.379776448654156 
1132	 0.380908672349465 
1133	 0.382022616543779 
1134	 0.383146186074005 
1135	 0.384266403845308 
1136	 0.385386710116371 
1137	 0.386563498874531 
1138	 0.387692340411154 
1139	 0.388817689251672 
1140	 0.389951370154411 
1141	 0.391072443176575 
1142	 0.392163513159054 
1143	 0.393270333929524 
1144	 0.394408108895689 
1145	 0.395491090419475 
1146	 0.396527189703753 
1147	 0.397590089583538 
1148	 0.398662852067593 
1149	 0.399702222639411 
1150	 0.400727674267706 
1151	 0.401768873041619 
1152	 0.402770917119822 
1153	 0.403736105099615 
1154	 0.404730426429754 
1155	 0.405753434068772 
1156	 0.406720385703391 
1157	 0.407664521337279 
1158	 0.408614005371829 
1159	 0.409529169959888 
1160	 0.410468516503346 
1161	 0.411439327579242 
1162	 0.41237490465926 
1163	 0.413308871055244 
1164	 0.414219519658776 
1165	 0.415103118293883 
1166	 0.415984634262513 
1167	 0.416861429406737 
1168	 0.417719111626723 
1169	 0.41857688211845 
1170	 0.41944267753781 
1171	 0.420270258855623 
1172	 0.421072033611704 
1173	 0.42188181765418 
1174	 0.42268462943134 
1175	 0.42346586407301 
1176	 0.424243352584696 
1177	 0.425009658861677 
1178	 0.425747815895808 
1179	 0.426487835261305 
1180	 0.427232345415714 
1181	 0.42796650738069 
1182	 0.428688823937231 
1183	 0.429410936489916 
1184	 0.430113492223455 
1185	 0.430812651778063 
1186	 0.431490523648567 
1187	 0.432140587431735 
1188	 0.432802280424098 
1189	 0.433468796420659 
1190	 0.434107573289409 
1191	 0.43473094679623 
1192	 0.43535931379961 
1193	 0.435976367929058 
1194	 0.436584403831074 
1195	 0.437187389700641 
1196	 0.43779443788482 
1197	 0.438397034291356 
1198	 0.438986814277632 
1199	 0.439573079004053 
1200	 0.440178903203674 
1201	 0.440737654677808 
1202	 0.441261486714934 
1203	 0.441796652933487 
1204	 0.442323934332033 
1205	 0.442835545643663 
1206	 0.443335653742661 
1207	 0.443838701074109 
1208	 0.444330194081065 
1209	 0.444817960673412 
1210	 0.445323555504423 
1211	 0.445797421818313 
1212	 0.44623773177039 
1213	 0.446687650544505 
1214	 0.447119107474718 
1215	 0.447561837892025 
1216	 0.448009889856569 
1217	 0.448470916190933 
1218	 0.448916258037724 
1219	 0.449371216355788 
1220	 0.449794822163176 
1221	 0.450193509836834 
1222	 0.450605427457436 
1223	 0.451006044017204 
1224	 0.451409484356474 
1225	 0.451824244853783 
1226	 0.452227172547826 
1227	 0.452624662347577 
1228	 0.453013026847633 
1229	 0.45340969319381 
1230	 0.453778868166778 
1231	 0.454113481739836 
1232	 0.454460205622649 
1233	 0.454803252608673 
1234	 0.455124364944929 
1235	 0.455478387207458 
1236	 0.455871346915044 
1237	 0.456206578649732 
1238	 0.456542505199944 
1239	 0.45684196873716 
1240	 0.457067352730214 
1241	 0.457355641332999 
1242	 0.457646120965524 
1243	 0.45795759875291 
1244	 0.458327646302953 
1245	 0.458653814262799 
1246	 0.458980743296302 
1247	 0.459285090699455 
1248	 0.459575064311003 
1249	 0.459828687961977 
1250	 0.460084508869648 
1251	 0.460329259082139 
1252	 0.460590153167179 
1253	 0.460859761544675 
1254	 0.461106550095317 
1255	 0.461360405363066 
1256	 0.461591075895906 
1257	 0.461791028994574 
1258	 0.462001973406572 
1259	 0.462199706039097 
1260	 0.462414654169645 
1261	 0.462634067779982 
1262	 0.46285464776302 
1263	 0.463081358225421 
1264	 0.463318448920641 
1265	 0.463564978855076 
1266	 0.463806802093452 
1267	 0.464059998427068 
1268	 0.464315220992665 
1269	 0.464549289062409 
1270	 0.464761523618469 
1271	 0.464993171559877 
1272	 0.465210310023373 
1273	 0.465466350325288 
1274	 0.46574592037767 
1275	 0.466023321775633 
1276	 0.466330270580338 
1277	 0.466613204861878 
1278	 0.466887209515743 
1279	 0.467166493265783 
1280	 0.467457024594632 
1281	 0.467717071014944 
1282	 0.46796975912547 
1283	 0.468204565650811 
1284	 0.468418019672073 
1285	 0.468612578022495 
1286	 0.468802625616446 
1287	 0.468971482965651 
1288	 0.46909891817802 
1289	 0.469198702395873 
1290	 0.469264795659233 
1291	 0.46929001478804 
1292	 0.469301317216905 
1293	 0.469283358753117 
1294	 0.469246381600644 
1295	 0.469193261428244 
1296	 0.469105541917494 
1297	 0.468986342439024 
1298	 0.468849137770235 
1299	 0.468673711404676 
1300	 0.468498266672178 
1301	 0.468319715143852 
1302	 0.468110446753423 
1303	 0.467870375632582 
1304	 0.46763687789316 
1305	 0.467383378700722 
1306	 0.467113615355319 
1307	 0.466876832547245 
1308	 0.46663816024811 
1309	 0.466394156957002 
1310	 0.466143199161615 
1311	 0.465914472255146 
1312	 0.465673509473213 
1313	 0.465478241125458 
1314	 0.465315547958953 
1315	 0.465160876757632 
1316	 0.465029744053068 
1317	 0.464909897438075 
1318	 0.464792087232858 
1319	 0.464705152631509 
1320	 0.464634276235522 
1321	 0.464601337963109 
1322	 0.464602177554123 
1323	 0.464621533403717 
1324	 0.46465985385841 
1325	 0.464698848995912 
1326	 0.464765437459512 
1327	 0.464857371965516 
1328	 0.464981903803714 
1329	 0.46515308707308 
1330	 0.465352788193359 
1331	 0.465589505349462 
1332	 0.465834512245398 
1333	 0.466127915331989 
1334	 0.466391165272026 
1335	 0.466638157352893 
1336	 0.466914950497671 
1337	 0.467196843833938 
1338	 0.467491968752656 
1339	 0.467807216948778 
1340	 0.468131255947641 
1341	 0.46846364713175 
1342	 0.468805025467799 
1343	 0.469160246087637 
1344	 0.469523420169905 
1345	 0.469893690897327 
1346	 0.470258484455706 
1347	 0.47064310316241 
1348	 0.47101883294199 
1349	 0.47137459227353 
1350	 0.471760692508656 
1351	 0.472143440298423 
1352	 0.472534200001082 
1353	 0.472901609111343 
1354	 0.473275670538728 
1355	 0.473625847790367 
1356	 0.473940391569831 
1357	 0.474281148975972 
1358	 0.474636732001714 
1359	 0.474973846290829 
1360	 0.475308372807527 
1361	 0.475628875202787 
1362	 0.475924813010124 
1363	 0.476234237159935 
1364	 0.476547372000923 
1365	 0.476859076801422 
1366	 0.477182517185379 
1367	 0.477490732441307 
1368	 0.477772171010802 
1369	 0.47804989523446 
1370	 0.478332346556078 
1371	 0.47860141902551 
1372	 0.478856207671589 
1373	 0.479091169731326 
1374	 0.479309257149285 
1375	 0.479500631799579 
1376	 0.479681384818415 
1377	 0.479864995041706 
1378	 0.480005486177449 
1379	 0.480123110564803 
1380	 0.480200416239597 
1381	 0.480228949975516 
1382	 0.480262292536925 
1383	 0.48027291710935 
1384	 0.480267799856984 
1385	 0.480275979108488 
1386	 0.480227200336551 
1387	 0.480141414680791 
1388	 0.480026989648 
1389	 0.479872385008706 
1390	 0.47969403787913 
1391	 0.479501648102329 
1392	 0.479284259747359 
1393	 0.479031085053288 
1394	 0.478756240186245 
1395	 0.478463957782151 
1396	 0.478142507679939 
1397	 0.477810206385369 
1398	 0.477458936515416 
1399	 0.477112446049248 
1400	 0.476739515766922 
1401	 0.476395893942351 
1402	 0.476069870650547 
1403	 0.475740306693892 
1404	 0.475416851177454 
1405	 0.4750909713524 
1406	 0.474768312596639 
1407	 0.474436285977124 
1408	 0.474097640358692 
1409	 0.473768080290295 
1410	 0.47339769041979 
1411	 0.473102346512166 
1412	 0.472829213919367 
1413	 0.472605179118399 
1414	 0.472444404744007 
1415	 0.472333175129303 
1416	 0.472257567294515 
1417	 0.472183634732014 
1418	 0.472134006246853 
1419	 0.472105438529472 
1420	 0.472068958714384 
1421	 0.472042512273261 
1422	 0.472027184278761 
1423	 0.471992093483087 
1424	 0.4719314928201 
1425	 0.47185802068385 
1426	 0.471778488324717 
1427	 0.47165399337312 
1428	 0.471568601168018 
1429	 0.471496192596795 
1430	 0.471432418781246 
1431	 0.471390143957268 
1432	 0.471335703701943 
1433	 0.471293451517089 
1434	 0.4712295176088 
1435	 0.47114136296857 
1436	 0.471068790422153 
1437	 0.470980881263561 
1438	 0.470920555048345 
1439	 0.470883450506053 
1440	 0.470844612444683 
1441	 0.470804217328953 
1442	 0.47077579900687 
1443	 0.470740997171614 
1444	 0.470708987460483 
1445	 0.470704369406284 
1446	 0.470691953055606 
1447	 0.470662940106766 
1448	 0.470643051619222 
1449	 0.470608979101267 
1450	 0.47056809428811 
1451	 0.470538625991083 
1452	 0.470513392922425 
1453	 0.470495677845671 
1454	 0.470483864221548 
1455	 0.470472318290787 
1456	 0.470472556934024 
1457	 0.470455324039687 
1458	 0.470428894869075 
1459	 0.470414125691867 
1460	 0.470391590678939 
1461	 0.4703809381122 
1462	 0.470364614500242 
1463	 0.470381505467468 
1464	 0.470419174911476 
1465	 0.4704635546773 
1466	 0.470542663324663 
1467	 0.470614802668541 
1468	 0.470677151641261 
1469	 0.470755443010433 
1470	 0.470847912060557 
1471	 0.470941239229776 
1472	 0.471040760925336 
1473	 0.471146457973443 
1474	 0.47125667107838 
1475	 0.471382195638286 
1476	 0.471530718169722 
1477	 0.47168479474677 
1478	 0.471839885953025 
1479	 0.471990400195816 
1480	 0.472134651334297 
1481	 0.472283549216201 
1482	 0.472440724043268 
1483	 0.47260685410357 
1484	 0.472777973750204 
1485	 0.472960027113879 
1486	 0.473132702981863 
1487	 0.473308928579048 
1488	 0.473479223173554 
1489	 0.473644437160605 
1490	 0.473803001177855 
1491	 0.47395441616914 
1492	 0.474111923809559 
1493	 0.474268236002755 
1494	 0.474424150465825 
1495	 0.474593435229648 
1496	 0.474740764612576 
1497	 0.474861371304374 
1498	 0.475000507644035 
1499	 0.475138707495949 
1500	 0.475281942484609 
1501	 0.475451481214715 
1502	 0.475593925091192 
1503	 0.475717527187229 
1504	 0.475843227034435 
1505	 0.475969680985965 
1506	 0.476092190297047 
1507	 0.476243266575899 
1508	 0.476393892620351 
1509	 0.476504690155334 
1510	 0.476618814409837 
1511	 0.476735550991156 
1512	 0.476836836439529 
1513	 0.476974677582247 
1514	 0.477132421953932 
1515	 0.47726050505621 
1516	 0.477385109391629 
1517	 0.477500372664793 
1518	 0.477602451022129 
1519	 0.477700818082622 
1520	 0.477785755295904 
1521	 0.477886447447318 
1522	 0.477985785973707 
1523	 0.47808940899286 
1524	 0.47821882146927 
1525	 0.478308439694348 
1526	 0.47837987583506 
1527	 0.478447890014571 
1528	 0.47848953872519 
1529	 0.478546146587211 
1530	 0.478602279997528 
1531	 0.478663019317978 
1532	 0.478728700628998 
1533	 0.478790962735328 
1534	 0.478856229618149 
1535	 0.478922663815259 
1536	 0.478978447518824 
1537	 0.479051250228897 
1538	 0.479143547310672 
1539	 0.479223507529747 
1540	 0.479308269921558 
1541	 0.479386474542756 
1542	 0.479456580244498 
1543	 0.479519261933817 
1544	 0.479572838343582 
1545	 0.479635187517773 
1546	 0.479693103891921 
1547	 0.479751253100949 
1548	 0.479831839250734 
1549	 0.4799200842188 
1550	 0.480010840234285 
1551	 0.480125715858212 
1552	 0.480248141848468 
1553	 0.480352832549195 
1554	 0.480447405058803 
1555	 0.480527384657959 
1556	 0.480593540401697 
1557	 0.480659580120787 
1558	 0.480723610918718 
1559	 0.480791715990246 
1560	 0.480851179469339 
1561	 0.480899292683834 
1562	 0.480961345603004 
1563	 0.481024267605041 
1564	 0.481087456272327 
1565	 0.481155132372943 
1566	 0.481229665993561 
1567	 0.481302554420802 
1568	 0.481390101166165 
1569	 0.48149707102074 
1570	 0.481587894912699 
1571	 0.481683919026414 
1572	 0.481765244577173 
1573	 0.481833866835386 
1574	 0.481901596988629 
1575	 0.481959600400752 
1576	 0.482023377642403 
1577	 0.482091902077565 
1578	 0.482150138296258 
1579	 0.482208700662412 
1580	 0.482255029858078 
1581	 0.482282058358882 
1582	 0.48232147132406 
1583	 0.482358505142403 
1584	 0.482401255974963 
1585	 0.48244804710481 
1586	 0.482500427374216 
1587	 0.482547691302463 
1588	 0.482614886588577 
1589	 0.482701428180893 
1590	 0.482782822210629 
1591	 0.482881635286671 
1592	 0.482969445326777 
1593	 0.48304457468333 
1594	 0.483131206644039 
1595	 0.483223955603735 
1596	 0.483309061264191 
1597	 0.483420067457674 
1598	 0.483487578162676 
1599	 0.483513922693274 
1600	 0.483556234737414 
1601	 0.483576666628308 
1602	 0.483603878319798 
1603	 0.483650395439825 
1604	 0.483686353729708 
1605	 0.483707030309387 
1606	 0.483732981006873 
1607	 0.483758417890076 
1608	 0.483788047098457 
1609	 0.483816599273231 
1610	 0.483849433769378 
1611	 0.483896519244101 
1612	 0.483937932906007 
1613	 0.483984026545175 
1614	 0.484062415002264 
1615	 0.484117561221112 
1616	 0.484181570265447 
1617	 0.484258402187953 
1618	 0.484302442100481 
1619	 0.48438368481504 
1620	 0.484472145815405 
1621	 0.484562419590699 
1622	 0.484674466205388 
1623	 0.484747672303559 
1624	 0.484810994272514 
1625	 0.484859608303568 
1626	 0.48487760429361 
1627	 0.484915413015683 
1628	 0.484953982086706 
1629	 0.484988609185633 
1630	 0.485022510941392 
1631	 0.485059666074339 
1632	 0.485081374068127 
1633	 0.485149168510117 
1634	 0.485254346149185 
1635	 0.485316573159487 
1636	 0.485390857257975 
1637	 0.485443152316854 
1638	 0.485460303139874 
1639	 0.485486931974893 
1640	 0.485517998646789 
1641	 0.485545750901424 
1642	 0.485544797690193 
1643	 0.485589952021301 
1644	 0.485665078793696 
1645	 0.485728280329291 
1646	 0.485803738367917 
1647	 0.485881712645419 
1648	 0.485957036063027 
1649	 0.486039783480109 
1650	 0.486145002408717 
1651	 0.486223108969275 
1652	 0.486281092727357 
1653	 0.486359454711653 
1654	 0.486448375930371 
1655	 0.486511531629673 
1656	 0.486581511729444 
1657	 0.486626061866318 
1658	 0.486634545546285 
1659	 0.486652881877524 
1660	 0.486663480703637 
1661	 0.486682962173351 
1662	 0.486699821791945 
1663	 0.486718864715889 
1664	 0.486745908830896 
1665	 0.486769496813642 
1666	 0.486788251912828 
1667	 0.486810489277119 
1668	 0.486840092433595 
1669	 0.486860520411366 
1670	 0.48685804940253 
1671	 0.486898220259167 
1672	 0.486955197367409 
1673	 0.487015823765776 
1674	 0.487125244305692 
1675	 0.487182060393836 
1676	 0.487214829268249 
1677	 0.487243539857317 
1678	 0.487228397124949 
1679	 0.487265095896126 
1680	 0.487333211640124 
1681	 0.487374046163841 
1682	 0.487418945132378 
1683	 0.487476600689574 
1684	 0.487523904283904 
1685	 0.487573984103519 
1686	 0.487649283401107 
1687	 0.487710893815036 
1688	 0.487746872360089 
1689	 0.487803953304935 
1690	 0.487885199815223 
1691	 0.487947173780612 
1692	 0.487995130933324 
1693	 0.488058203215176 
1694	 0.488115192987267 
1695	 0.48819459826956 
1696	 0.488302843329422 
1697	 0.488387590033832 
1698	 0.488487413695291 
1699	 0.488549542167727 
1700	 0.488600660885828 
1701	 0.488610896711183 
1702	 0.48856218264563 
1703	 0.488553455665765 
1704	 0.488516026009405 
1705	 0.4885256120138 
1706	 0.488586239818239 
1707	 0.488623550187567 
1708	 0.488661779475213 
1709	 0.488707344782789 
1710	 0.488747169871323 
1711	 0.488808569308474 
1712	 0.488890641690218 
1713	 0.48896660308993 
1714	 0.489050829821328 
1715	 0.489135684284451 
1716	 0.489224118045177 
1717	 0.48930571453555 
1718	 0.489392132613711 
1719	 0.489467748514964 
1720	 0.489560823232303 
1721	 0.489583103676254 
1722	 0.489566673658973 
1723	 0.489547287432181 
1724	 0.489467489950543 
1725	 0.489426213150881 
1726	 0.489415685173991 
1727	 0.489367214616643 
1728	 0.489291571074635 
1729	 0.489231542385948 
1730	 0.489159607045665 
1731	 0.489099579973305 
1732	 0.489046146085082 
1733	 0.489019066461617 
1734	 0.489007335211827 
1735	 0.488988171368208 
1736	 0.488990860207152 
1737	 0.488974538262 
1738	 0.488939516491976 
1739	 0.488916428898354 
1740	 0.488902412744364 
1741	 0.488888356873689 
1742	 0.488870690808243 
1743	 0.488851143837148 
1744	 0.488842249043185 
1745	 0.488813333484991 
1746	 0.488763232011874 
1747	 0.488743505848357 
1748	 0.488710689199895 
1749	 0.488704653742652 
1750	 0.48873832851144 
1751	 0.488753925457031 
1752	 0.488724868702186 
1753	 0.488677347573272 
1754	 0.488646153909491 
1755	 0.488618877954432 
1756	 0.488608646483243 
1757	 0.488602025531217 
1758	 0.488586775596232 
1759	 0.488596016395522 
1760	 0.488620296359781 
1761	 0.488629411155451 
1762	 0.488644032859392 
1763	 0.488656598471242 
1764	 0.488619237985425 
1765	 0.488599906195309 
1766	 0.48860604340447 
1767	 0.488589789002475 
1768	 0.488610634284892 
1769	 0.488633171034352 
1770	 0.488633331033425 
1771	 0.48867947641224 
1772	 0.488711370363917 
1773	 0.488733286074235 
1774	 0.488795739508737 
1775	 0.488813703703338 
1776	 0.488809438189117 
1777	 0.488825846200604 
1778	 0.488832116502305 
1779	 0.488820800061837 
1780	 0.488786614268007 
1781	 0.488775651334916 
1782	 0.488789163430451 
1783	 0.488843054112557 
1784	 0.488887296816553 
1785	 0.488955961028615 
1786	 0.488993275610148 
1787	 0.488980201499355 
1788	 0.489024097699807 
1789	 0.489108519814037 
1790	 0.48915941009564 
1791	 0.489224694758959 
1792	 0.489271299234475 
1793	 0.48927047632715 
1794	 0.489308568860734 
1795	 0.489387833177455 
1796	 0.489434459587877 
1797	 0.489469319292125 
1798	 0.489496227298791 
1799	 0.489496330097616 
1800	 0.489513212122432 
1801	 0.486908869320932 
1802	 0.486922095322801 
1803	 0.486954645262259 
1804	 0.487037533269452 
1805	 0.487117643158204 
1806	 0.487189151860727 
1807	 0.487232740942459 
1808	 0.487304361252649 
1809	 0.487392851408964 
1810	 0.487461492959276 
1811	 0.48754147787663 
1812	 0.48762365526916 
1813	 0.487635792181828 
1814	 0.487632047647923 
1815	 0.487633659126861 
1816	 0.487626902879931 
1817	 0.487615359613891 
1818	 0.487617697770119 
1819	 0.487583169239301 
1820	 0.487536125996578 
1821	 0.487451356073876 
1822	 0.487358651331677 
1823	 0.487277674731395 
1824	 0.487233534862384 
1825	 0.487192089561202 
1826	 0.487119048880542 
1827	 0.487044884638214 
1828	 0.486976261113246 
1829	 0.486902556392237 
1830	 0.486800808943534 
1831	 0.486687855923372 
1832	 0.48660307056023 
1833	 0.486470943942051 
1834	 0.486319756333711 
1835	 0.486280058383825 
1836	 0.486231967882644 
1837	 0.486173116362029 
1838	 0.486172462398384 
1839	 0.486130884622337 
1840	 0.486066367819003 
1841	 0.48598966948121 
1842	 0.485969050063376 
1843	 0.485890196174817 
1844	 0.485800893399996 
1845	 0.485748033258362 
1846	 0.485612416824513 
1847	 0.485503493048681 
1848	 0.485435556047701 
1849	 0.485339656232922 
1850	 0.485244710732266 
1851	 0.485160161834865 
1852	 0.485052852948828 
1853	 0.484944935187922 
1854	 0.484851669265103 
1855	 0.484770079257137 
1856	 0.484731899932519 
1857	 0.48472503496338 
1858	 0.48469240194476 
1859	 0.484622624477362 
1860	 0.484519444020136 
1861	 0.48439329589553 
1862	 0.484192054689554 
1863	 0.483957447445266 
1864	 0.483719679886358 
1865	 0.48344355169801 
1866	 0.483152151358562 
1867	 0.48286272123731 
1868	 0.482567900782417 
1869	 0.482279274853641 
1870	 0.481992459118291 
1871	 0.481700257059644 
1872	 0.481420795093365 
1873	 0.481132536629798 
1874	 0.480786005998882 
1875	 0.480389245612661 
1876	 0.479930043284382 
1877	 0.479399990548766 
1878	 0.478815520254564 
1879	 0.478181992908745 
1880	 0.477502084485423 
1881	 0.476770805754963 
1882	 0.475987551819826 
1883	 0.475163790458223 
1884	 0.474275549936266 
1885	 0.473316043253271 
1886	 0.472261624384036 
1887	 0.471138985006841 
1888	 0.469966087077878 
1889	 0.468747211628745 
1890	 0.467494446850897 
1891	 0.46623065509113 
1892	 0.464933990096613 
1893	 0.463628117752049 
1894	 0.462306605599142 
1895	 0.460964550446651 
1896	 0.459583176898338 
1897	 0.458199446899683 
1898	 0.456818861636677 
1899	 0.455472846495872 
1900	 0.454202379615422 
1901	 0.452973491392065 
1902	 0.451791225414588 
1903	 0.450686903706965 
1904	 0.449590574661952 
1905	 0.448527698190986 
1906	 0.447494498698453 
1907	 0.446478414378466 
1908	 0.445482197335235 
1909	 0.444549798181886 
1910	 0.443671275687046 
1911	 0.442853803568105 
1912	 0.442087940077239 
1913	 0.44135589261083 
1914	 0.440664827331585 
1915	 0.440010576453159 
1916	 0.439404044307186 
1917	 0.438815238635061 
1918	 0.438252755568012 
1919	 0.437733999940138 
1920	 0.437255677691455 
1921	 0.436852867504134 
1922	 0.436487934387856 
1923	 0.43613047266816 
1924	 0.435802198801142 
1925	 0.43547406766609 
1926	 0.43520928988237 
1927	 0.434984840813312 
1928	 0.434807569127208 
1929	 0.434644117354767 
1930	 0.434505882620535 
1931	 0.434391681997699 
1932	 0.434288962079962 
1933	 0.43423974152733 
1934	 0.434199220088118 
1935	 0.434177699812476 
1936	 0.434158095551306 
1937	 0.43419251364934 
1938	 0.434256844297411 
1939	 0.434357302346733 
1940	 0.434511011620824 
1941	 0.434663203654099 
1942	 0.434847871853518 
1943	 0.435046480019894 
1944	 0.435234831990726 
1945	 0.43543681613018 
1946	 0.435649455176859 
1947	 0.435867455533501 
1948	 0.436088758040224 
1949	 0.436318209567337 
1950	 0.436565858796981 
1951	 0.436827606754083 
1952	 0.43707670544547 
1953	 0.43735616045638 
1954	 0.437648319838607 
1955	 0.43792769795622 
1956	 0.438232065346333 
1957	 0.438544578648192 
1958	 0.438870741918281 
1959	 0.43920467517286 
1960	 0.439551156308016 
1961	 0.439900182725865 
1962	 0.440272403566669 
1963	 0.440626612304584 
1964	 0.440968603960535 
1965	 0.441323114798688 
1966	 0.44166963632348 
1967	 0.44203744815014 
1968	 0.442424524631365 
1969	 0.442842475199318 
1970	 0.443241614496816 
1971	 0.443655511906081 
1972	 0.444051075715023 
1973	 0.44442797525699 
1974	 0.444822300821534 
1975	 0.445222254447117 
1976	 0.445618661962899 
1977	 0.446023065176579 
1978	 0.446423859770426 
1979	 0.446819693935529 
1980	 0.447244884075194 
1981	 0.447670755423415 
1982	 0.448108962912379 
1983	 0.448545921211717 
1984	 0.448999216530079 
1985	 0.449436965748789 
1986	 0.44988810990351 
1987	 0.450307729268118 
1988	 0.450711451488032 
1989	 0.451091315174642 
1990	 0.451470773209791 
1991	 0.451843984498894 
1992	 0.452237408363413 
1993	 0.452642858194938 
1994	 0.453054768955416 
1995	 0.453479894412452 
1996	 0.453904390473936 
1997	 0.454335450954598 
1998	 0.45477362568045 
1999	 0.455221279514343 
2000	 0.455654577433208 
2001	 0.456102951025774 
2002	 0.456534979382142 
2003	 0.456911460909748 
2004	 0.457309818209321 
2005	 0.457685647710364 
2006	 0.458024134343592 
2007	 0.458389364773445 
2008	 0.458752198285515 
2009	 0.459132085588416 
2010	 0.459528163624645 
2011	 0.459926805075224 
2012	 0.460334689163652 
2013	 0.460744297010578 
2014	 0.461162954987667 
2015	 0.461574623744607 
2016	 0.46197961124766 
2017	 0.46241451887012 
2018	 0.462833114187235 
2019	 0.463253259333753 
2020	 0.463659840889078 
2021	 0.464064625516888 
2022	 0.464455835627855 
2023	 0.464843503930304 
2024	 0.465210008401537 
2025	 0.46554248628192 
2026	 0.465897176260925 
2027	 0.466254447402262 
2028	 0.466592224758777 
2029	 0.466946024647856 
2030	 0.46732471166963 
2031	 0.46767402895649 
2032	 0.468005795351979 
2033	 0.468348060703074 
2034	 0.468691041375627 
2035	 0.469026089764843 
2036	 0.469375471221237 
2037	 0.469689900332941 
2038	 0.469975077784433 
2039	 0.470265384547721 
2040	 0.470545635237366 
2041	 0.470810466984042 
2042	 0.471066054494251 
2043	 0.471346400252683 
2044	 0.471603174899105 
2045	 0.471826013361254 
2046	 0.472096497126692 
2047	 0.472381791267421 
2048	 0.472667648039876 
2049	 0.472991898734946 
2050	 0.473288320742226 
2051	 0.473583778509745 
2052	 0.473859013277226 
2053	 0.474109782272901 
2054	 0.47436416514346 
2055	 0.474621236610227 
2056	 0.474853996581346 
2057	 0.475068508556555 
2058	 0.475266415127298 
2059	 0.475479511675558 
2060	 0.4756633647411 
2061	 0.475875557368438 
2062	 0.476118585374799 
2063	 0.476347369199896 
2064	 0.476574689552172 
2065	 0.476799542008025 
2066	 0.477031023828768 
2067	 0.477251228574682 
2068	 0.477462348012351 
2069	 0.477675540243899 
2070	 0.477870937030065 
2071	 0.478054715415128 
2072	 0.478239552970485 
2073	 0.478405247112557 
2074	 0.478591062613225 
2075	 0.478782172021713 
2076	 0.478977882572971 
2077	 0.479181810832005 
2078	 0.479386994410601 
2079	 0.479604457295117 
2080	 0.479809044700538 
2081	 0.480003180418444 
2082	 0.480209263773455 
2083	 0.48041040689111 
2084	 0.480626329397463 
2085	 0.480824430533134 
2086	 0.481032225158989 
2087	 0.481215983932017 
2088	 0.481367146501542 
2089	 0.481546289752035 
2090	 0.481730662216085 
2091	 0.481916447848304 
2092	 0.482116072418383 
2093	 0.482304067781409 
2094	 0.482496427682778 
2095	 0.482669549318882 
2096	 0.482821590119789 
2097	 0.482986411217812 
2098	 0.483150013545205 
2099	 0.483297875878883 
2100	 0.483466547622211 
2101	 0.483649290041278 
2102	 0.483833174953262 
2103	 0.48401529843728 
2104	 0.484214787840592 
2105	 0.484415471444971 
2106	 0.484644535566844 
2107	 0.484893796979487 
2108	 0.485156011915161 
2109	 0.485477842225737 
2110	 0.485744901566067 
2111	 0.485976377263157 
2112	 0.486232948424056 
2113	 0.486478963068616 
2114	 0.486720948801805 
2115	 0.486976037140694 
2116	 0.487274212848874 
2117	 0.487515700560769 
2118	 0.487722369851949 
2119	 0.487948084535087 
2120	 0.488159637851561 
2121	 0.488383431116081 
2122	 0.488611795146672 
2123	 0.488847796629304 
2124	 0.489094938023092 
2125	 0.489331299585935 
2126	 0.489590107007032 
2127	 0.489815469719768 
2128	 0.490016100690943 
2129	 0.490210105755256 
2130	 0.490374803510999 
2131	 0.490562511224919 
2132	 0.490703276466907 
2133	 0.490830940395093 
2134	 0.490932931188575 
2135	 0.49102644105914 
2136	 0.491045056040056 
2137	 0.49101414795246 
2138	 0.490974829968214 
2139	 0.490873512338443 
2140	 0.490769302888531 
2141	 0.490656235647133 
2142	 0.490532562238999 
2143	 0.490366236893983 
2144	 0.490215197266106 
2145	 0.490084334828494 
2146	 0.489929735362487 
2147	 0.489766574159116 
2148	 0.489584958819255 
2149	 0.48939622921386 
2150	 0.489193732760729 
2151	 0.488977473897424 
2152	 0.488770771591535 
2153	 0.488500482968199 
2154	 0.488184907297049 
2155	 0.487874570339701 
2156	 0.48752447220817 
2157	 0.487174904216187 
2158	 0.48682956529037 
2159	 0.486463446681482 
2160	 0.48606840266432 
2161	 0.485676992987726 
2162	 0.485274084457549 
2163	 0.484878061879634 
2164	 0.484498989113821 
2165	 0.484080552575126 
2166	 0.48367401681146 
2167	 0.483269844733073 
2168	 0.482859750048764 
2169	 0.482435238749767 
2170	 0.482025315413222 
2171	 0.481629754644887 
2172	 0.48121208646767 
2173	 0.480789360235335 
2174	 0.480363067199281 
2175	 0.479914763379352 
2176	 0.479483676385856 
2177	 0.479073693701784 
2178	 0.478635552894534 
2179	 0.478164108592537 
2180	 0.477731335127217 
2181	 0.477305662073875 
2182	 0.476880039596813 
2183	 0.476486794166405 
2184	 0.47608597192453 
2185	 0.475681692475341 
2186	 0.47526560545229 
2187	 0.474845980879492 
2188	 0.474408396329567 
2189	 0.474019386236065 
2190	 0.473618777543098 
2191	 0.473274240415445 
2192	 0.472990129257118 
2193	 0.47270916066175 
2194	 0.472445933912532 
2195	 0.47220902592632 
2196	 0.472028124415699 
2197	 0.471811933720867 
2198	 0.471610843796206 
2199	 0.471388744484268 
2200	 0.471122984405155 
2201	 0.470882541759149 
2202	 0.470637800244015 
2203	 0.470403168972776 
2204	 0.470218871408864 
2205	 0.470066179477768 
2206	 0.469920562685757 
2207	 0.469801464866859 
2208	 0.469716765347781 
2209	 0.469634624612242 
2210	 0.469614072994207 
2211	 0.469670414309419 
2212	 0.469706240917226 
2213	 0.469774666646822 
2214	 0.469832028605264 
2215	 0.469915319434994 
2216	 0.469953467215321 
2217	 0.46999526920913 
2218	 0.469987074308316 
2219	 0.46992426674371 
2220	 0.469854804464837 
2221	 0.469751951567479 
2222	 0.469641768704534 
2223	 0.46952962121727 
2224	 0.469388031785305 
2225	 0.469258450816715 
2226	 0.469121601708851 
2227	 0.468991732060896 
2228	 0.468877291044421 
2229	 0.468725498807415 
2230	 0.468571208867547 
2231	 0.468377765218572 
2232	 0.46813635556853 
2233	 0.46791457415831 
2234	 0.467674099668303 
2235	 0.467440514422191 
2236	 0.467201657961896 
2237	 0.46697833765564 
2238	 0.466775449544005 
2239	 0.466546268758915 
2240	 0.466303279996406 
2241	 0.466083460480284 
2242	 0.465841749217596 
2243	 0.465625279566629 
2244	 0.465452524568495 
2245	 0.465268778306221 
2246	 0.465052926636181 
2247	 0.464894972058609 
2248	 0.464761541010147 
2249	 0.464649547312445 
2250	 0.464551692076235 
2251	 0.464503781948904 
2252	 0.464427220180613 
2253	 0.464340110860422 
2254	 0.464280351232648 
2255	 0.464231069913438 
2256	 0.464186218556918 
2257	 0.464165636727951 
2258	 0.464129018650638 
2259	 0.464067056847577 
2260	 0.464052463556048 
2261	 0.464063291877343 
2262	 0.46406732941349 
2263	 0.464101427593987 
2264	 0.464127851091247 
2265	 0.464154482598371 
2266	 0.464164938765187 
2267	 0.464178714567181 
2268	 0.464187775012132 
2269	 0.464179115268598 
2270	 0.46415939329279 
2271	 0.464173123771083 
2272	 0.464140946912324 
2273	 0.464099279529435 
2274	 0.464108305353277 
2275	 0.464130479699395 
2276	 0.464161127747665 
2277	 0.464227890108762 
2278	 0.464337908693708 
2279	 0.464436389222332 
2280	 0.464555827228744 
2281	 0.464667509504802 
2282	 0.464784243858658 
2283	 0.464899034791211 
2284	 0.465013483889337 
2285	 0.465140606311972 
2286	 0.465274394272744 
2287	 0.465400345112553 
2288	 0.465540400756588 
2289	 0.465654399262941 
2290	 0.46573502408589 
2291	 0.465842535547678 
2292	 0.465947388941719 
2293	 0.466068154464523 
2294	 0.466211723250141 
2295	 0.466360824223019 
2296	 0.466513605354302 
2297	 0.466666598116197 
2298	 0.466872742016074 
2299	 0.467078916289985 
2300	 0.467311456389392 
2301	 0.467554141261498 
2302	 0.46774178113624 
2303	 0.467924863729045 
2304	 0.468068385149252 
2305	 0.468165896142011 
2306	 0.468295564947204 
2307	 0.468422154477753 
2308	 0.468542524503689 
2309	 0.468668573345493 
2310	 0.468792688705166 
2311	 0.468901458713142 
2312	 0.469024567074999 
2313	 0.469167754165003 
2314	 0.469292971674507 
2315	 0.469415797252913 
2316	 0.469525252563923 
2317	 0.469596303919497 
2318	 0.469725152748756 
2319	 0.469889889595561 
2320	 0.470027850007514 
2321	 0.470215416969864 
2322	 0.470336978729708 
2323	 0.470357472170438 
2324	 0.470460947033447 
2325	 0.470583110255436 
2326	 0.470706276864422 
2327	 0.470876638595282 
2328	 0.47104660545271 
2329	 0.471164890292012 
2330	 0.471278895768173 
2331	 0.471407543524581 
2332	 0.47155756243444 
2333	 0.471671408852063 
2334	 0.471781429715739 
2335	 0.471878071024102 
2336	 0.471950339613874 
2337	 0.472086629988744 
2338	 0.472244214131031 
2339	 0.472372454791973 
2340	 0.472460152599013 
2341	 0.472486157820124 
2342	 0.472511937883185 
2343	 0.472537306801088 
2344	 0.472513473633809 
2345	 0.472463050603907 
2346	 0.472362759743615 
2347	 0.472274975068916 
2348	 0.472187252454896 
2349	 0.472064703235476 
2350	 0.471917669820216 
2351	 0.471754442490609 
2352	 0.471528070952558 
2353	 0.471332187284309 
2354	 0.471161404343181 
2355	 0.470988060417359 
2356	 0.470824617563038 
2357	 0.470645350838485 
2358	 0.470464002370808 
2359	 0.470250083304848 
2360	 0.469967278084534 
2361	 0.469762484663737 
2362	 0.469583388898627 
2363	 0.469419727116433 
2364	 0.469314597657805 
2365	 0.469201630163491 
2366	 0.469095740319474 
2367	 0.468955321844018 
2368	 0.468846933570866 
2369	 0.468678017677658 
2370	 0.468460809762823 
2371	 0.468219510344684 
2372	 0.467930773582346 
2373	 0.467594349673757 
2374	 0.467239607857904 
2375	 0.466922965999908 
2376	 0.46661650408093 
2377	 0.466317429006297 
2378	 0.466043743711033 
2379	 0.465717732398001 
2380	 0.465413505779879 
2381	 0.465137545755978 
2382	 0.46480172283089 
2383	 0.464473438687128 
2384	 0.464129617192124 
2385	 0.463709506394725 
2386	 0.463336141715364 
2387	 0.463043736775346 
2388	 0.462712935230452 
2389	 0.462426605419196 
2390	 0.462130115948578 
2391	 0.46177958770256 
2392	 0.461503293486983 
2393	 0.461218969995248 
2394	 0.460927023002636 
2395	 0.46063717751585 
2396	 0.460244759149943 
2397	 0.459817200188614 
2398	 0.459429614937608 
2399	 0.458930959081238 
2400	 0.45847421076567 
2401	 0.458222531689899 
2402	 0.457928069407763 
2403	 0.457641075569626 
2404	 0.457400744806272 
2405	 0.45700640751668 
2406	 0.456497361036845 
2407	 0.45600294899494 
2408	 0.455545811222746 
2409	 0.455133033412609 
2410	 0.454796133823172 
2411	 0.454522789507751 
2412	 0.454221549072794 
2413	 0.453789504555238 
2414	 0.453352543738391 
2415	 0.452985882081661 
2416	 0.452613139758026 
2417	 0.452246668460326 
2418	 0.451938526594657 
2419	 0.451657273834905 
2420	 0.451354535577178 
2421	 0.451141335135072 
2422	 0.450766515795487 
2423	 0.45026956623059 
2424	 0.449882302837249 
2425	 0.449452816539418 
2426	 0.449081203827258 
2427	 0.448798632541487 
2428	 0.448456072817783 
2429	 0.448081435355087 
2430	 0.447717975019698 
2431	 0.447391430169319 
2432	 0.447004070807375 
2433	 0.446594463562845 
2434	 0.446203854041347 
2435	 0.44572083527385 
2436	 0.445409081767722 
2437	 0.445181375810629 
2438	 0.444877112268602 
2439	 0.444677230846302 
2440	 0.444449770546264 
2441	 0.444208834290973 
2442	 0.443909575662394 
2443	 0.443577934373228 
2444	 0.443209420906134 
2445	 0.442722710224912 
2446	 0.442343249459819 
2447	 0.442046888791648 
2448	 0.441639525812561 
2449	 0.44117690026191 
2450	 0.440792959374037 
2451	 0.440390965070358 
2452	 0.440059738519625 
2453	 0.439826388674827 
2454	 0.439560668620631 
2455	 0.439293173331597 
2456	 0.439028075430728 
2457	 0.438801371117326 
2458	 0.438527129446248 
2459	 0.438237229017404 
2460	 0.437944793198036 
2461	 0.437585120049318 
2462	 0.437251443229595 
2463	 0.436931916581109 
2464	 0.436638507388297 
2465	 0.436391842873376 
2466	 0.436084113589266 
2467	 0.435767521977277 
2468	 0.435441204149799 
2469	 0.435021416874467 
2470	 0.434829686720291 
2471	 0.434600827376537 
2472	 0.434283957246396 
2473	 0.434078757517434 
2474	 0.433828902358607 
2475	 0.433441802748384 
2476	 0.433082994214254 
2477	 0.432611463456372 
2478	 0.432040248309031 
2479	 0.431610988242751 
2480	 0.431299923675138 
2481	 0.430985917182161 
2482	 0.43073264507256 
2483	 0.43045193892601 
2484	 0.430066516801905 
2485	 0.429776688593907 
2486	 0.429554247278362 
2487	 0.42926583195572 
2488	 0.428939105466796 
2489	 0.42863910243094 
2490	 0.428366066837638 
2491	 0.428058773059056 
2492	 0.427858958863716 
2493	 0.427740983694482 
2494	 0.42747310987285 
2495	 0.427156743314454 
2496	 0.427017223610254 
2497	 0.426879211136439 
2498	 0.426502155919573 
2499	 0.426300132147744 
2500	 0.426134636236979 
