Wavelength	MM700008.asd
350	 5.13293709357249E-02 
351	 5.00571081224368E-02 
352	 4.87708440145873E-02 
353	 4.47854628641961E-02 
354	 4.99881633045397E-02 
355	 5.60124833936412E-02 
356	 5.75708088783182E-02 
357	 5.43289018515325E-02 
358	 0.05968003302975 
359	 6.34727889051605E-02 
360	 6.38450196528527E-02 
361	 6.44963508567021E-02 
362	 6.33318035884398E-02 
363	 6.16546066418384E-02 
364	 6.03165347590905E-02 
365	 0.058628547554684 
366	 6.22173692738914E-02 
367	 6.47430467612323E-02 
368	 6.05620621907231E-02 
369	 5.94431193170696E-02 
370	 0.060152823231827 
371	 6.20206134522145E-02 
372	 6.45985286311065E-02 
373	 6.29631099545636E-02 
374	 6.24855479845326E-02 
375	 6.51612912793221E-02 
376	 6.50915653066564E-02 
377	 6.19533691920656E-02 
378	 6.11118485037772E-02 
379	 6.60891614735704E-02 
380	 6.53087651796296E-02 
381	 6.36518160551756E-02 
382	 6.36630046007266E-02 
383	 6.54119140835694E-02 
384	 6.67063030125888E-02 
385	 6.68319480914693E-02 
386	 0.066386908663533 
387	 0.068065627019113 
388	 6.79647795256063E-02 
389	 6.74243409847577E-02 
390	 6.86119985869619E-02 
391	 6.90029530069134E-02 
392	 6.97092619314624E-02 
393	 7.11389858356002E-02 
394	 7.28426287334041E-02 
395	 7.18843573253887E-02 
396	 7.18669622982921E-02 
397	 7.45400967959241E-02 
398	 7.56063519458549E-02 
399	 7.59515635231243E-02 
400	 7.56424491976406E-02 
401	 7.47968196679727E-02 
402	 7.47126467510498E-02 
403	 7.50712329948526E-02 
404	 0.075733539453645 
405	 7.68305254037766E-02 
406	 0.077101091327314 
407	 7.77698449277052E-02 
408	 0.079206290472618 
409	 0.078136408329442 
410	 7.82342658997024E-02 
411	 7.93203261405329E-02 
412	 7.96395723604621E-02 
413	 8.04721424623139E-02 
414	 8.06359006537781E-02 
415	 8.02617096889044E-02 
416	 8.13800375129493E-02 
417	 8.17495928760461E-02 
418	 8.17731708218195E-02 
419	 8.21913416155182E-02 
420	 8.26598052859903E-02 
421	 8.24806093138585E-02 
422	 8.22124544092104E-02 
423	 8.30190655608072E-02 
424	 8.33544645738971E-02 
425	 8.33438915165315E-02 
426	 8.32462261800007E-02 
427	 8.31158577553672E-02 
428	 8.30862043838227E-02 
429	 8.31189486251671E-02 
430	 8.31183712974198E-02 
431	 8.30822879487436E-02 
432	 8.27744056930052E-02 
433	 0.082345701438931 
434	 8.23027668564935E-02 
435	 8.28718697268023E-02 
436	 8.31734711582254E-02 
437	 8.26874956827813E-02 
438	 8.22475974833272E-02 
439	 8.26315635770385E-02 
440	 8.32648063973609E-02 
441	 0.083077893858142 
442	 8.31639059664705E-02 
443	 8.34883706849497E-02 
444	 8.38764357126356E-02 
445	 8.41238503568128E-02 
446	 8.44455681174151E-02 
447	 0.084741319115832 
448	 8.48713139432037E-02 
449	 8.48690306455164E-02 
450	 8.51649730108603E-02 
451	 8.57175986075965E-02 
452	 8.60858911643847E-02 
453	 8.62531328905305E-02 
454	 8.63263905895743E-02 
455	 8.64919206354687E-02 
456	 0.087117423012864 
457	 8.74321949085118E-02 
458	 8.73937783424204E-02 
459	 0.087366113179239 
460	 8.79595313202444E-02 
461	 8.81924647049055E-02 
462	 8.78751414626206E-02 
463	 8.81058913648109E-02 
464	 8.84315972662216E-02 
465	 8.86514954883215E-02 
466	 8.87010734573393E-02 
467	 0.088825558999443 
468	 8.89328189751909E-02 
469	 8.90438303229745E-02 
470	 8.92551053757071E-02 
471	 8.92596473364981E-02 
472	 0.08924210320724 
473	 8.93667848146223E-02 
474	 8.95639971586984E-02 
475	 8.97270255935522E-02 
476	 8.98370788985819E-02 
477	 8.99148391037491E-02 
478	 8.99094514870424E-02 
479	 8.99064166872392E-02 
480	 0.090004596159674 
481	 9.03152286250551E-02 
482	 0.090342277577461 
483	 9.03568940920706E-02 
484	 0.090653098863137 
485	 9.07025707298176E-02 
486	 9.06444982827332E-02 
487	 9.05695538584435E-02 
488	 9.05237473785056E-02 
489	 9.07284728859772E-02 
490	 9.10186191271389E-02 
491	 9.12053020844498E-02 
492	 9.12072507041145E-02 
493	 9.12021182055369E-02 
494	 9.12235586734528E-02 
495	 9.12525168752615E-02 
496	 9.14492969045979E-02 
497	 0.091571515202617 
498	 9.16122445165252E-02 
499	 9.19831040539354E-02 
500	 9.20112931663586E-02 
501	 9.18398363043228E-02 
502	 9.17976824931928E-02 
503	 9.18560758324002E-02 
504	 9.19602411056897E-02 
505	 9.20563691838719E-02 
506	 0.092099888424338 
507	 9.21427374318496E-02 
508	 9.22718294979208E-02 
509	 9.24975238692432E-02 
510	 9.26356457743897E-02 
511	 9.26354691373688E-02 
512	 9.25799973104565E-02 
513	 9.26164554561592E-02 
514	 9.27226710437155E-02 
515	 9.27681630776271E-02 
516	 9.27500024859112E-02 
517	 9.29135190444483E-02 
518	 9.29428633473503E-02 
519	 9.28806409574478E-02 
520	 9.28926795129228E-02 
521	 0.093123163033784 
522	 9.32799705869072E-02 
523	 9.32906176231154E-02 
524	 9.33354180855126E-02 
525	 9.33760527652621E-02 
526	 9.34485409742718E-02 
527	 9.35670697688568E-02 
528	 0.093639153127199 
529	 9.37348724001912E-02 
530	 9.38194308542612E-02 
531	 9.38041387204143E-02 
532	 9.38127254316739E-02 
533	 9.39282338163357E-02 
534	 9.41301745058592E-02 
535	 9.42005917163224E-02 
536	 9.42754254401366E-02 
537	 9.43854991302283E-02 
538	 9.45114602931216E-02 
539	 9.45636301859092E-02 
540	 9.46671585860348E-02 
541	 0.094838145660978 
542	 9.49269576733561E-02 
543	 9.50535485176511E-02 
544	 9.51989450713644E-02 
545	 9.53256725425118E-02 
546	 9.54911483955638E-02 
547	 9.55590062261572E-02 
548	 9.56040738186853E-02 
549	 9.58625024769456E-02 
550	 9.60415767553834E-02 
551	 9.61840050987097E-02 
552	 9.63713879942768E-02 
553	 9.66338934588935E-02 
554	 9.68081089490875E-02 
555	 9.69215706690627E-02 
556	 9.71020615531546E-02 
557	 9.73599807951582E-02 
558	 9.76367779094753E-02 
559	 9.78979576966624E-02 
560	 9.81691935639856E-02 
561	 9.83944973799492E-02 
562	 9.86529267071531E-02 
563	 9.90468274076868E-02 
564	 9.95363461255198E-02 
565	 0.100024375864971 
566	 0.100449613044405 
567	 0.100798259003856 
568	 0.101277875371544 
569	 0.101830683572389 
570	 0.102359416323418 
571	 0.10288349850434 
572	 0.103379262091487 
573	 0.103843703464653 
574	 0.104298087485739 
575	 0.104851300037366 
576	 0.105499821050681 
577	 0.106191981503103 
578	 0.106813524295875 
579	 0.107462588873613 
580	 0.108116097676277 
581	 0.108721575563302 
582	 0.109387475303216 
583	 0.110099823597753 
584	 0.110874198720692 
585	 0.111787193360038 
586	 0.11278598167206 
587	 0.113801554842839 
588	 0.114774292098852 
589	 0.115713604762976 
590	 0.116658366190506 
591	 0.117633218634944 
592	 0.118643288101292 
593	 0.119529732815475 
594	 0.120305069039378 
595	 0.121035881467179 
596	 0.121825721572664 
597	 0.122628078850877 
598	 0.123462616796712 
599	 0.124376074798512 
600	 0.125304037571361 
601	 0.126258473188164 
602	 0.127218890086045 
603	 0.128092581611294 
604	 0.128941581369723 
605	 0.129802248955834 
606	 0.130685082488092 
607	 0.131507969837306 
608	 0.132278409147408 
609	 0.133039852988103 
610	 0.133868267937291 
611	 0.134616696765912 
612	 0.135345682365508 
613	 0.13609987573583 
614	 0.136702348104804 
615	 0.1372473083797 
616	 0.137804865038392 
617	 0.138410969244474 
618	 0.138935490779522 
619	 0.139433769396979 
620	 0.139937162282406 
621	 0.140353549461778 
622	 0.140766537926383 
623	 0.141186884042051 
624	 0.141602205544524 
625	 0.142055773881954 
626	 0.142470581001113 
627	 0.142829139289657 
628	 0.143203061305015 
629	 0.14359319782831 
630	 0.143976304587335 
631	 0.144319948817475 
632	 0.144579411001894 
633	 0.14488337237921 
634	 0.145248591102377 
635	 0.145593804986771 
636	 0.145867453805525 
637	 0.146140011648384 
638	 0.146458377533587 
639	 0.146754846472488 
640	 0.147075274215982 
641	 0.147406374113386 
642	 0.147712379117497 
643	 0.14800876297917 
644	 0.148314690125521 
645	 0.148637045285525 
646	 0.148964752563505 
647	 0.149274106103351 
648	 0.149571808256304 
649	 0.149883951778398 
650	 0.150275705372836 
651	 0.150647368206821 
652	 0.150974096888381 
653	 0.151303199524223 
654	 0.15167189654984 
655	 0.152039431101833 
656	 0.152385370761261 
657	 0.152776375914342 
658	 0.15319381217217 
659	 0.153603360431538 
660	 0.153973905134466 
661	 0.154376127288477 
662	 0.154811837092659 
663	 0.155255420171214 
664	 0.155652450952737 
665	 0.15603972610871 
666	 0.156483424346737 
667	 0.157006816294586 
668	 0.157420159959197 
669	 0.157866334844494 
670	 0.158381774302028 
671	 0.158903042620803 
672	 0.159383569035562 
673	 0.159882575520244 
674	 0.160429680626634 
675	 0.160930447645704 
676	 0.16149286731482 
677	 0.162070019643974 
678	 0.162572864290346 
679	 0.163121423027315 
680	 0.163733017811733 
681	 0.164391782132612 
682	 0.165053707229147 
683	 0.165608918290134 
684	 0.166161414629626 
685	 0.166822312628883 
686	 0.167508599112267 
687	 0.168188736064372 
688	 0.168863466295906 
689	 0.169555007978064 
690	 0.170234084706873 
691	 0.170916729414655 
692	 0.171620363505948 
693	 0.172354782850647 
694	 0.173088271960245 
695	 0.173823880656303 
696	 0.17457090919044 
697	 0.175291440531495 
698	 0.176043131275637 
699	 0.176830497880195 
700	 0.177597139042464 
701	 0.178379852689349 
702	 0.17915596456646 
703	 0.179916899938681 
704	 0.180732980861192 
705	 0.181545947502566 
706	 0.182327495283534 
707	 0.183074702083248 
708	 0.183847970373987 
709	 0.184661183943843 
710	 0.185485233253835 
711	 0.186240202648303 
712	 0.187043300139067 
713	 0.187868949750769 
714	 0.188651235269458 
715	 0.189325024411672 
716	 0.190006551411837 
717	 0.190743769506103 
718	 0.191521179593896 
719	 0.192278888534792 
720	 0.192971231110963 
721	 0.193604515298274 
722	 0.194273849770004 
723	 0.194973312842737 
724	 0.195630328664885 
725	 0.19617863612488 
726	 0.196707916715814 
727	 0.197274305506694 
728	 0.197861176343733 
729	 0.198388885201597 
730	 0.198900874258591 
731	 0.199356249289188 
732	 0.199744911293921 
733	 0.200165738958792 
734	 0.200530706416471 
735	 0.200864317929049 
736	 0.201217868881788 
737	 0.201505200948895 
738	 0.2017723495728 
739	 0.202013212288885 
740	 0.202157823589873 
741	 0.202286705437309 
742	 0.202394548913124 
743	 0.202480924412379 
744	 0.202623494208297 
745	 0.202668325062358 
746	 0.202636971332073 
747	 0.202624088150251 
748	 0.202577168087645 
749	 0.202468308882973 
750	 0.20230327695499 
751	 0.202125578189035 
752	 0.201974694793583 
753	 0.201775037783869 
754	 0.20148761180249 
755	 0.201264855021325 
756	 0.201005636597024 
757	 0.200686986570426 
758	 0.200332109855322 
759	 0.199979683575051 
760	 0.199596657909317 
761	 0.199189811868354 
762	 0.198821934952068 
763	 0.198356289036871 
764	 0.19789181361485 
765	 0.197501968505562 
766	 0.197013238101637 
767	 0.196546509302687 
768	 0.196082058328448 
769	 0.195554436842445 
770	 0.195124520997246 
771	 0.194632049163022 
772	 0.194038553745191 
773	 0.193482486085516 
774	 0.192964256511421 
775	 0.192448840165842 
776	 0.191907468025855 
777	 0.191358279892073 
778	 0.190805008011728 
779	 0.190261644917046 
780	 0.189730848627682 
781	 0.189120998268183 
782	 0.18853978507857 
783	 0.188014154217872 
784	 0.187472545731579 
785	 0.186930262138511 
786	 0.186378830830058 
787	 0.185814810921127 
788	 0.185248027141965 
789	 0.184722088091394 
790	 0.184219629099542 
791	 0.183700934489294 
792	 0.183161018621743 
793	 0.182590788445301 
794	 0.18202529032293 
795	 0.18153120871945 
796	 0.181069210824266 
797	 0.180602204043722 
798	 0.180111395170092 
799	 0.179609220501655 
800	 0.179097837558583 
801	 0.1785918221397 
802	 0.178108841137497 
803	 0.177668081568138 
804	 0.177215518413844 
805	 0.176743246712432 
806	 0.17627808277519 
807	 0.17584724008461 
808	 0.175442715936778 
809	 0.17504365398879 
810	 0.174619903545447 
811	 0.174227488420125 
812	 0.173811375639701 
813	 0.17335406218716 
814	 0.173010146472403 
815	 0.172656947941406 
816	 0.172292952107432 
817	 0.171955439714954 
818	 0.171603360725589 
819	 0.171258290709695 
820	 0.170908297173952 
821	 0.170522805647887 
822	 0.170230960283307 
823	 0.169954051072137 
824	 0.169642468844925 
825	 0.169346991185797 
826	 0.169095723371948 
827	 0.168869830414759 
828	 0.168629100538119 
829	 0.168313516885153 
830	 0.16799058467135 
831	 0.16772852946365 
832	 0.167557038888636 
833	 0.167301691985768 
834	 0.167030684386097 
835	 0.166795492736715 
836	 0.166606587954847 
837	 0.166378875513044 
838	 0.166186758747634 
839	 0.16606595089629 
840	 0.165944243940116 
841	 0.165774849660545 
842	 0.165554227211401 
843	 0.165328653601376 
844	 0.165249751756446 
845	 0.165134016332079 
846	 0.164988244559437 
847	 0.16489490347869 
848	 0.164801958856305 
849	 0.16469460293558 
850	 0.164584366496461 
851	 0.164499591213896 
852	 0.164413613215887 
853	 0.164324000546241 
854	 0.164239523588311 
855	 0.164179162878541 
856	 0.164127321733221 
857	 0.164112679821824 
858	 0.164128985785526 
859	 0.164054237009889 
860	 0.16399223994336 
861	 0.163979312520876 
862	 0.164013013913097 
863	 0.164045437327807 
864	 0.164062667556737 
865	 0.164064248514279 
866	 0.164061337183626 
867	 0.164075247694032 
868	 0.16408808963201 
869	 0.164106041796663 
870	 0.164161124474393 
871	 0.164246808600096 
872	 0.16433533559789 
873	 0.164426833252208 
874	 0.164570568139558 
875	 0.164645353938157 
876	 0.164690785400485 
877	 0.164765590824927 
878	 0.164859181297572 
879	 0.165013865853451 
880	 0.165182787269635 
881	 0.165307968608888 
882	 0.165428624560514 
883	 0.165552723780079 
884	 0.16571092404531 
885	 0.165930666173612 
886	 0.166160321259366 
887	 0.166349183440483 
888	 0.166502694520577 
889	 0.166675674688824 
890	 0.166912500780564 
891	 0.16708686925113 
892	 0.16723808457755 
893	 0.167611266246709 
894	 0.167867721379909 
895	 0.168078919376651 
896	 0.168329216501918 
897	 0.168575168256305 
898	 0.16886364625743 
899	 0.16915932655248 
900	 0.169434458135643 
901	 0.169740314239623 
902	 0.17003420111227 
903	 0.17034162089305 
904	 0.170685575859078 
905	 0.170982381520329 
906	 0.171359974689224 
907	 0.171764217906369 
908	 0.172097628069024 
909	 0.172539539350241 
910	 0.172923286243559 
911	 0.173244529752686 
912	 0.173620243311519 
913	 0.174121491833342 
914	 0.174556813443504 
915	 0.174886570011121 
916	 0.175240600189202 
917	 0.175753592022028 
918	 0.176334261008258 
919	 0.176867866648703 
920	 0.177275343753499 
921	 0.177778401491991 
922	 0.1782933924189 
923	 0.178782188889363 
924	 0.179347540547963 
925	 0.17987049946934 
926	 0.180409770759223 
927	 0.180981768855623 
928	 0.181457177640848 
929	 0.182043452224932 
930	 0.182701577962301 
931	 0.183341940152853 
932	 0.183917510308904 
933	 0.184575926120742 
934	 0.185235761249494 
935	 0.185818443098237 
936	 0.186463851442426 
937	 0.187021400564587 
938	 0.187641373145361 
939	 0.18845662419358 
940	 0.189193000722974 
941	 0.189971639490448 
942	 0.190746455827179 
943	 0.191445543678246 
944	 0.192150942044811 
945	 0.192881701381895 
946	 0.193664925032595 
947	 0.194499614359676 
948	 0.195272701854424 
949	 0.196064741398652 
950	 0.196853413914352 
951	 0.197617420145057 
952	 0.19861931550775 
953	 0.199562939557139 
954	 0.200375155023462 
955	 0.201158525898434 
956	 0.202068552947593 
957	 0.203057524941866 
958	 0.203983642883779 
959	 0.204740366598178 
960	 0.205661050167522 
961	 0.206680513994003 
962	 0.207695670506041 
963	 0.208624234952565 
964	 0.209553674173701 
965	 0.210478083129753 
966	 0.211465955899661 
967	 0.212591340854944 
968	 0.213644423387957 
969	 0.214746252482139 
970	 0.215841492528163 
971	 0.216794357177011 
972	 0.217848972336447 
973	 0.218849999342242 
974	 0.219866446894641 
975	 0.221069336889067 
976	 0.222209071071232 
977	 0.223295368076493 
978	 0.224379112639013 
979	 0.225522777141102 
980	 0.226763939959842 
981	 0.227874697346158 
982	 0.228987002668331 
983	 0.230345825346439 
984	 0.231501085594191 
985	 0.232622991459334 
986	 0.233683669975093 
987	 0.234623106637766 
988	 0.235875233452841 
989	 0.237108660146685 
990	 0.238273225449947 
991	 0.239494293529553 
992	 0.240882588972407 
993	 0.242013584304385 
994	 0.243036727478846 
995	 0.244278419440866 
996	 0.245581572889345 
997	 0.246757719900707 
998	 0.247954351425232 
999	 0.249331493285977 
1000	 0.250588846928378 
1001	 0.255854161504139 
1002	 0.257017368546895 
1003	 0.258196933398188 
1004	 0.259373434125196 
1005	 0.260572752699545 
1006	 0.261754008047891 
1007	 0.262919863756215 
1008	 0.264080068557074 
1009	 0.265264989710787 
1010	 0.266415618291845 
1011	 0.267506301071468 
1012	 0.268650375093112 
1013	 0.269800918342817 
1014	 0.270860602657744 
1015	 0.271925916579208 
1016	 0.273015362746422 
1017	 0.274080628014449 
1018	 0.275108491171469 
1019	 0.276133961661311 
1020	 0.277199734513944 
1021	 0.278256816357353 
1022	 0.279300751341715 
1023	 0.280415347389193 
1024	 0.281530195531097 
1025	 0.28260367243159 
1026	 0.283640805506617 
1027	 0.284611998105388 
1028	 0.285593565306945 
1029	 0.286582750906321 
1030	 0.287579184726846 
1031	 0.28859605871994 
1032	 0.289660727083584 
1033	 0.290688475855552 
1034	 0.291706898469912 
1035	 0.292769428595616 
1036	 0.293810237312766 
1037	 0.294790584134496 
1038	 0.295783847747943 
1039	 0.296777777870494 
1040	 0.297728261667103 
1041	 0.298716957077908 
1042	 0.299701159064289 
1043	 0.300651228343732 
1044	 0.301653508578331 
1045	 0.302681906702034 
1046	 0.303743939063376 
1047	 0.304789286313875 
1048	 0.305815349887394 
1049	 0.306763919178744 
1050	 0.30765888856617 
1051	 0.308568628513633 
1052	 0.309484815629965 
1053	 0.310465031228803 
1054	 0.311473405142943 
1055	 0.312430564234242 
1056	 0.313420075827351 
1057	 0.314359462729163 
1058	 0.315203660269557 
1059	 0.316092802562387 
1060	 0.317013897583203 
1061	 0.317879052196865 
1062	 0.3187162407802 
1063	 0.319598846270889 
1064	 0.320403979301458 
1065	 0.321223701296774 
1066	 0.32202165452333 
1067	 0.322778960120541 
1068	 0.323603946569595 
1069	 0.32435011104666 
1070	 0.32513650372051 
1071	 0.325978511601109 
1072	 0.326778400004287 
1073	 0.327570566236929 
1074	 0.328337205496978 
1075	 0.329095551691251 
1076	 0.329753757901709 
1077	 0.330451267924408 
1078	 0.331145220679296 
1079	 0.331786115685401 
1080	 0.332481801827024 
1081	 0.333184596454268 
1082	 0.333862026325184 
1083	 0.334562870848997 
1084	 0.335300129008982 
1085	 0.33600976597856 
1086	 0.336695150010559 
1087	 0.337410184701339 
1088	 0.338129898469307 
1089	 0.338855976889138 
1090	 0.339617355724921 
1091	 0.340375240320513 
1092	 0.341129817633279 
1093	 0.341913066209335 
1094	 0.342682020443892 
1095	 0.343417101257478 
1096	 0.344187054255141 
1097	 0.344998761277903 
1098	 0.345798755840776 
1099	 0.346600121712055 
1100	 0.34743132499061 
1101	 0.348256542991671 
1102	 0.349113240352523 
1103	 0.34999693109565 
1104	 0.350913661663768 
1105	 0.351833492290391 
1106	 0.352794702086413 
1107	 0.353738562731238 
1108	 0.354714447773827 
1109	 0.355700944245193 
1110	 0.356645411268868 
1111	 0.357624407279804 
1112	 0.358608420439329 
1113	 0.359614672375138 
1114	 0.360627970053216 
1115	 0.361687943651169 
1116	 0.362788025407358 
1117	 0.363887279155377 
1118	 0.365024223695793 
1119	 0.366127225039463 
1120	 0.367293244551495 
1121	 0.368424778706895 
1122	 0.369510409767808 
1123	 0.370666073765901 
1124	 0.371791571175687 
1125	 0.372871125572975 
1126	 0.374005928387081 
1127	 0.37517919875754 
1128	 0.376327011251839 
1129	 0.377485274096115 
1130	 0.378623927257221 
1131	 0.379738306905543 
1132	 0.380880807950614 
1133	 0.382030092435439 
1134	 0.383170856258654 
1135	 0.384317352161959 
1136	 0.385479413611575 
1137	 0.386614229313336 
1138	 0.387735115721725 
1139	 0.38885459322565 
1140	 0.389963241349728 
1141	 0.391081402769971 
1142	 0.392214651704436 
1143	 0.393310900013538 
1144	 0.394396153041618 
1145	 0.395477993669104 
1146	 0.396532386853418 
1147	 0.397586022740486 
1148	 0.398641022314009 
1149	 0.399696931196826 
1150	 0.400754158755487 
1151	 0.401790523158272 
1152	 0.402814847652877 
1153	 0.403827415214854 
1154	 0.404831386963267 
1155	 0.405806026271525 
1156	 0.406788067933707 
1157	 0.407782117980556 
1158	 0.408753649186111 
1159	 0.409721987071505 
1160	 0.410660654413868 
1161	 0.411561036870782 
1162	 0.412485191477074 
1163	 0.413420331125665 
1164	 0.414321506939263 
1165	 0.415213716531593 
1166	 0.416120128145941 
1167	 0.416977005342335 
1168	 0.417816599900592 
1169	 0.418653566897753 
1170	 0.41949088536633 
1171	 0.42031235993562 
1172	 0.421110028441764 
1173	 0.421918173050814 
1174	 0.422741408102381 
1175	 0.423532425661602 
1176	 0.424311220536342 
1177	 0.425082691674712 
1178	 0.425824167235162 
1179	 0.426578166372888 
1180	 0.427354012682431 
1181	 0.428095631497586 
1182	 0.428807485612141 
1183	 0.429542474279031 
1184	 0.430254059941418 
1185	 0.430947699389353 
1186	 0.43163359766197 
1187	 0.432318824503315 
1188	 0.43298571605607 
1189	 0.433634771749938 
1190	 0.434272231158342 
1191	 0.434899066421851 
1192	 0.435520897307015 
1193	 0.436127709125316 
1194	 0.436729928773033 
1195	 0.437317902356678 
1196	 0.437917941876365 
1197	 0.438515989750426 
1198	 0.43911325158605 
1199	 0.439713697938125 
1200	 0.440338120089629 
1201	 0.440916435386862 
1202	 0.441476982012265 
1203	 0.44203058218667 
1204	 0.442571320958551 
1205	 0.443088957401994 
1206	 0.443587336392815 
1207	 0.444086785950418 
1208	 0.444555006906922 
1209	 0.445042907003509 
1210	 0.445569782605071 
1211	 0.446044313271813 
1212	 0.44647754549447 
1213	 0.44693365975925 
1214	 0.447371122380356 
1215	 0.447811680745036 
1216	 0.448258877865853 
1217	 0.44873190531039 
1218	 0.449184358675236 
1219	 0.449636255643699 
1220	 0.450057273282199 
1221	 0.450459925996209 
1222	 0.450875462759176 
1223	 0.451271219007815 
1224	 0.451672141539978 
1225	 0.452090107035491 
1226	 0.452498725679274 
1227	 0.45290443307029 
1228	 0.453290395755438 
1229	 0.45367219960237 
1230	 0.454048476287389 
1231	 0.454401961129516 
1232	 0.454754081934553 
1233	 0.45510385618829 
1234	 0.455456082184202 
1235	 0.455805319905125 
1236	 0.456154187643044 
1237	 0.456483781951476 
1238	 0.456808940135617 
1239	 0.457129628803795 
1240	 0.457433660701884 
1241	 0.457735256740108 
1242	 0.458032566036607 
1243	 0.458336217196406 
1244	 0.458625278280215 
1245	 0.458928110603576 
1246	 0.459258001947366 
1247	 0.459567852058703 
1248	 0.459872493218089 
1249	 0.460176208384252 
1250	 0.460459171815517 
1251	 0.46073005953245 
1252	 0.460996720547193 
1253	 0.461254986306396 
1254	 0.461498200071459 
1255	 0.461737656728567 
1256	 0.461960191640998 
1257	 0.462155436055177 
1258	 0.46236421869703 
1259	 0.462554607969329 
1260	 0.462766835186737 
1261	 0.462993078527059 
1262	 0.463219296503004 
1263	 0.463464536832821 
1264	 0.463698993775863 
1265	 0.463921037140967 
1266	 0.464156066815738 
1267	 0.464391184459969 
1268	 0.464631549428008 
1269	 0.464886341647407 
1270	 0.465157884132077 
1271	 0.465417647004279 
1272	 0.465683175327412 
1273	 0.465948244714921 
1274	 0.46620784098524 
1275	 0.466477013170217 
1276	 0.466744597198407 
1277	 0.46702789754048 
1278	 0.467331200494925 
1279	 0.467617588818591 
1280	 0.467935464885925 
1281	 0.468202025609045 
1282	 0.468436602413838 
1283	 0.46865690709451 
1284	 0.468846457380198 
1285	 0.469017142953526 
1286	 0.469209334575042 
1287	 0.469376574570199 
1288	 0.469502974511808 
1289	 0.469621985624614 
1290	 0.469685769745057 
1291	 0.469684048006092 
1292	 0.469691437738271 
1293	 0.469677532327664 
1294	 0.469646245439785 
1295	 0.4696226711562 
1296	 0.469531845428189 
1297	 0.46938121324643 
1298	 0.469236890464683 
1299	 0.469046955009157 
1300	 0.468863493244569 
1301	 0.468702967628754 
1302	 0.468499564412719 
1303	 0.468254793764742 
1304	 0.468011553557716 
1305	 0.467773184792193 
1306	 0.467520080512049 
1307	 0.467283707212829 
1308	 0.467046121065114 
1309	 0.466806133056283 
1310	 0.466547559526869 
1311	 0.46632615782302 
1312	 0.466119160119762 
1313	 0.465922533468585 
1314	 0.465727741080882 
1315	 0.46557274844192 
1316	 0.465443656573253 
1317	 0.465324547844641 
1318	 0.465238812805636 
1319	 0.465161052278031 
1320	 0.465069323840388 
1321	 0.465026723579437 
1322	 0.465018142705558 
1323	 0.46503333174089 
1324	 0.465056305261994 
1325	 0.465113833590138 
1326	 0.465187786308263 
1327	 0.465268806353202 
1328	 0.465395057597639 
1329	 0.465547539214817 
1330	 0.465738303656403 
1331	 0.465967093448546 
1332	 0.466207060442112 
1333	 0.466494027434869 
1334	 0.466759055433489 
1335	 0.467019827818332 
1336	 0.467300109257679 
1337	 0.467580027892039 
1338	 0.467881557048233 
1339	 0.46821273750375 
1340	 0.46853123441159 
1341	 0.468845150696948 
1342	 0.469181260265322 
1343	 0.469521854085255 
1344	 0.469875534901547 
1345	 0.47025181200079 
1346	 0.470625412662677 
1347	 0.471008045934771 
1348	 0.471390888322393 
1349	 0.471749878414349 
1350	 0.472119408659409 
1351	 0.472494987277903 
1352	 0.47286098257133 
1353	 0.473235177521503 
1354	 0.473638898920543 
1355	 0.474007558851231 
1356	 0.474365956883869 
1357	 0.47470881185932 
1358	 0.475032867958688 
1359	 0.475358163096548 
1360	 0.47566314222393 
1361	 0.475977840979164 
1362	 0.476293344466975 
1363	 0.476610328667158 
1364	 0.476935318083675 
1365	 0.477247913250638 
1366	 0.47755778853542 
1367	 0.477871959279575 
1368	 0.478141773574104 
1369	 0.478404669810069 
1370	 0.47867497501782 
1371	 0.47892116055504 
1372	 0.479168714904492 
1373	 0.479420761785776 
1374	 0.479642214629971 
1375	 0.479840740696223 
1376	 0.480022985480338 
1377	 0.480210805419437 
1378	 0.480337863107614 
1379	 0.48042210967932 
1380	 0.480495138680184 
1381	 0.480515302766462 
1382	 0.480549436055026 
1383	 0.480599393110275 
1384	 0.480602970683755 
1385	 0.480605482403012 
1386	 0.480546453854826 
1387	 0.480429792585973 
1388	 0.480300504573649 
1389	 0.480139934199132 
1390	 0.479946605230736 
1391	 0.479736429625519 
1392	 0.479489086707972 
1393	 0.479222047466372 
1394	 0.478947250378768 
1395	 0.478652506391463 
1396	 0.478336650766509 
1397	 0.478002296933393 
1398	 0.477631663058249 
1399	 0.477283641634823 
1400	 0.47692292522926 
1401	 0.476579152133311 
1402	 0.476253191501689 
1403	 0.475915418332267 
1404	 0.475571368307043 
1405	 0.475240389011216 
1406	 0.474916389774447 
1407	 0.47457992824201 
1408	 0.474240030363164 
1409	 0.473916268575003 
1410	 0.47355347681541 
1411	 0.473265592887556 
1412	 0.473014173199817 
1413	 0.47279261227155 
1414	 0.472635409674137 
1415	 0.472527104211401 
1416	 0.472441448851428 
1417	 0.472362126690033 
1418	 0.472303503582701 
1419	 0.47226826642366 
1420	 0.472230947520184 
1421	 0.472195480347792 
1422	 0.472163688650002 
1423	 0.472109687070433 
1424	 0.472050476980019 
1425	 0.471991259914181 
1426	 0.471918069042912 
1427	 0.471816695063368 
1428	 0.47174153086027 
1429	 0.471664645149444 
1430	 0.471607832118973 
1431	 0.471584682844895 
1432	 0.47152491260706 
1433	 0.471458667536823 
1434	 0.471386605690094 
1435	 0.471280106103767 
1436	 0.471205041431835 
1437	 0.471140435115604 
1438	 0.471089190194894 
1439	 0.471053863092621 
1440	 0.471025064629362 
1441	 0.470993692563842 
1442	 0.470967841676503 
1443	 0.470938401153268 
1444	 0.47091096370341 
1445	 0.470914093636931 
1446	 0.470905925143413 
1447	 0.470888501170781 
1448	 0.470874774993343 
1449	 0.470821434520707 
1450	 0.470766964676 
1451	 0.470732206465882 
1452	 0.470697514064843 
1453	 0.470671901173582 
1454	 0.470671540515299 
1455	 0.470647458516505 
1456	 0.470610433207995 
1457	 0.470587706261836 
1458	 0.470556637144394 
1459	 0.470547199224584 
1460	 0.470557108762041 
1461	 0.470562144610743 
1462	 0.4705696697373 
1463	 0.470588882508329 
1464	 0.470608812131555 
1465	 0.470642248470258 
1466	 0.470689638871968 
1467	 0.470746527773377 
1468	 0.470810501289683 
1469	 0.4708880915761 
1470	 0.470978829765248 
1471	 0.471078974667295 
1472	 0.47119354205162 
1473	 0.471315035971107 
1474	 0.471438531748787 
1475	 0.471565472561625 
1476	 0.471702868267083 
1477	 0.471849199861206 
1478	 0.472006370408683 
1479	 0.472176682637645 
1480	 0.472340211810605 
1481	 0.472476020227046 
1482	 0.472626555846408 
1483	 0.472772153570765 
1484	 0.472932337042408 
1485	 0.473103526886511 
1486	 0.473275895521812 
1487	 0.473456959728151 
1488	 0.473630201053073 
1489	 0.47379952634912 
1490	 0.473973966123701 
1491	 0.474149666090061 
1492	 0.474319922200564 
1493	 0.474498589053368 
1494	 0.474667889431794 
1495	 0.47482652501023 
1496	 0.474987232755667 
1497	 0.47515113999173 
1498	 0.475299386266792 
1499	 0.475430450515787 
1500	 0.475578004630878 
1501	 0.475720602209141 
1502	 0.475867836550191 
1503	 0.476030010546689 
1504	 0.476188452687202 
1505	 0.476341620189446 
1506	 0.476489894902864 
1507	 0.476629344629885 
1508	 0.476764161713913 
1509	 0.476863898524448 
1510	 0.476960269561585 
1511	 0.477085170173162 
1512	 0.47721015649289 
1513	 0.477348174726947 
1514	 0.47750915779574 
1515	 0.477635532997373 
1516	 0.477741932374856 
1517	 0.477850331806364 
1518	 0.477952760442933 
1519	 0.478040670813305 
1520	 0.478112697459326 
1521	 0.478205319036331 
1522	 0.478293023412676 
1523	 0.478388191820781 
1524	 0.478498180463576 
1525	 0.478602887102926 
1526	 0.478711637104141 
1527	 0.478804696208182 
1528	 0.478902784620741 
1529	 0.478980380512896 
1530	 0.479029797157572 
1531	 0.479089842738232 
1532	 0.479147257723437 
1533	 0.479203794497054 
1534	 0.479242899314125 
1535	 0.479313259181603 
1536	 0.479400373565449 
1537	 0.479484003409788 
1538	 0.479598406376268 
1539	 0.479690788008539 
1540	 0.479762322820502 
1541	 0.479842363572919 
1542	 0.479925651480339 
1543	 0.47999928568884 
1544	 0.480075721489496 
1545	 0.480144293336553 
1546	 0.480197709960393 
1547	 0.480244550686959 
1548	 0.480331162660143 
1549	 0.480417055316697 
1550	 0.480525139104968 
1551	 0.480647408008816 
1552	 0.480736874414908 
1553	 0.480806597259513 
1554	 0.480875392893307 
1555	 0.480950692611126 
1556	 0.481016610544072 
1557	 0.481082084135693 
1558	 0.481151640321066 
1559	 0.481217863954415 
1560	 0.481279651649191 
1561	 0.481345172374065 
1562	 0.481405620041635 
1563	 0.481447140919249 
1564	 0.481515741816829 
1565	 0.481599419437016 
1566	 0.481681648061604 
1567	 0.481779122267059 
1568	 0.481863059083367 
1569	 0.481948893407083 
1570	 0.482015086988586 
1571	 0.482069776692054 
1572	 0.482124490484026 
1573	 0.482159237400879 
1574	 0.482208661662187 
1575	 0.482256318473623 
1576	 0.48231993070002 
1577	 0.482406847652252 
1578	 0.482472257192562 
1579	 0.482538966321646 
1580	 0.482600186884949 
1581	 0.48264652152287 
1582	 0.48268933299227 
1583	 0.48272760627764 
1584	 0.482778720279482 
1585	 0.482820666432992 
1586	 0.482876530313357 
1587	 0.482953070419855 
1588	 0.483022802321765 
1589	 0.483095454802507 
1590	 0.483161059053515 
1591	 0.483222466203433 
1592	 0.483294327951939 
1593	 0.483366532093435 
1594	 0.483438017956229 
1595	 0.483521697825241 
1596	 0.483594081140164 
1597	 0.483660347250714 
1598	 0.483722552603083 
1599	 0.483777088749365 
1600	 0.483832835369018 
1601	 0.483882316937186 
1602	 0.483932882384414 
1603	 0.483993051280855 
1604	 0.484042036888249 
1605	 0.484084974383649 
1606	 0.484122947368264 
1607	 0.48414630879366 
1608	 0.484174027459451 
1609	 0.484218013974341 
1610	 0.484260048910948 
1611	 0.484306629823654 
1612	 0.484348377344956 
1613	 0.484388688323889 
1614	 0.484433374303737 
1615	 0.484473155292574 
1616	 0.484534706129651 
1617	 0.484597277236622 
1618	 0.484656068761987 
1619	 0.484763084919654 
1620	 0.484860483559446 
1621	 0.484947082645536 
1622	 0.485047369353724 
1623	 0.485109923151534 
1624	 0.485143097841095 
1625	 0.485182822898595 
1626	 0.485200699501521 
1627	 0.485241819879208 
1628	 0.48528837298815 
1629	 0.485338679308846 
1630	 0.485401166955314 
1631	 0.485459116432762 
1632	 0.4855079640456 
1633	 0.485581958312894 
1634	 0.485681770061819 
1635	 0.48574279872977 
1636	 0.485799160027865 
1637	 0.485858725863649 
1638	 0.485899597036088 
1639	 0.48593751121532 
1640	 0.48599429146958 
1641	 0.486017363293164 
1642	 0.485986320562941 
1643	 0.486020280768723 
1644	 0.486074222126174 
1645	 0.48612960747091 
1646	 0.486217768602363 
1647	 0.48629029196453 
1648	 0.486346743350157 
1649	 0.486427253444231 
1650	 0.486532584486422 
1651	 0.486615567068664 
1652	 0.486696066739441 
1653	 0.486778668413121 
1654	 0.486857638795045 
1655	 0.486926017399773 
1656	 0.487008930950332 
1657	 0.487051537185385 
1658	 0.487052159104742 
1659	 0.487078480562055 
1660	 0.487101626064604 
1661	 0.487113836184231 
1662	 0.487132616679867 
1663	 0.487140403179969 
1664	 0.487116902824703 
1665	 0.487123819451788 
1666	 0.487146148685074 
1667	 0.487167242923264 
1668	 0.487194628621669 
1669	 0.487228200097036 
1670	 0.487250411150284 
1671	 0.487314025313978 
1672	 0.487413937061753 
1673	 0.487494801037119 
1674	 0.487608831468079 
1675	 0.487681197662884 
1676	 0.487722712544632 
1677	 0.487767817623964 
1678	 0.487784880857637 
1679	 0.487836934012206 
1680	 0.487914735975749 
1681	 0.487959804999512 
1682	 0.488004190095159 
1683	 0.48805078672892 
1684	 0.488070510068164 
1685	 0.488110889938177 
1686	 0.488180276071645 
1687	 0.488225389397808 
1688	 0.488248463556036 
1689	 0.488292611974988 
1690	 0.488333339888757 
1691	 0.488397386272611 
1692	 0.488489784949346 
1693	 0.488563376184578 
1694	 0.488645859276748 
1695	 0.488717461581511 
1696	 0.48877998617305 
1697	 0.48883675700192 
1698	 0.488880609794012 
1699	 0.488937320055214 
1700	 0.489009588244054 
1701	 0.489043634029653 
1702	 0.489074158798425 
1703	 0.489085416940833 
1704	 0.489041760467939 
1705	 0.489042492869209 
1706	 0.489057570517629 
1707	 0.489073271226902 
1708	 0.489090056726859 
1709	 0.489134858072378 
1710	 0.489192015018263 
1711	 0.489264538972974 
1712	 0.48938607289053 
1713	 0.489458649398793 
1714	 0.489511485526014 
1715	 0.489572857548717 
1716	 0.48961469276945 
1717	 0.489672643933572 
1718	 0.489753657297171 
1719	 0.489802196063999 
1720	 0.489849478053622 
1721	 0.489870034571883 
1722	 0.489861402386645 
1723	 0.489854259478596 
1724	 0.489830659440289 
1725	 0.489802257048704 
1726	 0.489770721873861 
1727	 0.48973276318195 
1728	 0.489673961042157 
1729	 0.48963263222575 
1730	 0.489596858251814 
1731	 0.48955333911434 
1732	 0.489517158135121 
1733	 0.489482246857281 
1734	 0.489424653433937 
1735	 0.489409796890689 
1736	 0.489425676032738 
1737	 0.489421673149224 
1738	 0.489437886628754 
1739	 0.489435441926919 
1740	 0.489420882195346 
1741	 0.489388821310444 
1742	 0.489344267306019 
1743	 0.489305187053259 
1744	 0.489249776429737 
1745	 0.489198861727907 
1746	 0.48915079210067 
1747	 0.489094608291856 
1748	 0.489072926286855 
1749	 0.489091891276973 
1750	 0.489100690952347 
1751	 0.48913151236463 
1752	 0.489144684489896 
1753	 0.489131610727254 
1754	 0.48915781280181 
1755	 0.489166318143206 
1756	 0.489169032530928 
1757	 0.489162253677099 
1758	 0.489114894489886 
1759	 0.489087307304642 
1760	 0.489054973972272 
1761	 0.489025398266542 
1762	 0.489049962028426 
1763	 0.489057294232426 
1764	 0.489035177215885 
1765	 0.489047040595564 
1766	 0.489035086940024 
1767	 0.489019295728329 
1768	 0.489054952955836 
1769	 0.489067096789796 
1770	 0.489091036862281 
1771	 0.489124920458552 
1772	 0.489129206035128 
1773	 0.489164910295618 
1774	 0.489196409713445 
1775	 0.489223167108722 
1776	 0.489242973027072 
1777	 0.489230045771219 
1778	 0.489228420591217 
1779	 0.489199182844461 
1780	 0.489164834647052 
1781	 0.48917624946318 
1782	 0.489191614531543 
1783	 0.489254555637819 
1784	 0.489294284211094 
1785	 0.489320813888784 
1786	 0.489348934236468 
1787	 0.489350257668948 
1788	 0.489386779339306 
1789	 0.489449979723554 
1790	 0.489506641757635 
1791	 0.489586220526263 
1792	 0.489655418725568 
1793	 0.489721178644763 
1794	 0.489777430152388 
1795	 0.489846530454679 
1796	 0.489881840583399 
1797	 0.489872481301283 
1798	 0.489886015025328 
1799	 0.489881283849981 
1800	 0.489898799507324 
1801	 0.487273560951636 
1802	 0.487312010847404 
1803	 0.48735754379326 
1804	 0.487392415747028 
1805	 0.487428856688178 
1806	 0.487495666135318 
1807	 0.487544199338663 
1808	 0.487594610883656 
1809	 0.487659925404898 
1810	 0.487715042473652 
1811	 0.487757333808167 
1812	 0.487806288892417 
1813	 0.487868625110076 
1814	 0.487877885000816 
1815	 0.487828984964847 
1816	 0.487827386052341 
1817	 0.487836380895132 
1818	 0.487867415684873 
1819	 0.487847659240897 
1820	 0.487851621960499 
1821	 0.487791013114936 
1822	 0.487646269152595 
1823	 0.487535121895768 
1824	 0.487479052773299 
1825	 0.487413853921182 
1826	 0.487358678078731 
1827	 0.487299310305872 
1828	 0.487226470504672 
1829	 0.487122002391027 
1830	 0.487035491677255 
1831	 0.486954322846067 
1832	 0.486878512379087 
1833	 0.486782543471891 
1834	 0.486683664173924 
1835	 0.48662945169977 
1836	 0.486578660781494 
1837	 0.486539084232075 
1838	 0.486526478966453 
1839	 0.486486826767828 
1840	 0.486432011570405 
1841	 0.486367855320644 
1842	 0.486321639860813 
1843	 0.486269259007475 
1844	 0.486226802869865 
1845	 0.486177631989731 
1846	 0.486086918303777 
1847	 0.48600042953765 
1848	 0.485923999376794 
1849	 0.48582215100172 
1850	 0.485728151299727 
1851	 0.485644497059546 
1852	 0.485560427585223 
1853	 0.485440898602474 
1854	 0.485342941376792 
1855	 0.485261810430918 
1856	 0.485184279638581 
1857	 0.485164016106946 
1858	 0.48510940618375 
1859	 0.485006509569776 
1860	 0.484893996505185 
1861	 0.484764386826099 
1862	 0.484572129987024 
1863	 0.484366216349489 
1864	 0.48414122380899 
1865	 0.483858431749969 
1866	 0.483517645496069 
1867	 0.483176882280034 
1868	 0.482867141931443 
1869	 0.482571953119535 
1870	 0.482302006711326 
1871	 0.48199573806021 
1872	 0.481690634691237 
1873	 0.481357059917621 
1874	 0.480981737914386 
1875	 0.480545359943225 
1876	 0.480091050972458 
1877	 0.479581108034616 
1878	 0.478985277680888 
1879	 0.478337371179817 
1880	 0.477638195929926 
1881	 0.476876641523684 
1882	 0.476055180703192 
1883	 0.475184708176179 
1884	 0.474255305987309 
1885	 0.473245135230182 
1886	 0.472147341225654 
1887	 0.471002665777315 
1888	 0.469814882729145 
1889	 0.468592784749788 
1890	 0.467333464362562 
1891	 0.466040792233368 
1892	 0.464695980201793 
1893	 0.463346155013522 
1894	 0.461957934779407 
1895	 0.460560817435478 
1896	 0.459164950695509 
1897	 0.457777962242117 
1898	 0.456382688103814 
1899	 0.455027522400344 
1900	 0.453721877323326 
1901	 0.452468601700022 
1902	 0.451265177549989 
1903	 0.45012693925195 
1904	 0.449025704830865 
1905	 0.447984110053011 
1906	 0.446963999438038 
1907	 0.445946002486579 
1908	 0.444972977467811 
1909	 0.444042427475132 
1910	 0.443152497799144 
1911	 0.442343387222062 
1912	 0.441601571212694 
1913	 0.440874651493686 
1914	 0.440169707594824 
1915	 0.439512043533366 
1916	 0.438897542232094 
1917	 0.438309434318649 
1918	 0.437751963227667 
1919	 0.437242227236477 
1920	 0.436771396892053 
1921	 0.436333778960408 
1922	 0.435958292807841 
1923	 0.435628610233361 
1924	 0.435318293703899 
1925	 0.435043333808057 
1926	 0.434798840188725 
1927	 0.43458183667343 
1928	 0.434391765896885 
1929	 0.43423510464966 
1930	 0.434106310180492 
1931	 0.433997127047211 
1932	 0.433904068462377 
1933	 0.433842796812316 
1934	 0.433791347064851 
1935	 0.433771678759075 
1936	 0.433767719927239 
1937	 0.43380559142622 
1938	 0.433871710117084 
1939	 0.433979050807928 
1940	 0.434132937746953 
1941	 0.434314625555429 
1942	 0.434496504688049 
1943	 0.434694576083445 
1944	 0.434889323640368 
1945	 0.435099155056914 
1946	 0.435321871594807 
1947	 0.435566280942561 
1948	 0.435806395334763 
1949	 0.436040461914052 
1950	 0.436300357026036 
1951	 0.436572476374012 
1952	 0.43687513341019 
1953	 0.437153771600438 
1954	 0.437443816692587 
1955	 0.437730472015102 
1956	 0.438016975541982 
1957	 0.438333049170774 
1958	 0.438681754394454 
1959	 0.439026280744225 
1960	 0.439393821257835 
1961	 0.439743144622673 
1962	 0.440083235907978 
1963	 0.440440047086382 
1964	 0.440788303664608 
1965	 0.441148702407232 
1966	 0.441556730473674 
1967	 0.441974896801206 
1968	 0.442385056051573 
1969	 0.442816347913903 
1970	 0.443227874160917 
1971	 0.443625688502984 
1972	 0.444026443224336 
1973	 0.444426945045477 
1974	 0.444829675518151 
1975	 0.445230987011558 
1976	 0.445623676287797 
1977	 0.44603849147837 
1978	 0.446445576041203 
1979	 0.446843054912257 
1980	 0.447286534359338 
1981	 0.447734927484683 
1982	 0.448207533389815 
1983	 0.448659951197411 
1984	 0.449134067729184 
1985	 0.449582771767828 
1986	 0.450011635546473 
1987	 0.450435020773429 
1988	 0.450858410705008 
1989	 0.451256708838622 
1990	 0.451645058025967 
1991	 0.452051437250561 
1992	 0.452459212807292 
1993	 0.452872138296442 
1994	 0.453285678388752 
1995	 0.453697633605658 
1996	 0.454126373095481 
1997	 0.454561801647097 
1998	 0.455006633269094 
1999	 0.45548645964531 
2000	 0.455930167637935 
2001	 0.456367531453107 
2002	 0.456802525141459 
2003	 0.457175279860606 
2004	 0.457552615309165 
2005	 0.457932493835568 
2006	 0.458286339083873 
2007	 0.45866617295214 
2008	 0.45906026331491 
2009	 0.459455558182485 
2010	 0.459875915821498 
2011	 0.460269446691136 
2012	 0.460638687938253 
2013	 0.461034389265869 
2014	 0.461438936235422 
2015	 0.461824576899432 
2016	 0.46221541210317 
2017	 0.462633594953071 
2018	 0.46304821007928 
2019	 0.463461761635771 
2020	 0.463861624008072 
2021	 0.464275962880648 
2022	 0.464672344932792 
2023	 0.46504967815948 
2024	 0.465421057588415 
2025	 0.465779120898188 
2026	 0.46614583564996 
2027	 0.466517165346474 
2028	 0.466854185109667 
2029	 0.467215119917598 
2030	 0.46759841455968 
2031	 0.467956981770967 
2032	 0.468308551958086 
2033	 0.468652407732704 
2034	 0.46898054791053 
2035	 0.469317278970896 
2036	 0.469654956035914 
2037	 0.469983159182781 
2038	 0.470328321054347 
2039	 0.47064075141942 
2040	 0.470945053342454 
2041	 0.471210051999971 
2042	 0.47145167364382 
2043	 0.471693345928864 
2044	 0.471947583748075 
2045	 0.472190010320305 
2046	 0.472459149074684 
2047	 0.472751872458583 
2048	 0.473036814631544 
2049	 0.47333000700857 
2050	 0.473622224140781 
2051	 0.473928466013172 
2052	 0.474212256954249 
2053	 0.47449511627154 
2054	 0.474763345672218 
2055	 0.475019848973707 
2056	 0.475253832057251 
2057	 0.475480195482924 
2058	 0.475691321653923 
2059	 0.475905830162013 
2060	 0.476098843515621 
2061	 0.476312316128074 
2062	 0.476525808599521 
2063	 0.476754309065588 
2064	 0.477014561600765 
2065	 0.477245010995327 
2066	 0.477474909217721 
2067	 0.477696969024808 
2068	 0.477913054113913 
2069	 0.478097005467631 
2070	 0.478284946376158 
2071	 0.478474662837256 
2072	 0.478649233965746 
2073	 0.478791090423836 
2074	 0.478966830919393 
2075	 0.479145274072733 
2076	 0.479340395612603 
2077	 0.47956214148404 
2078	 0.479772155710559 
2079	 0.479988053974932 
2080	 0.480199698054885 
2081	 0.480403292743996 
2082	 0.480614366396286 
2083	 0.480821973402658 
2084	 0.481048286092404 
2085	 0.481264530860983 
2086	 0.481483095328764 
2087	 0.481699436676301 
2088	 0.481929290737291 
2089	 0.482120419979358 
2090	 0.48228711606318 
2091	 0.482468453553075 
2092	 0.482631305246576 
2093	 0.482796072172355 
2094	 0.482982901488122 
2095	 0.483146729166962 
2096	 0.483262398969754 
2097	 0.483420485267902 
2098	 0.483596870978882 
2099	 0.483773815312849 
2100	 0.483956861433155 
2101	 0.484167446545334 
2102	 0.484353494297759 
2103	 0.484521950019587 
2104	 0.484707707719841 
2105	 0.484881459830852 
2106	 0.48509505940489 
2107	 0.485335169196014 
2108	 0.485573970935144 
2109	 0.485847857662353 
2110	 0.486103101842686 
2111	 0.486325378262982 
2112	 0.486589259633351 
2113	 0.486886457115165 
2114	 0.487174776282973 
2115	 0.487446545286949 
2116	 0.487745130453679 
2117	 0.48799354947059 
2118	 0.488193846685932 
2119	 0.488414725306624 
2120	 0.488609117724532 
2121	 0.488849824648781 
2122	 0.489113370594048 
2123	 0.489367901113496 
2124	 0.489660581402008 
2125	 0.489921065227958 
2126	 0.490162952595118 
2127	 0.490395491844258 
2128	 0.490630223151697 
2129	 0.490838656314691 
2130	 0.491027800681749 
2131	 0.491204065584194 
2132	 0.491343545613519 
2133	 0.491452157572847 
2134	 0.491548715121123 
2135	 0.491640532914225 
2136	 0.491661319700887 
2137	 0.491651873442587 
2138	 0.491597219849383 
2139	 0.491448585849556 
2140	 0.491331084670868 
2141	 0.491193421499684 
2142	 0.491061036752996 
2143	 0.4909310919926 
2144	 0.490790323205267 
2145	 0.49065183400268 
2146	 0.490495213990067 
2147	 0.490307348179007 
2148	 0.490140096670471 
2149	 0.489961264596199 
2150	 0.489790286561176 
2151	 0.489565541096414 
2152	 0.489328600641789 
2153	 0.489060755604839 
2154	 0.488732018215618 
2155	 0.4884251236048 
2156	 0.488133172635555 
2157	 0.487796597597017 
2158	 0.48743187375913 
2159	 0.487059751613665 
2160	 0.486652640718496 
2161	 0.486248299322875 
2162	 0.485826042501172 
2163	 0.48542313331612 
2164	 0.485025400831094 
2165	 0.484617051794816 
2166	 0.484234200046295 
2167	 0.483885335063828 
2168	 0.483493395452572 
2169	 0.483098041074718 
2170	 0.482687967237971 
2171	 0.482253157261173 
2172	 0.481821892455991 
2173	 0.481393672472194 
2174	 0.480945185993552 
2175	 0.480473905591508 
2176	 0.480009868546606 
2177	 0.479517915658426 
2178	 0.479057323574008 
2179	 0.478604368661112 
2180	 0.478172779576397 
2181	 0.477778364513162 
2182	 0.477374220676864 
2183	 0.477002303240007 
2184	 0.476587524706383 
2185	 0.476178655093932 
2186	 0.475750609893283 
2187	 0.47534943748399 
2188	 0.474938793431421 
2189	 0.474565915280456 
2190	 0.474212088352019 
2191	 0.473881806318233 
2192	 0.473577086394423 
2193	 0.473286191789127 
2194	 0.473028920510114 
2195	 0.47276763394476 
2196	 0.472522337419699 
2197	 0.472273540347654 
2198	 0.472016347874531 
2199	 0.471778044533093 
2200	 0.471561238735307 
2201	 0.471334678692061 
2202	 0.471099173119019 
2203	 0.470892786058388 
2204	 0.470693577648315 
2205	 0.470475176108754 
2206	 0.470319980884578 
2207	 0.470183237070582 
2208	 0.470124459518655 
2209	 0.470136850762931 
2210	 0.470143635122333 
2211	 0.470218687964211 
2212	 0.470270933471582 
2213	 0.470327852788741 
2214	 0.470373996672598 
2215	 0.47044491651013 
2216	 0.470477661570017 
2217	 0.470504890252438 
2218	 0.470480099554287 
2219	 0.470411763692962 
2220	 0.470334191776091 
2221	 0.470214294383707 
2222	 0.47008012244609 
2223	 0.469939052907495 
2224	 0.469810565642952 
2225	 0.469677494917389 
2226	 0.469534343674324 
2227	 0.469401245889678 
2228	 0.469289246092013 
2229	 0.469130198641362 
2230	 0.468957426851119 
2231	 0.46876198086772 
2232	 0.468524582691728 
2233	 0.468315272863689 
2234	 0.468099384584854 
2235	 0.467884997840103 
2236	 0.467669665080843 
2237	 0.467468272919383 
2238	 0.467303347021193 
2239	 0.467080325424858 
2240	 0.466824989925714 
2241	 0.466587457936222 
2242	 0.466269223924452 
2243	 0.466041307140437 
2244	 0.465891414791191 
2245	 0.465742122588904 
2246	 0.465598238282127 
2247	 0.46547611942186 
2248	 0.465353885207599 
2249	 0.46521995354939 
2250	 0.46512162004169 
2251	 0.465060636121107 
2252	 0.464970167296918 
2253	 0.464880116206913 
2254	 0.464791504119421 
2255	 0.464688452333938 
2256	 0.46461055725456 
2257	 0.464544661081682 
2258	 0.464483819620088 
2259	 0.464414992537843 
2260	 0.464388775149926 
2261	 0.464391653984887 
2262	 0.46440342534403 
2263	 0.464469411361129 
2264	 0.464502450082974 
2265	 0.46451314813954 
2266	 0.464545652826435 
2267	 0.464595895348159 
2268	 0.464620351914448 
2269	 0.464673259123877 
2270	 0.464668518559031 
2271	 0.464613616358924 
2272	 0.464570184091477 
2273	 0.464501863077616 
2274	 0.464485354968453 
2275	 0.464506366319777 
2276	 0.464566468805478 
2277	 0.464632623775474 
2278	 0.464745336338706 
2279	 0.464831773283443 
2280	 0.464916110878915 
2281	 0.465015288135121 
2282	 0.465115671311818 
2283	 0.465231756120658 
2284	 0.465366633642203 
2285	 0.465504120199649 
2286	 0.465661746466186 
2287	 0.465800685359147 
2288	 0.465953273189508 
2289	 0.466063327131794 
2290	 0.466116719275602 
2291	 0.466219597997579 
2292	 0.466318176159211 
2293	 0.466430653942236 
2294	 0.466568889328529 
2295	 0.466723175627302 
2296	 0.466894664945184 
2297	 0.467063207455517 
2298	 0.467223808458352 
2299	 0.467423182581259 
2300	 0.46758594352078 
2301	 0.467743473401801 
2302	 0.467940679903506 
2303	 0.4681312377697 
2304	 0.468288618896518 
2305	 0.468432631131194 
2306	 0.468572271758269 
2307	 0.468680988294748 
2308	 0.468805818567226 
2309	 0.4689416212871 
2310	 0.469061331856299 
2311	 0.469174070694379 
2312	 0.469289866680892 
2313	 0.469384157130127 
2314	 0.46951095428763 
2315	 0.469672436127282 
2316	 0.469790115084949 
2317	 0.469888366754992 
2318	 0.470018095367535 
2319	 0.470134021472112 
2320	 0.470264310384135 
2321	 0.470468487024437 
2322	 0.470594855350967 
2323	 0.47063758744134 
2324	 0.470741374979894 
2325	 0.470824359671201 
2326	 0.470947492189015 
2327	 0.471126834795906 
2328	 0.47131960638991 
2329	 0.471493493477735 
2330	 0.471633397942086 
2331	 0.471785902155618 
2332	 0.471973032215776 
2333	 0.472094284948179 
2334	 0.472233514507476 
2335	 0.472355354694264 
2336	 0.472439452951502 
2337	 0.47262304450147 
2338	 0.472814811976445 
2339	 0.472928522328856 
2340	 0.47301740874381 
2341	 0.473050208083712 
2342	 0.473007668652016 
2343	 0.472959149150322 
2344	 0.472892644445547 
2345	 0.472806304717926 
2346	 0.472662183209477 
2347	 0.472544643424213 
2348	 0.472446545887819 
2349	 0.472320837350278 
2350	 0.472179868872848 
2351	 0.472021953928006 
2352	 0.471845284264502 
2353	 0.471648578221 
2354	 0.471429373334477 
2355	 0.471217306383763 
2356	 0.470981888307443 
2357	 0.470773351767408 
2358	 0.470543657542151 
2359	 0.470367236561687 
2360	 0.470237790755384 
2361	 0.470107389099795 
2362	 0.470050638930393 
2363	 0.469916672606535 
2364	 0.469737262341309 
2365	 0.46957636712437 
2366	 0.469345985899668 
2367	 0.469190762024366 
2368	 0.469168270538509 
2369	 0.468993147237992 
2370	 0.468767599450965 
2371	 0.468532645854125 
2372	 0.468188289769315 
2373	 0.467779810499231 
2374	 0.46744500137125 
2375	 0.467131963832523 
2376	 0.466856862146793 
2377	 0.466625889743023 
2378	 0.466326155862027 
2379	 0.46601859871811 
2380	 0.465713226910519 
2381	 0.465403452789542 
2382	 0.465153581088591 
2383	 0.464899582859184 
2384	 0.464634610345785 
2385	 0.464277560430017 
2386	 0.463933580404628 
2387	 0.46369975583949 
2388	 0.463295893261128 
2389	 0.462921035702383 
2390	 0.46263203299753 
2391	 0.462221307854775 
2392	 0.461882551506374 
2393	 0.46164212700252 
2394	 0.461336909125684 
2395	 0.46098356705733 
2396	 0.460701459071192 
2397	 0.460288486748265 
2398	 0.459743927821743 
2399	 0.459309156066806 
2400	 0.458903341693805 
2401	 0.458599367627637 
2402	 0.458434738007783 
2403	 0.458110428075144 
2404	 0.457609169949638 
2405	 0.457147799089576 
2406	 0.456638721320285 
2407	 0.456140213467848 
2408	 0.455751030521124 
2409	 0.455386578050567 
2410	 0.455067321159303 
2411	 0.45471058954762 
2412	 0.454390409814728 
2413	 0.454014175139685 
2414	 0.453498514093215 
2415	 0.453050601327212 
2416	 0.452596562027115 
2417	 0.452056788423282 
2418	 0.451711369182938 
2419	 0.451540300843686 
2420	 0.45121560543129 
2421	 0.45093244756033 
2422	 0.450584146473572 
2423	 0.450071970618874 
2424	 0.449655737963562 
2425	 0.449354375211489 
2426	 0.449002226962454 
2427	 0.448609776452417 
2428	 0.448220086810908 
2429	 0.447773625884839 
2430	 0.447416646740822 
2431	 0.447114302491883 
2432	 0.446787692559862 
2433	 0.446553806654531 
2434	 0.446267941880432 
2435	 0.445911111214455 
2436	 0.445578425519335 
2437	 0.445284718346479 
2438	 0.444918647215424 
2439	 0.444448150610094 
2440	 0.444110641982527 
2441	 0.443801682877094 
2442	 0.443501646648916 
2443	 0.443332231581208 
2444	 0.443068249585464 
2445	 0.442737297246421 
2446	 0.442477358194928 
2447	 0.442224957469856 
2448	 0.441877779225449 
2449	 0.441529785668468 
2450	 0.441165074399889 
2451	 0.44069752986794 
2452	 0.440375167578494 
2453	 0.440150000686611 
2454	 0.439842768771183 
2455	 0.439557077677181 
2456	 0.439219848744424 
2457	 0.438803669828525 
2458	 0.438445324815778 
2459	 0.438127664566573 
2460	 0.437765973924989 
2461	 0.437402459136844 
2462	 0.43708560551155 
2463	 0.436723188885366 
2464	 0.43642973392048 
2465	 0.436198530090596 
2466	 0.435881979401747 
2467	 0.435603138370199 
2468	 0.435276306860971 
2469	 0.434894306245955 
2470	 0.434588265890464 
2471	 0.434187913145101 
2472	 0.43387867453689 
2473	 0.433591169917012 
2474	 0.433326959897819 
2475	 0.43299906958543 
2476	 0.432503486362086 
2477	 0.432063864494932 
2478	 0.431711553486785 
2479	 0.431480075035169 
2480	 0.431323204627499 
2481	 0.431009044997422 
2482	 0.430777628111185 
2483	 0.430544887012648 
2484	 0.430140395147291 
2485	 0.429781855603814 
2486	 0.429236211198522 
2487	 0.428866304959003 
2488	 0.428675938107446 
2489	 0.428349328239114 
2490	 0.428240829573745 
2491	 0.427953373136741 
2492	 0.427520055851022 
2493	 0.427327392535946 
2494	 0.427110258799832 
2495	 0.426763529017594 
2496	 0.426482773140336 
2497	 0.426467586127253 
2498	 0.426368413281298 
2499	 0.426013830939549 
2500	 0.425774624732823 
