Wavelength	MM800003.asd
350	 6.09385943518194E-02 
351	 0.062022574225395 
352	 5.63117231229855E-02 
353	 5.29012747758718E-02 
354	 6.21906191556509E-02 
355	 6.00242770706347E-02 
356	 5.50595957040173E-02 
357	 0.058805083612256 
358	 6.07287557123605E-02 
359	 5.88481394113608E-02 
360	 5.57677524047574E-02 
361	 5.61613537820554E-02 
362	 5.47354421171855E-02 
363	 5.69431479612585E-02 
364	 6.14730011562771E-02 
365	 5.39040601479903E-02 
366	 5.85988858565255E-02 
367	 6.42354345680232E-02 
368	 5.75813528951065E-02 
369	 5.79281809139027E-02 
370	 5.82372389558537E-02 
371	 5.87176054237603E-02 
372	 0.064059711875733 
373	 6.63890251316311E-02 
374	 6.53235864158927E-02 
375	 0.063123190523154 
376	 0.064681340709826 
377	 6.32165301619673E-02 
378	 6.30328245394554E-02 
379	 6.83588531533595E-02 
380	 6.93314571627321E-02 
381	 6.68464809684274E-02 
382	 6.56417712820434E-02 
383	 7.18318633924648E-02 
384	 7.50186079514612E-02 
385	 7.42245126584741E-02 
386	 7.20969267729551E-02 
387	 7.52221877196041E-02 
388	 7.78405718206884E-02 
389	 7.96794644077841E-02 
390	 8.16581934536607E-02 
391	 8.12677616199379E-02 
392	 0.083224296559621 
393	 8.68482770061924E-02 
394	 8.70931019285864E-02 
395	 8.76395634863124E-02 
396	 8.88471699939817E-02 
397	 9.09785768752161E-02 
398	 9.59147710592789E-02 
399	 9.74166561733436E-02 
400	 9.75833351011388E-02 
401	 0.100431723330802 
402	 0.10147730356914 
403	 0.103157186641231 
404	 0.105554877081112 
405	 0.10613688154238 
406	 0.108001599769898 
407	 0.110238334888606 
408	 0.111674046601523 
409	 0.112396709155275 
410	 0.113733774551584 
411	 0.115626140944755 
412	 0.117349095846588 
413	 0.118818915322286 
414	 0.119339441155675 
415	 0.119492983684696 
416	 0.121516576893178 
417	 0.12201387965557 
418	 0.121897417442981 
419	 0.122483692613451 
420	 0.122636157451561 
421	 0.122761372204412 
422	 0.123344491574775 
423	 0.124688257144147 
424	 0.124783269376843 
425	 0.124463844347694 
426	 0.124341016025438 
427	 0.123909735487059 
428	 0.123444405924962 
429	 0.123005980095482 
430	 0.122572740353537 
431	 0.122018300990877 
432	 0.121720986746717 
433	 0.121651890819302 
434	 0.12140088181265 
435	 0.121458847294407 
436	 0.12167248467713 
437	 0.121878854967638 
438	 0.122182390736401 
439	 0.122924325734802 
440	 0.123995220609712 
441	 0.125046317293804 
442	 0.125836989094512 
443	 0.126984819890615 
444	 0.128587115821778 
445	 0.129856167772459 
446	 0.13116964294506 
447	 0.132562044362305 
448	 0.13395539885157 
449	 0.135153748833687 
450	 0.13655848499136 
451	 0.13806557218956 
452	 0.139165301730297 
453	 0.140232910162014 
454	 0.141325491195118 
455	 0.142420603102725 
456	 0.143433336076729 
457	 0.144553903274166 
458	 0.145623929232678 
459	 0.146379869087997 
460	 0.147076398954423 
461	 0.147724496898526 
462	 0.14843652732683 
463	 0.149502419046272 
464	 0.150453917310887 
465	 0.151027896353255 
466	 0.151249249867907 
467	 0.151936897285036 
468	 0.152784101233989 
469	 0.153436158864881 
470	 0.15359293865956 
471	 0.154057025847738 
472	 0.15458793755646 
473	 0.154966654115399 
474	 0.155448437568163 
475	 0.156097366539082 
476	 0.156674100895602 
477	 0.156896223396801 
478	 0.157247191928237 
479	 0.157694372633088 
480	 0.158106542332662 
481	 0.158276317355172 
482	 0.158754490787679 
483	 0.159351731757477 
484	 0.159766555894076 
485	 0.160147468828527 
486	 0.160615991808047 
487	 0.161079733931512 
488	 0.161297884814941 
489	 0.161637861741002 
490	 0.162065564792974 
491	 0.162500167220099 
492	 0.162941336419783 
493	 0.163334637600293 
494	 0.163697935928702 
495	 0.164076399986246 
496	 0.164428828082547 
497	 0.164724703227946 
498	 0.165020304144573 
499	 0.165502650821669 
500	 0.165889241945586 
501	 0.166266362645558 
502	 0.166750763971233 
503	 0.167097497729675 
504	 0.167356801270229 
505	 0.167623382147278 
506	 0.168012704577158 
507	 0.16843036407845 
508	 0.168822810639034 
509	 0.169150053041787 
510	 0.169351246731923 
511	 0.169765673459828 
512	 0.170246177305277 
513	 0.170443342287644 
514	 0.170756245515373 
515	 0.171155471407754 
516	 0.171566640715816 
517	 0.171931697651723 
518	 0.172240001665157 
519	 0.172455943068955 
520	 0.172619335674218 
521	 0.173180050689129 
522	 0.173639111199171 
523	 0.173867103586224 
524	 0.174170841046609 
525	 0.174365698764427 
526	 0.174606412462711 
527	 0.175012150389225 
528	 0.175385269783914 
529	 0.175654723123605 
530	 0.175935463162568 
531	 0.176420954632259 
532	 0.176648629455547 
533	 0.176914307329768 
534	 0.177376503302563 
535	 0.17767539821476 
536	 0.178057408234509 
537	 0.178450577638843 
538	 0.178704751720792 
539	 0.178998564673419 
540	 0.179380895293433 
541	 0.179806744509232 
542	 0.180123967472453 
543	 0.180437931319754 
544	 0.180817275480889 
545	 0.181264770173248 
546	 0.181555671479349 
547	 0.181932185721489 
548	 0.182413985254496 
549	 0.182828065826124 
550	 0.183249115780223 
551	 0.183696606522997 
552	 0.184175034113047 
553	 0.184678725345814 
554	 0.185168977043618 
555	 0.185635888348475 
556	 0.186096231366029 
557	 0.186651905231943 
558	 0.187155006184539 
559	 0.187578705442607 
560	 0.188158200478322 
561	 0.188732643531624 
562	 0.189361074386178 
563	 0.190154992467229 
564	 0.191111346325595 
565	 0.192038805789739 
566	 0.192853128350417 
567	 0.193603866688818 
568	 0.194358748032481 
569	 0.195157202406557 
570	 0.196028287886069 
571	 0.197030837964054 
572	 0.197948575132696 
573	 0.198751208096003 
574	 0.199553916163786 
575	 0.200434829777606 
576	 0.201508309672741 
577	 0.202739792794349 
578	 0.203777044402295 
579	 0.204768521213001 
580	 0.205683167415386 
581	 0.206476803175588 
582	 0.207463232875906 
583	 0.208628206665179 
584	 0.209935074907471 
585	 0.211369528797992 
586	 0.212882139364764 
587	 0.214404930600125 
588	 0.215877903057477 
589	 0.217291753666515 
590	 0.218709750938073 
591	 0.22014156580849 
592	 0.221547270408258 
593	 0.222891390124737 
594	 0.223997485401569 
595	 0.224820083975701 
596	 0.225699050466735 
597	 0.226596751585427 
598	 0.227552810213801 
599	 0.228633267677322 
600	 0.229779455855058 
601	 0.231033790409986 
602	 0.232348214901193 
603	 0.233499395785635 
604	 0.234569196646554 
605	 0.23567039258591 
606	 0.236872950215162 
607	 0.237930494000787 
608	 0.238851472843715 
609	 0.239736576694163 
610	 0.240768381903332 
611	 0.241771950765972 
612	 0.242677963243949 
613	 0.243471728575577 
614	 0.244242790074143 
615	 0.244921301617094 
616	 0.24555377362826 
617	 0.246249565419599 
618	 0.246855351269502 
619	 0.247403232655648 
620	 0.247942767718811 
621	 0.248495471426614 
622	 0.249050161680884 
623	 0.24956478612566 
624	 0.250004803553366 
625	 0.25047754708863 
626	 0.250933851121368 
627	 0.251358747160089 
628	 0.251798756179363 
629	 0.252239186578268 
630	 0.252671637822627 
631	 0.253079681039935 
632	 0.25340139493733 
633	 0.253760900818803 
634	 0.254160889887631 
635	 0.254506732722293 
636	 0.25487471572805 
637	 0.255244041525311 
638	 0.255581720872817 
639	 0.255854906766006 
640	 0.256195296120035 
641	 0.256586109016376 
642	 0.256946654569218 
643	 0.257319893093467 
644	 0.257658227343217 
645	 0.257975546393217 
646	 0.25838607867787 
647	 0.258755635196943 
648	 0.259079881476454 
649	 0.259406623256352 
650	 0.25982506532828 
651	 0.260260032082644 
652	 0.260652089788031 
653	 0.26097185278397 
654	 0.261363520370049 
655	 0.261795078062985 
656	 0.262224966048637 
657	 0.262675216646065 
658	 0.263136799678006 
659	 0.263590350473811 
660	 0.264017988580364 
661	 0.264457957361195 
662	 0.264925381189548 
663	 0.26542489335166 
664	 0.265953477083779 
665	 0.266389600477518 
666	 0.266824855364187 
667	 0.267360623202382 
668	 0.267851787307867 
669	 0.268371485391802 
670	 0.268954420134165 
671	 0.269590684889987 
672	 0.270191985329014 
673	 0.270775629931743 
674	 0.271354571751197 
675	 0.271860025484858 
676	 0.272522168373035 
677	 0.273220283966064 
678	 0.273738104848696 
679	 0.274386494620804 
680	 0.275063697395865 
681	 0.275723802089072 
682	 0.27644089684089 
683	 0.277047197597069 
684	 0.277680978628709 
685	 0.278472078713844 
686	 0.279225281250496 
687	 0.279950882270965 
688	 0.280675670930106 
689	 0.281430276422278 
690	 0.282133651570624 
691	 0.282857643034107 
692	 0.283637627110998 
693	 0.284391557563395 
694	 0.285172621134639 
695	 0.285969532621449 
696	 0.286757220755138 
697	 0.28756162251174 
698	 0.288413796157543 
699	 0.289263568447909 
700	 0.289983982218767 
701	 0.290778987593254 
702	 0.291647674973186 
703	 0.292542224963184 
704	 0.29343444683408 
705	 0.294251135289146 
706	 0.295019492886498 
707	 0.295818409178212 
708	 0.296660389982336 
709	 0.297468056074624 
710	 0.298222487429441 
711	 0.29900367933297 
712	 0.299835741812638 
713	 0.300703903493455 
714	 0.301558704074399 
715	 0.302275511415247 
716	 0.302952490944596 
717	 0.303671085445809 
718	 0.304480356033527 
719	 0.305284216257048 
720	 0.306022820014606 
721	 0.306679049267421 
722	 0.307292317917482 
723	 0.308007050756507 
724	 0.308688083007028 
725	 0.309172143235394 
726	 0.309685249808673 
727	 0.310212569077689 
728	 0.310761038768886 
729	 0.311356946977422 
730	 0.311838265736232 
731	 0.31224362885512 
732	 0.312640670058352 
733	 0.313077849218939 
734	 0.313434924082329 
735	 0.313709864249253 
736	 0.31395384833 
737	 0.314190812116473 
738	 0.314445882419688 
739	 0.31466310681941 
740	 0.314708634556024 
741	 0.314792563059028 
742	 0.314887779844836 
743	 0.314938635941108 
744	 0.314962110529056 
745	 0.314954024317021 
746	 0.314874628529909 
747	 0.314694461392728 
748	 0.314570967024825 
749	 0.314416038178266 
750	 0.314190202115608 
751	 0.313939938741386 
752	 0.31368852996871 
753	 0.313398261696155 
754	 0.313052234042515 
755	 0.312746510681493 
756	 0.312364042281598 
757	 0.311913402494331 
758	 0.311468458596408 
759	 0.311051197624688 
760	 0.310597000731526 
761	 0.310094192540578 
762	 0.309606338353496 
763	 0.309006696492009 
764	 0.308403148504581 
765	 0.307883647120872 
766	 0.307305475144151 
767	 0.306792897572065 
768	 0.306243088298348 
769	 0.305505397284664 
770	 0.304955263236948 
771	 0.304421683035948 
772	 0.303773805644071 
773	 0.302997182222273 
774	 0.30234913973444 
775	 0.301735236935998 
776	 0.301048359901584 
777	 0.300383091593155 
778	 0.299707038639624 
779	 0.29904247996902 
780	 0.298414386426014 
781	 0.297717450538581 
782	 0.2970021619306 
783	 0.296308677499877 
784	 0.295651042189278 
785	 0.29495778228746 
786	 0.294264973282538 
787	 0.293598818573955 
788	 0.292903300792444 
789	 0.29225438832426 
790	 0.291621008939511 
791	 0.290942435403186 
792	 0.290238764460087 
793	 0.289530929270455 
794	 0.288851078365878 
795	 0.288234897561256 
796	 0.287638428194975 
797	 0.287044245281151 
798	 0.286442328545384 
799	 0.285826236889577 
800	 0.285198530942457 
801	 0.28458620585562 
802	 0.284004903871505 
803	 0.283400882965421 
804	 0.282781123228375 
805	 0.282181203806708 
806	 0.281641991491798 
807	 0.281094100611625 
808	 0.280544521141187 
809	 0.280001110704094 
810	 0.279460244353081 
811	 0.278939847322335 
812	 0.278403692676433 
813	 0.277845923580078 
814	 0.277380081239525 
815	 0.276897758882301 
816	 0.276381417032411 
817	 0.275867028071168 
818	 0.275445199472845 
819	 0.275062777909542 
820	 0.274614913560748 
821	 0.274002767724707 
822	 0.273616601019318 
823	 0.27327036293276 
824	 0.272822124311012 
825	 0.272350044062418 
826	 0.272007684987269 
827	 0.271732371940063 
828	 0.271403315722105 
829	 0.270931638181265 
830	 0.270451072931209 
831	 0.270055797958752 
832	 0.269778923093714 
833	 0.269456437047064 
834	 0.269136707066697 
835	 0.268839393504827 
836	 0.268541242923326 
837	 0.268207665315151 
838	 0.267900314737682 
839	 0.267660983459215 
840	 0.267472265195087 
841	 0.267248171461534 
842	 0.26692188893774 
843	 0.266524156450278 
844	 0.266353091625714 
845	 0.266160450271943 
846	 0.265944246938739 
847	 0.265786586004302 
848	 0.265530928005684 
849	 0.265298807630006 
850	 0.265142225171048 
851	 0.265024914356648 
852	 0.264813633781668 
853	 0.264595199135826 
854	 0.264437681321319 
855	 0.264330550550191 
856	 0.264271768898363 
857	 0.264188443603739 
858	 0.264038002703055 
859	 0.263879346456292 
860	 0.263838162903185 
861	 0.263822781440779 
862	 0.263716520633127 
863	 0.263686363713115 
864	 0.263620074349864 
865	 0.263522795025805 
866	 0.263467158204669 
867	 0.263411830129529 
868	 0.263379536228224 
869	 0.263398054755463 
870	 0.263479674160662 
871	 0.263433734696858 
872	 0.263377315603021 
873	 0.263408859261372 
874	 0.263507276610303 
875	 0.263591764550676 
876	 0.263616500334917 
877	 0.263607610007995 
878	 0.263742453584967 
879	 0.263896595715736 
880	 0.263964866045931 
881	 0.263915780326314 
882	 0.263958142529697 
883	 0.264116011623375 
884	 0.264314059445195 
885	 0.264448552466299 
886	 0.264619465666988 
887	 0.264763478128341 
888	 0.264884032923968 
889	 0.265045026042956 
890	 0.265226650886857 
891	 0.265397457119966 
892	 0.265587476754303 
893	 0.265890224528433 
894	 0.26609628436871 
895	 0.266231915997986 
896	 0.266380975973859 
897	 0.266634448974582 
898	 0.266903112851597 
899	 0.267204044541391 
900	 0.267554102081106 
901	 0.267909173431203 
902	 0.268123226286173 
903	 0.268346383045298 
904	 0.268732774960922 
905	 0.269032771270846 
906	 0.269338614316976 
907	 0.26967696454028 
908	 0.270048778296828 
909	 0.270507460247115 
910	 0.270932701329939 
911	 0.271303791291705 
912	 0.271678401684428 
913	 0.2721028541267 
914	 0.272485562951689 
915	 0.272815961898339 
916	 0.273173702744222 
917	 0.273628526573185 
918	 0.274243374244753 
919	 0.274875421501351 
920	 0.275205488835987 
921	 0.27569836904238 
922	 0.276197654600332 
923	 0.276668117693461 
924	 0.27738360383771 
925	 0.277866868722441 
926	 0.278353619595429 
927	 0.278992180988289 
928	 0.279486371516553 
929	 0.280069627101915 
930	 0.280717449689058 
931	 0.281370098263704 
932	 0.282047041316988 
933	 0.282707310829387 
934	 0.283338917230699 
935	 0.283961567253871 
936	 0.284657616722664 
937	 0.28526997405635 
938	 0.285909560066386 
939	 0.286696371045906 
940	 0.287458372960861 
941	 0.288237693376711 
942	 0.289026853481957 
943	 0.289788319671972 
944	 0.290436202643065 
945	 0.291108827870432 
946	 0.291861765403509 
947	 0.292695993631626 
948	 0.293600421535778 
949	 0.29448702820281 
950	 0.295351156777825 
951	 0.29624037310224 
952	 0.297200412184264 
953	 0.298087942567758 
954	 0.298948719640969 
955	 0.299916141021988 
956	 0.300945940622528 
957	 0.301917071146148 
958	 0.302806677216636 
959	 0.303657857860316 
960	 0.304451085864098 
961	 0.305356670898088 
962	 0.306426457536181 
963	 0.307580263984373 
964	 0.308572017184942 
965	 0.309575890616069 
966	 0.310652604390096 
967	 0.311756322859677 
968	 0.312841642649256 
969	 0.31384823963632 
970	 0.31487681470674 
971	 0.316043953702553 
972	 0.316904084905388 
973	 0.317926209914718 
974	 0.319156512951197 
975	 0.320338517889374 
976	 0.321549512994123 
977	 0.32284035119245 
978	 0.324090255112667 
979	 0.325135794021845 
980	 0.326190599259273 
981	 0.327370182871381 
982	 0.32866153464057 
983	 0.329959400521933 
984	 0.331155350784942 
985	 0.332329730752112 
986	 0.333512991213825 
987	 0.334703527694651 
988	 0.335953674873406 
989	 0.337068872920864 
990	 0.338201844158064 
991	 0.339567998483163 
992	 0.340798632647844 
993	 0.34201737710697 
994	 0.343198057499217 
995	 0.344286572063239 
996	 0.345402367659578 
997	 0.346660558556352 
998	 0.347967982131564 
999	 0.349224498763893 
1000	 0.350653785652682 
1001	 0.355901268353712 
1002	 0.357169195571848 
1003	 0.358454524935365 
1004	 0.35969375223354 
1005	 0.360938117186789 
1006	 0.362094047601785 
1007	 0.363180494693542 
1008	 0.364279111532009 
1009	 0.365336983990191 
1010	 0.366399884809129 
1011	 0.367581593697742 
1012	 0.368757016312986 
1013	 0.369898291903411 
1014	 0.371071134368739 
1015	 0.372172376143337 
1016	 0.37321659167295 
1017	 0.374281873387867 
1018	 0.375349716480962 
1019	 0.376382464452233 
1020	 0.377425372205244 
1021	 0.378507190704479 
1022	 0.379612787611592 
1023	 0.380656360902925 
1024	 0.381670300145518 
1025	 0.38274060145467 
1026	 0.383756598818687 
1027	 0.38478477921848 
1028	 0.385842516351319 
1029	 0.386833634436324 
1030	 0.387817864476158 
1031	 0.388809009428104 
1032	 0.389810901387743 
1033	 0.390777892074929 
1034	 0.391752796086499 
1035	 0.392766350625704 
1036	 0.393742387162146 
1037	 0.394766308302297 
1038	 0.39585310768249 
1039	 0.396884147987623 
1040	 0.397906636692463 
1041	 0.398930751199618 
1042	 0.399891247642542 
1043	 0.400824884000124 
1044	 0.401803192286015 
1045	 0.402800682915112 
1046	 0.403819964807144 
1047	 0.404835282560146 
1048	 0.405848423405931 
1049	 0.406804980798328 
1050	 0.407714408255142 
1051	 0.408674775148349 
1052	 0.409634906963044 
1053	 0.410611954635366 
1054	 0.411588112796278 
1055	 0.41246871361664 
1056	 0.413355339184552 
1057	 0.414219861174407 
1058	 0.415027123194156 
1059	 0.415868838086877 
1060	 0.416741115648937 
1061	 0.417545940497462 
1062	 0.418335247366519 
1063	 0.419112150470594 
1064	 0.419866762684408 
1065	 0.420647730180008 
1066	 0.421433377657087 
1067	 0.422226771637823 
1068	 0.422918276342347 
1069	 0.423549184943777 
1070	 0.424207589875177 
1071	 0.424781271709798 
1072	 0.425446250404146 
1073	 0.426195577696264 
1074	 0.426909306506835 
1075	 0.427631691063511 
1076	 0.428353505931794 
1077	 0.429045248321106 
1078	 0.429683762506061 
1079	 0.430300118407837 
1080	 0.430900972346132 
1081	 0.43156368958351 
1082	 0.432210493299647 
1083	 0.432855360036691 
1084	 0.433540867233632 
1085	 0.434202509837248 
1086	 0.434810288468736 
1087	 0.435455080039142 
1088	 0.436129339122648 
1089	 0.436762925878255 
1090	 0.437391116721536 
1091	 0.438097853751515 
1092	 0.4387767093035 
1093	 0.439448335714321 
1094	 0.440179398432128 
1095	 0.440864718269008 
1096	 0.441594633915357 
1097	 0.44239373919923 
1098	 0.443158990745066 
1099	 0.443918365408194 
1100	 0.444713712802753 
1101	 0.445498907055576 
1102	 0.446311496229994 
1103	 0.447165464684442 
1104	 0.448024020550795 
1105	 0.448855938092826 
1106	 0.449745765078336 
1107	 0.450610754749424 
1108	 0.451502654260134 
1109	 0.452437587898425 
1110	 0.453347872640804 
1111	 0.45428069651511 
1112	 0.455220773645618 
1113	 0.456193473745335 
1114	 0.457178447961019 
1115	 0.458191362857033 
1116	 0.459270991554365 
1117	 0.46029907920809 
1118	 0.461310214322794 
1119	 0.462326951674047 
1120	 0.463359097732792 
1121	 0.464392787168345 
1122	 0.465439834760796 
1123	 0.466528858288339 
1124	 0.467605672615616 
1125	 0.468670824274963 
1126	 0.469743695762514 
1127	 0.470851327444695 
1128	 0.47191906413973 
1129	 0.472963353153861 
1130	 0.47401136338373 
1131	 0.475029224927141 
1132	 0.476073704752069 
1133	 0.477127402080542 
1134	 0.478189829745185 
1135	 0.479279135582736 
1136	 0.480348055003726 
1137	 0.481417483344749 
1138	 0.482490757081157 
1139	 0.483548483817454 
1140	 0.484610275237045 
1141	 0.485645463557083 
1142	 0.486661368761991 
1143	 0.487667185386819 
1144	 0.488657544294456 
1145	 0.489636672003932 
1146	 0.490602208015859 
1147	 0.49156494202753 
1148	 0.492525579865387 
1149	 0.493466244968729 
1150	 0.49440383648572 
1151	 0.495312506576809 
1152	 0.496207554204806 
1153	 0.497100465075892 
1154	 0.498011062859586 
1155	 0.498951776774711 
1156	 0.499834612492505 
1157	 0.500706660553598 
1158	 0.501565311586003 
1159	 0.502382353217461 
1160	 0.503210577052368 
1161	 0.504037958624013 
1162	 0.504866000335615 
1163	 0.505716542971355 
1164	 0.506515491169561 
1165	 0.507281087142459 
1166	 0.508068261432119 
1167	 0.508834056334971 
1168	 0.50955237789665 
1169	 0.51026905773458 
1170	 0.51098595725197 
1171	 0.511692663489165 
1172	 0.512360911349214 
1173	 0.513055950175423 
1174	 0.513778927128847 
1175	 0.514473719130823 
1176	 0.515174447650765 
1177	 0.515839187890133 
1178	 0.516470189638379 
1179	 0.517110029062887 
1180	 0.517736155630226 
1181	 0.518352524185617 
1182	 0.518971161744442 
1183	 0.51958617353842 
1184	 0.520175902618425 
1185	 0.520742720688644 
1186	 0.521310135543565 
1187	 0.521857427573508 
1188	 0.522423488232677 
1189	 0.52301670515043 
1190	 0.5235485206703 
1191	 0.524059835340657 
1192	 0.524569067767217 
1193	 0.525022182334993 
1194	 0.52550828814299 
1195	 0.526013725349501 
1196	 0.526518290458902 
1197	 0.527035186167175 
1198	 0.527536198913632 
1199	 0.528032985718309 
1200	 0.52854196564922 
1201	 0.52901438074264 
1202	 0.529456341307021 
1203	 0.529915944241781 
1204	 0.530364030832582 
1205	 0.530819735571502 
1206	 0.531291272743377 
1207	 0.531742333708341 
1208	 0.532189747172062 
1209	 0.532622747072915 
1210	 0.533038833505353 
1211	 0.533456274103265 
1212	 0.533864677921949 
1213	 0.534271264262371 
1214	 0.534688010097173 
1215	 0.535083793446659 
1216	 0.535467646126195 
1217	 0.535839839902164 
1218	 0.536208068187717 
1219	 0.536562576148197 
1220	 0.536914611353211 
1221	 0.537255046875577 
1222	 0.537610136225002 
1223	 0.537966514540747 
1224	 0.538319938251299 
1225	 0.538692596732584 
1226	 0.539042217686915 
1227	 0.539377227538873 
1228	 0.539707459244994 
1229	 0.540019934818821 
1230	 0.540342335198599 
1231	 0.540666587142443 
1232	 0.540986591924458 
1233	 0.541306532386887 
1234	 0.541629113101344 
1235	 0.541954512395069 
1236	 0.542278450533358 
1237	 0.542600133867376 
1238	 0.542949080549386 
1239	 0.543245341525112 
1240	 0.543505034978193 
1241	 0.543779449258344 
1242	 0.544026939783948 
1243	 0.544287282752191 
1244	 0.54456189361324 
1245	 0.544833282988067 
1246	 0.545094340336883 
1247	 0.545365127411138 
1248	 0.545660999290671 
1249	 0.545935429741486 
1250	 0.546178783620687 
1251	 0.546427093578328 
1252	 0.546660715010632 
1253	 0.546862462450685 
1254	 0.547082674862701 
1255	 0.547318742762531 
1256	 0.547529845256105 
1257	 0.547725927504113 
1258	 0.547927700344792 
1259	 0.548098142168041 
1260	 0.548312628428908 
1261	 0.548574450689727 
1262	 0.548791400506746 
1263	 0.549006367544697 
1264	 0.549225375674138 
1265	 0.549406589361236 
1266	 0.549609193935736 
1267	 0.549835488821731 
1268	 0.550066476804237 
1269	 0.550291066662788 
1270	 0.55050056037481 
1271	 0.550750336801952 
1272	 0.551016362329598 
1273	 0.551286270822206 
1274	 0.551579981508361 
1275	 0.55187141879863 
1276	 0.552173400603071 
1277	 0.552464163967533 
1278	 0.552770924566747 
1279	 0.553051292603551 
1280	 0.553316142762977 
1281	 0.553564601872311 
1282	 0.55379398879586 
1283	 0.554018231286221 
1284	 0.554230930669408 
1285	 0.554427079867546 
1286	 0.554646910674793 
1287	 0.554829367224487 
1288	 0.554962901788202 
1289	 0.555073159031281 
1290	 0.555144571116318 
1291	 0.555153709645528 
1292	 0.555164271916323 
1293	 0.555159750783187 
1294	 0.555126790182081 
1295	 0.555078333227822 
1296	 0.554989059240324 
1297	 0.554869614471939 
1298	 0.554720204218226 
1299	 0.554518372820609 
1300	 0.554316503500014 
1301	 0.554092066983643 
1302	 0.553858440774468 
1303	 0.553609007194998 
1304	 0.553357750795802 
1305	 0.553087554222369 
1306	 0.552819508112047 
1307	 0.552575992037859 
1308	 0.552327301802611 
1309	 0.552093154385513 
1310	 0.551880004616142 
1311	 0.551665255075417 
1312	 0.551428696120764 
1313	 0.551255290277353 
1314	 0.551106503963759 
1315	 0.550977980501252 
1316	 0.550902637696186 
1317	 0.550819900486375 
1318	 0.550726756535456 
1319	 0.550679314961669 
1320	 0.550642490503269 
1321	 0.550653839065442 
1322	 0.550713241574004 
1323	 0.550793830208467 
1324	 0.550892007021963 
1325	 0.550983896954295 
1326	 0.551099654209372 
1327	 0.551248964311634 
1328	 0.55139854142214 
1329	 0.551591841664428 
1330	 0.551815806338138 
1331	 0.5520570326264 
1332	 0.552328416579912 
1333	 0.552661858643445 
1334	 0.552964346106665 
1335	 0.553249444571644 
1336	 0.553576964241928 
1337	 0.553930053768712 
1338	 0.554278410345501 
1339	 0.554644335288783 
1340	 0.555022158164102 
1341	 0.555401959288017 
1342	 0.555785065469957 
1343	 0.556193333539449 
1344	 0.556595445963704 
1345	 0.556968998509897 
1346	 0.557350314812328 
1347	 0.557733250340209 
1348	 0.55812165643523 
1349	 0.55852249826931 
1350	 0.558913222341338 
1351	 0.559319669756439 
1352	 0.559741679410808 
1353	 0.560143735391068 
1354	 0.56056549263545 
1355	 0.560939261724464 
1356	 0.56127624191587 
1357	 0.561621660387032 
1358	 0.561941541260387 
1359	 0.562278615014279 
1360	 0.56261716876557 
1361	 0.562958394172593 
1362	 0.563306491490968 
1363	 0.563647690902362 
1364	 0.563993411665432 
1365	 0.564333203283621 
1366	 0.564668713765854 
1367	 0.564995468691313 
1368	 0.565320504110955 
1369	 0.56565655928939 
1370	 0.565976942944833 
1371	 0.566292485168816 
1372	 0.566601897077372 
1373	 0.56687720718737 
1374	 0.567144021804367 
1375	 0.5673985174794 
1376	 0.567639951066215 
1377	 0.567875444937791 
1378	 0.568076945164046 
1379	 0.568264076057104 
1380	 0.56841974656295 
1381	 0.568523901390229 
1382	 0.568646878388084 
1383	 0.56876570584719 
1384	 0.568868394256919 
1385	 0.568991517366199 
1386	 0.569059292741383 
1387	 0.569088977494401 
1388	 0.569098626863692 
1389	 0.569078185474507 
1390	 0.569023953467731 
1391	 0.568972570319628 
1392	 0.568896710138761 
1393	 0.568782425931973 
1394	 0.568676256362618 
1395	 0.568552912781318 
1396	 0.568422557636217 
1397	 0.568274435433529 
1398	 0.568113083674542 
1399	 0.567951569812292 
1400	 0.567758577156933 
1401	 0.567601199701017 
1402	 0.567470804752675 
1403	 0.567323525027643 
1404	 0.567182675873126 
1405	 0.567034412163662 
1406	 0.566883314816518 
1407	 0.566716069752343 
1408	 0.566521899599763 
1409	 0.566365608497652 
1410	 0.566177411994567 
1411	 0.566061885609928 
1412	 0.565997918924896 
1413	 0.565959925465061 
1414	 0.565955034254398 
1415	 0.565979376142944 
1416	 0.566046498973672 
1417	 0.566119013979565 
1418	 0.566192385593549 
1419	 0.566284310390071 
1420	 0.566341257955788 
1421	 0.566393816723979 
1422	 0.566458654929194 
1423	 0.56650319626553 
1424	 0.566519249165884 
1425	 0.566509391646428 
1426	 0.56650617414164 
1427	 0.566470330623075 
1428	 0.566456608988239 
1429	 0.566461683950845 
1430	 0.566455360990617 
1431	 0.56645193959252 
1432	 0.566434661317229 
1433	 0.5664127597782 
1434	 0.566378242975507 
1435	 0.566323760329019 
1436	 0.566272238908516 
1437	 0.566207247181533 
1438	 0.566162079689041 
1439	 0.566121900900327 
1440	 0.566093050996236 
1441	 0.566059720383592 
1442	 0.566015115084334 
1443	 0.565940984925438 
1444	 0.565860944605999 
1445	 0.565815493297436 
1446	 0.565754395827157 
1447	 0.565685826207957 
1448	 0.565628818104315 
1449	 0.565538564963247 
1450	 0.565432912921549 
1451	 0.565344534530487 
1452	 0.565263841317768 
1453	 0.565177674133118 
1454	 0.565100450269368 
1455	 0.564998322053396 
1456	 0.564877834374074 
1457	 0.564765737060435 
1458	 0.564643287371714 
1459	 0.564534228946119 
1460	 0.56442599841419 
1461	 0.564333486414765 
1462	 0.564243414061129 
1463	 0.564168809078919 
1464	 0.564126153787391 
1465	 0.564063480039136 
1466	 0.563986536106138 
1467	 0.563935666012974 
1468	 0.563880446098833 
1469	 0.56384408858525 
1470	 0.563828078748805 
1471	 0.563833910731278 
1472	 0.563832283897425 
1473	 0.563866936849068 
1474	 0.56394346178088 
1475	 0.564028962141205 
1476	 0.564128298450478 
1477	 0.564258813964523 
1478	 0.5644229485979 
1479	 0.564588489732542 
1480	 0.564773407928553 
1481	 0.564979833184588 
1482	 0.565150157769295 
1483	 0.565295140322526 
1484	 0.565456266631877 
1485	 0.565610459704076 
1486	 0.565767473874743 
1487	 0.565943503002656 
1488	 0.566088556184148 
1489	 0.566200987891708 
1490	 0.566336718955662 
1491	 0.566476615775511 
1492	 0.56661036572336 
1493	 0.56676313385716 
1494	 0.566894714309251 
1495	 0.567009270092996 
1496	 0.567108540552629 
1497	 0.567188584560182 
1498	 0.567280655576752 
1499	 0.567348264558899 
1500	 0.567447393820065 
1501	 0.567577198062958 
1502	 0.56769173075127 
1503	 0.567814004163664 
1504	 0.567932315462201 
1505	 0.56805245581554 
1506	 0.56814995644422 
1507	 0.56824157632497 
1508	 0.568347532332727 
1509	 0.568399005614789 
1510	 0.568455826016148 
1511	 0.568547102966515 
1512	 0.568612070713666 
1513	 0.568705703836316 
1514	 0.568823208609068 
1515	 0.568907236545734 
1516	 0.56898130474798 
1517	 0.569051651887561 
1518	 0.569117958000519 
1519	 0.569175457183394 
1520	 0.569220236277958 
1521	 0.569264255055593 
1522	 0.569293662872408 
1523	 0.569344556327119 
1524	 0.569402893653657 
1525	 0.569467886403023 
1526	 0.569546290386482 
1527	 0.569616985193342 
1528	 0.569688386170166 
1529	 0.569756799117885 
1530	 0.569836411072795 
1531	 0.569895959495888 
1532	 0.569951744278485 
1533	 0.569985657663853 
1534	 0.569978153033483 
1535	 0.570006190287109 
1536	 0.570026681060416 
1537	 0.57006770660929 
1538	 0.570138225109749 
1539	 0.570210808044005 
1540	 0.570295783269564 
1541	 0.570379590761355 
1542	 0.570491424550373 
1543	 0.570567404804209 
1544	 0.570616234386453 
1545	 0.570673965680768 
1546	 0.570715208679065 
1547	 0.570750530540428 
1548	 0.570829764509359 
1549	 0.570918968204867 
1550	 0.571024110871724 
1551	 0.571139306319235 
1552	 0.571229020870268 
1553	 0.571308193242563 
1554	 0.571371858011622 
1555	 0.57143856031176 
1556	 0.571491135519306 
1557	 0.571508184898122 
1558	 0.571519354539402 
1559	 0.571531469430705 
1560	 0.571574239138725 
1561	 0.571640304130225 
1562	 0.571709856655627 
1563	 0.571791192623977 
1564	 0.571881885858747 
1565	 0.571981661311052 
1566	 0.572080472621706 
1567	 0.572208734244045 
1568	 0.572298016438496 
1569	 0.572374841385151 
1570	 0.57243894612879 
1571	 0.572470308642026 
1572	 0.572525137192557 
1573	 0.572568158321112 
1574	 0.572637213131646 
1575	 0.572731295147913 
1576	 0.572815507488369 
1577	 0.572921549325771 
1578	 0.573001284293506 
1579	 0.573069175542134 
1580	 0.573126686495609 
1581	 0.573168502984363 
1582	 0.573205354614798 
1583	 0.573219314292951 
1584	 0.57325530984209 
1585	 0.57329316691529 
1586	 0.573342082435613 
1587	 0.57339954396846 
1588	 0.573473673682528 
1589	 0.573580922440009 
1590	 0.573647063558193 
1591	 0.573697006222893 
1592	 0.573767281588959 
1593	 0.573821015910703 
1594	 0.573881156152629 
1595	 0.573973834790445 
1596	 0.574044775187253 
1597	 0.574097126966988 
1598	 0.574147043271354 
1599	 0.574188589601122 
1600	 0.574238629221566 
1601	 0.574266464255109 
1602	 0.574322746202262 
1603	 0.57442594029669 
1604	 0.574492943439357 
1605	 0.574558643527242 
1606	 0.574618882734586 
1607	 0.574650569647931 
1608	 0.574684101692772 
1609	 0.574738234062109 
1610	 0.574769938384303 
1611	 0.574822575370952 
1612	 0.574870519367556 
1613	 0.574932551448735 
1614	 0.575045085656603 
1615	 0.57514688285315 
1616	 0.575240088885898 
1617	 0.575311715516152 
1618	 0.575382086442816 
1619	 0.575476594609129 
1620	 0.575560241218859 
1621	 0.575659137015521 
1622	 0.575792992825948 
1623	 0.575867232478426 
1624	 0.575920873598508 
1625	 0.575967032710585 
1626	 0.575981009725847 
1627	 0.576006121713394 
1628	 0.576031726082706 
1629	 0.576051314087031 
1630	 0.576056803413421 
1631	 0.576081694293787 
1632	 0.576104225887377 
1633	 0.576150047942239 
1634	 0.576225293552229 
1635	 0.576269150709164 
1636	 0.576306248242716 
1637	 0.576360504206744 
1638	 0.576400008607894 
1639	 0.576463800301485 
1640	 0.576558207638569 
1641	 0.576642925504756 
1642	 0.576722502008064 
1643	 0.576817537476963 
1644	 0.576934737849755 
1645	 0.577026367310123 
1646	 0.577117605278567 
1647	 0.577196503675157 
1648	 0.577252347362907 
1649	 0.577324602378232 
1650	 0.577404775899306 
1651	 0.577469823534307 
1652	 0.57752842823675 
1653	 0.577593550865973 
1654	 0.57764193908786 
1655	 0.577718896120011 
1656	 0.577817799322546 
1657	 0.577909641658311 
1658	 0.578018247053416 
1659	 0.578106966114315 
1660	 0.57818921342904 
1661	 0.578265333650131 
1662	 0.578340830743021 
1663	 0.578390367218778 
1664	 0.578418715202393 
1665	 0.578453768034909 
1666	 0.578460146856634 
1667	 0.578497982481996 
1668	 0.578549953296614 
1669	 0.578612344430622 
1670	 0.578693921668336 
1671	 0.578767185087995 
1672	 0.578853720262303 
1673	 0.578924958075495 
1674	 0.578994347889931 
1675	 0.579045388509218 
1676	 0.579075644416964 
1677	 0.579119488240052 
1678	 0.579148766157144 
1679	 0.579197800737957 
1680	 0.57927175256243 
1681	 0.579324672229246 
1682	 0.579368407020634 
1683	 0.579422688639978 
1684	 0.579457578950155 
1685	 0.579536463823923 
1686	 0.579643792061205 
1687	 0.579752556522592 
1688	 0.579897083585743 
1689	 0.580014977465695 
1690	 0.580136877887032 
1691	 0.580233294980358 
1692	 0.58029943561129 
1693	 0.580385619012975 
1694	 0.580466916948454 
1695	 0.580545626544073 
1696	 0.580632436044938 
1697	 0.58071827386636 
1698	 0.580786878256479 
1699	 0.580876392230907 
1700	 0.581012867161987 
1701	 0.581078994859269 
1702	 0.581107595418763 
1703	 0.58115309171163 
1704	 0.581151620131889 
1705	 0.581193460352445 
1706	 0.581290496120182 
1707	 0.581333871570678 
1708	 0.581363444087171 
1709	 0.581380318436909 
1710	 0.581331050010703 
1711	 0.581377776146238 
1712	 0.58145133827693 
1713	 0.581558778961275 
1714	 0.58176075292654 
1715	 0.581890577922189 
1716	 0.58200812545292 
1717	 0.582116756061694 
1718	 0.582199379113124 
1719	 0.582284983286813 
1720	 0.582378837644475 
1721	 0.582444491485409 
1722	 0.582486822489804 
1723	 0.582535427759197 
1724	 0.582584782263776 
1725	 0.58259773975113 
1726	 0.582590722375889 
1727	 0.582587533374055 
1728	 0.582551265549451 
1729	 0.582528579370607 
1730	 0.582531113038883 
1731	 0.582495007077822 
1732	 0.582421996048537 
1733	 0.582384632333152 
1734	 0.582343341145787 
1735	 0.582328286476686 
1736	 0.582339236914098 
1737	 0.582341933896395 
1738	 0.582340410880634 
1739	 0.582370946314001 
1740	 0.582435713602238 
1741	 0.582463147583645 
1742	 0.582505132306648 
1743	 0.582506979795702 
1744	 0.582467767715779 
1745	 0.582434090730157 
1746	 0.582381301607559 
1747	 0.582356121633747 
1748	 0.582327492773594 
1749	 0.582323146805166 
1750	 0.582344080567775 
1751	 0.582361273723822 
1752	 0.582376966204155 
1753	 0.582388555849873 
1754	 0.582405281655207 
1755	 0.58239366352673 
1756	 0.582409110920802 
1757	 0.582447104489177 
1758	 0.582472835735153 
1759	 0.582545184492258 
1760	 0.582598728677405 
1761	 0.582609622787401 
1762	 0.582648077152968 
1763	 0.582685343851025 
1764	 0.582665445835603 
1765	 0.582661553612089 
1766	 0.582679951473154 
1767	 0.58266192278878 
1768	 0.582687763093272 
1769	 0.582751731064602 
1770	 0.58278938503869 
1771	 0.582830830748211 
1772	 0.582864819273871 
1773	 0.58289714284396 
1774	 0.582950708411621 
1775	 0.583005668247584 
1776	 0.583062074060782 
1777	 0.583107792220553 
1778	 0.583153455394105 
1779	 0.583201729442951 
1780	 0.583265807898188 
1781	 0.583327766789152 
1782	 0.583359092612146 
1783	 0.583410969741629 
1784	 0.583457872946141 
1785	 0.583524833764765 
1786	 0.583563414451835 
1787	 0.583556272650206 
1788	 0.583595168133023 
1789	 0.583641836809247 
1790	 0.583695061301291 
1791	 0.583783944393844 
1792	 0.583865951490177 
1793	 0.58394764965921 
1794	 0.584016599211171 
1795	 0.584110466730635 
1796	 0.584136824655795 
1797	 0.584096314916577 
1798	 0.584100840122246 
1799	 0.584078133541942 
1800	 0.58410056590085 
1801	 0.57833614672559 
1802	 0.578399490418714 
1803	 0.57841015170271 
1804	 0.578416167568454 
1805	 0.578515482654721 
1806	 0.578611025620166 
1807	 0.578669258693366 
1808	 0.578742738556978 
1809	 0.578878855204408 
1810	 0.578930794337339 
1811	 0.57892163238919 
1812	 0.578945646016147 
1813	 0.578971103772116 
1814	 0.578927431374143 
1815	 0.578899010961137 
1816	 0.578891100190297 
1817	 0.578877074787227 
1818	 0.578860562843367 
1819	 0.57883032196544 
1820	 0.57881604896999 
1821	 0.578765798522637 
1822	 0.578658756303058 
1823	 0.578569643152961 
1824	 0.578499920723845 
1825	 0.578387639563843 
1826	 0.578267762166164 
1827	 0.578112053737976 
1828	 0.577964365262549 
1829	 0.577791691834732 
1830	 0.57763915329475 
1831	 0.577484520731531 
1832	 0.577363651592627 
1833	 0.577248299064608 
1834	 0.577069602082409 
1835	 0.576942028217249 
1836	 0.576808811874332 
1837	 0.576601276242238 
1838	 0.57642715732898 
1839	 0.576269735013822 
1840	 0.57610118723095 
1841	 0.575952201214924 
1842	 0.575865756596529 
1843	 0.575770597849234 
1844	 0.575667011422847 
1845	 0.575549082882771 
1846	 0.575453575932085 
1847	 0.575400500276561 
1848	 0.575345973756601 
1849	 0.575308962089845 
1850	 0.575312639949314 
1851	 0.575346486779699 
1852	 0.575372099946293 
1853	 0.575430071712774 
1854	 0.575545140495578 
1855	 0.575638986501636 
1856	 0.575772925090144 
1857	 0.57597451698341 
1858	 0.576118373335787 
1859	 0.576234391340972 
1860	 0.57635010180773 
1861	 0.576449561420589 
1862	 0.576501413327518 
1863	 0.576585678228168 
1864	 0.576661721138335 
1865	 0.576696218228299 
1866	 0.576733479381738 
1867	 0.576747122000869 
1868	 0.576765476262775 
1869	 0.576835970621446 
1870	 0.576910026019549 
1871	 0.576947178948269 
1872	 0.576976699410008 
1873	 0.576999901392899 
1874	 0.576988392569523 
1875	 0.576961638380399 
1876	 0.576943050898277 
1877	 0.576890958647549 
1878	 0.576803469462689 
1879	 0.576675333115102 
1880	 0.576528482586046 
1881	 0.576343407914454 
1882	 0.576160779035557 
1883	 0.575972721483922 
1884	 0.575762869175214 
1885	 0.575496779037307 
1886	 0.575192313090616 
1887	 0.574845398533026 
1888	 0.574455267450469 
1889	 0.574069149785873 
1890	 0.573663002295159 
1891	 0.573248658042699 
1892	 0.572803996470965 
1893	 0.572379018132784 
1894	 0.5719479499568 
1895	 0.571536677565716 
1896	 0.571107210927372 
1897	 0.570674464522104 
1898	 0.570231126044039 
1899	 0.569780851406034 
1900	 0.569389070931674 
1901	 0.569036515696908 
1902	 0.568708479077896 
1903	 0.568439151765681 
1904	 0.568165342221351 
1905	 0.567916715636795 
1906	 0.56766423552539 
1907	 0.567388386267473 
1908	 0.567121823783806 
1909	 0.566895849799882 
1910	 0.566654626703167 
1911	 0.566449659049481 
1912	 0.566282631394682 
1913	 0.56608403540163 
1914	 0.565862844889351 
1915	 0.565654952384682 
1916	 0.565460446332057 
1917	 0.56522998571909 
1918	 0.565001090037057 
1919	 0.564797086397559 
1920	 0.564582290403288 
1921	 0.564364793875449 
1922	 0.564164018322469 
1923	 0.563941406109622 
1924	 0.563737557079722 
1925	 0.563530537256291 
1926	 0.563366967972897 
1927	 0.563228392806069 
1928	 0.563090917206638 
1929	 0.562980912567911 
1930	 0.56285680681714 
1931	 0.562731333328974 
1932	 0.562636059739859 
1933	 0.562588279790882 
1934	 0.562557826046409 
1935	 0.562534484009118 
1936	 0.562527492519254 
1937	 0.562543159623649 
1938	 0.562571249491985 
1939	 0.562616339549879 
1940	 0.562705012165344 
1941	 0.562772434334796 
1942	 0.562816607333799 
1943	 0.562860049520272 
1944	 0.562905864824816 
1945	 0.56297316739515 
1946	 0.563041958292681 
1947	 0.56313859759041 
1948	 0.563221092606049 
1949	 0.563295575708574 
1950	 0.563375561545994 
1951	 0.563459062840394 
1952	 0.563547142477882 
1953	 0.563640742249591 
1954	 0.563732775307899 
1955	 0.563828177848913 
1956	 0.563930831814149 
1957	 0.564022100842947 
1958	 0.564082959487743 
1959	 0.564190444091138 
1960	 0.564322343658775 
1961	 0.56444512963025 
1962	 0.56460758965099 
1963	 0.564744943642634 
1964	 0.564861286666124 
1965	 0.564964537594844 
1966	 0.565110560632489 
1967	 0.565224432247664 
1968	 0.565354875237614 
1969	 0.565486126920485 
1970	 0.565644066563628 
1971	 0.565827292114095 
1972	 0.565987670706649 
1973	 0.566155173423705 
1974	 0.566327029626501 
1975	 0.566484026488396 
1976	 0.566643749546292 
1977	 0.566827035137857 
1978	 0.567001513798532 
1979	 0.567172889550185 
1980	 0.567337597295444 
1981	 0.567536471471529 
1982	 0.567765738357564 
1983	 0.56798328301473 
1984	 0.56823266646372 
1985	 0.5684526025437 
1986	 0.568656456599619 
1987	 0.568858698611854 
1988	 0.569073128397741 
1989	 0.569226579228775 
1990	 0.569406700904035 
1991	 0.569583255776278 
1992	 0.569769896364394 
1993	 0.569956899378986 
1994	 0.570169115632214 
1995	 0.570393991721203 
1996	 0.570622156427473 
1997	 0.57086654983424 
1998	 0.571111956020617 
1999	 0.571376347084836 
2000	 0.571620755784494 
2001	 0.571880714744426 
2002	 0.572110057939398 
2003	 0.57229577822064 
2004	 0.572477634802363 
2005	 0.572644618266188 
2006	 0.572766040061024 
2007	 0.57293264311934 
2008	 0.573092247228785 
2009	 0.57328852689033 
2010	 0.573520628739391 
2011	 0.573754588223838 
2012	 0.57400445247721 
2013	 0.574268334275383 
2014	 0.574556769519636 
2015	 0.574833897794837 
2016	 0.57512983555778 
2017	 0.575423204225346 
2018	 0.575688930950999 
2019	 0.57593305266714 
2020	 0.576181323562246 
2021	 0.576397053190692 
2022	 0.576647450116611 
2023	 0.576921659949048 
2024	 0.57718462489437 
2025	 0.57745264316434 
2026	 0.577724194586342 
2027	 0.578017282035753 
2028	 0.578252849711171 
2029	 0.57852147503745 
2030	 0.57880880574915 
2031	 0.579076418439659 
2032	 0.579337703568166 
2033	 0.579598405131788 
2034	 0.579857717558722 
2035	 0.580106617632361 
2036	 0.580364079936303 
2037	 0.58058686759236 
2038	 0.580790484713264 
2039	 0.580980278213542 
2040	 0.581136823125863 
2041	 0.581292555260041 
2042	 0.581453847959958 
2043	 0.581604084015287 
2044	 0.581763599906306 
2045	 0.581929378795869 
2046	 0.582086271185464 
2047	 0.58224017611375 
2048	 0.582396442755082 
2049	 0.582561708473619 
2050	 0.582705681576748 
2051	 0.58282856372262 
2052	 0.582970488110901 
2053	 0.583112515862617 
2054	 0.583243742046197 
2055	 0.583381763292118 
2056	 0.58352253059873 
2057	 0.583657489624558 
2058	 0.583782364969901 
2059	 0.583900521543638 
2060	 0.584016675712424 
2061	 0.58413327946137 
2062	 0.584226360935423 
2063	 0.584342489864976 
2064	 0.584483584196226 
2065	 0.584611588493024 
2066	 0.584725933210838 
2067	 0.584858459256143 
2068	 0.584998535555746 
2069	 0.5851453558539 
2070	 0.585282146281139 
2071	 0.585421608283866 
2072	 0.585578236876511 
2073	 0.585735680225979 
2074	 0.585889891164695 
2075	 0.586078093808207 
2076	 0.586226038140527 
2077	 0.586340417481735 
2078	 0.586464409926614 
2079	 0.586581850830711 
2080	 0.586696693521851 
2081	 0.58679855643591 
2082	 0.586912791098986 
2083	 0.587023714078457 
2084	 0.587154404860893 
2085	 0.587266106372689 
2086	 0.587376017468747 
2087	 0.587494031229137 
2088	 0.587601374958632 
2089	 0.587721420687828 
2090	 0.58787107793794 
2091	 0.587990906601012 
2092	 0.588092535817942 
2093	 0.588202710677518 
2094	 0.588302561289487 
2095	 0.588407954980033 
2096	 0.588501702804457 
2097	 0.588626066846967 
2098	 0.588767571131563 
2099	 0.588914690121668 
2100	 0.589063361167649 
2101	 0.589245720014136 
2102	 0.58938910553056 
2103	 0.589514925465858 
2104	 0.589636560035824 
2105	 0.589710782382287 
2106	 0.589862250995276 
2107	 0.590035203871906 
2108	 0.590225405036294 
2109	 0.590483319018158 
2110	 0.590715288373414 
2111	 0.590918269008874 
2112	 0.591162282649036 
2113	 0.591426453754143 
2114	 0.591723531989809 
2115	 0.591977023764501 
2116	 0.592246782474544 
2117	 0.592480459268531 
2118	 0.592665823093496 
2119	 0.59287966243146 
2120	 0.593100080533544 
2121	 0.593315821945147 
2122	 0.593531838106709 
2123	 0.593740019923304 
2124	 0.593948732052277 
2125	 0.594145752170611 
2126	 0.594355296219357 
2127	 0.59452394752228 
2128	 0.594655271619742 
2129	 0.594790918768195 
2130	 0.594909054490116 
2131	 0.595014448798518 
2132	 0.595098478243334 
2133	 0.59519148033863 
2134	 0.595231342623184 
2135	 0.595244947427039 
2136	 0.595203773881073 
2137	 0.59511856969362 
2138	 0.595012694833009 
2139	 0.594846032033792 
2140	 0.594679984822114 
2141	 0.594496445506395 
2142	 0.594301145030764 
2143	 0.594107049008484 
2144	 0.593864098640965 
2145	 0.593570695637508 
2146	 0.593292212219804 
2147	 0.592973862531645 
2148	 0.592666405206079 
2149	 0.592367462399088 
2150	 0.592107194552513 
2151	 0.591785788595276 
2152	 0.591471503053728 
2153	 0.591068690171543 
2154	 0.590599970054401 
2155	 0.590129927588839 
2156	 0.589589944145484 
2157	 0.58907205844154 
2158	 0.588561963617222 
2159	 0.588027982970973 
2160	 0.587463431176417 
2161	 0.586912529532506 
2162	 0.586359849936004 
2163	 0.585802506073982 
2164	 0.585257106073652 
2165	 0.584704743983199 
2166	 0.584103934719011 
2167	 0.583464731685699 
2168	 0.58284778753187 
2169	 0.582185251311037 
2170	 0.581581033252096 
2171	 0.581036593017982 
2172	 0.580433542984132 
2173	 0.579814308759775 
2174	 0.57921052256031 
2175	 0.578548819237202 
2176	 0.577967940237669 
2177	 0.577474842255702 
2178	 0.576923056681903 
2179	 0.57641828291432 
2180	 0.575847232892843 
2181	 0.575197723485566 
2182	 0.574561603789081 
2183	 0.573916303425466 
2184	 0.573214909252655 
2185	 0.572578748898142 
2186	 0.571956410145541 
2187	 0.571347622206503 
2188	 0.570756219728327 
2189	 0.570193274441969 
2190	 0.569630366356866 
2191	 0.569119493279774 
2192	 0.568655216832508 
2193	 0.568209123463949 
2194	 0.567795145733769 
2195	 0.567405260569016 
2196	 0.567062105063308 
2197	 0.566706117044786 
2198	 0.566372329768099 
2199	 0.566032628498754 
2200	 0.565669706744684 
2201	 0.565340735914889 
2202	 0.565034047703878 
2203	 0.564722756140375 
2204	 0.564465172592618 
2205	 0.564245385988428 
2206	 0.564037205408239 
2207	 0.563851161775149 
2208	 0.563708301072682 
2209	 0.56359349346252 
2210	 0.563501644454399 
2211	 0.563457793117132 
2212	 0.56342287017158 
2213	 0.563421758121547 
2214	 0.563401535733461 
2215	 0.563409737603352 
2216	 0.563389553658432 
2217	 0.563359761120817 
2218	 0.563300667821146 
2219	 0.563238501252515 
2220	 0.563135543723085 
2221	 0.562994388836784 
2222	 0.562830524792272 
2223	 0.562606772972303 
2224	 0.562405174749625 
2225	 0.562193129556105 
2226	 0.561960138769117 
2227	 0.56172824785521 
2228	 0.56151704178461 
2229	 0.561248605200428 
2230	 0.560929602990553 
2231	 0.560647778775987 
2232	 0.56034157598403 
2233	 0.56007148414977 
2234	 0.559855316393789 
2235	 0.559587076046026 
2236	 0.55930677501063 
2237	 0.559015057710818 
2238	 0.558724254473062 
2239	 0.558378833062262 
2240	 0.558017968896089 
2241	 0.557616969858922 
2242	 0.557112831671789 
2243	 0.556662946517746 
2244	 0.55622663560876 
2245	 0.555780847890435 
2246	 0.555344016675473 
2247	 0.554892193080155 
2248	 0.554425896306185 
2249	 0.553910366246704 
2250	 0.553468531260205 
2251	 0.55305060917412 
2252	 0.552633750300171 
2253	 0.552237768094343 
2254	 0.551865662092183 
2255	 0.551485617991036 
2256	 0.551168096908161 
2257	 0.550907216884514 
2258	 0.550649835477101 
2259	 0.550402101595409 
2260	 0.550209113448875 
2261	 0.55005261760666 
2262	 0.549927009903423 
2263	 0.549812171571371 
2264	 0.54979857255647 
2265	 0.549828547317698 
2266	 0.549937319479676 
2267	 0.550206491444298 
2268	 0.550436210864374 
2269	 0.550698517971595 
2270	 0.55096124572035 
2271	 0.551245717365627 
2272	 0.55152734238929 
2273	 0.551787569638772 
2274	 0.552106593632537 
2275	 0.552455974705916 
2276	 0.552798201544525 
2277	 0.553224593293789 
2278	 0.5537471718857 
2279	 0.554240404008739 
2280	 0.554767598888116 
2281	 0.555285515523014 
2282	 0.555820819555388 
2283	 0.55632976137188 
2284	 0.556842016691232 
2285	 0.557339539542307 
2286	 0.557819181737243 
2287	 0.558281551777542 
2288	 0.558718888245337 
2289	 0.559165557974712 
2290	 0.559596282803311 
2291	 0.560044837789615 
2292	 0.560490749550476 
2293	 0.560969317404791 
2294	 0.561506017038535 
2295	 0.561974496428021 
2296	 0.562422592858797 
2297	 0.562886659495681 
2298	 0.563287541882544 
2299	 0.563678223371924 
2300	 0.56413134879836 
2301	 0.564562905570146 
2302	 0.564941030690986 
2303	 0.56535202821681 
2304	 0.565764054248226 
2305	 0.566140251767415 
2306	 0.566543888370767 
2307	 0.566998008013099 
2308	 0.56738623482832 
2309	 0.567730884763552 
2310	 0.568098098051974 
2311	 0.568441362337034 
2312	 0.568807985265631 
2313	 0.569213282564543 
2314	 0.569571049399082 
2315	 0.569916096824748 
2316	 0.570242230110872 
2317	 0.570516816700941 
2318	 0.570833737966723 
2319	 0.571170047263548 
2320	 0.571484490246386 
2321	 0.571804467689696 
2322	 0.572119822499523 
2323	 0.572403868735806 
2324	 0.572727547530345 
2325	 0.573081537899122 
2326	 0.573407904992102 
2327	 0.573728272192201 
2328	 0.574079366337004 
2329	 0.57437839851961 
2330	 0.574699422247862 
2331	 0.575068565657765 
2332	 0.57541685398225 
2333	 0.575739613902951 
2334	 0.576071935355725 
2335	 0.576385502022043 
2336	 0.576614683417183 
2337	 0.576848207717502 
2338	 0.577071996297972 
2339	 0.577211248420935 
2340	 0.57738371591161 
2341	 0.577567029785815 
2342	 0.577720927668404 
2343	 0.577895263841197 
2344	 0.578024874024883 
2345	 0.578078952764362 
2346	 0.578046704878902 
2347	 0.578016294421852 
2348	 0.577950660832406 
2349	 0.577834401916718 
2350	 0.577641914853572 
2351	 0.577516410363101 
2352	 0.577363969819688 
2353	 0.577240914484568 
2354	 0.57719432223118 
2355	 0.577086120413753 
2356	 0.576918449410949 
2357	 0.576805822899754 
2358	 0.576682720050731 
2359	 0.576612173325334 
2360	 0.576649604903314 
2361	 0.576574752712348 
2362	 0.576467321199247 
2363	 0.576368506455416 
2364	 0.576208891509887 
2365	 0.576063460652857 
2366	 0.575924313719709 
2367	 0.575793691679341 
2368	 0.575705107116517 
2369	 0.575526372261163 
2370	 0.575343873154026 
2371	 0.575085152377181 
2372	 0.57470549410988 
2373	 0.574300897851396 
2374	 0.573920366316147 
2375	 0.573598964451354 
2376	 0.57335369007848 
2377	 0.573100510357321 
2378	 0.572818451524622 
2379	 0.572576168163956 
2380	 0.572352634808258 
2381	 0.572074826101292 
2382	 0.571787971209163 
2383	 0.571483810135728 
2384	 0.571100545944677 
2385	 0.57066340409357 
2386	 0.570279543200742 
2387	 0.569934065425968 
2388	 0.569486260203664 
2389	 0.569106488458077 
2390	 0.568774859631377 
2391	 0.568345813621809 
2392	 0.567990234829342 
2393	 0.567626562749208 
2394	 0.567187919423039 
2395	 0.566779660408071 
2396	 0.566366533513889 
2397	 0.565905077363761 
2398	 0.565466336780575 
2399	 0.565023914278427 
2400	 0.56457922999492 
2401	 0.564243427074486 
2402	 0.563936170149603 
2403	 0.563647964501746 
2404	 0.563353181074159 
2405	 0.562998835694622 
2406	 0.562614028025464 
2407	 0.562182929518037 
2408	 0.561801500177126 
2409	 0.561508331592843 
2410	 0.561234505672471 
2411	 0.560951574430921 
2412	 0.560658161923238 
2413	 0.560321297326094 
2414	 0.559926760051538 
2415	 0.559550958815272 
2416	 0.559214416636802 
2417	 0.558883023120785 
2418	 0.558546805907747 
2419	 0.558280704728926 
2420	 0.557970119112922 
2421	 0.557584986963932 
2422	 0.557362203188145 
2423	 0.557223407912135 
2424	 0.556983411103098 
2425	 0.556851559541845 
2426	 0.556573219401789 
2427	 0.556086456177009 
2428	 0.555783566027718 
2429	 0.555505898941501 
2430	 0.555206110740484 
2431	 0.555022701994353 
2432	 0.554729057231302 
2433	 0.554392872636378 
2434	 0.554055099189107 
2435	 0.553598691544456 
2436	 0.553307332951549 
2437	 0.553076585298252 
2438	 0.552819933090762 
2439	 0.552698639933673 
2440	 0.552467056086245 
2441	 0.552129328393607 
2442	 0.551881362131751 
2443	 0.551659310478766 
2444	 0.551441894601133 
2445	 0.551242765193764 
2446	 0.551005236483875 
2447	 0.550792740672387 
2448	 0.550481136479928 
2449	 0.550109197520374 
2450	 0.549755278741611 
2451	 0.549305118755062 
2452	 0.548938317628413 
2453	 0.548609013073904 
2454	 0.548326948255772 
2455	 0.548161277399693 
2456	 0.547923078602854 
2457	 0.547637575473946 
2458	 0.547407627488571 
2459	 0.547136511171472 
2460	 0.546858949023714 
2461	 0.546687930428381 
2462	 0.546491597087539 
2463	 0.546222706311886 
2464	 0.546064438491059 
2465	 0.545948241058616 
2466	 0.545747821032743 
2467	 0.545636786486695 
2468	 0.545473890238431 
2469	 0.545181279926604 
2470	 0.54512578698917 
2471	 0.544894633922778 
2472	 0.544506639331465 
2473	 0.544316445738513 
2474	 0.54419084191494 
2475	 0.543865246621815 
2476	 0.543640639757265 
2477	 0.543580553142324 
2478	 0.54326516837959 
2479	 0.543183584155919 
2480	 0.543263282969172 
2481	 0.542857745870032 
2482	 0.542609954476669 
2483	 0.542385982632322 
2484	 0.541831796380706 
2485	 0.541723351474949 
2486	 0.541652037867017 
2487	 0.541458176237788 
2488	 0.541573319993435 
2489	 0.541350830358381 
2490	 0.540873077002907 
2491	 0.540477761355643 
2492	 0.53999535839268 
2493	 0.539657459907654 
2494	 0.539532478656173 
2495	 0.539513888683693 
2496	 0.539576286090268 
2497	 0.539370302084577 
2498	 0.538785313334128 
2499	 0.538319037913939 
2500	 0.537996193658998 
