Wavelength	MM800000.asd
350	 5.17305400157034E-02 
351	 5.63509492946512E-02 
352	 5.45207578121679E-02 
353	 4.54029016060391E-02 
354	 5.06860596104219E-02 
355	 5.12710097916745E-02 
356	 5.02989461890731E-02 
357	 5.42311427870996E-02 
358	 6.06599137087296E-02 
359	 5.94310218011254E-02 
360	 5.50138213243158E-02 
361	 5.94014486534883E-02 
362	 5.82547347266242E-02 
363	 5.57159492562517E-02 
364	 0.055578192747334 
365	 5.78787314735456E-02 
366	 5.75578308042869E-02 
367	 5.59031208722649E-02 
368	 5.56260523281192E-02 
369	 5.72779567955368E-02 
370	 5.78817429784703E-02 
371	 5.88584071505809E-02 
372	 6.37881455436743E-02 
373	 6.36968932973661E-02 
374	 6.31617650548149E-02 
375	 6.52751514854598E-02 
376	 6.77257812886813E-02 
377	 6.58246583534707E-02 
378	 6.43314114880309E-02 
379	 6.79765201601323E-02 
380	 6.85717908648874E-02 
381	 6.80397304009749E-02 
382	 6.80030733525786E-02 
383	 6.94732290329862E-02 
384	 7.21653871209041E-02 
385	 7.36079328663071E-02 
386	 7.33431934874972E-02 
387	 7.51632378219888E-02 
388	 7.79183098775322E-02 
389	 7.96862438785961E-02 
390	 7.93459727675281E-02 
391	 8.08133637009145E-02 
392	 0.08236334634417 
393	 8.39453315970045E-02 
394	 8.69655391384604E-02 
395	 8.92392644582962E-02 
396	 9.07389276640588E-02 
397	 0.092107379275111 
398	 9.47987927350537E-02 
399	 9.58095162303587E-02 
400	 9.67781253379193E-02 
401	 9.99783003183901E-02 
402	 0.101032547785181 
403	 0.101921416388687 
404	 0.10381543357711 
405	 0.106595249471067 
406	 0.108502408040227 
407	 0.10982681658639 
408	 0.111196193160903 
409	 0.113039170112581 
410	 0.113944115438557 
411	 0.114485889230437 
412	 0.116044207634979 
413	 0.11862222320247 
414	 0.120033898589914 
415	 0.119966764996865 
416	 0.120629471779531 
417	 0.121151552419727 
418	 0.121824090378789 
419	 0.122767592352199 
420	 0.122658996904573 
421	 0.122591200594899 
422	 0.123081761333161 
423	 0.124084510766985 
424	 0.124078517448724 
425	 0.123928917035402 
426	 0.124062446417931 
427	 0.123497342154278 
428	 0.123132865401571 
429	 0.122893207171598 
430	 0.122485930787107 
431	 0.12224372657597 
432	 0.121641074552701 
433	 0.120905186402039 
434	 0.120962091393126 
435	 0.121408022919265 
436	 0.121742611390396 
437	 0.12173573884522 
438	 0.121784894335246 
439	 0.122632667083406 
440	 0.12397509929533 
441	 0.125035121843683 
442	 0.126039668561429 
443	 0.127177546447581 
444	 0.128483558677521 
445	 0.129771569156387 
446	 0.131050454606249 
447	 0.132465215393513 
448	 0.134026677615479 
449	 0.1349729104916 
450	 0.136112326790304 
451	 0.137551112465783 
452	 0.138778993376258 
453	 0.140003627497398 
454	 0.141281066936078 
455	 0.142547193369169 
456	 0.143490736633344 
457	 0.144439666516876 
458	 0.145343606094741 
459	 0.146050730297364 
460	 0.147042560783831 
461	 0.147867815612925 
462	 0.148429785538539 
463	 0.149235036351975 
464	 0.15005787684016 
465	 0.150736537672935 
466	 0.151204181227655 
467	 0.15168402491344 
468	 0.152321555588649 
469	 0.152952995150207 
470	 0.153216389284265 
471	 0.153712033892811 
472	 0.154255598781238 
473	 0.154667725333745 
474	 0.15507913702229 
475	 0.155668252533669 
476	 0.156287973115818 
477	 0.156688285023061 
478	 0.157061606790357 
479	 0.157450798072553 
480	 0.157893463277616 
481	 0.15844239456147 
482	 0.158894180365195 
483	 0.159302625204728 
484	 0.159725491277564 
485	 0.159894628373239 
486	 0.160167819420786 
487	 0.16060331812281 
488	 0.160999108564155 
489	 0.161352832357034 
490	 0.161768122576184 
491	 0.16227752139777 
492	 0.162699132972382 
493	 0.163035488392207 
494	 0.163402797674372 
495	 0.163924479931961 
496	 0.164301901425554 
497	 0.164649072603402 
498	 0.165023755033437 
499	 0.165333224396357 
500	 0.165761918622806 
501	 0.166234575332131 
502	 0.166613518583525 
503	 0.166846675954673 
504	 0.167146507882481 
505	 0.167551556836635 
506	 0.167936610666117 
507	 0.168342763786566 
508	 0.168711397678388 
509	 0.169022131348153 
510	 0.169420985631786 
511	 0.169626447284188 
512	 0.169825087289654 
513	 0.17037090711507 
514	 0.170691874675914 
515	 0.170932798354924 
516	 0.171257369780901 
517	 0.171739664258673 
518	 0.172017060825491 
519	 0.172240715258169 
520	 0.172661703646671 
521	 0.173083533188588 
522	 0.173436133091242 
523	 0.173697456181067 
524	 0.173890966535792 
525	 0.174246400445012 
526	 0.17463610663802 
527	 0.174923173809912 
528	 0.175218999013923 
529	 0.175510394010255 
530	 0.175814354428392 
531	 0.176157632722311 
532	 0.176433171363442 
533	 0.176742007896046 
534	 0.17713799523105 
535	 0.17752264344405 
536	 0.17788621630172 
537	 0.178252766280263 
538	 0.178644697638417 
539	 0.178952325964395 
540	 0.179240435842159 
541	 0.179567450613448 
542	 0.179964873467936 
543	 0.180355517491027 
544	 0.180693918081169 
545	 0.180985898658648 
546	 0.181385499501162 
547	 0.181848534547538 
548	 0.182317471600025 
549	 0.182733751524336 
550	 0.183135191430377 
551	 0.183579700951978 
552	 0.184079696535195 
553	 0.184524101792735 
554	 0.184959081702288 
555	 0.18543059121524 
556	 0.185970074150826 
557	 0.186464513089176 
558	 0.186956162700492 
559	 0.18747537960334 
560	 0.187993297867153 
561	 0.188604336840377 
562	 0.189306811263703 
563	 0.190075482305085 
564	 0.190984276142704 
565	 0.19189219965366 
566	 0.192705745382879 
567	 0.193402720969095 
568	 0.194221597342537 
569	 0.19507999307681 
570	 0.195900398836897 
571	 0.196934761411657 
572	 0.197860372929756 
573	 0.198632290434093 
574	 0.199420975334598 
575	 0.200361789918971 
576	 0.201468706033373 
577	 0.202654422779637 
578	 0.203663994125635 
579	 0.204692132030209 
580	 0.205655137787768 
581	 0.206426083917343 
582	 0.207389013883793 
583	 0.208554197655522 
584	 0.209872194268695 
585	 0.211268489635894 
586	 0.21275633879161 
587	 0.214255538145138 
588	 0.215687228266959 
589	 0.217083776325503 
590	 0.218560680788757 
591	 0.220081274903291 
592	 0.221476785495206 
593	 0.222775201291544 
594	 0.223873848635152 
595	 0.224742889711525 
596	 0.225566682400347 
597	 0.226498435207092 
598	 0.227527738658788 
599	 0.228564875478051 
600	 0.22971795508973 
601	 0.231006329214922 
602	 0.232334262573773 
603	 0.233417737339039 
604	 0.234500737828824 
605	 0.235641260697161 
606	 0.236804387884024 
607	 0.237827696964116 
608	 0.238749353187667 
609	 0.239669853217806 
610	 0.240740733740455 
611	 0.241722068663217 
612	 0.24260531843886 
613	 0.24342742364475 
614	 0.244186505046355 
615	 0.244838350384691 
616	 0.245441061567038 
617	 0.246109549105036 
618	 0.246748670477486 
619	 0.247316401710174 
620	 0.247826545955237 
621	 0.248392762875175 
622	 0.248937146822119 
623	 0.249414628400222 
624	 0.249820749140944 
625	 0.250334591922071 
626	 0.250815694289897 
627	 0.251218459806133 
628	 0.251655580284927 
629	 0.252088771693136 
630	 0.252494392010051 
631	 0.252865176673269 
632	 0.253243184376642 
633	 0.253618573954866 
634	 0.253984228868952 
635	 0.254336600877069 
636	 0.254681090492916 
637	 0.255036889813352 
638	 0.255401845399859 
639	 0.255713439656555 
640	 0.256051448884522 
641	 0.25644078118578 
642	 0.256860953508868 
643	 0.257176004176649 
644	 0.257475067574216 
645	 0.257827972159769 
646	 0.258245895371153 
647	 0.258605899855516 
648	 0.258905098796857 
649	 0.259201959716937 
650	 0.259634795346447 
651	 0.260059750850393 
652	 0.260422011128794 
653	 0.260759339965682 
654	 0.261170721197454 
655	 0.261626558380722 
656	 0.26207821458729 
657	 0.262491601635406 
658	 0.262922768206353 
659	 0.263371520451281 
660	 0.263812175731373 
661	 0.264255883650284 
662	 0.264715834595074 
663	 0.265200298688044 
664	 0.265712680795484 
665	 0.266150776890205 
666	 0.266612772054888 
667	 0.267187961605174 
668	 0.267664534288238 
669	 0.268180438749778 
670	 0.268781383892086 
671	 0.269419906478406 
672	 0.269982930526067 
673	 0.270550197009675 
674	 0.271166123394946 
675	 0.271687474480425 
676	 0.272351394104763 
677	 0.273044247579363 
678	 0.273558334175897 
679	 0.27420107705659 
680	 0.274878029317053 
681	 0.275540705982077 
682	 0.276246559781648 
683	 0.276890164621525 
684	 0.277543936454082 
685	 0.27828466586729 
686	 0.279035705770906 
687	 0.279739550963858 
688	 0.280457599060738 
689	 0.28131029508626 
690	 0.282041804191387 
691	 0.282747177952547 
692	 0.28350753344683 
693	 0.284270592399895 
694	 0.285052252038599 
695	 0.285821667439534 
696	 0.286559449187891 
697	 0.287393838553864 
698	 0.288254488121778 
699	 0.289092695069188 
700	 0.289895056449076 
701	 0.290632015206468 
702	 0.291425060829036 
703	 0.292337733571839 
704	 0.293194503021395 
705	 0.294029434822339 
706	 0.294836530919678 
707	 0.295606559449118 
708	 0.296462361557935 
709	 0.297270511056631 
710	 0.298005305864068 
711	 0.298835669329203 
712	 0.299716210517457 
713	 0.300571408239549 
714	 0.301342133530162 
715	 0.302064202271642 
716	 0.302786026829933 
717	 0.303531410909353 
718	 0.304302200959834 
719	 0.305117279094779 
720	 0.305872186871419 
721	 0.306527568532889 
722	 0.30719812093985 
723	 0.307888755407353 
724	 0.308507476182675 
725	 0.30897988544591 
726	 0.309493989908024 
727	 0.310056034271962 
728	 0.310638161433066 
729	 0.311187932576472 
730	 0.311671148181603 
731	 0.31208370520383 
732	 0.312459373636719 
733	 0.312914287168818 
734	 0.313262170031837 
735	 0.313532585514092 
736	 0.313825241769217 
737	 0.314053629414382 
738	 0.314311127711378 
739	 0.31455075685075 
740	 0.314571653442857 
741	 0.314641428161927 
742	 0.314739982924936 
743	 0.31479677356479 
744	 0.314778427610763 
745	 0.314777707427183 
746	 0.314736747900412 
747	 0.314560160708905 
748	 0.31443951351055 
749	 0.31427955190997 
750	 0.314049732123119 
751	 0.313826983633914 
752	 0.313577633083435 
753	 0.313274391447508 
754	 0.312918002128392 
755	 0.312589318183936 
756	 0.312212538555052 
757	 0.311783517426123 
758	 0.311336679536991 
759	 0.310883113235718 
760	 0.31043435105694 
761	 0.309977289964735 
762	 0.309470152084113 
763	 0.308872703731088 
764	 0.308305651517814 
765	 0.307828725976276 
766	 0.307200897189089 
767	 0.306651564181166 
768	 0.306088259729915 
769	 0.305327567464354 
770	 0.30478653811028 
771	 0.304245061065921 
772	 0.303564783216081 
773	 0.302781535384959 
774	 0.302134833171747 
775	 0.301535855018062 
776	 0.300868925934427 
777	 0.300164286576717 
778	 0.299483610467311 
779	 0.298840636802491 
780	 0.298209755526895 
781	 0.297503711275826 
782	 0.296772268965019 
783	 0.296077647320097 
784	 0.295473926410382 
785	 0.294757974288561 
786	 0.294040300601456 
787	 0.293403040801063 
788	 0.292702269624773 
789	 0.29204652885695 
790	 0.291418549098035 
791	 0.290757394533654 
792	 0.290040959543048 
793	 0.289327272842088 
794	 0.288656178208998 
795	 0.288043294695314 
796	 0.287458767399923 
797	 0.286890587554337 
798	 0.286306423166269 
799	 0.285626651393189 
800	 0.284986075020821 
801	 0.284391802164146 
802	 0.283808669162368 
803	 0.283216602654031 
804	 0.2825838537542 
805	 0.281956598424964 
806	 0.281417332546124 
807	 0.280905685167254 
808	 0.280398658630761 
809	 0.279867857380909 
810	 0.279275862118201 
811	 0.278757597092252 
812	 0.278237871881 
813	 0.277664748010647 
814	 0.277186931874482 
815	 0.276718689888266 
816	 0.276233265195507 
817	 0.275736405537883 
818	 0.275267294693674 
819	 0.274842183275052 
820	 0.274393825409768 
821	 0.27381912566776 
822	 0.273442230694927 
823	 0.273069625654689 
824	 0.272589129216311 
825	 0.272150623981248 
826	 0.271819580973212 
827	 0.271534435073323 
828	 0.271201198699736 
829	 0.27075750975626 
830	 0.270286315940834 
831	 0.269888211077695 
832	 0.269626278791051 
833	 0.269321189952955 
834	 0.268985512612735 
835	 0.268659668334185 
836	 0.268384842911143 
837	 0.268019688413939 
838	 0.267665094834769 
839	 0.267411370282874 
840	 0.267263669295224 
841	 0.267044262833863 
842	 0.266721220751769 
843	 0.2663575032129 
844	 0.266150049155644 
845	 0.265968822197766 
846	 0.26576996049775 
847	 0.265554965266036 
848	 0.265330224025355 
849	 0.265108879656069 
850	 0.264924676251324 
851	 0.264810271619556 
852	 0.264613949017561 
853	 0.264413449460172 
854	 0.264261644613586 
855	 0.264125399639621 
856	 0.264087822836413 
857	 0.26401635613962 
858	 0.263832126182343 
859	 0.263712866208567 
860	 0.26367213049752 
861	 0.26362171149793 
862	 0.263487404704806 
863	 0.263449937778782 
864	 0.263370631414807 
865	 0.263257095934624 
866	 0.263200054989472 
867	 0.263143969265919 
868	 0.263106208719134 
869	 0.263122014387963 
870	 0.263220136960099 
871	 0.263180566433399 
872	 0.26311589074961 
873	 0.263143152307471 
874	 0.26328733178545 
875	 0.263365880875908 
876	 0.263391344259978 
877	 0.26342417777273 
878	 0.263497565346087 
879	 0.263645914331747 
880	 0.263759760664614 
881	 0.26374529073635 
882	 0.263782695266686 
883	 0.263879529369945 
884	 0.264045432068908 
885	 0.264267011803281 
886	 0.264418944000503 
887	 0.264526131920723 
888	 0.264639405994661 
889	 0.264812713868119 
890	 0.265022565691868 
891	 0.265209089110016 
892	 0.265390666374134 
893	 0.265675062959043 
894	 0.265877049190751 
895	 0.266037393759402 
896	 0.266229808227418 
897	 0.266499400387895 
898	 0.266776119753742 
899	 0.267050173966185 
900	 0.267338407871702 
901	 0.267689391799354 
902	 0.267956871131026 
903	 0.268215724474458 
904	 0.268560299856767 
905	 0.26884131928926 
906	 0.269159281072901 
907	 0.269525927753954 
908	 0.269915287225649 
909	 0.270370023740025 
910	 0.270752479075973 
911	 0.271107246284501 
912	 0.271568255946962 
913	 0.271962114408092 
914	 0.272306741131142 
915	 0.272634572199071 
916	 0.272985072005133 
917	 0.273450466600175 
918	 0.274065691852158 
919	 0.274687637777388 
920	 0.275029011709956 
921	 0.275466598580117 
922	 0.275977672278752 
923	 0.276520055448051 
924	 0.277123830826197 
925	 0.277680696651424 
926	 0.27820477208687 
927	 0.278743390356096 
928	 0.279344843821599 
929	 0.279903094636101 
930	 0.280498771395612 
931	 0.281187873967421 
932	 0.281864492705401 
933	 0.282514364260103 
934	 0.283163121449209 
935	 0.283829823487739 
936	 0.284466526199873 
937	 0.285122772743801 
938	 0.285811979795195 
939	 0.286538499716864 
940	 0.287329618023625 
941	 0.288088872711977 
942	 0.288842392080138 
943	 0.289642376815913 
944	 0.290438104530162 
945	 0.291108487562303 
946	 0.291803648840201 
947	 0.292697828141416 
948	 0.29348950079309 
949	 0.294347471045965 
950	 0.295252376035368 
951	 0.296112644168327 
952	 0.297026463376098 
953	 0.297883042612885 
954	 0.298753273848491 
955	 0.299769926064952 
956	 0.300803890596414 
957	 0.30175946077664 
958	 0.302633084782063 
959	 0.303483431155205 
960	 0.304339073835342 
961	 0.305220876877744 
962	 0.306190938360867 
963	 0.307300163809834 
964	 0.308417548318408 
965	 0.309500868871334 
966	 0.310567319095898 
967	 0.311656682461451 
968	 0.312672102658803 
969	 0.313800694730661 
970	 0.314948600660596 
971	 0.315877736490079 
972	 0.31677032902016 
973	 0.317864299611916 
974	 0.319081185193749 
975	 0.320186452695514 
976	 0.321409570303616 
977	 0.322673830169823 
978	 0.323911853714596 
979	 0.325078197356786 
980	 0.326110154586265 
981	 0.327247247851275 
982	 0.328519547329184 
983	 0.329802400345455 
984	 0.331019122127032 
985	 0.33218361564257 
986	 0.333357679925277 
987	 0.334592256901586 
988	 0.335772721234037 
989	 0.337022441770468 
990	 0.338314477765332 
991	 0.339554839925509 
992	 0.340763053981401 
993	 0.341956610870245 
994	 0.343143629645472 
995	 0.344330545325928 
996	 0.345539857732325 
997	 0.346796283436037 
998	 0.348051199249129 
999	 0.349276193391796 
1000	 0.350615147268085 
1001	 0.355776723835382 
1002	 0.356971282042543 
1003	 0.358181758535871 
1004	 0.359409618999667 
1005	 0.360680855308463 
1006	 0.361871416400634 
1007	 0.363042586196592 
1008	 0.364207523211548 
1009	 0.365302035265677 
1010	 0.366374477517762 
1011	 0.367495462988722 
1012	 0.36862594077337 
1013	 0.369730722438891 
1014	 0.370861285277798 
1015	 0.371977954747438 
1016	 0.373039527577921 
1017	 0.37410135183009 
1018	 0.375153948421048 
1019	 0.376199348520413 
1020	 0.377207651696341 
1021	 0.378250139313432 
1022	 0.379348922431747 
1023	 0.380374921194655 
1024	 0.381393472141629 
1025	 0.382439348873508 
1026	 0.38340865579042 
1027	 0.384447216958222 
1028	 0.385541191111286 
1029	 0.386598496432794 
1030	 0.387674745255679 
1031	 0.388688837195485 
1032	 0.389662638799405 
1033	 0.39059311791604 
1034	 0.39155280936129 
1035	 0.392510392472596 
1036	 0.393521092001478 
1037	 0.394569090088355 
1038	 0.395537336176277 
1039	 0.396511008370273 
1040	 0.397542431546765 
1041	 0.398522896151587 
1042	 0.399521025159658 
1043	 0.400574158340702 
1044	 0.401605799846877 
1045	 0.402605237153545 
1046	 0.403632073042742 
1047	 0.404705835910169 
1048	 0.405712111583838 
1049	 0.406667037392483 
1050	 0.407649650803236 
1051	 0.408589710324525 
1052	 0.40946878600316 
1053	 0.410382133507178 
1054	 0.411276469198088 
1055	 0.412118265199734 
1056	 0.413018592734357 
1057	 0.413910796465965 
1058	 0.414796478861958 
1059	 0.415650325265056 
1060	 0.416508386374159 
1061	 0.417357108300791 
1062	 0.418146587572514 
1063	 0.418941371524732 
1064	 0.419713919799992 
1065	 0.420472273041534 
1066	 0.421263108290006 
1067	 0.422055660240961 
1068	 0.422799484690862 
1069	 0.423477514784696 
1070	 0.424178184521125 
1071	 0.424841916150599 
1072	 0.425501851248723 
1073	 0.426175920023958 
1074	 0.426835546797409 
1075	 0.427464821048017 
1076	 0.42805065457537 
1077	 0.42869120793043 
1078	 0.42935027975459 
1079	 0.43001174445256 
1080	 0.43067165514092 
1081	 0.431287521420863 
1082	 0.431931622675263 
1083	 0.432581708197148 
1084	 0.433216959007583 
1085	 0.433862127285777 
1086	 0.434545695026878 
1087	 0.435196348155499 
1088	 0.435817011575543 
1089	 0.436445961681241 
1090	 0.43713328841706 
1091	 0.437807348703314 
1092	 0.438495677219924 
1093	 0.439229094684017 
1094	 0.439947868007185 
1095	 0.440651859102024 
1096	 0.441363822329853 
1097	 0.442121076864517 
1098	 0.442882331202698 
1099	 0.44363729335654 
1100	 0.444423003467806 
1101	 0.445240978018815 
1102	 0.446049924029539 
1103	 0.446843463063227 
1104	 0.447726193950964 
1105	 0.448562377284736 
1106	 0.449425859282086 
1107	 0.450324135632272 
1108	 0.451181843137335 
1109	 0.452100254630622 
1110	 0.453059174053732 
1111	 0.454003485321124 
1112	 0.45497725462568 
1113	 0.455928331103224 
1114	 0.456815196713329 
1115	 0.457809879504473 
1116	 0.458887267995367 
1117	 0.459920920394412 
1118	 0.46099080589496 
1119	 0.462045286717389 
1120	 0.463093352540628 
1121	 0.464096977865487 
1122	 0.465117379107432 
1123	 0.466209369394491 
1124	 0.467288087567208 
1125	 0.468363144511378 
1126	 0.469442334363381 
1127	 0.470556928941673 
1128	 0.471629726465976 
1129	 0.472666326652805 
1130	 0.473727327013205 
1131	 0.474787190375385 
1132	 0.475851140258431 
1133	 0.476930901860399 
1134	 0.477999079594666 
1135	 0.479053494303962 
1136	 0.480118643830344 
1137	 0.481207907574674 
1138	 0.482246834875594 
1139	 0.483290714551262 
1140	 0.484349870314219 
1141	 0.485365704441152 
1142	 0.486343169590902 
1143	 0.487338486192778 
1144	 0.488311628665382 
1145	 0.489290575711068 
1146	 0.490296571542751 
1147	 0.491266958964698 
1148	 0.492210367131235 
1149	 0.493163458905086 
1150	 0.494125321562857 
1151	 0.495043206033414 
1152	 0.495950973016804 
1153	 0.49685887789811 
1154	 0.497754724656107 
1155	 0.498619203993837 
1156	 0.499498101351338 
1157	 0.500392387377857 
1158	 0.501263264119588 
1159	 0.502127557592934 
1160	 0.502977924126759 
1161	 0.503818388281554 
1162	 0.504645981149117 
1163	 0.505486821995884 
1164	 0.506270631981611 
1165	 0.507009037673908 
1166	 0.507753915575042 
1167	 0.508470901972382 
1168	 0.509178067639948 
1169	 0.50988669651969 
1170	 0.510602953173712 
1171	 0.511313280496434 
1172	 0.512019784781761 
1173	 0.51270590386951 
1174	 0.513390341254794 
1175	 0.514067387655018 
1176	 0.514718995070605 
1177	 0.515381420683897 
1178	 0.516056379206427 
1179	 0.516716268571319 
1180	 0.517373552480844 
1181	 0.518015458340727 
1182	 0.518640969844574 
1183	 0.519277758831537 
1184	 0.519884949375036 
1185	 0.520478855197962 
1186	 0.521055508260364 
1187	 0.52160690194722 
1188	 0.522168513781619 
1189	 0.522741290677094 
1190	 0.523265242445128 
1191	 0.523759214365089 
1192	 0.524267428616268 
1193	 0.524737552936566 
1194	 0.525231006658626 
1195	 0.52576100499635 
1196	 0.526266005882519 
1197	 0.526740383673176 
1198	 0.527238614212056 
1199	 0.527743854587016 
1200	 0.528262989020179 
1201	 0.528749410976364 
1202	 0.529247720098734 
1203	 0.529709661579362 
1204	 0.530129592128215 
1205	 0.530564410151388 
1206	 0.530992640870392 
1207	 0.531419855742901 
1208	 0.531844340900626 
1209	 0.532263850976975 
1210	 0.532679083595427 
1211	 0.533093446919462 
1212	 0.533501493179328 
1213	 0.533911097119353 
1214	 0.534340497554235 
1215	 0.534739508144666 
1216	 0.535124021875555 
1217	 0.535498160680446 
1218	 0.535862917130768 
1219	 0.536205994974735 
1220	 0.536547108713676 
1221	 0.536869350643446 
1222	 0.537221636983541 
1223	 0.537574903756722 
1224	 0.537934126026492 
1225	 0.53833284014891 
1226	 0.538696430174795 
1227	 0.539041576310652 
1228	 0.539384334504276 
1229	 0.53972317157534 
1230	 0.540047919776099 
1231	 0.54034844986822 
1232	 0.540663714265353 
1233	 0.54097975865722 
1234	 0.541289089258518 
1235	 0.541601020693421 
1236	 0.541933650634375 
1237	 0.542233561648198 
1238	 0.542515951487326 
1239	 0.542797863327708 
1240	 0.543058340592164 
1241	 0.543336348396411 
1242	 0.543611095683372 
1243	 0.543899650875241 
1244	 0.544206053684773 
1245	 0.544505469259456 
1246	 0.544837615301099 
1247	 0.545123042266123 
1248	 0.545378818134576 
1249	 0.54563962716915 
1250	 0.545855228000897 
1251	 0.546043648827865 
1252	 0.546261057689037 
1253	 0.54647880976244 
1254	 0.546694539985326 
1255	 0.546931190679258 
1256	 0.547138049795322 
1257	 0.547317037974558 
1258	 0.547520518713411 
1259	 0.547716695180606 
1260	 0.547924634231574 
1261	 0.548155934208675 
1262	 0.548374655479814 
1263	 0.548597011664181 
1264	 0.548810555695957 
1265	 0.549015459937715 
1266	 0.549222010396055 
1267	 0.549426012423795 
1268	 0.549615284927995 
1269	 0.549831401112281 
1270	 0.550050391408732 
1271	 0.55029330700965 
1272	 0.550568196603724 
1273	 0.550819837103881 
1274	 0.551063900145249 
1275	 0.55133911871403 
1276	 0.551608121952738 
1277	 0.551906935034258 
1278	 0.552272179525064 
1279	 0.552581362255516 
1280	 0.552896670392071 
1281	 0.553170000637269 
1282	 0.553399866616925 
1283	 0.553625092823029 
1284	 0.553839192478401 
1285	 0.554012450227676 
1286	 0.554199332741771 
1287	 0.554362827696149 
1288	 0.554476341979015 
1289	 0.554560047365247 
1290	 0.55462023005973 
1291	 0.554627846536487 
1292	 0.554639732964783 
1293	 0.554640880135916 
1294	 0.554617448264253 
1295	 0.554594935693483 
1296	 0.554510842765354 
1297	 0.55438547694937 
1298	 0.554239185170894 
1299	 0.554038038919378 
1300	 0.553835210003228 
1301	 0.553616024451711 
1302	 0.553384377474519 
1303	 0.553131201014895 
1304	 0.552866905145404 
1305	 0.552605041208491 
1306	 0.552350439675582 
1307	 0.55211140016338 
1308	 0.55186809596145 
1309	 0.551632979849467 
1310	 0.551411358369549 
1311	 0.551176678288042 
1312	 0.550913054586931 
1313	 0.550719659151403 
1314	 0.550534342514842 
1315	 0.550393989473644 
1316	 0.550322330878191 
1317	 0.550239404168045 
1318	 0.550164114614517 
1319	 0.550114788127341 
1320	 0.550079498613015 
1321	 0.550071704584229 
1322	 0.550081333094529 
1323	 0.550122389550185 
1324	 0.550184745535713 
1325	 0.550280332009478 
1326	 0.550432563565856 
1327	 0.550590943967939 
1328	 0.550762257539187 
1329	 0.55096503669452 
1330	 0.551201428826095 
1331	 0.551458276396725 
1332	 0.55173723705386 
1333	 0.552065304030153 
1334	 0.552382513787675 
1335	 0.552691024037664 
1336	 0.553036414956423 
1337	 0.553419592762037 
1338	 0.553781403649747 
1339	 0.554157432757337 
1340	 0.554527014138629 
1341	 0.554867589943908 
1342	 0.555246479293041 
1343	 0.555657156261827 
1344	 0.556052274078104 
1345	 0.556461327377 
1346	 0.556866571862425 
1347	 0.557259820453635 
1348	 0.557659347991325 
1349	 0.558056347693471 
1350	 0.558462364886128 
1351	 0.558874271464416 
1352	 0.559297168441201 
1353	 0.55970199933799 
1354	 0.560115982345119 
1355	 0.560506032682686 
1356	 0.560877061104353 
1357	 0.561242742409841 
1358	 0.561594655270624 
1359	 0.561952073328887 
1360	 0.562298758664292 
1361	 0.562651155030704 
1362	 0.563014622066587 
1363	 0.563362418249479 
1364	 0.563707442134673 
1365	 0.564038984181459 
1366	 0.564344853071655 
1367	 0.564669733461244 
1368	 0.565002429100378 
1369	 0.565326129194561 
1370	 0.565658749122418 
1371	 0.565991360775673 
1372	 0.566273874478192 
1373	 0.56653174772742 
1374	 0.566795772057203 
1375	 0.56704038791893 
1376	 0.567284318936063 
1377	 0.567549411535376 
1378	 0.56776862604428 
1379	 0.567975178716118 
1380	 0.568137505493262 
1381	 0.56825038069799 
1382	 0.568368813869229 
1383	 0.568453871487071 
1384	 0.568547241022509 
1385	 0.568672390632818 
1386	 0.568731685368299 
1387	 0.568751565123903 
1388	 0.568761972021226 
1389	 0.568738104583325 
1390	 0.568689356558069 
1391	 0.56864945264617 
1392	 0.568597660426478 
1393	 0.56850187338833 
1394	 0.5683844185571 
1395	 0.568253836041098 
1396	 0.568100584476699 
1397	 0.567947826075215 
1398	 0.56778830174493 
1399	 0.567622637205932 
1400	 0.567436681261247 
1401	 0.567269148822888 
1402	 0.567109269070431 
1403	 0.566943788372345 
1404	 0.566786285673986 
1405	 0.566624211844972 
1406	 0.566450627030191 
1407	 0.566278164910339 
1408	 0.566102969019055 
1409	 0.565938171360255 
1410	 0.565734792615304 
1411	 0.565612203665574 
1412	 0.565511546581735 
1413	 0.565471916275741 
1414	 0.565513363702327 
1415	 0.565577405633872 
1416	 0.565654705308008 
1417	 0.56573851570207 
1418	 0.565823775838993 
1419	 0.565912924819297 
1420	 0.565999298189277 
1421	 0.566075368266371 
1422	 0.566145292417574 
1423	 0.566198259123231 
1424	 0.566215473249497 
1425	 0.566205135226134 
1426	 0.566202249955238 
1427	 0.566159804306554 
1428	 0.566144199705296 
1429	 0.56615264747011 
1430	 0.566137211821099 
1431	 0.566109840483042 
1432	 0.566087394887997 
1433	 0.566066534166207 
1434	 0.566035885336172 
1435	 0.56600451248784 
1436	 0.565963532527708 
1437	 0.565901863264252 
1438	 0.565851743672416 
1439	 0.565808016333095 
1440	 0.565754330760719 
1441	 0.565697371172244 
1442	 0.565651168164138 
1443	 0.56558421092195 
1444	 0.565523270439211 
1445	 0.565481055544183 
1446	 0.565422484912616 
1447	 0.565381065732906 
1448	 0.565344251615574 
1449	 0.565269015988044 
1450	 0.565184710622832 
1451	 0.565089959778276 
1452	 0.564964790818873 
1453	 0.564854335059838 
1454	 0.56474292853383 
1455	 0.564636432997784 
1456	 0.564535223999312 
1457	 0.564423254785214 
1458	 0.564302640599566 
1459	 0.564202891122691 
1460	 0.564107538452141 
1461	 0.564006293240244 
1462	 0.563909653496522 
1463	 0.563824402513358 
1464	 0.563715542277793 
1465	 0.563652464570378 
1466	 0.563639964057814 
1467	 0.56361102155135 
1468	 0.563592287671807 
1469	 0.563579654530817 
1470	 0.563561831082725 
1471	 0.563558389073811 
1472	 0.563565582163389 
1473	 0.563582798171161 
1474	 0.563625308358176 
1475	 0.563675438867499 
1476	 0.563755193830847 
1477	 0.563877933751517 
1478	 0.564032098905052 
1479	 0.564188201405772 
1480	 0.56436617562646 
1481	 0.56455940679913 
1482	 0.564728730363109 
1483	 0.564888250689191 
1484	 0.565055720396669 
1485	 0.565216383058724 
1486	 0.565374604367611 
1487	 0.565549398211656 
1488	 0.565695086994258 
1489	 0.565809979378806 
1490	 0.565946859657944 
1491	 0.566083032603312 
1492	 0.566215818023051 
1493	 0.566367760614532 
1494	 0.566495898391427 
1495	 0.5666022386457 
1496	 0.566708824652372 
1497	 0.566803423625834 
1498	 0.566904126715219 
1499	 0.567005509314706 
1500	 0.567103841222844 
1501	 0.567198935999234 
1502	 0.567301157851044 
1503	 0.567397761311598 
1504	 0.567508390228605 
1505	 0.567637574594415 
1506	 0.567737344765575 
1507	 0.567837403031986 
1508	 0.567942616975215 
1509	 0.568003801463119 
1510	 0.568073413188443 
1511	 0.568173862347209 
1512	 0.568249235663596 
1513	 0.568354331581838 
1514	 0.568489910902493 
1515	 0.568588450235092 
1516	 0.568689925158523 
1517	 0.568768408389722 
1518	 0.568833650642262 
1519	 0.568885541973873 
1520	 0.568910448920898 
1521	 0.568946938670061 
1522	 0.56897449266221 
1523	 0.569018499941732 
1524	 0.56906297397378 
1525	 0.569127514583574 
1526	 0.569213038230974 
1527	 0.569285039133266 
1528	 0.569368606773669 
1529	 0.569440653553568 
1530	 0.569505673268009 
1531	 0.569566281092253 
1532	 0.569624775309077 
1533	 0.569674193949339 
1534	 0.569706194315163 
1535	 0.569748877109347 
1536	 0.569782253466249 
1537	 0.569838712472905 
1538	 0.569918125834566 
1539	 0.569987570863045 
1540	 0.570062146153843 
1541	 0.570137908178109 
1542	 0.570213337129376 
1543	 0.570281082302173 
1544	 0.570354189971373 
1545	 0.570422186103056 
1546	 0.570477604296283 
1547	 0.570528658528328 
1548	 0.570597535505111 
1549	 0.570685536942132 
1550	 0.570783481348428 
1551	 0.570884061946374 
1552	 0.570984152429588 
1553	 0.571056478900051 
1554	 0.571120343120861 
1555	 0.57117343724269 
1556	 0.571202238933115 
1557	 0.571238246388893 
1558	 0.571254649608603 
1559	 0.57128508230947 
1560	 0.571329817051412 
1561	 0.571386201744624 
1562	 0.571442795983359 
1563	 0.571504844317477 
1564	 0.571583709154152 
1565	 0.571668968278194 
1566	 0.571761916951139 
1567	 0.571886464475531 
1568	 0.571979516027947 
1569	 0.572073187776144 
1570	 0.572137517204658 
1571	 0.572167411947299 
1572	 0.572224460262524 
1573	 0.572263968699091 
1574	 0.57232886651264 
1575	 0.572419883387956 
1576	 0.572504166737111 
1577	 0.572605743070536 
1578	 0.572680486451755 
1579	 0.572765053605103 
1580	 0.572808938044747 
1581	 0.572796075994377 
1582	 0.572821773080216 
1583	 0.572826529800524 
1584	 0.572869268362117 
1585	 0.572956763889092 
1586	 0.573030765216779 
1587	 0.573118499331733 
1588	 0.573197369512353 
1589	 0.573283007606163 
1590	 0.573340064643509 
1591	 0.573369820213297 
1592	 0.573424161242977 
1593	 0.573459040112852 
1594	 0.573522177809663 
1595	 0.57362415973505 
1596	 0.573708016705805 
1597	 0.573809526252112 
1598	 0.573884726393703 
1599	 0.573944726442929 
1600	 0.57399639270571 
1601	 0.574002253557881 
1602	 0.5740443710301 
1603	 0.574102380103327 
1604	 0.574163445139796 
1605	 0.574257474694236 
1606	 0.574335576659279 
1607	 0.574400084311384 
1608	 0.574475272998339 
1609	 0.574541261495731 
1610	 0.574585209098445 
1611	 0.574640403700445 
1612	 0.574678721527096 
1613	 0.574723625988925 
1614	 0.574815327465715 
1615	 0.574910634457746 
1616	 0.575010647599198 
1617	 0.575102739564203 
1618	 0.575162649114543 
1619	 0.575221568675353 
1620	 0.575295364121481 
1621	 0.575387233499017 
1622	 0.575508088544829 
1623	 0.575594239994765 
1624	 0.575681840488438 
1625	 0.575756032685512 
1626	 0.575808086116669 
1627	 0.57586640954114 
1628	 0.575927271785336 
1629	 0.575979621444242 
1630	 0.576024093082458 
1631	 0.576066246433306 
1632	 0.576102627149463 
1633	 0.576141894078902 
1634	 0.576177658776671 
1635	 0.576211598428282 
1636	 0.576241302686365 
1637	 0.576285879883218 
1638	 0.576328286700404 
1639	 0.576388254511804 
1640	 0.576472324629024 
1641	 0.576542404507743 
1642	 0.5766077156234 
1643	 0.576686412836394 
1644	 0.576772452581712 
1645	 0.576852124168304 
1646	 0.576943482275602 
1647	 0.577021119493796 
1648	 0.57708375197951 
1649	 0.577154288286054 
1650	 0.57722881789992 
1651	 0.57729435188056 
1652	 0.577350686474529 
1653	 0.577420611069504 
1654	 0.577485052992089 
1655	 0.577568978910573 
1656	 0.577672989739523 
1657	 0.577769231225347 
1658	 0.577880744609189 
1659	 0.57796831462771 
1660	 0.578051445792035 
1661	 0.578117338887043 
1662	 0.578166950175687 
1663	 0.578206629907225 
1664	 0.578223605452008 
1665	 0.578254832069754 
1666	 0.578270789877994 
1667	 0.578313267550107 
1668	 0.57836888321881 
1669	 0.578437406616977 
1670	 0.578524708982696 
1671	 0.578611439401155 
1672	 0.578714176880691 
1673	 0.578806359172571 
1674	 0.578898348669501 
1675	 0.578988223382008 
1676	 0.579092781824667 
1677	 0.579154664321024 
1678	 0.579182233423763 
1679	 0.579234865563898 
1680	 0.579273425000436 
1681	 0.579311547151452 
1682	 0.579363633526604 
1683	 0.579416139824427 
1684	 0.579433427296365 
1685	 0.579506955773128 
1686	 0.579625619838856 
1687	 0.579732575125709 
1688	 0.579866428898439 
1689	 0.57998063072865 
1690	 0.580088788555584 
1691	 0.580196417389376 
1692	 0.580296322172706 
1693	 0.580397812822801 
1694	 0.580499289787184 
1695	 0.580601726167093 
1696	 0.580722670958577 
1697	 0.580801310040368 
1698	 0.580850946396 
1699	 0.580911595083873 
1700	 0.580946075714695 
1701	 0.580997976916499 
1702	 0.581076359341702 
1703	 0.581129329987722 
1704	 0.581164412273107 
1705	 0.581205983042506 
1706	 0.581247813869481 
1707	 0.581279274584731 
1708	 0.581295371625077 
1709	 0.581332479365598 
1710	 0.581352299818849 
1711	 0.581423269145121 
1712	 0.581541348671767 
1713	 0.581642701896673 
1714	 0.581766562642608 
1715	 0.581875924907727 
1716	 0.581977942906917 
1717	 0.582078155467393 
1718	 0.582192377363128 
1719	 0.582271064312153 
1720	 0.582333902434673 
1721	 0.58237656533148 
1722	 0.582380832756892 
1723	 0.58241069957551 
1724	 0.582442662692034 
1725	 0.58245929207233 
1726	 0.582485360000435 
1727	 0.582487525805232 
1728	 0.58246148763546 
1729	 0.582440128684685 
1730	 0.582420583925203 
1731	 0.582372648631092 
1732	 0.582295010190143 
1733	 0.582257545817262 
1734	 0.582214009399831 
1735	 0.582187304986241 
1736	 0.58219077131316 
1737	 0.582184925885393 
1738	 0.582166420498349 
1739	 0.582180664804224 
1740	 0.582229194755053 
1741	 0.582255202950004 
1742	 0.582288440411421 
1743	 0.582301847424192 
1744	 0.582301077704452 
1745	 0.582296634810765 
1746	 0.58227463530288 
1747	 0.582269540327989 
1748	 0.582283397382946 
1749	 0.582287192717204 
1750	 0.582289111402638 
1751	 0.5822990938978 
1752	 0.582309007501504 
1753	 0.582307787442751 
1754	 0.582318155509837 
1755	 0.58235098389297 
1756	 0.582362068427064 
1757	 0.582380990875819 
1758	 0.582432450029854 
1759	 0.582476687662394 
1760	 0.582514896718681 
1761	 0.582558759897652 
1762	 0.582623019061824 
1763	 0.582690999220254 
1764	 0.582732066667964 
1765	 0.58278318148548 
1766	 0.582816400357547 
1767	 0.582795520589757 
1768	 0.582808979678376 
1769	 0.582831333063238 
1770	 0.582825614884948 
1771	 0.582899023976438 
1772	 0.582970323460859 
1773	 0.582995060927834 
1774	 0.583080656550825 
1775	 0.58313239687744 
1776	 0.583139394805452 
1777	 0.583184196992396 
1778	 0.583223032583242 
1779	 0.583240082430466 
1780	 0.583247235353187 
1781	 0.583244529504415 
1782	 0.58327271569611 
1783	 0.583358705852816 
1784	 0.583424405219446 
1785	 0.583525535267779 
1786	 0.583581344613037 
1787	 0.58357639580125 
1788	 0.583616036090526 
1789	 0.583670345557801 
1790	 0.583726645519369 
1791	 0.583816809103349 
1792	 0.583882696811038 
1793	 0.583928669326428 
1794	 0.583975668855821 
1795	 0.584028424601922 
1796	 0.584046720648604 
1797	 0.584034762757146 
1798	 0.584033211583963 
1799	 0.583997954457251 
1800	 0.584007935570122 
1801	 0.577977479979102 
1802	 0.578024496934972 
1803	 0.578124331501826 
1804	 0.578187973035638 
1805	 0.578233351192922 
1806	 0.578317706287287 
1807	 0.578365717168957 
1808	 0.578422172228378 
1809	 0.578510631756845 
1810	 0.578558340238404 
1811	 0.57858445113402 
1812	 0.578604717738949 
1813	 0.578603050707536 
1814	 0.578555048794184 
1815	 0.578488880936416 
1816	 0.578450593472729 
1817	 0.578447362892827 
1818	 0.578467561019715 
1819	 0.578486046214148 
1820	 0.578561659684481 
1821	 0.57858011246169 
1822	 0.578524566631151 
1823	 0.578473482892142 
1824	 0.578371273176179 
1825	 0.578219136658989 
1826	 0.578077991779266 
1827	 0.577915216025711 
1828	 0.577740243292521 
1829	 0.577537612458798 
1830	 0.577350059977615 
1831	 0.577146059544977 
1832	 0.576967100974423 
1833	 0.576799724721752 
1834	 0.576643828278468 
1835	 0.57654195619498 
1836	 0.576413534286965 
1837	 0.576253706869041 
1838	 0.576122041428116 
1839	 0.575971263243437 
1840	 0.575801413219514 
1841	 0.575612677541966 
1842	 0.575449216344846 
1843	 0.575303297171886 
1844	 0.57517727547332 
1845	 0.575079539445799 
1846	 0.575022580449161 
1847	 0.574989009440456 
1848	 0.574952248143174 
1849	 0.574930267579576 
1850	 0.574922667957103 
1851	 0.574928187125249 
1852	 0.574926460230258 
1853	 0.574950327285628 
1854	 0.575010413676505 
1855	 0.575105983061052 
1856	 0.575254590998177 
1857	 0.575442177701407 
1858	 0.575618093258336 
1859	 0.575767314034536 
1860	 0.575887742571442 
1861	 0.575977304744535 
1862	 0.576029388425872 
1863	 0.576086675193709 
1864	 0.576121408206434 
1865	 0.576143550439072 
1866	 0.576181502278076 
1867	 0.57620319167825 
1868	 0.576235285515932 
1869	 0.576305865904732 
1870	 0.576377825070635 
1871	 0.576437361410872 
1872	 0.576497703466833 
1873	 0.576571981346654 
1874	 0.576619992777363 
1875	 0.576658262317584 
1876	 0.576685702689392 
1877	 0.576645497430717 
1878	 0.576555125457192 
1879	 0.576414310593737 
1880	 0.576249342912483 
1881	 0.576023792613366 
1882	 0.575813200279375 
1883	 0.575595174923223 
1884	 0.575364251392044 
1885	 0.575076225502545 
1886	 0.574749032487235 
1887	 0.574398648810656 
1888	 0.574000170067075 
1889	 0.573613773252936 
1890	 0.573246452622979 
1891	 0.572852680394208 
1892	 0.572435441186808 
1893	 0.572020713248354 
1894	 0.5715916479489 
1895	 0.571168504411769 
1896	 0.570733733068213 
1897	 0.570304671126271 
1898	 0.56988726732907 
1899	 0.569443681211042 
1900	 0.569025484617977 
1901	 0.568680933317101 
1902	 0.568358870794184 
1903	 0.568089412095651 
1904	 0.567816777140013 
1905	 0.567589389604704 
1906	 0.567335385366148 
1907	 0.567053757246313 
1908	 0.566797609166156 
1909	 0.566573428406906 
1910	 0.566337385011407 
1911	 0.566111940190218 
1912	 0.56592853648232 
1913	 0.565718438313915 
1914	 0.565480907399401 
1915	 0.565263962848201 
1916	 0.565065877254483 
1917	 0.564845027766222 
1918	 0.564603017317015 
1919	 0.564388020077877 
1920	 0.564212117855829 
1921	 0.564034924193903 
1922	 0.563863565829525 
1923	 0.563710926082736 
1924	 0.563537450078925 
1925	 0.56331466400913 
1926	 0.563141792320268 
1927	 0.562988129088336 
1928	 0.562840722492941 
1929	 0.562705254728125 
1930	 0.562585984500165 
1931	 0.562469282206466 
1932	 0.562378277622971 
1933	 0.562339037732133 
1934	 0.562302516681536 
1935	 0.562270689137633 
1936	 0.562248634041617 
1937	 0.562255358368744 
1938	 0.562270862094126 
1939	 0.562300246435941 
1940	 0.562372313526118 
1941	 0.56242837955967 
1942	 0.562460657229887 
1943	 0.562514142354854 
1944	 0.562562750051411 
1945	 0.562605418353397 
1946	 0.562670946968973 
1947	 0.562751235470554 
1948	 0.5628343404838 
1949	 0.562945544262649 
1950	 0.563041302552471 
1951	 0.563137939276147 
1952	 0.563219423937999 
1953	 0.563319681856724 
1954	 0.563392031249952 
1955	 0.563477005730157 
1956	 0.56358488268553 
1957	 0.563668195786905 
1958	 0.563719510015279 
1959	 0.563823018277543 
1960	 0.563941112812261 
1961	 0.564056656138159 
1962	 0.564206868703036 
1963	 0.564353314830202 
1964	 0.564492395177105 
1965	 0.564632512100242 
1966	 0.564802031649375 
1967	 0.564922946009729 
1968	 0.565060156336006 
1969	 0.565181603342637 
1970	 0.565326751241355 
1971	 0.565494514263165 
1972	 0.565644935100452 
1973	 0.565785065653012 
1974	 0.565938188487185 
1975	 0.5660829472369 
1976	 0.566236624575897 
1977	 0.566435840899606 
1978	 0.5666372059281 
1979	 0.566836954449962 
1980	 0.567053646000958 
1981	 0.56726452216517 
1982	 0.567471262017473 
1983	 0.567681891793839 
1984	 0.56789346252723 
1985	 0.5681144579848 
1986	 0.568362844627167 
1987	 0.568576598988808 
1988	 0.568786135490429 
1989	 0.568976683682957 
1990	 0.56916795218605 
1991	 0.569317777484342 
1992	 0.569493038880881 
1993	 0.569676087043231 
1994	 0.569871600019755 
1995	 0.570067097973056 
1996	 0.570272250215548 
1997	 0.570490977585829 
1998	 0.570714341694999 
1999	 0.570946623540512 
2000	 0.571174957242075 
2001	 0.571424127796195 
2002	 0.571657008468507 
2003	 0.571853826478402 
2004	 0.57206746228611 
2005	 0.572254922645135 
2006	 0.572397267338548 
2007	 0.572592908208565 
2008	 0.572795057384011 
2009	 0.573008467239074 
2010	 0.573255335481202 
2011	 0.573498452132059 
2012	 0.57373456300523 
2013	 0.573992207404475 
2014	 0.574270855576026 
2015	 0.574547145755177 
2016	 0.574857419585753 
2017	 0.57515082394612 
2018	 0.575426329621295 
2019	 0.575695950116147 
2020	 0.575959623843088 
2021	 0.576188046195816 
2022	 0.576447971219364 
2023	 0.576739139934881 
2024	 0.576998256586573 
2025	 0.577240382843867 
2026	 0.577494052122125 
2027	 0.577753495631297 
2028	 0.577978215364878 
2029	 0.578222305115925 
2030	 0.578491031503192 
2031	 0.578733118122676 
2032	 0.578947609012661 
2033	 0.579192923427227 
2034	 0.579451113640289 
2035	 0.579694164375845 
2036	 0.57996912892381 
2037	 0.580192082425506 
2038	 0.580373661920381 
2039	 0.580560531034141 
2040	 0.580726110873251 
2041	 0.580876884927008 
2042	 0.581045439909993 
2043	 0.581236599433497 
2044	 0.5814120606827 
2045	 0.581586650486126 
2046	 0.581765336526119 
2047	 0.581940957135976 
2048	 0.582118448642775 
2049	 0.582313020494069 
2050	 0.582487252693016 
2051	 0.582654701849595 
2052	 0.582811682227987 
2053	 0.582949982273577 
2054	 0.583090381390284 
2055	 0.583226310337631 
2056	 0.583357378287572 
2057	 0.583485004692402 
2058	 0.583621507643555 
2059	 0.583726946144135 
2060	 0.583803727430994 
2061	 0.583900772759185 
2062	 0.583973977125596 
2063	 0.584080753422325 
2064	 0.584218876454799 
2065	 0.584346378249798 
2066	 0.584479361805176 
2067	 0.58461638829894 
2068	 0.584754543683603 
2069	 0.584897470431771 
2070	 0.585037970532611 
2071	 0.585188285753097 
2072	 0.585325810316725 
2073	 0.585457035104696 
2074	 0.58558576068655 
2075	 0.585715692598522 
2076	 0.585831914675026 
2077	 0.58593968814657 
2078	 0.586041258626872 
2079	 0.5861234033332 
2080	 0.586217313405677 
2081	 0.586290446923744 
2082	 0.586398758715959 
2083	 0.586534921452097 
2084	 0.586680618090852 
2085	 0.586799271279376 
2086	 0.586931591105011 
2087	 0.587039691241178 
2088	 0.587107444172401 
2089	 0.587204732570584 
2090	 0.587318111832662 
2091	 0.587420058260161 
2092	 0.587508021413635 
2093	 0.58761668484369 
2094	 0.587729302564708 
2095	 0.587847295826371 
2096	 0.587991199641508 
2097	 0.588122305964171 
2098	 0.588237250851432 
2099	 0.588365892855909 
2100	 0.588511867754054 
2101	 0.588665006759185 
2102	 0.588824294098001 
2103	 0.589010601153738 
2104	 0.589175052994411 
2105	 0.58930207121698 
2106	 0.589494361416712 
2107	 0.589710537785927 
2108	 0.589941700721367 
2109	 0.590235473103231 
2110	 0.590496599861109 
2111	 0.590756793462883 
2112	 0.591004578165855 
2113	 0.591219250310054 
2114	 0.591477761983323 
2115	 0.591714199393954 
2116	 0.591943459983267 
2117	 0.592170196277094 
2118	 0.592404196158465 
2119	 0.592616642039592 
2120	 0.592797340236947 
2121	 0.593016088869902 
2122	 0.593234330622025 
2123	 0.593468888753532 
2124	 0.593772106928093 
2125	 0.593998355960831 
2126	 0.594198457649992 
2127	 0.594381548133664 
2128	 0.594503329515488 
2129	 0.59463940912206 
2130	 0.594773668690362 
2131	 0.594925075873515 
2132	 0.595009307068458 
2133	 0.595081257827343 
2134	 0.595097665927401 
2135	 0.59506466672757 
2136	 0.594994003557595 
2137	 0.594880297856347 
2138	 0.594742082959823 
2139	 0.594545726031853 
2140	 0.594349929792341 
2141	 0.594130755184774 
2142	 0.593905491454178 
2143	 0.59367347395669 
2144	 0.593415805655783 
2145	 0.593126767945909 
2146	 0.592843959012845 
2147	 0.592521232339451 
2148	 0.592243117228243 
2149	 0.591940116024598 
2150	 0.591661398119374 
2151	 0.591318446507279 
2152	 0.590955037398995 
2153	 0.590549260399699 
2154	 0.59008705272974 
2155	 0.589636659936335 
2156	 0.589149185215562 
2157	 0.588682185938871 
2158	 0.588240646527874 
2159	 0.587752113585111 
2160	 0.587257513424259 
2161	 0.586734283007799 
2162	 0.586138407570315 
2163	 0.585582114542964 
2164	 0.585034309471038 
2165	 0.584488250801298 
2166	 0.583926309234594 
2167	 0.583380814798163 
2168	 0.582799136410819 
2169	 0.582185526579314 
2170	 0.5815748995209 
2171	 0.580943107793093 
2172	 0.580335547602036 
2173	 0.579711437049626 
2174	 0.579126824525503 
2175	 0.578580397485571 
2176	 0.578023968819547 
2177	 0.577510700479048 
2178	 0.576940982698209 
2179	 0.576345489032581 
2180	 0.575743084782307 
2181	 0.575081525958843 
2182	 0.574457116109344 
2183	 0.573864717839035 
2184	 0.573240781615443 
2185	 0.572635464881471 
2186	 0.572046435757494 
2187	 0.571447282954774 
2188	 0.570825581729235 
2189	 0.570253010831245 
2190	 0.569696572047693 
2191	 0.569156946217065 
2192	 0.568625137144382 
2193	 0.568145404232889 
2194	 0.56768218958841 
2195	 0.567270370740145 
2196	 0.566944615231691 
2197	 0.56659939585744 
2198	 0.566275798067117 
2199	 0.565958201286918 
2200	 0.565643540719076 
2201	 0.565343183455466 
2202	 0.565071764691607 
2203	 0.564784690230672 
2204	 0.56451506078442 
2205	 0.564249043358653 
2206	 0.564005607954458 
2207	 0.563757354905191 
2208	 0.56357299116198 
2209	 0.563414758890666 
2210	 0.563307546547798 
2211	 0.563270271814693 
2212	 0.563225769378687 
2213	 0.563220312992668 
2214	 0.563209134486784 
2215	 0.56322624223296 
2216	 0.563210292944137 
2217	 0.563213914451511 
2218	 0.563167627159935 
2219	 0.563086382479493 
2220	 0.562979578956456 
2221	 0.562848950131363 
2222	 0.56267440726253 
2223	 0.562464602510325 
2224	 0.562249192177859 
2225	 0.562052986156979 
2226	 0.561847942957795 
2227	 0.561650995209372 
2228	 0.561494848602515 
2229	 0.561264993047733 
2230	 0.56100168263308 
2231	 0.560720068328591 
2232	 0.560381750847328 
2233	 0.56008409452023 
2234	 0.559789061050643 
2235	 0.559486599143681 
2236	 0.559209890312601 
2237	 0.558890694294585 
2238	 0.558564166479052 
2239	 0.558197066822205 
2240	 0.557807388017137 
2241	 0.55737560144441 
2242	 0.556842982243245 
2243	 0.556376097670678 
2244	 0.555935525887215 
2245	 0.555456905161033 
2246	 0.554997364647651 
2247	 0.554574843262474 
2248	 0.554109238703818 
2249	 0.553584129844848 
2250	 0.553144356814261 
2251	 0.552739467695365 
2252	 0.552319011084292 
2253	 0.551925697605243 
2254	 0.551527873482662 
2255	 0.551093337228942 
2256	 0.550739209240797 
2257	 0.55042799498861 
2258	 0.550137186863005 
2259	 0.549866002362011 
2260	 0.549655316888129 
2261	 0.549470409515158 
2262	 0.549354237420664 
2263	 0.549298507827395 
2264	 0.549310590849708 
2265	 0.54938199527805 
2266	 0.549510886839428 
2267	 0.549749274002218 
2268	 0.549985084470192 
2269	 0.550282266284586 
2270	 0.550564102503064 
2271	 0.550853576947449 
2272	 0.55112820171252 
2273	 0.551402890844419 
2274	 0.551745691650676 
2275	 0.552104217476281 
2276	 0.55249218528125 
2277	 0.552903737668423 
2278	 0.553357734425705 
2279	 0.553808254326047 
2280	 0.554277940047768 
2281	 0.554764009192493 
2282	 0.555263651916361 
2283	 0.555758267854659 
2284	 0.556283685210856 
2285	 0.556782282176689 
2286	 0.557267395096539 
2287	 0.557760474103519 
2288	 0.558259321418435 
2289	 0.55873451246045 
2290	 0.559195225355234 
2291	 0.55965724988442 
2292	 0.56008355197084 
2293	 0.560542878655453 
2294	 0.561070936267011 
2295	 0.561515614871891 
2296	 0.561921237907769 
2297	 0.562330962957191 
2298	 0.562685464732725 
2299	 0.563055658215764 
2300	 0.563448852692873 
2301	 0.563846285672321 
2302	 0.564271384973034 
2303	 0.564691252245754 
2304	 0.56509321491584 
2305	 0.565465554114187 
2306	 0.565887026136371 
2307	 0.566305377144155 
2308	 0.566719869524967 
2309	 0.567189381067293 
2310	 0.567616429405573 
2311	 0.568004974820262 
2312	 0.568373679189011 
2313	 0.568727048670562 
2314	 0.569087256567922 
2315	 0.56943397749526 
2316	 0.569756856968877 
2317	 0.570075137785942 
2318	 0.570397426228517 
2319	 0.570671406257587 
2320	 0.570976574524391 
2321	 0.571317639258643 
2322	 0.571656105813722 
2323	 0.571982454520534 
2324	 0.572316772511399 
2325	 0.572660980065453 
2326	 0.57302657296462 
2327	 0.573404080574773 
2328	 0.573803365663075 
2329	 0.574205996297154 
2330	 0.57453222649314 
2331	 0.574801893750015 
2332	 0.575110330118278 
2333	 0.57543434320799 
2334	 0.575752487193034 
2335	 0.576045482660339 
2336	 0.576294987336748 
2337	 0.576488637603577 
2338	 0.576636613248888 
2339	 0.576793571834175 
2340	 0.576966415724083 
2341	 0.577113175679298 
2342	 0.577244970280361 
2343	 0.577404067007904 
2344	 0.577524913102918 
2345	 0.577585876870523 
2346	 0.577604300802978 
2347	 0.577614654068493 
2348	 0.577590285069607 
2349	 0.577524369027752 
2350	 0.57743043827712 
2351	 0.577330449374299 
2352	 0.577124985814988 
2353	 0.576995572452491 
2354	 0.57694477788549 
2355	 0.57684421972852 
2356	 0.576743103362677 
2357	 0.57663717492558 
2358	 0.576463516319987 
2359	 0.57635921188188 
2360	 0.576352638133767 
2361	 0.576238607986783 
2362	 0.576094282572886 
2363	 0.575961171469009 
2364	 0.575751874885602 
2365	 0.575579077154874 
2366	 0.575458995814799 
2367	 0.575299818236062 
2368	 0.575140986100999 
2369	 0.574926340884383 
2370	 0.574668032857613 
2371	 0.574409463159788 
2372	 0.574149709398777 
2373	 0.573811127490696 
2374	 0.573462176521151 
2375	 0.573218208171306 
2376	 0.572968352680164 
2377	 0.572683671210434 
2378	 0.572441176830293 
2379	 0.572141841068894 
2380	 0.571830585040386 
2381	 0.571606020954244 
2382	 0.57137018563679 
2383	 0.571112507883333 
2384	 0.570826491849623 
2385	 0.570415671759056 
2386	 0.569970466205928 
2387	 0.56960892220759 
2388	 0.569178736124089 
2389	 0.568757702503258 
2390	 0.568406092025751 
2391	 0.568048276267186 
2392	 0.567796952591762 
2393	 0.567505866510138 
2394	 0.567108535911283 
2395	 0.566692049045831 
2396	 0.566148695795217 
2397	 0.565587574824094 
2398	 0.56517585513835 
2399	 0.564714467747078 
2400	 0.564258433607618 
2401	 0.563930751359977 
2402	 0.56357012547824 
2403	 0.563246280334285 
2404	 0.56298984159356 
2405	 0.562619238322944 
2406	 0.562166995074219 
2407	 0.561764969904636 
2408	 0.561313162750307 
2409	 0.560994590648077 
2410	 0.56084292441963 
2411	 0.560609328166184 
2412	 0.560412906408712 
2413	 0.560151831030463 
2414	 0.559718445654627 
2415	 0.559229890468241 
2416	 0.558838081206387 
2417	 0.558462042600492 
2418	 0.558087918892623 
2419	 0.557791577974392 
2420	 0.557522603274616 
2421	 0.557206268323497 
2422	 0.556950944258647 
2423	 0.556782015957453 
2424	 0.556553180625905 
2425	 0.556369975495861 
2426	 0.556104831260722 
2427	 0.555840695972858 
2428	 0.555523647290422 
2429	 0.555013210461515 
2430	 0.554661669487402 
2431	 0.554359930291822 
2432	 0.553970964260048 
2433	 0.553688833358674 
2434	 0.553335855284576 
2435	 0.552813883435887 
2436	 0.552567646111328 
2437	 0.552457667674342 
2438	 0.552194255805751 
2439	 0.55203132134019 
2440	 0.551821991833529 
2441	 0.551479683629573 
2442	 0.551216098984041 
2443	 0.55102811721236 
2444	 0.55075417847867 
2445	 0.550401623846308 
2446	 0.550134545952899 
2447	 0.549979645329482 
2448	 0.549636661434086 
2449	 0.549122702340801 
2450	 0.548820131572045 
2451	 0.548538486077322 
2452	 0.548241304783356 
2453	 0.548100871416814 
2454	 0.547887916157595 
2455	 0.54750481765048 
2456	 0.547300456135174 
2457	 0.547307116081728 
2458	 0.547091296531003 
2459	 0.546868343924129 
2460	 0.546615949430049 
2461	 0.546087614103009 
2462	 0.545814249744573 
2463	 0.545761257604849 
2464	 0.545571859213514 
2465	 0.545399172599364 
2466	 0.545279123255033 
2467	 0.545112162252118 
2468	 0.544906836015012 
2469	 0.544725788139632 
2470	 0.544565546497171 
2471	 0.544411240624882 
2472	 0.544225701606705 
2473	 0.544152278441816 
2474	 0.544078617313453 
2475	 0.543797097839748 
2476	 0.543438046696072 
2477	 0.543266353565195 
2478	 0.543071232041849 
2479	 0.542905688887066 
2480	 0.542929862673964 
2481	 0.542793779679876 
2482	 0.542544536689212 
2483	 0.542159968172922 
2484	 0.541669970105917 
2485	 0.541275309794028 
2486	 0.540915633880298 
2487	 0.54077390865859 
2488	 0.540682853509536 
2489	 0.540343600904291 
2490	 0.540083314864897 
2491	 0.53982090269731 
2492	 0.539512097096128 
2493	 0.539478372564014 
2494	 0.539207778800229 
2495	 0.538789088041292 
2496	 0.538586178348683 
2497	 0.538181472657325 
2498	 0.537764275949476 
2499	 0.537573176033225 
2500	 0.537427079472932 
