Wavelength	MM800008.asd
350	 5.47595641872279E-02 
351	 0.060350700476883 
352	 6.10692751543083E-02 
353	 5.30655843386407E-02 
354	 5.57609639902215E-02 
355	 5.96072702656135E-02 
356	 6.07059137466976E-02 
357	 5.90073006360908E-02 
358	 6.29526879207651E-02 
359	 6.34037179019296E-02 
360	 6.14964106297888E-02 
361	 6.39037817049076E-02 
362	 5.75651497944407E-02 
363	 5.44957664844567E-02 
364	 5.89274161033297E-02 
365	 5.91353074856476E-02 
366	 5.74018837926178E-02 
367	 5.70428585713135E-02 
368	 6.01969484879059E-02 
369	 6.33106640582584E-02 
370	 6.36949517168627E-02 
371	 6.20057439834634E-02 
372	 6.12524125599984E-02 
373	 6.38108376860039E-02 
374	 6.59252669205325E-02 
375	 6.55721654288958E-02 
376	 6.49987760432255E-02 
377	 6.44380664677708E-02 
378	 6.55268414137334E-02 
379	 6.90365177982839E-02 
380	 0.071389259423534 
381	 7.16978625437595E-02 
382	 7.11923771957973E-02 
383	 7.23802819934358E-02 
384	 7.36199488373847E-02 
385	 7.39597193106073E-02 
386	 0.073835549360365 
387	 7.61259074649388E-02 
388	 7.87729346128559E-02 
389	 7.97395935522405E-02 
390	 7.84719929444661E-02 
391	 8.09966312149829E-02 
392	 8.30539139905547E-02 
393	 8.43879053830097E-02 
394	 8.81568802125008E-02 
395	 0.089486937991891 
396	 9.02393806603733E-02 
397	 9.22425312639186E-02 
398	 9.49930741181459E-02 
399	 9.71129149019209E-02 
400	 9.88465399252048E-02 
401	 0.100786781565852 
402	 0.101476116252951 
403	 0.10280301221282 
404	 0.105167547320848 
405	 0.107305673926769 
406	 0.108898864205705 
407	 0.110691124297601 
408	 0.112841711834776 
409	 0.113323998293559 
410	 0.114280182457708 
411	 0.116018374644231 
412	 0.117846345079233 
413	 0.118803470345326 
414	 0.119260471767238 
415	 0.119909286222443 
416	 0.121683684226318 
417	 0.122380640848468 
418	 0.122778923685833 
419	 0.123724355815445 
420	 0.12357987775197 
421	 0.123685018503237 
422	 0.124133192127116 
423	 0.124237717363878 
424	 0.124498547304873 
425	 0.124541547591638 
426	 0.124279342716972 
427	 0.124378670282085 
428	 0.123851471317638 
429	 0.123098380924692 
430	 0.12279845191346 
431	 0.122677158782346 
432	 0.122051588922772 
433	 0.121235586419482 
434	 0.121425724662333 
435	 0.121579762917974 
436	 0.12161369664082 
437	 0.121731538891479 
438	 0.122368630333381 
439	 0.123316830824789 
440	 0.124297137153415 
441	 0.125096830991964 
442	 0.126379443044141 
443	 0.12773369171272 
444	 0.128904444674235 
445	 0.130020260185221 
446	 0.131298765258304 
447	 0.132679709169593 
448	 0.134024452651863 
449	 0.135236753831747 
450	 0.136725052724509 
451	 0.138246336738871 
452	 0.139075156690623 
453	 0.140210562444429 
454	 0.141563622163733 
455	 0.142843249444269 
456	 0.143753268480995 
457	 0.144651612624543 
458	 0.145616646339804 
459	 0.146570543599625 
460	 0.147327537199749 
461	 0.1480091946437 
462	 0.148749185805605 
463	 0.149660771382788 
464	 0.150352659630371 
465	 0.150965886447736 
466	 0.151683643397488 
467	 0.152201606450858 
468	 0.152749353335242 
469	 0.153307275897324 
470	 0.153668419141574 
471	 0.154120739662023 
472	 0.154587233866229 
473	 0.155044066577638 
474	 0.155772883607987 
475	 0.156383510219907 
476	 0.156741632904009 
477	 0.156908491008965 
478	 0.157377847623776 
479	 0.157912780826826 
480	 0.158357646677566 
481	 0.158763611547996 
482	 0.159182252743428 
483	 0.159613949554608 
484	 0.160034863018679 
485	 0.160378183889469 
486	 0.160882383208517 
487	 0.161386045979107 
488	 0.161447550812015 
489	 0.161808804739365 
490	 0.162243487118989 
491	 0.162575436491593 
492	 0.163236184089619 
493	 0.163569356020194 
494	 0.163740108729353 
495	 0.164237097947294 
496	 0.164785073036499 
497	 0.165155254127659 
498	 0.165344487444331 
499	 0.165658188528557 
500	 0.166188489154167 
501	 0.166644926453357 
502	 0.166785358136336 
503	 0.167114767384779 
504	 0.167558807801942 
505	 0.167987919673641 
506	 0.168255990074579 
507	 0.1685266701284 
508	 0.1689145324722 
509	 0.169415922852091 
510	 0.169748167835713 
511	 0.170133562705927 
512	 0.170510021723379 
513	 0.170698991133143 
514	 0.170907293089895 
515	 0.171165811056196 
516	 0.171505364684003 
517	 0.172019992169854 
518	 0.172353241984487 
519	 0.172580719965246 
520	 0.172911551530915 
521	 0.17342453080231 
522	 0.173774410592912 
523	 0.173938835435144 
524	 0.174249878859336 
525	 0.174629585047198 
526	 0.174977670206584 
527	 0.17523938458237 
528	 0.175522251830242 
529	 0.175884330168675 
530	 0.176246041315505 
531	 0.17646688623016 
532	 0.176848055004282 
533	 0.177235781002578 
534	 0.17751959375132 
535	 0.177799509587871 
536	 0.178174758830525 
537	 0.178586493497559 
538	 0.178920854368524 
539	 0.179196044105255 
540	 0.179520137586217 
541	 0.179915904890169 
542	 0.180285767607114 
543	 0.180654749711708 
544	 0.181051717050157 
545	 0.181478108380859 
546	 0.181814109704329 
547	 0.182167869857131 
548	 0.182591584040299 
549	 0.183077722049346 
550	 0.183522507786381 
551	 0.183932408956161 
552	 0.18434632765889 
553	 0.184832039033393 
554	 0.185279997978907 
555	 0.18571810742357 
556	 0.186236901923238 
557	 0.186786190807235 
558	 0.187294829466953 
559	 0.187762360434835 
560	 0.188308967000979 
561	 0.188940582001682 
562	 0.189627997826589 
563	 0.190356432312421 
564	 0.191305456500094 
565	 0.192230205706821 
566	 0.193026410348425 
567	 0.193775574277826 
568	 0.194517769840763 
569	 0.195306382844219 
570	 0.196183491922346 
571	 0.197184440749106 
572	 0.198101483097822 
573	 0.19890783005588 
574	 0.19971747018186 
575	 0.200600674430364 
576	 0.201648242034287 
577	 0.202832544552708 
578	 0.203878448761453 
579	 0.204901080806376 
580	 0.205869986159855 
581	 0.206733907357379 
582	 0.207662122693804 
583	 0.208751581143874 
584	 0.210027493053764 
585	 0.211432910192773 
586	 0.212982496742136 
587	 0.214524626746014 
588	 0.215923453409288 
589	 0.217311853931652 
590	 0.218788563839113 
591	 0.220298734254433 
592	 0.221659851927562 
593	 0.222937062431418 
594	 0.224038720590582 
595	 0.224930472247066 
596	 0.225771409304514 
597	 0.226707060520799 
598	 0.22771923507633 
599	 0.228717542741053 
600	 0.229861308921215 
601	 0.231145260658283 
602	 0.232464814145781 
603	 0.233574846583225 
604	 0.234667752430928 
605	 0.235797429541538 
606	 0.236949921751146 
607	 0.238018319148287 
608	 0.238976765792604 
609	 0.239901811919667 
610	 0.240974836137603 
611	 0.241936745001825 
612	 0.242795687033402 
613	 0.243609444038171 
614	 0.244380560774021 
615	 0.24506278088845 
616	 0.245699445777591 
617	 0.246383010017176 
618	 0.247017538767318 
619	 0.247574827029004 
620	 0.248084506359325 
621	 0.248679621477299 
622	 0.249232522112429 
623	 0.249714278794597 
624	 0.250149202533815 
625	 0.250626543135002 
626	 0.251114899377996 
627	 0.25157311839449 
628	 0.251960834061885 
629	 0.252408944624315 
630	 0.252844645249821 
631	 0.253186072585344 
632	 0.253543145300861 
633	 0.253903133578556 
634	 0.254270312312022 
635	 0.254659930799532 
636	 0.255017854062217 
637	 0.255370744432783 
638	 0.255736698243911 
639	 0.256079372913412 
640	 0.256404033785507 
641	 0.256746638886838 
642	 0.25714148821383 
643	 0.257489774275816 
644	 0.257836165414858 
645	 0.258215979376062 
646	 0.258633421616021 
647	 0.258957149698072 
648	 0.259239230629724 
649	 0.259579139377562 
650	 0.260019666158256 
651	 0.260444562038303 
652	 0.260829422985502 
653	 0.261232706402586 
654	 0.261603474486053 
655	 0.262007981469174 
656	 0.262476948670785 
657	 0.262897195564476 
658	 0.263357312836887 
659	 0.263817440646811 
660	 0.264200965737227 
661	 0.26464259364002 
662	 0.265144008626284 
663	 0.265677015836384 
664	 0.266194106571931 
665	 0.266616938955899 
666	 0.267058923402743 
667	 0.267622791377107 
668	 0.268108551016039 
669	 0.268640944266389 
670	 0.269236553279434 
671	 0.269815659838731 
672	 0.270389241832546 
673	 0.27097437510088 
674	 0.27156693329854 
675	 0.272091307490597 
676	 0.272734763185368 
677	 0.273388507922959 
678	 0.273878179262462 
679	 0.274566928837764 
680	 0.27525210581064 
681	 0.275877095566867 
682	 0.276638645495319 
683	 0.2772738265096 
684	 0.27788928062473 
685	 0.278631002158733 
686	 0.279427659454121 
687	 0.280188871165951 
688	 0.280902004336365 
689	 0.281613900156537 
690	 0.282334638114782 
691	 0.283088084131555 
692	 0.283871267184023 
693	 0.284626867246316 
694	 0.28539632154245 
695	 0.286188620712287 
696	 0.286996489400229 
697	 0.287787391457259 
698	 0.288614821249697 
699	 0.289460842775324 
700	 0.290231041087795 
701	 0.291010367984586 
702	 0.291837889860127 
703	 0.292721394300313 
704	 0.293633179466909 
705	 0.294440374518147 
706	 0.295203651668175 
707	 0.296062864848107 
708	 0.296876652948006 
709	 0.297668292092008 
710	 0.298459023372121 
711	 0.299243653188107 
712	 0.300077021962857 
713	 0.300945755153538 
714	 0.30179315806918 
715	 0.302474194011739 
716	 0.303160317816431 
717	 0.303915550127573 
718	 0.304709911397596 
719	 0.305485653481275 
720	 0.30623423285617 
721	 0.306941084912849 
722	 0.307555132290216 
723	 0.308228819376368 
724	 0.308868103186787 
725	 0.309350438784795 
726	 0.309863063658487 
727	 0.310399167037971 
728	 0.310959085422984 
729	 0.311549261812082 
730	 0.312034330075995 
731	 0.312436302967514 
732	 0.312815691435588 
733	 0.313255496544975 
734	 0.31361105901411 
735	 0.313896100123919 
736	 0.314178100648916 
737	 0.314398440681134 
738	 0.31463978580063 
739	 0.314869209609617 
740	 0.314925652818955 
741	 0.314961921569207 
742	 0.315021555466261 
743	 0.315094523254655 
744	 0.315090637562116 
745	 0.31512389649533 
746	 0.315106780471939 
747	 0.314903025051998 
748	 0.314755177227418 
749	 0.314593128545776 
750	 0.314371458825687 
751	 0.314109379601953 
752	 0.313859207573418 
753	 0.313563253757424 
754	 0.313195895528895 
755	 0.312909866254096 
756	 0.312560077682592 
757	 0.312132960975131 
758	 0.31168621460485 
759	 0.311244201188021 
760	 0.310784220422569 
761	 0.310303470275263 
762	 0.309829233755833 
763	 0.309238234762831 
764	 0.308644320594275 
765	 0.308133279512563 
766	 0.307527495049668 
767	 0.307017276680526 
768	 0.30648383391042 
769	 0.30572886801076 
770	 0.305183504955169 
771	 0.30465945782799 
772	 0.304006546173037 
773	 0.303197952807767 
774	 0.302531513418222 
775	 0.301927668049995 
776	 0.301269618457682 
777	 0.300595101132368 
778	 0.299914629068326 
779	 0.299252578331655 
780	 0.298616416444144 
781	 0.297880235574223 
782	 0.297169252520684 
783	 0.296527404901963 
784	 0.295891483128876 
785	 0.295187348743934 
786	 0.294482858142397 
787	 0.293824147066653 
788	 0.293128212194164 
789	 0.292469249331256 
790	 0.291840834406821 
791	 0.291200919071748 
792	 0.290498479963444 
793	 0.289814121903818 
794	 0.289164167555459 
795	 0.288508793388838 
796	 0.287912192757809 
797	 0.287317659855187 
798	 0.286695963407228 
799	 0.286101710419597 
800	 0.285494478962107 
801	 0.284877729633817 
802	 0.284265995193757 
803	 0.283665330864038 
804	 0.283031439078469 
805	 0.282396868704254 
806	 0.281835428983014 
807	 0.281317358871848 
808	 0.280812435527178 
809	 0.280296491422384 
810	 0.279754580096701 
811	 0.279203562872698 
812	 0.278658249384307 
813	 0.278133231529041 
814	 0.277648982717512 
815	 0.277160711426443 
816	 0.276668318818054 
817	 0.27619075929342 
818	 0.275731725831963 
819	 0.275308717491013 
820	 0.27485941377345 
821	 0.274286456619258 
822	 0.273909120101669 
823	 0.273533438014492 
824	 0.273050482063284 
825	 0.272618501693618 
826	 0.272281511762719 
827	 0.271978488284851 
828	 0.271620254711255 
829	 0.271132753420349 
830	 0.270680335957097 
831	 0.270331520822953 
832	 0.270070810070892 
833	 0.269740850237761 
834	 0.269402919243834 
835	 0.269083938611765 
836	 0.268761077213941 
837	 0.268395542377511 
838	 0.268073085619792 
839	 0.267852059642515 
840	 0.267712957611544 
841	 0.267497370050038 
842	 0.267156347749956 
843	 0.266757952699661 
844	 0.266606111510617 
845	 0.266454287526848 
846	 0.266247936622724 
847	 0.266029393193684 
848	 0.265818328975269 
849	 0.265601906347829 
850	 0.265408299004833 
851	 0.265284761451424 
852	 0.265083833085348 
853	 0.264882352419159 
854	 0.264739208919789 
855	 0.264637557729983 
856	 0.264578265240366 
857	 0.264484736862374 
858	 0.2643205393847 
859	 0.264180290925704 
860	 0.264148288956831 
861	 0.264139694269626 
862	 0.264043799666313 
863	 0.263946010360515 
864	 0.263859359185341 
865	 0.263791107210257 
866	 0.263738309791193 
867	 0.263660885644616 
868	 0.26360204725148 
869	 0.263609497472892 
870	 0.263706894391506 
871	 0.263657552795556 
872	 0.263586102417791 
873	 0.263614767432858 
874	 0.263754986812807 
875	 0.263819174982815 
876	 0.263837822097284 
877	 0.263887920000932 
878	 0.264005807035121 
879	 0.264155826207099 
880	 0.264234157842347 
881	 0.264187671419077 
882	 0.26424120026457 
883	 0.26439067565644 
884	 0.264585125806502 
885	 0.26475008979764 
886	 0.264846091122954 
887	 0.264989479025237 
888	 0.265169233925663 
889	 0.265276175135059 
890	 0.265458941115121 
891	 0.265651586662699 
892	 0.265838244809918 
893	 0.266092290415684 
894	 0.266310742651589 
895	 0.266476185358111 
896	 0.266639680975739 
897	 0.266936504889622 
898	 0.267166342853143 
899	 0.267432961495033 
900	 0.267821439734102 
901	 0.268159681088489 
902	 0.268411943640103 
903	 0.268667864518524 
904	 0.269003914097298 
905	 0.269247363454528 
906	 0.269564032929317 
907	 0.269930914111454 
908	 0.270271493384898 
909	 0.270760397030284 
910	 0.27120117609029 
911	 0.271577348654558 
912	 0.271991399420385 
913	 0.272380362755586 
914	 0.272757404079476 
915	 0.273117845487671 
916	 0.273453395560306 
917	 0.273887051275781 
918	 0.274496170902889 
919	 0.275148048483435 
920	 0.275523959001565 
921	 0.275948317201376 
922	 0.276420026220247 
923	 0.276938499087716 
924	 0.277574434133135 
925	 0.278048488997974 
926	 0.278523905570668 
927	 0.279121537517679 
928	 0.279700651327172 
929	 0.280290454868196 
930	 0.280887484114217 
931	 0.281497561950335 
932	 0.282159662801876 
933	 0.282874650590148 
934	 0.283545995763033 
935	 0.284135878698417 
936	 0.284857289844163 
937	 0.285478070614458 
938	 0.286143691454876 
939	 0.286990662589553 
940	 0.287677517367679 
941	 0.28842811791585 
942	 0.28925911281365 
943	 0.290090637705621 
944	 0.290839822072427 
945	 0.291453991343256 
946	 0.29209915822402 
947	 0.292960594742785 
948	 0.293858614043518 
949	 0.294736710794688 
950	 0.295594815154981 
951	 0.296463822308408 
952	 0.29733942628521 
953	 0.298231751866131 
954	 0.29914808801036 
955	 0.300085718512921 
956	 0.30100133611688 
957	 0.30197987984686 
958	 0.302964500198065 
959	 0.303836341453228 
960	 0.304666130104417 
961	 0.305530646994418 
962	 0.306521877867576 
963	 0.307682418015409 
964	 0.308800880738242 
965	 0.309819631859152 
966	 0.310809767997735 
967	 0.311888230089999 
968	 0.312906409317177 
969	 0.314029350913783 
970	 0.315187961962052 
971	 0.31617238041251 
972	 0.317028749735593 
973	 0.318061798733963 
974	 0.319247559412317 
975	 0.320371361187646 
976	 0.32161787644231 
977	 0.322865254965882 
978	 0.324064378155259 
979	 0.325225039342021 
980	 0.326292795228769 
981	 0.327442291123243 
982	 0.328709035019302 
983	 0.330009284205631 
984	 0.331226424595458 
985	 0.332357191867745 
986	 0.333497386855949 
987	 0.334757044559124 
988	 0.336073068527391 
989	 0.337275237467122 
990	 0.338394029375975 
991	 0.339570518080803 
992	 0.340899106497798 
993	 0.342057154661345 
994	 0.343157750042465 
995	 0.344404165735105 
996	 0.345451619245369 
997	 0.346622135546751 
998	 0.347951969028684 
999	 0.349317690346758 
1000	 0.35053017568066 
1001	 0.356084770808547 
1002	 0.357197047605601 
1003	 0.35837553279085 
1004	 0.359591566710447 
1005	 0.360886932049169 
1006	 0.362077911499233 
1007	 0.363282985444107 
1008	 0.364458922206967 
1009	 0.365474846516396 
1010	 0.366516640691742 
1011	 0.367625486646036 
1012	 0.368670787562073 
1013	 0.369808947114207 
1014	 0.371012526798301 
1015	 0.372163183215911 
1016	 0.373312976890799 
1017	 0.374402468679834 
1018	 0.375431227883791 
1019	 0.376395735388967 
1020	 0.377457294669131 
1021	 0.378489222937634 
1022	 0.379465152940424 
1023	 0.380481515620214 
1024	 0.381443606054955 
1025	 0.382455383038136 
1026	 0.383581289785984 
1027	 0.384706182171531 
1028	 0.385788439100252 
1029	 0.386808813531483 
1030	 0.387794327073768 
1031	 0.388799050176632 
1032	 0.38979650635944 
1033	 0.390793280088787 
1034	 0.391792617902494 
1035	 0.392795433564062 
1036	 0.393743235538953 
1037	 0.394709599405456 
1038	 0.395734792058107 
1039	 0.39676462877978 
1040	 0.397774106595366 
1041	 0.398769634767592 
1042	 0.399771486088334 
1043	 0.400776028842581 
1044	 0.401778802769602 
1045	 0.402800830143739 
1046	 0.403817640898681 
1047	 0.404828798319853 
1048	 0.405819905948987 
1049	 0.406782557909914 
1050	 0.407777012679158 
1051	 0.40871077844803 
1052	 0.409585856967696 
1053	 0.410533956370578 
1054	 0.411475201729907 
1055	 0.41236889611936 
1056	 0.41330505240189 
1057	 0.414181889436013 
1058	 0.414956490452852 
1059	 0.415783845935673 
1060	 0.416629123172688 
1061	 0.417442480820633 
1062	 0.418268669867531 
1063	 0.419099233460068 
1064	 0.41991160741717 
1065	 0.420682212630147 
1066	 0.421414635460252 
1067	 0.422152950755067 
1068	 0.422850868563808 
1069	 0.423568582936219 
1070	 0.424280840451318 
1071	 0.425006497131208 
1072	 0.425682448240528 
1073	 0.426315929579821 
1074	 0.426966985609742 
1075	 0.427593504275498 
1076	 0.428226901135844 
1077	 0.428868952522072 
1078	 0.429524035011548 
1079	 0.430186278980377 
1080	 0.430849229378609 
1081	 0.431535472875309 
1082	 0.43219748775352 
1083	 0.432851940960637 
1084	 0.433485463677909 
1085	 0.434131110933769 
1086	 0.434758485712557 
1087	 0.435420805855929 
1088	 0.436109706635979 
1089	 0.436761286567915 
1090	 0.437429281592141 
1091	 0.438154686960476 
1092	 0.438823212688918 
1093	 0.439508817875134 
1094	 0.440237000641574 
1095	 0.440891735183726 
1096	 0.441601280018749 
1097	 0.442372314101232 
1098	 0.443126037065404 
1099	 0.443874832499484 
1100	 0.444671004359461 
1101	 0.445490088543653 
1102	 0.446309146049162 
1103	 0.447149917968206 
1104	 0.448018341193573 
1105	 0.448872704120796 
1106	 0.449737197201713 
1107	 0.450593141700174 
1108	 0.451482435152573 
1109	 0.452391298803392 
1110	 0.453284534591038 
1111	 0.454230435346309 
1112	 0.455223757521015 
1113	 0.456211626729234 
1114	 0.457219115726706 
1115	 0.458245287655956 
1116	 0.459311731420424 
1117	 0.460338152245631 
1118	 0.461359524392305 
1119	 0.46237212511703 
1120	 0.463401309601885 
1121	 0.464428987977613 
1122	 0.465456840793235 
1123	 0.466510290204898 
1124	 0.467562316585773 
1125	 0.468582495221604 
1126	 0.46965974803719 
1127	 0.470805003472885 
1128	 0.47188235084507 
1129	 0.472960209802216 
1130	 0.474012323042292 
1131	 0.4749839154499 
1132	 0.476033955610701 
1133	 0.477148362847671 
1134	 0.478204317990026 
1135	 0.479246872347256 
1136	 0.480311395689134 
1137	 0.481368470746666 
1138	 0.482379071244224 
1139	 0.483432834750118 
1140	 0.484555233430906 
1141	 0.485601120117933 
1142	 0.486606495084173 
1143	 0.487632332662237 
1144	 0.488653108665319 
1145	 0.489641151549214 
1146	 0.4906279039998 
1147	 0.491598109471812 
1148	 0.492534174606749 
1149	 0.493470952856201 
1150	 0.494404176341887 
1151	 0.495333446697623 
1152	 0.496227062916301 
1153	 0.497117034964196 
1154	 0.498033806231161 
1155	 0.498975472842981 
1156	 0.499862992400609 
1157	 0.50074905416787 
1158	 0.501623230311748 
1159	 0.502450511510077 
1160	 0.503300088712902 
1161	 0.504198340689983 
1162	 0.505029780695156 
1163	 0.505824412657075 
1164	 0.50661172866404 
1165	 0.507383053803239 
1166	 0.50811358396038 
1167	 0.508827410382111 
1168	 0.509560458633083 
1169	 0.510280581291135 
1170	 0.510979837176973 
1171	 0.511689449252884 
1172	 0.512410042677533 
1173	 0.513117785323478 
1174	 0.513824369347924 
1175	 0.514515254484817 
1176	 0.515204660079761 
1177	 0.515880438298365 
1178	 0.516533775224604 
1179	 0.517188868083964 
1180	 0.517843932275734 
1181	 0.518487914017666 
1182	 0.519117998879736 
1183	 0.519767638646179 
1184	 0.520372625960662 
1185	 0.52096355519367 
1186	 0.521536431329838 
1187	 0.522071296287612 
1188	 0.522625085502629 
1189	 0.52318730384236 
1190	 0.523717919577786 
1191	 0.524220396900495 
1192	 0.524751536691804 
1193	 0.525292194107369 
1194	 0.525806179292349 
1195	 0.526321446935873 
1196	 0.526838122019853 
1197	 0.527319556828375 
1198	 0.527816002039886 
1199	 0.52832223041277 
1200	 0.528865922568256 
1201	 0.529356971471083 
1202	 0.529833783561085 
1203	 0.530295152353915 
1204	 0.530738281905798 
1205	 0.531165957890611 
1206	 0.531567970938832 
1207	 0.531981774843145 
1208	 0.532380022283831 
1209	 0.532787379931645 
1210	 0.533202814243145 
1211	 0.533618294388278 
1212	 0.534031339464217 
1213	 0.534447645332762 
1214	 0.534886821124256 
1215	 0.535299863729111 
1216	 0.535701392740538 
1217	 0.536093185802964 
1218	 0.53648260087407 
1219	 0.536864141161936 
1220	 0.537225054738756 
1221	 0.537572093351372 
1222	 0.537926770761475 
1223	 0.538249539218317 
1224	 0.538607733628713 
1225	 0.539015349778801 
1226	 0.539373785974262 
1227	 0.539716452810968 
1228	 0.540060843103339 
1229	 0.54037371665343 
1230	 0.540702312944266 
1231	 0.541046457226005 
1232	 0.541386760632819 
1233	 0.541726619283487 
1234	 0.5420642008455 
1235	 0.542403682998013 
1236	 0.542757952534582 
1237	 0.543075292449159 
1238	 0.543388510636461 
1239	 0.543674235768761 
1240	 0.543918695559768 
1241	 0.544180827889734 
1242	 0.544435098511984 
1243	 0.544687594646928 
1244	 0.544934967876258 
1245	 0.545190804081757 
1246	 0.545447352183136 
1247	 0.545702990852996 
1248	 0.545971476345222 
1249	 0.546231349715963 
1250	 0.546479607527999 
1251	 0.546720880265167 
1252	 0.546951474560093 
1253	 0.547163524468497 
1254	 0.54739382066411 
1255	 0.547629486876732 
1256	 0.547851120199761 
1257	 0.548083255568154 
1258	 0.548293527951371 
1259	 0.548460693978203 
1260	 0.548669123978535 
1261	 0.548901806425916 
1262	 0.549112167623341 
1263	 0.549336847867568 
1264	 0.549550042419139 
1265	 0.549719865225986 
1266	 0.549926067977967 
1267	 0.550162165758155 
1268	 0.550377661276965 
1269	 0.550621192159814 
1270	 0.550888620721579 
1271	 0.551145965070835 
1272	 0.551408052397925 
1273	 0.551679614515627 
1274	 0.551945327719963 
1275	 0.55223549679891 
1276	 0.55255880617074 
1277	 0.552853172850204 
1278	 0.553153954412902 
1279	 0.553444519839638 
1280	 0.553723462027246 
1281	 0.553988535356294 
1282	 0.554255177821509 
1283	 0.554499145938289 
1284	 0.554734741388125 
1285	 0.554935373466563 
1286	 0.555104078292218 
1287	 0.555246460680538 
1288	 0.555360824691802 
1289	 0.555435298384788 
1290	 0.555495597801669 
1291	 0.555539723549289 
1292	 0.555548121442356 
1293	 0.555519105732706 
1294	 0.555478033562831 
1295	 0.555422057158204 
1296	 0.55532806309643 
1297	 0.555203504260016 
1298	 0.55505915815881 
1299	 0.554888070686386 
1300	 0.554686618406495 
1301	 0.554447413105933 
1302	 0.554209845001165 
1303	 0.553944714431951 
1304	 0.553669455326109 
1305	 0.553402568201903 
1306	 0.55313816275928 
1307	 0.552894011867546 
1308	 0.552659166119797 
1309	 0.552443925282994 
1310	 0.5522649943747 
1311	 0.552070929493999 
1312	 0.551870401179741 
1313	 0.551694562814688 
1314	 0.551515114926174 
1315	 0.55138041867858 
1316	 0.551277216685898 
1317	 0.551188370868845 
1318	 0.551116814610964 
1319	 0.551077359892663 
1320	 0.551057170894332 
1321	 0.551065069376034 
1322	 0.55110474435846 
1323	 0.55117654863485 
1324	 0.551243720475777 
1325	 0.551336978957079 
1326	 0.551479200277817 
1327	 0.551619277050618 
1328	 0.551781957380113 
1329	 0.551998127240111 
1330	 0.552243976451366 
1331	 0.552523087776125 
1332	 0.552809217224795 
1333	 0.553155832171192 
1334	 0.553452844349219 
1335	 0.553709763493013 
1336	 0.554020052277002 
1337	 0.554338949589899 
1338	 0.554668577692576 
1339	 0.555044254694484 
1340	 0.555396115167311 
1341	 0.555720687510426 
1342	 0.556086402184055 
1343	 0.556472177447518 
1344	 0.556852012333402 
1345	 0.557284234931141 
1346	 0.557689328727033 
1347	 0.558087254034691 
1348	 0.558505493282259 
1349	 0.558890075171034 
1350	 0.559301779456652 
1351	 0.559715352537532 
1352	 0.560136981993968 
1353	 0.56054377067773 
1354	 0.560968746815197 
1355	 0.561353010343586 
1356	 0.561721377682734 
1357	 0.562070759556255 
1358	 0.562372724287235 
1359	 0.562716052195522 
1360	 0.563065907481356 
1361	 0.563405534344333 
1362	 0.563763996306378 
1363	 0.564111887395848 
1364	 0.564444593292859 
1365	 0.564771459524325 
1366	 0.565099007029951 
1367	 0.565425387030231 
1368	 0.565720296338377 
1369	 0.566026208120139 
1370	 0.566360444439849 
1371	 0.566679445261009 
1372	 0.566972704896247 
1373	 0.567244919138728 
1374	 0.567511867973332 
1375	 0.567750445928867 
1376	 0.567985563139708 
1377	 0.568240549493687 
1378	 0.568446866152896 
1379	 0.56861562828705 
1380	 0.568772003248302 
1381	 0.568897614506328 
1382	 0.569020814999791 
1383	 0.569140553501075 
1384	 0.569231425134691 
1385	 0.569324424031748 
1386	 0.569367430453193 
1387	 0.569349878488943 
1388	 0.569341855221221 
1389	 0.569316884615929 
1390	 0.569276395011807 
1391	 0.569217423407815 
1392	 0.56914849922812 
1393	 0.569049629932185 
1394	 0.568924712588884 
1395	 0.568801528497453 
1396	 0.568673860168132 
1397	 0.568533139716506 
1398	 0.568367992866388 
1399	 0.568223284703356 
1400	 0.568087220258763 
1401	 0.567929875897028 
1402	 0.567772304880415 
1403	 0.567613629554937 
1404	 0.567429086238342 
1405	 0.567268444923522 
1406	 0.567130368345987 
1407	 0.566970196534686 
1408	 0.566794248543656 
1409	 0.566641362314415 
1410	 0.566456624487693 
1411	 0.566340910413473 
1412	 0.566251345952103 
1413	 0.566216185760201 
1414	 0.566238913921554 
1415	 0.566282080798512 
1416	 0.566361338597901 
1417	 0.56644137196366 
1418	 0.566510926111947 
1419	 0.566600508388292 
1420	 0.56667293499863 
1421	 0.566727405859507 
1422	 0.566783755068491 
1423	 0.566809998418165 
1424	 0.56682534498127 
1425	 0.566817844371016 
1426	 0.566828002245642 
1427	 0.566828292080761 
1428	 0.566833838845677 
1429	 0.566859948895012 
1430	 0.566855486924887 
1431	 0.566839432637981 
1432	 0.566811730598735 
1433	 0.566761513975878 
1434	 0.566717977739752 
1435	 0.566658599897993 
1436	 0.566613838668592 
1437	 0.56658049869721 
1438	 0.566542363130457 
1439	 0.56651598513805 
1440	 0.566473367945056 
1441	 0.566408136940851 
1442	 0.566354250615347 
1443	 0.566280661683957 
1444	 0.566215465698167 
1445	 0.566186755301831 
1446	 0.566137538293 
1447	 0.566090123761403 
1448	 0.566040335420124 
1449	 0.565947753878641 
1450	 0.565849523179135 
1451	 0.565756125852222 
1452	 0.565653449137693 
1453	 0.565556948583392 
1454	 0.565473248649999 
1455	 0.565363433216311 
1456	 0.565230142243889 
1457	 0.565118266952916 
1458	 0.56500194070489 
1459	 0.564898208048497 
1460	 0.564813604487319 
1461	 0.564726112824306 
1462	 0.564619551719321 
1463	 0.564545480268768 
1464	 0.564497816278978 
1465	 0.564446978200369 
1466	 0.564411111114046 
1467	 0.564384311348294 
1468	 0.564362850500587 
1469	 0.564338240972727 
1470	 0.564307988507223 
1471	 0.564310174460306 
1472	 0.564312393580488 
1473	 0.564333956019776 
1474	 0.564409590545891 
1475	 0.564477828773628 
1476	 0.564553993290161 
1477	 0.564671029644485 
1478	 0.564795052697793 
1479	 0.564929673768779 
1480	 0.565102002137363 
1481	 0.565266831925071 
1482	 0.565421433617157 
1483	 0.565581292046439 
1484	 0.565737010956935 
1485	 0.565874369838309 
1486	 0.56602926694215 
1487	 0.566199511180157 
1488	 0.566356606634019 
1489	 0.566502784444343 
1490	 0.566664557693526 
1491	 0.566839679916754 
1492	 0.566995900758306 
1493	 0.567170138314636 
1494	 0.567308453226241 
1495	 0.56741560744563 
1496	 0.56751265018313 
1497	 0.567587094156974 
1498	 0.567666042650645 
1499	 0.56771931993844 
1500	 0.567798920497666 
1501	 0.567893110887847 
1502	 0.567978876704274 
1503	 0.568069068235538 
1504	 0.568171330287343 
1505	 0.568262421730081 
1506	 0.56833172302171 
1507	 0.568404118694989 
1508	 0.568478934306315 
1509	 0.568505760082448 
1510	 0.568550418578439 
1511	 0.568633545208082 
1512	 0.568707718281483 
1513	 0.568850433270253 
1514	 0.569018977892477 
1515	 0.569128002557622 
1516	 0.569240646522509 
1517	 0.569331393487237 
1518	 0.569388382917631 
1519	 0.569449458205975 
1520	 0.569508228346519 
1521	 0.569556796412421 
1522	 0.569582409831009 
1523	 0.569631127157383 
1524	 0.569674521824364 
1525	 0.569743959829469 
1526	 0.56984456061818 
1527	 0.569920398962401 
1528	 0.570010697714147 
1529	 0.570074022038738 
1530	 0.570107598524893 
1531	 0.570153857468751 
1532	 0.57019781162616 
1533	 0.570238576284054 
1534	 0.570270443706972 
1535	 0.570313330148851 
1536	 0.570359647369943 
1537	 0.570406244075074 
1538	 0.570460707996889 
1539	 0.570518296483941 
1540	 0.570557962324334 
1541	 0.570625733035583 
1542	 0.570731520822316 
1543	 0.570810425228922 
1544	 0.570904989835727 
1545	 0.570976184821558 
1546	 0.571013914334573 
1547	 0.571047857566976 
1548	 0.571105228861387 
1549	 0.571187473459648 
1550	 0.571300602327839 
1551	 0.571421831581361 
1552	 0.571535518392814 
1553	 0.571625226133282 
1554	 0.571710600824963 
1555	 0.571777044654191 
1556	 0.571817590082272 
1557	 0.571861410024191 
1558	 0.571885932320631 
1559	 0.571919177954128 
1560	 0.571978994124691 
1561	 0.57206641622448 
1562	 0.572137720071442 
1563	 0.572220719631828 
1564	 0.572286754548878 
1565	 0.572332016846416 
1566	 0.572404380170344 
1567	 0.572491064106666 
1568	 0.57256954432926 
1569	 0.572663014859288 
1570	 0.572733300134558 
1571	 0.572776328009953 
1572	 0.572848891331251 
1573	 0.572931825769205 
1574	 0.573003892417929 
1575	 0.573078949607869 
1576	 0.573163236374773 
1577	 0.573256266328469 
1578	 0.57332465447626 
1579	 0.573405656730763 
1580	 0.573455775977588 
1581	 0.573460115499087 
1582	 0.573483308143144 
1583	 0.573495188564075 
1584	 0.573524259800585 
1585	 0.573550023452134 
1586	 0.57360167644337 
1587	 0.573679992554734 
1588	 0.57375492633347 
1589	 0.573862125594142 
1590	 0.573931931303591 
1591	 0.573989490798764 
1592	 0.574040350206856 
1593	 0.574049153700512 
1594	 0.574092506665491 
1595	 0.574148955614525 
1596	 0.57420392745854 
1597	 0.574278429338859 
1598	 0.574346180461055 
1599	 0.574403261292825 
1600	 0.574472594457472 
1601	 0.574552255743188 
1602	 0.574628616143691 
1603	 0.574718230707726 
1604	 0.574793680153182 
1605	 0.574867184612749 
1606	 0.574928504729292 
1607	 0.574984148691218 
1608	 0.575016168105739 
1609	 0.575049552664274 
1610	 0.575058832938479 
1611	 0.575093772615024 
1612	 0.575137727362784 
1613	 0.575187217195569 
1614	 0.575280559615171 
1615	 0.575366658659361 
1616	 0.575445196715065 
1617	 0.575527363593967 
1618	 0.575587568527645 
1619	 0.575658754161044 
1620	 0.575733679062581 
1621	 0.575814817571102 
1622	 0.575916078172471 
1623	 0.575984122093709 
1624	 0.576045129287466 
1625	 0.576088951966081 
1626	 0.576107138182373 
1627	 0.576136281116882 
1628	 0.576153387650606 
1629	 0.576195433918952 
1630	 0.576249191558895 
1631	 0.576296169128985 
1632	 0.576350726826612 
1633	 0.576406778716309 
1634	 0.576463110215144 
1635	 0.576511049720716 
1636	 0.576560137813797 
1637	 0.576615970756101 
1638	 0.57665540317849 
1639	 0.576724433448873 
1640	 0.576826635986974 
1641	 0.576899939301836 
1642	 0.576967117848576 
1643	 0.577043211537977 
1644	 0.577106337542583 
1645	 0.577191351675864 
1646	 0.577307332719167 
1647	 0.577387310851633 
1648	 0.577455895403516 
1649	 0.577528044958397 
1650	 0.577589823274212 
1651	 0.577644301542963 
1652	 0.577690928107774 
1653	 0.577756992824706 
1654	 0.577814830749007 
1655	 0.577886886958835 
1656	 0.577990858719974 
1657	 0.578071819458013 
1658	 0.578133087355328 
1659	 0.57821798945167 
1660	 0.578326387938832 
1661	 0.57839959505605 
1662	 0.57847686398626 
1663	 0.578525283667228 
1664	 0.578525855088717 
1665	 0.578557078063802 
1666	 0.578587330009779 
1667	 0.578625471264776 
1668	 0.578671183349019 
1669	 0.578723804759237 
1670	 0.578769330016861 
1671	 0.578848111477868 
1672	 0.578958434374732 
1673	 0.579053131659227 
1674	 0.579176456648202 
1675	 0.579261756861376 
1676	 0.57932937749629 
1677	 0.579379259035361 
1678	 0.579386506784317 
1679	 0.579436597471532 
1680	 0.579502208692613 
1681	 0.579544038774479 
1682	 0.579585907962676 
1683	 0.579646555859001 
1684	 0.579673492774126 
1685	 0.579757124528968 
1686	 0.579907990081547 
1687	 0.58002601349398 
1688	 0.580156570675246 
1689	 0.580267014232996 
1690	 0.580356870237489 
1691	 0.580460609222079 
1692	 0.580563004970695 
1693	 0.580662760961661 
1694	 0.580788813786035 
1695	 0.58086635045752 
1696	 0.580902927923686 
1697	 0.580964580943737 
1698	 0.581007369210407 
1699	 0.581061638517559 
1700	 0.581144099470144 
1701	 0.581202065969971 
1702	 0.581241044615331 
1703	 0.581288153602277 
1704	 0.581338161314974 
1705	 0.581377081770241 
1706	 0.581402721348417 
1707	 0.581444576038238 
1708	 0.581487287829349 
1709	 0.581527687550152 
1710	 0.581556135648823 
1711	 0.581636033837127 
1712	 0.581739412927807 
1713	 0.581843733133333 
1714	 0.581999539016197 
1715	 0.58211759520779 
1716	 0.582210784130583 
1717	 0.58230760581446 
1718	 0.582409453445307 
1719	 0.582493981447502 
1720	 0.582568263997652 
1721	 0.582629760535267 
1722	 0.582683998672596 
1723	 0.582721487165318 
1724	 0.582742406115865 
1725	 0.582751644722847 
1726	 0.582741549749639 
1727	 0.582736343777849 
1728	 0.582733968979577 
1729	 0.582691955936703 
1730	 0.582627616767385 
1731	 0.582568036316926 
1732	 0.58247221539157 
1733	 0.582412477900344 
1734	 0.582370874805888 
1735	 0.582332136283186 
1736	 0.58229313821249 
1737	 0.582285166702168 
1738	 0.582297594987212 
1739	 0.582324081824091 
1740	 0.582382612410989 
1741	 0.582404571473728 
1742	 0.582429842466273 
1743	 0.582441104801793 
1744	 0.582429266745894 
1745	 0.582428208447344 
1746	 0.582425431299124 
1747	 0.582412072474848 
1748	 0.582420246435475 
1749	 0.582458049798983 
1750	 0.58248770662075 
1751	 0.582528267421044 
1752	 0.582562045068992 
1753	 0.582572787682194 
1754	 0.582597291904581 
1755	 0.582606573255511 
1756	 0.582652055951005 
1757	 0.582722065616213 
1758	 0.582759937506341 
1759	 0.5828417486676 
1760	 0.582896642875701 
1761	 0.582912315210567 
1762	 0.582969120653216 
1763	 0.583004321086615 
1764	 0.58300147649596 
1765	 0.583016892052121 
1766	 0.583023770078255 
1767	 0.582987050495827 
1768	 0.583004023923681 
1769	 0.583067424977303 
1770	 0.583103403362716 
1771	 0.583172829966775 
1772	 0.58324372078263 
1773	 0.583234703331551 
1774	 0.583254958034146 
1775	 0.583291360841618 
1776	 0.583285939257861 
1777	 0.58335842564868 
1778	 0.583409623569796 
1779	 0.583406181668289 
1780	 0.583449813698725 
1781	 0.583462874455123 
1782	 0.583492977903113 
1783	 0.583579934085157 
1784	 0.58363548332333 
1785	 0.58367704474963 
1786	 0.583710392817945 
1787	 0.583711034159413 
1788	 0.583768665409578 
1789	 0.583852030656911 
1790	 0.583940998962388 
1791	 0.584101258425438 
1792	 0.584182463736073 
1793	 0.584210602016305 
1794	 0.584267126153298 
1795	 0.584323939332356 
1796	 0.58433595025067 
1797	 0.584319816965543 
1798	 0.58432538506732 
1799	 0.5842848752692 
1800	 0.58428529927522 
1801	 0.578692137902754 
1802	 0.578776178527973 
1803	 0.578860598304594 
1804	 0.57895398147514 
1805	 0.579001473544043 
1806	 0.579062913723556 
1807	 0.579121719605876 
1808	 0.579178916352362 
1809	 0.57927580680497 
1810	 0.579322590553965 
1811	 0.579346728504436 
1812	 0.579346941618782 
1813	 0.579330269205791 
1814	 0.579273191432379 
1815	 0.579250037423824 
1816	 0.579278386508084 
1817	 0.579283753847806 
1818	 0.579313907997843 
1819	 0.57931258513295 
1820	 0.579317111404267 
1821	 0.57926617388136 
1822	 0.579167265496893 
1823	 0.579064859485323 
1824	 0.57893207132838 
1825	 0.578775111820819 
1826	 0.5786134236114 
1827	 0.57845756475542 
1828	 0.578302132887804 
1829	 0.578132099239545 
1830	 0.577963628759402 
1831	 0.577795997216433 
1832	 0.577648378137945 
1833	 0.577481639629903 
1834	 0.577291008135365 
1835	 0.577135054745588 
1836	 0.576993333548257 
1837	 0.576841751262607 
1838	 0.576697586076928 
1839	 0.576565157859167 
1840	 0.576441421438453 
1841	 0.576306987861685 
1842	 0.576177296215938 
1843	 0.576087418427737 
1844	 0.576003082614498 
1845	 0.575910677529345 
1846	 0.575850026414611 
1847	 0.575817692626986 
1848	 0.575790698437171 
1849	 0.575778747457915 
1850	 0.575788767797256 
1851	 0.5758263428815 
1852	 0.575856210161585 
1853	 0.575891319037341 
1854	 0.575970382644741 
1855	 0.576057608408267 
1856	 0.57615608484339 
1857	 0.576307778820937 
1858	 0.576444671162525 
1859	 0.576544724579765 
1860	 0.576641046407129 
1861	 0.576735434919081 
1862	 0.576799999300428 
1863	 0.576836016616852 
1864	 0.576852866983697 
1865	 0.576867227151215 
1866	 0.576846690689058 
1867	 0.576831150987243 
1868	 0.576885572473177 
1869	 0.576956845048281 
1870	 0.577044819460257 
1871	 0.577115545633996 
1872	 0.577207120234967 
1873	 0.577252888612679 
1874	 0.577267632028553 
1875	 0.577280680673615 
1876	 0.577255415496556 
1877	 0.577206583647462 
1878	 0.577142842641013 
1879	 0.577002668721166 
1880	 0.576847092362709 
1881	 0.576661091291063 
1882	 0.576458960690763 
1883	 0.576220009634048 
1884	 0.575986734078727 
1885	 0.57572979755363 
1886	 0.575418220179161 
1887	 0.575089350390808 
1888	 0.574709635213257 
1889	 0.574297315633775 
1890	 0.573884394729745 
1891	 0.573471896141093 
1892	 0.573045083357485 
1893	 0.572622474353474 
1894	 0.57220405364886 
1895	 0.571777854030981 
1896	 0.571336404472421 
1897	 0.570896013279576 
1898	 0.570471304145292 
1899	 0.570048805897504 
1900	 0.569660362521004 
1901	 0.569337454476406 
1902	 0.56902195911284 
1903	 0.568752891814869 
1904	 0.568474345440359 
1905	 0.568222953473891 
1906	 0.567943410524177 
1907	 0.567657953124331 
1908	 0.567403126642355 
1909	 0.567155607665526 
1910	 0.566903870656668 
1911	 0.566676547175533 
1912	 0.566484402514796 
1913	 0.566278640959552 
1914	 0.566076497400671 
1915	 0.565879686450978 
1916	 0.56570034102057 
1917	 0.565485828766451 
1918	 0.56527087728401 
1919	 0.565058912718073 
1920	 0.564826376980619 
1921	 0.564616196467835 
1922	 0.564413543994547 
1923	 0.564225915421734 
1924	 0.564039782392405 
1925	 0.563850326472835 
1926	 0.563687153265848 
1927	 0.563547184250999 
1928	 0.563383508425066 
1929	 0.563249874834433 
1930	 0.56315571652231 
1931	 0.563068510053921 
1932	 0.562998789524426 
1933	 0.562966722256521 
1934	 0.562913221558247 
1935	 0.562885600162991 
1936	 0.562864177068093 
1937	 0.562881122390508 
1938	 0.562932312117476 
1939	 0.562978582604874 
1940	 0.563051434615635 
1941	 0.563105880512933 
1942	 0.563156566407163 
1943	 0.563236918763556 
1944	 0.563332814981642 
1945	 0.56342199153365 
1946	 0.563512137713802 
1947	 0.563613558450722 
1948	 0.56371182609622 
1949	 0.563812521547159 
1950	 0.563900209962955 
1951	 0.563998205522082 
1952	 0.564052414021764 
1953	 0.56412784890295 
1954	 0.564206238760399 
1955	 0.564266033918844 
1956	 0.5643423647685 
1957	 0.564406575181547 
1958	 0.564420628798683 
1959	 0.564509622123043 
1960	 0.564642012230728 
1961	 0.564760915164292 
1962	 0.564920355834525 
1963	 0.565067598508122 
1964	 0.565207456045259 
1965	 0.56533905329642 
1966	 0.565496719967268 
1967	 0.565617000211833 
1968	 0.565745113998787 
1969	 0.565850993019995 
1970	 0.565994955704309 
1971	 0.566163557011722 
1972	 0.566310732655092 
1973	 0.566458868753567 
1974	 0.566614911054779 
1975	 0.566752200869009 
1976	 0.566914497146836 
1977	 0.567098643583389 
1978	 0.567294371140901 
1979	 0.56746852396659 
1980	 0.567638832450959 
1981	 0.56784730266165 
1982	 0.568067056719958 
1983	 0.568299937843417 
1984	 0.568594281825031 
1985	 0.568842319128928 
1986	 0.569082437690516 
1987	 0.56930470956331 
1988	 0.569524112934749 
1989	 0.569693132324202 
1990	 0.569862845835026 
1991	 0.570032962220796 
1992	 0.570200914338182 
1993	 0.570358943285637 
1994	 0.570530913513858 
1995	 0.570690806169703 
1996	 0.570882796540685 
1997	 0.571085091206028 
1998	 0.571311027134875 
1999	 0.571577146488382 
2000	 0.571832436353469 
2001	 0.572120396266742 
2002	 0.572375855226982 
2003	 0.572608249503135 
2004	 0.572836099366883 
2005	 0.573033663391792 
2006	 0.573183957629924 
2007	 0.573365489276598 
2008	 0.573517150930841 
2009	 0.573721363307101 
2010	 0.573962009305383 
2011	 0.574200020919397 
2012	 0.574463838391938 
2013	 0.574728449714838 
2014	 0.575005133746012 
2015	 0.575267924619708 
2016	 0.57555017474178 
2017	 0.575821852277903 
2018	 0.576072945200102 
2019	 0.576291793271843 
2020	 0.576542959984239 
2021	 0.576788066051447 
2022	 0.577046901795083 
2023	 0.577346814523194 
2024	 0.577611666903487 
2025	 0.577842438426862 
2026	 0.578101992226072 
2027	 0.578384468034824 
2028	 0.578626496169289 
2029	 0.578883199550593 
2030	 0.579170635258835 
2031	 0.57941330446415 
2032	 0.579615480630098 
2033	 0.579849404367585 
2034	 0.580081224397329 
2035	 0.580313736310733 
2036	 0.580568543780608 
2037	 0.580797880093106 
2038	 0.581036637848249 
2039	 0.581233361021227 
2040	 0.581401766707554 
2041	 0.581543180035916 
2042	 0.581694881716567 
2043	 0.581841676657391 
2044	 0.581992948912209 
2045	 0.582160168958753 
2046	 0.58232506620431 
2047	 0.582478981486689 
2048	 0.582638226382807 
2049	 0.582814800931586 
2050	 0.582980938956369 
2051	 0.583138376080027 
2052	 0.583296327869736 
2053	 0.583460158406259 
2054	 0.583612797695349 
2055	 0.583764962185913 
2056	 0.583902811617311 
2057	 0.584025615905012 
2058	 0.584122265959941 
2059	 0.584254224300471 
2060	 0.584379844833623 
2061	 0.584521436771255 
2062	 0.584714137982152 
2063	 0.584852747894735 
2064	 0.584957020053882 
2065	 0.585081146360107 
2066	 0.585192838213538 
2067	 0.585304828498202 
2068	 0.585431841790005 
2069	 0.585551841776254 
2070	 0.58566136154775 
2071	 0.585749941316003 
2072	 0.585868426336459 
2073	 0.586000083642629 
2074	 0.586118302176018 
2075	 0.586245657197741 
2076	 0.586361122940708 
2077	 0.586460394878137 
2078	 0.586565950572624 
2079	 0.586670074538461 
2080	 0.586777983519329 
2081	 0.58688672434629 
2082	 0.586997005783423 
2083	 0.587098799170399 
2084	 0.587230477926232 
2085	 0.587342334761175 
2086	 0.587444642014116 
2087	 0.58756075660135 
2088	 0.587687239353867 
2089	 0.587796272392855 
2090	 0.587898515357546 
2091	 0.588012908215075 
2092	 0.588121189632223 
2093	 0.588231750830339 
2094	 0.588375541808747 
2095	 0.588482411216974 
2096	 0.588529929357778 
2097	 0.588632362757929 
2098	 0.588758628367947 
2099	 0.588866104632973 
2100	 0.589003380569102 
2101	 0.589183301435374 
2102	 0.589348267230455 
2103	 0.589507048753497 
2104	 0.589675926236155 
2105	 0.589854027723791 
2106	 0.590043634863678 
2107	 0.590232311246924 
2108	 0.590442128869105 
2109	 0.590679371606241 
2110	 0.590913376478339 
2111	 0.591152956699678 
2112	 0.591397625213935 
2113	 0.591644164159183 
2114	 0.591913189151782 
2115	 0.592156463944739 
2116	 0.592400616425318 
2117	 0.59263607321615 
2118	 0.59285310560283 
2119	 0.593079237006225 
2120	 0.593310388598388 
2121	 0.593534194445376 
2122	 0.593767260378001 
2123	 0.593972290820405 
2124	 0.594165895391432 
2125	 0.594345982591978 
2126	 0.594501621551989 
2127	 0.594652101594001 
2128	 0.594798231450959 
2129	 0.594928911748609 
2130	 0.595049450882159 
2131	 0.595158657875333 
2132	 0.595232498611536 
2133	 0.595285113951354 
2134	 0.59531918065771 
2135	 0.595341572655749 
2136	 0.595303169862674 
2137	 0.595246520257915 
2138	 0.595129108220139 
2139	 0.59489783370337 
2140	 0.594731543481331 
2141	 0.594565030654977 
2142	 0.594383620878621 
2143	 0.594250984201513 
2144	 0.594049173633204 
2145	 0.593773768573057 
2146	 0.593515381220067 
2147	 0.59323050512596 
2148	 0.592947235302853 
2149	 0.59265379863502 
2150	 0.592383595689519 
2151	 0.592046906709848 
2152	 0.59168733562213 
2153	 0.591277113823734 
2154	 0.590797349209523 
2155	 0.590345841213871 
2156	 0.589873565959403 
2157	 0.58938943999744 
2158	 0.588916681653585 
2159	 0.588410091826218 
2160	 0.587863539080717 
2161	 0.587319547389707 
2162	 0.586757491468497 
2163	 0.586200001299691 
2164	 0.585654428191099 
2165	 0.585074054095973 
2166	 0.584490212667181 
2167	 0.58390462478554 
2168	 0.583297654332571 
2169	 0.582655113171555 
2170	 0.582040052506161 
2171	 0.581422319294179 
2172	 0.580814298626502 
2173	 0.580224631071695 
2174	 0.579621826681406 
2175	 0.579006691948291 
2176	 0.578407794730589 
2177	 0.577827240785077 
2178	 0.577219445966604 
2179	 0.576599622984687 
2180	 0.575992090056818 
2181	 0.575371075393685 
2182	 0.57475247516042 
2183	 0.574151411430594 
2184	 0.573546221539872 
2185	 0.572929484459994 
2186	 0.572285424549465 
2187	 0.571678043690614 
2188	 0.571061915589215 
2189	 0.570500685130291 
2190	 0.569978589497949 
2191	 0.569457627972636 
2192	 0.568946830114562 
2193	 0.568486202059055 
2194	 0.568047191857804 
2195	 0.567641053843848 
2196	 0.567312372324195 
2197	 0.566958098084511 
2198	 0.566621262699731 
2199	 0.566265196066371 
2200	 0.56586698612447 
2201	 0.565526676212412 
2202	 0.565216564626507 
2203	 0.56488915060131 
2204	 0.564618821186693 
2205	 0.564407426839973 
2206	 0.564194471236883 
2207	 0.563985137714236 
2208	 0.563829066628835 
2209	 0.563707759771545 
2210	 0.563614244254679 
2211	 0.563565476152354 
2212	 0.563528788265229 
2213	 0.563527773912442 
2214	 0.563526347666445 
2215	 0.563566922256159 
2216	 0.563568141345307 
2217	 0.563581615312931 
2218	 0.563551172271517 
2219	 0.563487360140348 
2220	 0.563401330453954 
2221	 0.563295941992546 
2222	 0.563154532609207 
2223	 0.562958019162349 
2224	 0.562743125313371 
2225	 0.562532706641985 
2226	 0.562294013319031 
2227	 0.562045983490058 
2228	 0.561811157772202 
2229	 0.561530064241813 
2230	 0.561193833464379 
2231	 0.560880488970737 
2232	 0.560545229381839 
2233	 0.560242380702192 
2234	 0.55996612200061 
2235	 0.559663022631201 
2236	 0.559375262400523 
2237	 0.559059912256414 
2238	 0.55871361434847 
2239	 0.558364607634205 
2240	 0.558018128367591 
2241	 0.557643105924474 
2242	 0.55723536269455 
2243	 0.55682970725064 
2244	 0.556413043718617 
2245	 0.555994116436458 
2246	 0.555513715891752 
2247	 0.555053435584816 
2248	 0.554589919439555 
2249	 0.554086946810076 
2250	 0.553631947535772 
2251	 0.553213263834102 
2252	 0.552777965970915 
2253	 0.552327050694718 
2254	 0.551920454973172 
2255	 0.551515848695101 
2256	 0.551174773387414 
2257	 0.550881263678019 
2258	 0.550606432025018 
2259	 0.55037058307891 
2260	 0.550162765295086 
2261	 0.549951096392333 
2262	 0.549830571990047 
2263	 0.5497556943232 
2264	 0.549758189009127 
2265	 0.549862727616882 
2266	 0.549987240642757 
2267	 0.550193559978243 
2268	 0.550399242862598 
2269	 0.550624977913177 
2270	 0.550872264708262 
2271	 0.551181751505714 
2272	 0.551473115478366 
2273	 0.551801694791259 
2274	 0.552170358997885 
2275	 0.552551536268145 
2276	 0.552935352780294 
2277	 0.553381706103226 
2278	 0.553897248724185 
2279	 0.554378856875623 
2280	 0.55488972896097 
2281	 0.555381294223864 
2282	 0.555841256461722 
2283	 0.556329633531382 
2284	 0.556862751531368 
2285	 0.557346270510433 
2286	 0.557800055645059 
2287	 0.55827818538821 
2288	 0.558747001703987 
2289	 0.559202140735558 
2290	 0.55964864336227 
2291	 0.560135730988155 
2292	 0.560639092930137 
2293	 0.561122343694872 
2294	 0.561669333879052 
2295	 0.562145875021175 
2296	 0.562567922086102 
2297	 0.5629509719168 
2298	 0.563345623523235 
2299	 0.563738217532923 
2300	 0.564095639272372 
2301	 0.564503760649614 
2302	 0.564966384619016 
2303	 0.565364384993697 
2304	 0.565752928524801 
2305	 0.566155027290503 
2306	 0.566543312850561 
2307	 0.566888542444551 
2308	 0.567254983601595 
2309	 0.567649728534798 
2310	 0.568002460385946 
2311	 0.568309409812857 
2312	 0.568642974884437 
2313	 0.568973193639724 
2314	 0.569329695913413 
2315	 0.569733697269715 
2316	 0.570071419948878 
2317	 0.570378713734093 
2318	 0.570704253712182 
2319	 0.570979133194559 
2320	 0.571290968798542 
2321	 0.571670933164975 
2322	 0.57199977364402 
2323	 0.572292433119934 
2324	 0.572608383340782 
2325	 0.572900615344647 
2326	 0.573214636981992 
2327	 0.573545011090617 
2328	 0.57389790890803 
2329	 0.574260115625653 
2330	 0.574654069170778 
2331	 0.575045860549893 
2332	 0.575431905530249 
2333	 0.575766539992361 
2334	 0.57608526057303 
2335	 0.576376746300947 
2336	 0.576605719261137 
2337	 0.576871139276456 
2338	 0.577117048278646 
2339	 0.577330888341065 
2340	 0.577511598088741 
2341	 0.577618773275345 
2342	 0.577697854087703 
2343	 0.577805487852994 
2344	 0.577932665382211 
2345	 0.577992896743343 
2346	 0.578036307730798 
2347	 0.578046850460614 
2348	 0.577991317993454 
2349	 0.577932964414248 
2350	 0.577857964477522 
2351	 0.577785729192152 
2352	 0.577693182392089 
2353	 0.577594862269321 
2354	 0.577498750488173 
2355	 0.577390881770677 
2356	 0.577248008681638 
2357	 0.577122942805965 
2358	 0.577009175523203 
2359	 0.576883513961448 
2360	 0.576764790503135 
2361	 0.57662385452772 
2362	 0.576469532867842 
2363	 0.576330744297152 
2364	 0.576162608284166 
2365	 0.576028513267293 
2366	 0.575923013711537 
2367	 0.575791999184474 
2368	 0.57573239295252 
2369	 0.575557866316128 
2370	 0.575313046262682 
2371	 0.575041879660684 
2372	 0.574714664514594 
2373	 0.574375523924954 
2374	 0.574076399907597 
2375	 0.573757667613759 
2376	 0.573490806145265 
2377	 0.573200445875225 
2378	 0.572840716887043 
2379	 0.572539354264295 
2380	 0.572225400335323 
2381	 0.571902842488625 
2382	 0.571675343642725 
2383	 0.571456544267889 
2384	 0.5711694512226 
2385	 0.570757451268465 
2386	 0.57024951522812 
2387	 0.569863146603609 
2388	 0.569526833425587 
2389	 0.56919053558267 
2390	 0.568918600453261 
2391	 0.568522176387177 
2392	 0.568028050156259 
2393	 0.567588940910847 
2394	 0.567132161833181 
2395	 0.566737535076261 
2396	 0.566421755021517 
2397	 0.565999398488818 
2398	 0.565583074247004 
2399	 0.56516962590508 
2400	 0.564741568687774 
2401	 0.564386020977319 
2402	 0.564058917678435 
2403	 0.563739420988548 
2404	 0.563388775078861 
2405	 0.563048155459136 
2406	 0.562603805278768 
2407	 0.562188055478451 
2408	 0.561810758716359 
2409	 0.561341764578454 
2410	 0.561104812352889 
2411	 0.560867464601349 
2412	 0.560518080221965 
2413	 0.560253327798892 
2414	 0.559843845665753 
2415	 0.559379017058848 
2416	 0.558988173514236 
2417	 0.558590231442667 
2418	 0.558283970272539 
2419	 0.558075252709779 
2420	 0.557747258105689 
2421	 0.557479014653957 
2422	 0.557202586197109 
2423	 0.556819702425281 
2424	 0.556563370831854 
2425	 0.556355408191096 
2426	 0.556096092961566 
2427	 0.555869171508505 
2428	 0.555680597774096 
2429	 0.555548772162234 
2430	 0.555296826250292 
2431	 0.555027805507074 
2432	 0.554634659930757 
2433	 0.554088236324408 
2434	 0.55366374838103 
2435	 0.553179043649643 
2436	 0.552883464045593 
2437	 0.552710431429242 
2438	 0.552550967560264 
2439	 0.55251215144697 
2440	 0.552401966085536 
2441	 0.552333776864807 
2442	 0.552125264558578 
2443	 0.551901375810207 
2444	 0.551579630191437 
2445	 0.551058862176877 
2446	 0.550723390200697 
2447	 0.550358860722791 
2448	 0.550038727634664 
2449	 0.549858092678953 
2450	 0.549548685245345 
2451	 0.549243749226868 
2452	 0.548936847755516 
2453	 0.548527048048145 
2454	 0.548244666717453 
2455	 0.547999559580007 
2456	 0.54769916491782 
2457	 0.547505319802255 
2458	 0.547279483778948 
2459	 0.546939312876725 
2460	 0.54668451567873 
2461	 0.54645454750332 
2462	 0.546208297728798 
2463	 0.546047153752478 
2464	 0.545845884615564 
2465	 0.545618997009224 
2466	 0.545459213351412 
2467	 0.545318946532591 
2468	 0.545122801720771 
2469	 0.544913164827913 
2470	 0.544726821887825 
2471	 0.544520216314066 
2472	 0.544413155336882 
2473	 0.544312983821386 
2474	 0.544215059847883 
2475	 0.544091325816355 
2476	 0.543817735069611 
2477	 0.543683333388479 
2478	 0.543492367198389 
2479	 0.543257941454838 
2480	 0.543088475388188 
2481	 0.542592264652611 
2482	 0.542186938206551 
2483	 0.541812813757453 
2484	 0.541360855888856 
2485	 0.54122848756888 
2486	 0.541077783056287 
2487	 0.540964106369119 
2488	 0.54086647017449 
2489	 0.540594329233303 
2490	 0.540267957887916 
2491	 0.53989708822417 
2492	 0.539765679761707 
2493	 0.539719423183576 
2494	 0.539641415628828 
2495	 0.539746637101414 
2496	 0.539732614859497 
2497	 0.539392907204543 
2498	 0.539021986370988 
2499	 0.538527549490352 
2500	 0.537836200903879 
