Wavelength	MM800001.asd
350	 5.61102461397164E-02 
351	 5.83296770761322E-02 
352	 5.26380996275004E-02 
353	 4.65555265359049E-02 
354	 5.27225034176311E-02 
355	 5.72730723106977E-02 
356	 5.80130834284046E-02 
357	 5.70618696010033E-02 
358	 5.93961380494087E-02 
359	 5.98721437755809E-02 
360	 5.90295238572694E-02 
361	 6.06413048366431E-02 
362	 0.059599184575235 
363	 5.95569019166206E-02 
364	 6.16393596742642E-02 
365	 6.17619034360567E-02 
366	 5.83581436256017E-02 
367	 5.69866338183592E-02 
368	 6.16737665060567E-02 
369	 0.063158950822115 
370	 0.063562533156974 
371	 6.40712496562075E-02 
372	 6.48121515732323E-02 
373	 6.31513477732684E-02 
374	 6.27097420475149E-02 
375	 6.45518364717077E-02 
376	 6.40835884939076E-02 
377	 6.31219712237285E-02 
378	 6.30956898629251E-02 
379	 6.50316453170421E-02 
380	 6.91082975605321E-02 
381	 7.02360205945087E-02 
382	 6.93980544051925E-02 
383	 7.17731939054436E-02 
384	 0.072881883558809 
385	 7.30776497283476E-02 
386	 7.35902076139534E-02 
387	 7.60531995674547E-02 
388	 7.84991604302879E-02 
389	 7.98268507304877E-02 
390	 7.97971960561707E-02 
391	 8.03187047979714E-02 
392	 8.17206031806922E-02 
393	 8.41978486076026E-02 
394	 8.77405371208703E-02 
395	 8.95139484850136E-02 
396	 9.08974517716008E-02 
397	 0.092981766095229 
398	 9.47106563884566E-02 
399	 9.59989631232292E-02 
400	 9.80520911756624E-02 
401	 0.101621549583626 
402	 0.102343745254634 
403	 0.102491248147963 
404	 0.103808646934816 
405	 0.106920610740905 
406	 0.108432448442264 
407	 0.110051372582231 
408	 0.112780443027791 
409	 0.112930534118318 
410	 0.114480713419411 
411	 0.116628495476344 
412	 0.116902617714142 
413	 0.11830819799118 
414	 0.119028882659236 
415	 0.118930485112766 
416	 0.120509833805613 
417	 0.121878853133108 
418	 0.122757803358583 
419	 0.123283996112356 
420	 0.123593399891668 
421	 0.123281119058039 
422	 0.123073134186547 
423	 0.124173354487181 
424	 0.124805372627884 
425	 0.124676440733455 
426	 0.123950724178088 
427	 0.123083139441997 
428	 0.122915921296475 
429	 0.122933164539814 
430	 0.122408461561136 
431	 0.122102827830278 
432	 0.121713347692992 
433	 0.1213095576244 
434	 0.121336420834059 
435	 0.121497932572756 
436	 0.121590873202446 
437	 0.121589252226811 
438	 0.121766888921161 
439	 0.122820013125971 
440	 0.12432982961105 
441	 0.125387023086037 
442	 0.126206360254281 
443	 0.12707777285233 
444	 0.128201543312148 
445	 0.129646693300304 
446	 0.130985060242081 
447	 0.132405523563541 
448	 0.134049952145587 
449	 0.134995677055204 
450	 0.136262707146545 
451	 0.137912086773663 
452	 0.139165875269036 
453	 0.140108081902216 
454	 0.141130866054911 
455	 0.142426280821049 
456	 0.143570779123491 
457	 0.144677584773787 
458	 0.145723464295455 
459	 0.14662224305475 
460	 0.147240066229685 
461	 0.147855581656507 
462	 0.148608580041776 
463	 0.149399061759572 
464	 0.150078602883498 
465	 0.150696009147815 
466	 0.151321510413123 
467	 0.151842091145216 
468	 0.152373214088897 
469	 0.152975754614822 
470	 0.153637425991818 
471	 0.153967063791407 
472	 0.15435350638112 
473	 0.155008269454175 
474	 0.155421423505821 
475	 0.155712051418872 
476	 0.156109139320307 
477	 0.156799073461446 
478	 0.157214544208842 
479	 0.157558578402823 
480	 0.157959278096839 
481	 0.158339039601537 
482	 0.158898533290543 
483	 0.159334320336547 
484	 0.159435906935153 
485	 0.159933965494049 
486	 0.160441086146291 
487	 0.16081097081335 
488	 0.161130009799982 
489	 0.161512275959394 
490	 0.161964253199158 
491	 0.162434102200482 
492	 0.162778718419173 
493	 0.163174379887488 
494	 0.16360197437049 
495	 0.163968164375383 
496	 0.164378204683478 
497	 0.164783877860423 
498	 0.165162985258556 
499	 0.165550293544736 
500	 0.165998923789551 
501	 0.166353494951761 
502	 0.166518467346371 
503	 0.166927302328792 
504	 0.167370223651765 
505	 0.167735921313457 
506	 0.16802959448643 
507	 0.168298039292649 
508	 0.168687684715529 
509	 0.169202256240948 
510	 0.16941221374009 
511	 0.169722748498577 
512	 0.170150016343887 
513	 0.17050313340705 
514	 0.170739390597101 
515	 0.171020924544526 
516	 0.171414239834946 
517	 0.171794503773836 
518	 0.172110403832585 
519	 0.172393623762612 
520	 0.17270429049255 
521	 0.173054693082504 
522	 0.173439038065706 
523	 0.173822501032732 
524	 0.174144108567327 
525	 0.174407210373903 
526	 0.174663010092224 
527	 0.174960358238309 
528	 0.175307427794954 
529	 0.175674638789011 
530	 0.17599724080278 
531	 0.176209461455832 
532	 0.176496845504176 
533	 0.176864449785881 
534	 0.177269257014154 
535	 0.177632601070684 
536	 0.177977614331208 
537	 0.178315213667038 
538	 0.178655130264646 
539	 0.17900750621861 
540	 0.179389372907894 
541	 0.179767881413798 
542	 0.180040880488875 
543	 0.180417519107788 
544	 0.180858795495347 
545	 0.181264108122389 
546	 0.181586294894231 
547	 0.181928472196675 
548	 0.182360441051207 
549	 0.18290541934437 
550	 0.183335695160568 
551	 0.183688442624131 
552	 0.184065821347128 
553	 0.184609879875923 
554	 0.185097107104548 
555	 0.185526022599237 
556	 0.186012631744786 
557	 0.18658487266478 
558	 0.187098988955183 
559	 0.187532237385423 
560	 0.18810488464793 
561	 0.188716708696448 
562	 0.18937791667214 
563	 0.19013539248241 
564	 0.19105923932186 
565	 0.191971630631158 
566	 0.192792250700867 
567	 0.1935674645882 
568	 0.19434608901151 
569	 0.195140387335205 
570	 0.195976376678578 
571	 0.196992262150847 
572	 0.197913429327209 
573	 0.198724130888287 
574	 0.199595062482634 
575	 0.200481099251875 
576	 0.201499253009589 
577	 0.202667220336611 
578	 0.203751666139241 
579	 0.204800301651479 
580	 0.205737468136041 
581	 0.206507981901946 
582	 0.207480646242962 
583	 0.208632679966464 
584	 0.209924078700397 
585	 0.211353945309227 
586	 0.212842693906796 
587	 0.214324753165574 
588	 0.215760961339256 
589	 0.217188449240661 
590	 0.21866548263844 
591	 0.220152764568551 
592	 0.221528851917895 
593	 0.222785008378533 
594	 0.223884914258293 
595	 0.22483033481813 
596	 0.2257108240279 
597	 0.226599111056804 
598	 0.227541867645872 
599	 0.228574258544849 
600	 0.22976926725213 
601	 0.231082673588922 
602	 0.232402986187724 
603	 0.233530431105523 
604	 0.234541044381195 
605	 0.235595218370581 
606	 0.236815984071438 
607	 0.237941487261738 
608	 0.238876910715474 
609	 0.239722080209973 
610	 0.240778084676143 
611	 0.241764186469219 
612	 0.242633356376847 
613	 0.243416313454893 
614	 0.24422684550251 
615	 0.24488752970248 
616	 0.245476358222412 
617	 0.246218274247596 
618	 0.246814966582802 
619	 0.247355707266303 
620	 0.247926650879833 
621	 0.248478390089182 
622	 0.249010014428565 
623	 0.249498697159851 
624	 0.24993279299815 
625	 0.250420202718023 
626	 0.250884123556947 
627	 0.25131357977662 
628	 0.251804484791611 
629	 0.252232496213481 
630	 0.252609292357091 
631	 0.25297273593782 
632	 0.253288417685715 
633	 0.253673539896306 
634	 0.254098785301844 
635	 0.254423486905734 
636	 0.254780856135476 
637	 0.255155859415369 
638	 0.25551343627475 
639	 0.255827925878479 
640	 0.25618827661545 
641	 0.256567577867652 
642	 0.256900464989539 
643	 0.257301203849305 
644	 0.25762865062951 
645	 0.257887558194183 
646	 0.25832871679549 
647	 0.258691673662407 
648	 0.258996757402069 
649	 0.259341789516901 
650	 0.259784359613388 
651	 0.260209370921184 
652	 0.260577470382517 
653	 0.260924351115355 
654	 0.261285001647846 
655	 0.261701607443934 
656	 0.262173909821279 
657	 0.262598277127459 
658	 0.263029810555024 
659	 0.263477398930626 
660	 0.263930896926156 
661	 0.264405628749606 
662	 0.264902284921815 
663	 0.265411403108303 
664	 0.265913502220365 
665	 0.266336983813986 
666	 0.26677650018153 
667	 0.26732368155451 
668	 0.267839051522546 
669	 0.26837238509273 
670	 0.268941102998231 
671	 0.269530513493739 
672	 0.270150159388992 
673	 0.270752653341969 
674	 0.271306708258351 
675	 0.271820764822935 
676	 0.272460786733849 
677	 0.273127972728076 
678	 0.273656860874101 
679	 0.27433406384164 
680	 0.275011324025359 
681	 0.275639579764148 
682	 0.276347210993498 
683	 0.276980433440618 
684	 0.27763534250337 
685	 0.278410687849546 
686	 0.279183386026875 
687	 0.279898097696293 
688	 0.28060227078936 
689	 0.281399302161425 
690	 0.282112215924926 
691	 0.282834557127736 
692	 0.283625321083855 
693	 0.284395755293242 
694	 0.28518959023195 
695	 0.285979569989015 
696	 0.286733501892867 
697	 0.287524021133392 
698	 0.288367140313271 
699	 0.289212621719612 
700	 0.289950701296499 
701	 0.290704646020157 
702	 0.291533361228376 
703	 0.29243863211334 
704	 0.293324476489432 
705	 0.294150229693655 
706	 0.294940152617989 
707	 0.295752292197207 
708	 0.29659124871208 
709	 0.29740297710328 
710	 0.298179741421681 
711	 0.298991555739575 
712	 0.299824976906789 
713	 0.300658040608786 
714	 0.301462082547736 
715	 0.302191005451848 
716	 0.3029140750133 
717	 0.303670873068403 
718	 0.304469689419798 
719	 0.30528267703466 
720	 0.306047028856342 
721	 0.306730296462337 
722	 0.307358280047504 
723	 0.308031609039545 
724	 0.30866806236759 
725	 0.309165364541529 
726	 0.309662415440193 
727	 0.310192309077431 
728	 0.310759492147187 
729	 0.311339037470069 
730	 0.311810648451663 
731	 0.312214490927883 
732	 0.312614894684112 
733	 0.313066413766815 
734	 0.313415598666116 
735	 0.313688206977724 
736	 0.313967874316185 
737	 0.314167113092565 
738	 0.314413591864967 
739	 0.314666262310566 
740	 0.314696290448131 
741	 0.314745273925624 
742	 0.314818663169547 
743	 0.314871485055967 
744	 0.314862945384767 
745	 0.314881404143178 
746	 0.314845707647012 
747	 0.314641120480714 
748	 0.314527042057941 
749	 0.314382629276313 
750	 0.314155380352727 
751	 0.313915984506671 
752	 0.313646785257583 
753	 0.313354152161321 
754	 0.313042088005056 
755	 0.312700382317413 
756	 0.312281988974869 
757	 0.311831019953122 
758	 0.311422311295362 
759	 0.310970003803427 
760	 0.310503646136547 
761	 0.310032227953847 
762	 0.30952613527431 
763	 0.308952778527148 
764	 0.308383501903589 
765	 0.307860957985506 
766	 0.307261277902462 
767	 0.306735155025809 
768	 0.306176245540453 
769	 0.305422243724034 
770	 0.30490827612565 
771	 0.304382226836275 
772	 0.303694177972086 
773	 0.302898713553418 
774	 0.302252744148503 
775	 0.301660108588567 
776	 0.300996007561853 
777	 0.300298439571363 
778	 0.299592915172088 
779	 0.29892322848345 
780	 0.298309105383224 
781	 0.297590148384606 
782	 0.296870301253348 
783	 0.296208486303251 
784	 0.29558957796348 
785	 0.294884167776515 
786	 0.294165700471228 
787	 0.293500534455222 
788	 0.292836473308301 
789	 0.292175852781497 
790	 0.291520748539034 
791	 0.29086866479899 
792	 0.290190309855839 
793	 0.289501413883969 
794	 0.288822854823078 
795	 0.288178646558608 
796	 0.2875932882022 
797	 0.287011576743948 
798	 0.286395784115841 
799	 0.285761332060489 
800	 0.285129329287027 
801	 0.284519800547016 
802	 0.283935236304339 
803	 0.283322362371393 
804	 0.28269655151037 
805	 0.282091112845689 
806	 0.281542251133616 
807	 0.281018466967728 
808	 0.280488962819278 
809	 0.279947069976315 
810	 0.279415300407098 
811	 0.278875101939572 
812	 0.278337382662558 
813	 0.277814977137794 
814	 0.277309828106587 
815	 0.276814343551521 
816	 0.276322085116453 
817	 0.275832939543082 
818	 0.275372300893269 
819	 0.274944719137602 
820	 0.274495455787456 
821	 0.27394996095356 
822	 0.273601945996083 
823	 0.273234709541795 
824	 0.272736071487176 
825	 0.27229056517725 
826	 0.271945251497317 
827	 0.271643652384687 
828	 0.271297806538583 
829	 0.270830067035967 
830	 0.270381185526918 
831	 0.270011575924657 
832	 0.269713992103808 
833	 0.269371541291201 
834	 0.269051309767717 
835	 0.268757464383558 
836	 0.268427272050324 
837	 0.268089699080644 
838	 0.267766779160614 
839	 0.267497610032567 
840	 0.267353088166652 
841	 0.267135791643029 
842	 0.266812286447655 
843	 0.266448812822346 
844	 0.266249081498674 
845	 0.266062984040874 
846	 0.265873607366916 
847	 0.26570716574811 
848	 0.265451032393918 
849	 0.265224301524712 
850	 0.265068576182427 
851	 0.264936278036161 
852	 0.264719705601865 
853	 0.264536858796424 
854	 0.264422580504864 
855	 0.264246735279414 
856	 0.264158648773237 
857	 0.264083426194109 
858	 0.263950586584303 
859	 0.263830080509997 
860	 0.263789559091109 
861	 0.263745864294535 
862	 0.263611972068525 
863	 0.263546533904371 
864	 0.263485773153775 
865	 0.263423834872957 
866	 0.263385179003417 
867	 0.263315885292203 
868	 0.26325983878757 
869	 0.263259219122735 
870	 0.263330072332806 
871	 0.263300923612527 
872	 0.263268270169261 
873	 0.263314788719954 
874	 0.263423201306635 
875	 0.263498867305434 
876	 0.263534655738792 
877	 0.263565837375786 
878	 0.263665463106569 
879	 0.263812470802163 
880	 0.263885457214071 
881	 0.263816704735929 
882	 0.263890080603321 
883	 0.263990852622391 
884	 0.264135888443605 
885	 0.264379156575722 
886	 0.264521911229702 
887	 0.264652350649543 
888	 0.26480834981697 
889	 0.264968169757282 
890	 0.265157592732366 
891	 0.265345119865623 
892	 0.26553316338302 
893	 0.26576892635946 
894	 0.26595980541013 
895	 0.266136840072472 
896	 0.266335392473843 
897	 0.266550870453482 
898	 0.266827333985867 
899	 0.267132315378535 
900	 0.267441377729157 
901	 0.267823709774855 
902	 0.268056503547186 
903	 0.268277414128526 
904	 0.268648400806806 
905	 0.268909392255254 
906	 0.269234305303364 
907	 0.269618701618344 
908	 0.269991203476871 
909	 0.270437488932207 
910	 0.270845139271843 
911	 0.271209294180418 
912	 0.271598990799743 
913	 0.272008850561957 
914	 0.272399689613679 
915	 0.272759965014621 
916	 0.273118160254389 
917	 0.273564021100554 
918	 0.27417567515226 
919	 0.274819659562129 
920	 0.275173715960074 
921	 0.27561445254102 
922	 0.276106409932837 
923	 0.276641909284123 
924	 0.277342922314605 
925	 0.277873420065715 
926	 0.278354445118705 
927	 0.278913951453452 
928	 0.279496240643542 
929	 0.280050841984969 
930	 0.280680977816238 
931	 0.281403396438736 
932	 0.281949046159657 
933	 0.282616140116275 
934	 0.283309638900517 
935	 0.283910544727174 
936	 0.284578689883878 
937	 0.285214678456936 
938	 0.285919989234068 
939	 0.286761957337441 
940	 0.28747462397417 
941	 0.288191798887621 
942	 0.288976017614989 
943	 0.289819368791595 
944	 0.290581911892745 
945	 0.29122293398958 
946	 0.291893307605134 
947	 0.292760397855478 
948	 0.293673401254928 
949	 0.294518469442098 
950	 0.295330469979961 
951	 0.296205794851244 
952	 0.297102323901017 
953	 0.297969588175581 
954	 0.298846761517842 
955	 0.299810173020723 
956	 0.300845823180957 
957	 0.301827688643342 
958	 0.302748140259138 
959	 0.303661749306173 
960	 0.304474091873299 
961	 0.305387779718147 
962	 0.306415439335043 
963	 0.30744326090747 
964	 0.30850685121139 
965	 0.309599560392568 
966	 0.310669458283572 
967	 0.311668286152211 
968	 0.312699663627173 
969	 0.31385447668575 
970	 0.315011102503106 
971	 0.315968971110076 
972	 0.316966432375653 
973	 0.317968629290158 
974	 0.319033883933463 
975	 0.320244151111589 
976	 0.321388383531495 
977	 0.322672068170633 
978	 0.323990412214176 
979	 0.325098267743659 
980	 0.326258354334127 
981	 0.327421740255392 
982	 0.328602794132675 
983	 0.329851017405444 
984	 0.33114776230324 
985	 0.332336953220521 
986	 0.33347125149687 
987	 0.334694459940437 
988	 0.335941112166697 
989	 0.337103977180774 
990	 0.338285610378098 
991	 0.339611918459833 
992	 0.34080221006376 
993	 0.341969682113427 
994	 0.343193643556256 
995	 0.344460987996272 
996	 0.345498780633479 
997	 0.346693636486486 
998	 0.347982613622618 
999	 0.349208880327609 
1000	 0.350615644087204 
1001	 0.355818244163166 
1002	 0.357097432551889 
1003	 0.358320199798018 
1004	 0.359512284855454 
1005	 0.360672564041182 
1006	 0.361848386516366 
1007	 0.362985693018746 
1008	 0.364158581234947 
1009	 0.36536624434335 
1010	 0.366495027680606 
1011	 0.367603154497674 
1012	 0.368724815457063 
1013	 0.369811650911881 
1014	 0.370893720102983 
1015	 0.372017826673294 
1016	 0.373096972756893 
1017	 0.374165045850424 
1018	 0.375202568892647 
1019	 0.376270240032715 
1020	 0.377334591251496 
1021	 0.378415114771144 
1022	 0.379502335250424 
1023	 0.380519584949635 
1024	 0.381527268160693 
1025	 0.382616211440279 
1026	 0.383652424330737 
1027	 0.38466788937861 
1028	 0.385717798382461 
1029	 0.386685182691735 
1030	 0.387650609776639 
1031	 0.388637243702533 
1032	 0.38967246437637 
1033	 0.390653978486322 
1034	 0.391645404556761 
1035	 0.392682338080399 
1036	 0.393681198206812 
1037	 0.394717645032724 
1038	 0.395748048264925 
1039	 0.396703945624696 
1040	 0.39767181905202 
1041	 0.398641791088116 
1042	 0.399650517209079 
1043	 0.400709715543509 
1044	 0.401724551701137 
1045	 0.40275039503206 
1046	 0.40375057750352 
1047	 0.404749243290203 
1048	 0.405743057638487 
1049	 0.406718383295759 
1050	 0.407739968080694 
1051	 0.408733004219114 
1052	 0.409621442116869 
1053	 0.410518229094193 
1054	 0.41140608624512 
1055	 0.412249333821462 
1056	 0.413120807184281 
1057	 0.413973205001231 
1058	 0.414815866999005 
1059	 0.415651054500857 
1060	 0.416484158733057 
1061	 0.417276203544828 
1062	 0.418087938290879 
1063	 0.418909381138289 
1064	 0.419719264103185 
1065	 0.420533275640093 
1066	 0.421303301072927 
1067	 0.42205990578894 
1068	 0.422787079084937 
1069	 0.423439110061527 
1070	 0.424115013380649 
1071	 0.424754881270462 
1072	 0.425447779613661 
1073	 0.426187610705647 
1074	 0.426879292720324 
1075	 0.427593987536335 
1076	 0.428233061661253 
1077	 0.428800794336011 
1078	 0.429379081638011 
1079	 0.430006663239925 
1080	 0.430655863990603 
1081	 0.431318152093125 
1082	 0.431990522566814 
1083	 0.432646499476778 
1084	 0.433285280760206 
1085	 0.43391450914431 
1086	 0.434505565432046 
1087	 0.435166236457699 
1088	 0.435850707676788 
1089	 0.436515345684453 
1090	 0.437216294533405 
1091	 0.437927534367263 
1092	 0.438589909908572 
1093	 0.439279965376907 
1094	 0.440017223657353 
1095	 0.440733661436152 
1096	 0.441492044132805 
1097	 0.442277110537207 
1098	 0.443038200353563 
1099	 0.443782439872159 
1100	 0.444577295016999 
1101	 0.44537668779065 
1102	 0.446189236365016 
1103	 0.447036883868628 
1104	 0.447901659362825 
1105	 0.448736028712808 
1106	 0.449601268262784 
1107	 0.45048842133168 
1108	 0.451377411738731 
1109	 0.452281651414257 
1110	 0.453195809473497 
1111	 0.454128459664654 
1112	 0.455077068540377 
1113	 0.456032505558875 
1114	 0.456981488712458 
1115	 0.457984473509109 
1116	 0.459042336012794 
1117	 0.460068056780991 
1118	 0.4611206393199 
1119	 0.462151567165441 
1120	 0.463188525968411 
1121	 0.464191998949871 
1122	 0.465219666822373 
1123	 0.466302234888262 
1124	 0.467360064304853 
1125	 0.468397005542372 
1126	 0.469479576088912 
1127	 0.470612568680929 
1128	 0.471678388373957 
1129	 0.472732479035253 
1130	 0.473783023184625 
1131	 0.474770081517291 
1132	 0.475812801501428 
1133	 0.47691433155487 
1134	 0.477975835727494 
1135	 0.479031073651131 
1136	 0.480080097584593 
1137	 0.481127808044886 
1138	 0.482148775235092 
1139	 0.483195391004774 
1140	 0.484278891234353 
1141	 0.485312409171809 
1142	 0.486325429967543 
1143	 0.487342629390467 
1144	 0.488339946591441 
1145	 0.489330806998583 
1146	 0.490329356916535 
1147	 0.491307101868755 
1148	 0.492279856130837 
1149	 0.493225937881641 
1150	 0.494139201278168 
1151	 0.495061897682462 
1152	 0.495986557754743 
1153	 0.49689209126606 
1154	 0.497800288781818 
1155	 0.498730085576592 
1156	 0.499620561932772 
1157	 0.500485605429782 
1158	 0.501347981433861 
1159	 0.502199767573153 
1160	 0.503041767295238 
1161	 0.503876946091855 
1162	 0.504700228700475 
1163	 0.505537016383526 
1164	 0.506325576433355 
1165	 0.507076929164489 
1166	 0.507820202948457 
1167	 0.508573181534512 
1168	 0.509309099770411 
1169	 0.510040923372708 
1170	 0.510794110600511 
1171	 0.511512575679906 
1172	 0.512197739986559 
1173	 0.512890439801285 
1174	 0.513587533744569 
1175	 0.514268401393071 
1176	 0.514933451672207 
1177	 0.515598662765069 
1178	 0.516270765799807 
1179	 0.516915259213417 
1180	 0.517542192621342 
1181	 0.518163182007376 
1182	 0.518753913765547 
1183	 0.519363839877255 
1184	 0.519957647303851 
1185	 0.520555556648742 
1186	 0.521133598526508 
1187	 0.521697740269718 
1188	 0.522256824682168 
1189	 0.522805923565926 
1190	 0.523347108410664 
1191	 0.523883361116891 
1192	 0.524409000906677 
1193	 0.524922003741721 
1194	 0.525435167290807 
1195	 0.52593191412852 
1196	 0.526440417131608 
1197	 0.526967717347958 
1198	 0.527471101528122 
1199	 0.527966186732856 
1200	 0.528460570888704 
1201	 0.528946188416417 
1202	 0.529418227372139 
1203	 0.529880008585227 
1204	 0.530344252681501 
1205	 0.530787716896364 
1206	 0.531202245178001 
1207	 0.531627412619601 
1208	 0.532047211192772 
1209	 0.532468938366477 
1210	 0.532899508020281 
1211	 0.533312147736047 
1212	 0.533710053386557 
1213	 0.534115421503172 
1214	 0.534525297637647 
1215	 0.534916509829699 
1216	 0.535300648821402 
1217	 0.535688217464626 
1218	 0.536060589168974 
1219	 0.536417108101487 
1220	 0.536762181876187 
1221	 0.537093164097359 
1222	 0.53743645580847 
1223	 0.537757022958153 
1224	 0.53810575251203 
1225	 0.538490889498537 
1226	 0.538849949311217 
1227	 0.539214494768151 
1228	 0.539561056737982 
1229	 0.539887368457998 
1230	 0.540215771903788 
1231	 0.54053790713606 
1232	 0.540855072246227 
1233	 0.541168324229996 
1234	 0.541471457214431 
1235	 0.541795168204216 
1236	 0.54213364109736 
1237	 0.542443852820358 
1238	 0.542772830279354 
1239	 0.543056192956036 
1240	 0.543288205181744 
1241	 0.543543313971731 
1242	 0.543774098439591 
1243	 0.544035695005549 
1244	 0.544314788826118 
1245	 0.544596042124655 
1246	 0.54490467062789 
1247	 0.545195662485078 
1248	 0.545499372725196 
1249	 0.545773607493212 
1250	 0.546023092074307 
1251	 0.546245329999081 
1252	 0.546468344315796 
1253	 0.546662332168753 
1254	 0.546866708761422 
1255	 0.547070764111713 
1256	 0.547277554902648 
1257	 0.547476044595841 
1258	 0.547682611422233 
1259	 0.547893804331489 
1260	 0.548112164074376 
1261	 0.548344238397732 
1262	 0.548556405786046 
1263	 0.548754132528805 
1264	 0.548974729917394 
1265	 0.54920340491804 
1266	 0.549422743735826 
1267	 0.549659286722633 
1268	 0.549881298902161 
1269	 0.55011370519866 
1270	 0.550320209485511 
1271	 0.550569040380165 
1272	 0.550848555502351 
1273	 0.551124253472018 
1274	 0.551413881906937 
1275	 0.551699394748014 
1276	 0.551997193184571 
1277	 0.552282240780936 
1278	 0.55256147363947 
1279	 0.552841648529899 
1280	 0.553128269352097 
1281	 0.553391973949115 
1282	 0.553669530774944 
1283	 0.553899365117497 
1284	 0.554086609196507 
1285	 0.554264020911165 
1286	 0.55444215255073 
1287	 0.554580780044186 
1288	 0.554711608716068 
1289	 0.554857523096397 
1290	 0.55492905035013 
1291	 0.554952931875742 
1292	 0.554956279936395 
1293	 0.554907827205035 
1294	 0.554857564533596 
1295	 0.554799536092824 
1296	 0.554702775415624 
1297	 0.554574413227809 
1298	 0.55443370734335 
1299	 0.554261765641654 
1300	 0.554073363284831 
1301	 0.553865571928417 
1302	 0.553648164543939 
1303	 0.553411304855507 
1304	 0.553163271154474 
1305	 0.552886915629111 
1306	 0.552633034613489 
1307	 0.55237740742398 
1308	 0.552107378788011 
1309	 0.55185923971244 
1310	 0.551625675961734 
1311	 0.551405109122041 
1312	 0.551178704374277 
1313	 0.550995184939816 
1314	 0.550837874304361 
1315	 0.55069794922516 
1316	 0.550582776860995 
1317	 0.550493281375168 
1318	 0.550422262649209 
1319	 0.550378044583471 
1320	 0.550350774285811 
1321	 0.55036237623284 
1322	 0.550406862965595 
1323	 0.550473637846317 
1324	 0.550564572883565 
1325	 0.550681102679055 
1326	 0.550805190416411 
1327	 0.550951283711271 
1328	 0.551122519278646 
1329	 0.551305027295605 
1330	 0.551521181030954 
1331	 0.551753088924105 
1332	 0.552024943335808 
1333	 0.55234259956926 
1334	 0.552653524152723 
1335	 0.552984005495205 
1336	 0.553322825767778 
1337	 0.55367234299635 
1338	 0.554026396620863 
1339	 0.554403777409106 
1340	 0.55476725563088 
1341	 0.555109400844038 
1342	 0.555483013983817 
1343	 0.555877644675016 
1344	 0.556257389127057 
1345	 0.556664482594288 
1346	 0.557073231020859 
1347	 0.557469029382435 
1348	 0.557877262929656 
1349	 0.558283917098674 
1350	 0.558710353381341 
1351	 0.559128185003167 
1352	 0.559551941302053 
1353	 0.559957127927832 
1354	 0.560366628141985 
1355	 0.560747545770264 
1356	 0.561113811186829 
1357	 0.561464517564223 
1358	 0.56177969977966 
1359	 0.562123076238594 
1360	 0.56246519999033 
1361	 0.562805107879669 
1362	 0.563166512137292 
1363	 0.563505252873109 
1364	 0.563818142713676 
1365	 0.564142121336523 
1366	 0.564471976004637 
1367	 0.564789951227351 
1368	 0.565090863745841 
1369	 0.565421847431315 
1370	 0.565738425467115 
1371	 0.566048235398236 
1372	 0.566362412952187 
1373	 0.566652217620117 
1374	 0.566932194562748 
1375	 0.56719466309693 
1376	 0.567453745591864 
1377	 0.567722310959598 
1378	 0.56794046183209 
1379	 0.568144903599786 
1380	 0.568311331033707 
1381	 0.568423240448884 
1382	 0.568540726263847 
1383	 0.568642713627231 
1384	 0.568725331862897 
1385	 0.568808312810712 
1386	 0.568847975524935 
1387	 0.56884575006399 
1388	 0.568840521937868 
1389	 0.568809601524187 
1390	 0.568768550910879 
1391	 0.568721843236075 
1392	 0.568664423604309 
1393	 0.568585651379312 
1394	 0.568480990520703 
1395	 0.568347415278269 
1396	 0.568198810325442 
1397	 0.568046950043842 
1398	 0.567866645369052 
1399	 0.567705914455876 
1400	 0.567559450645262 
1401	 0.567393244657357 
1402	 0.567211619577425 
1403	 0.56705112894666 
1404	 0.566880150569948 
1405	 0.566729789649131 
1406	 0.566622129514245 
1407	 0.566475405798157 
1408	 0.566307669323777 
1409	 0.566157653891911 
1410	 0.565954278638875 
1411	 0.565834586231052 
1412	 0.56575606133022 
1413	 0.565711884925839 
1414	 0.56571599276248 
1415	 0.565768217354373 
1416	 0.565854185878242 
1417	 0.565945887962126 
1418	 0.566049960114376 
1419	 0.566175613872764 
1420	 0.566259331951658 
1421	 0.566328781800672 
1422	 0.566397222757712 
1423	 0.56641699501376 
1424	 0.566431655077963 
1425	 0.566431270175812 
1426	 0.566424856207221 
1427	 0.566387511182444 
1428	 0.566370931177849 
1429	 0.566354593731212 
1430	 0.566342618246794 
1431	 0.566350360149646 
1432	 0.566335943987184 
1433	 0.566312898521406 
1434	 0.566284816150573 
1435	 0.566238556361082 
1436	 0.566196345107576 
1437	 0.566158183504032 
1438	 0.566115999159551 
1439	 0.566070861806162 
1440	 0.566021908353029 
1441	 0.565961381123118 
1442	 0.565902464543528 
1443	 0.565837278516051 
1444	 0.565792380649232 
1445	 0.565770870302583 
1446	 0.565718038537245 
1447	 0.565662400682956 
1448	 0.565589244671002 
1449	 0.565480145005546 
1450	 0.565379932764001 
1451	 0.565281398036583 
1452	 0.565182153537644 
1453	 0.565070367061291 
1454	 0.564950541372016 
1455	 0.564847002586918 
1456	 0.564733397571547 
1457	 0.564631627106015 
1458	 0.564560375075654 
1459	 0.564464356790539 
1460	 0.564343481350385 
1461	 0.564250028256223 
1462	 0.564152828791355 
1463	 0.564077464096198 
1464	 0.564031459724784 
1465	 0.563982449323346 
1466	 0.56394151350934 
1467	 0.563906760214364 
1468	 0.563865395261687 
1469	 0.563845372941934 
1470	 0.563839499383558 
1471	 0.563847271686205 
1472	 0.563867154336388 
1473	 0.563897871235688 
1474	 0.563939649390288 
1475	 0.564000991374833 
1476	 0.564074368978713 
1477	 0.564179200358319 
1478	 0.564327647256692 
1479	 0.564480964576343 
1480	 0.564649645497743 
1481	 0.564835612158612 
1482	 0.564998750237293 
1483	 0.565145853226156 
1484	 0.565304343191554 
1485	 0.565457270258542 
1486	 0.565619801811258 
1487	 0.565796035465538 
1488	 0.565961835251376 
1489	 0.566126384181675 
1490	 0.566286933048323 
1491	 0.566454041511172 
1492	 0.566592889850569 
1493	 0.566722132711832 
1494	 0.566840573741907 
1495	 0.5669287967922 
1496	 0.567025658005642 
1497	 0.567115475619478 
1498	 0.567214046009207 
1499	 0.567311076592801 
1500	 0.567412441212058 
1501	 0.56752935484618 
1502	 0.567632990553321 
1503	 0.567722030410667 
1504	 0.567833856525355 
1505	 0.567939620055447 
1506	 0.568021252493177 
1507	 0.56811340743943 
1508	 0.568180431409676 
1509	 0.568218792550794 
1510	 0.568269421724752 
1511	 0.568328787870834 
1512	 0.568398032192265 
1513	 0.568503580937206 
1514	 0.568624477463125 
1515	 0.568724963956583 
1516	 0.568816168182075 
1517	 0.568890305166915 
1518	 0.568938146510936 
1519	 0.568996472235754 
1520	 0.569051563622837 
1521	 0.569096388462517 
1522	 0.569120462437443 
1523	 0.569181940552163 
1524	 0.569250352052975 
1525	 0.569330953562278 
1526	 0.569451162527418 
1527	 0.569541975244495 
1528	 0.56962898200102 
1529	 0.569696167819243 
1530	 0.569754841180685 
1531	 0.569799727161275 
1532	 0.569816836765806 
1533	 0.569844641319439 
1534	 0.569854648122225 
1535	 0.569892014627196 
1536	 0.569946500117871 
1537	 0.569994271490336 
1538	 0.570051672930894 
1539	 0.570114404694266 
1540	 0.570172052537055 
1541	 0.570243257982299 
1542	 0.570348657498266 
1543	 0.57042111159317 
1544	 0.570475084287249 
1545	 0.570533464074394 
1546	 0.570578365286285 
1547	 0.570617172241298 
1548	 0.570671478305327 
1549	 0.570758985633001 
1550	 0.570853046385521 
1551	 0.570964763039418 
1552	 0.571098693183852 
1553	 0.571197923114884 
1554	 0.571275592817604 
1555	 0.571339171400262 
1556	 0.571361437798278 
1557	 0.571376939827463 
1558	 0.571394102493131 
1559	 0.571424509399611 
1560	 0.571478027706739 
1561	 0.571558721581291 
1562	 0.571628385397451 
1563	 0.571706992785292 
1564	 0.571785813058274 
1565	 0.571858507616568 
1566	 0.571953121961032 
1567	 0.572070384722146 
1568	 0.572169969463347 
1569	 0.572288549142991 
1570	 0.572362985334208 
1571	 0.572398171337074 
1572	 0.572464614814228 
1573	 0.572517325840538 
1574	 0.572582210966423 
1575	 0.572667932085739 
1576	 0.572750934726361 
1577	 0.57283982947465 
1578	 0.572913701699295 
1579	 0.573005260582457 
1580	 0.573053998772573 
1581	 0.573056788697741 
1582	 0.573079663095731 
1583	 0.57306403303207 
1584	 0.573110160848279 
1585	 0.573206476455423 
1586	 0.573280069420076 
1587	 0.573382201998373 
1588	 0.573463823870666 
1589	 0.573527605308425 
1590	 0.57358064841141 
1591	 0.573628355996114 
1592	 0.573676616996463 
1593	 0.573696977161537 
1594	 0.573744854408193 
1595	 0.57380525437613 
1596	 0.573874285713265 
1597	 0.57397563636292 
1598	 0.574046244094658 
1599	 0.574110078009894 
1600	 0.574170129611097 
1601	 0.574204685626919 
1602	 0.574249262135638 
1603	 0.574308415912636 
1604	 0.574354515718651 
1605	 0.574390423515615 
1606	 0.574428717984631 
1607	 0.574465925945931 
1608	 0.574488355960625 
1609	 0.574534570241676 
1610	 0.574579031073086 
1611	 0.574624907289592 
1612	 0.574690806217837 
1613	 0.574788671892742 
1614	 0.574898977630341 
1615	 0.575010030924548 
1616	 0.575131777608124 
1617	 0.575214268492264 
1618	 0.575286273282511 
1619	 0.575397637537597 
1620	 0.575488682967191 
1621	 0.575573449590913 
1622	 0.575669606606007 
1623	 0.575733649143212 
1624	 0.575768998701803 
1625	 0.575811030142287 
1626	 0.57584051637496 
1627	 0.575876859982173 
1628	 0.57590999466667 
1629	 0.575946434851847 
1630	 0.575986957000309 
1631	 0.57602659089056 
1632	 0.576062551545489 
1633	 0.576105883191086 
1634	 0.576161765975818 
1635	 0.57619119067953 
1636	 0.576193444672502 
1637	 0.57625200798005 
1638	 0.576321381304162 
1639	 0.57639374199028 
1640	 0.576513427460627 
1641	 0.576598942816707 
1642	 0.576653879570953 
1643	 0.576733426273686 
1644	 0.576833576989162 
1645	 0.576910175491626 
1646	 0.576970057328309 
1647	 0.577053962534332 
1648	 0.577133730185348 
1649	 0.577231460765723 
1650	 0.577367050649732 
1651	 0.577460559094573 
1652	 0.577537100089541 
1653	 0.577623084539789 
1654	 0.577690700657645 
1655	 0.577775393434671 
1656	 0.577875885607722 
1657	 0.577969684907303 
1658	 0.578064725027106 
1659	 0.57815535111396 
1660	 0.578269758246307 
1661	 0.57832432071465 
1662	 0.578342872062497 
1663	 0.578366223689859 
1664	 0.578350737378392 
1665	 0.578350679575794 
1666	 0.578343831743647 
1667	 0.578371249191924 
1668	 0.578390148691511 
1669	 0.578456838570366 
1670	 0.578583994472487 
1671	 0.578688445655403 
1672	 0.578816971790001 
1673	 0.57891791650534 
1674	 0.579015738516454 
1675	 0.57909144057815 
1676	 0.579146380309706 
1677	 0.579197020864987 
1678	 0.579211312809186 
1679	 0.579269045204691 
1680	 0.579352665809939 
1681	 0.579409624052339 
1682	 0.579482541926729 
1683	 0.579535979987396 
1684	 0.579539159915151 
1685	 0.579596889155447 
1686	 0.579685046752647 
1687	 0.579762442851153 
1688	 0.579848413694847 
1689	 0.579952450506496 
1690	 0.580067413988935 
1691	 0.580173828776889 
1692	 0.580294412900282 
1693	 0.580413073256656 
1694	 0.580535177388643 
1695	 0.580628916706043 
1696	 0.580719923398841 
1697	 0.580804624399692 
1698	 0.580851434780883 
1699	 0.58091820057611 
1700	 0.58101211917165 
1701	 0.581072285694779 
1702	 0.581114175965911 
1703	 0.58115100087493 
1704	 0.581161022289092 
1705	 0.581201155624252 
1706	 0.581259737136218 
1707	 0.581289985733466 
1708	 0.581315613273346 
1709	 0.581349016034932 
1710	 0.581332636484357 
1711	 0.581407739665126 
1712	 0.58154636881771 
1713	 0.581668424369549 
1714	 0.581851165294094 
1715	 0.581971690212291 
1716	 0.582054986642977 
1717	 0.582156065448155 
1718	 0.582252726943443 
1719	 0.582323348931182 
1720	 0.582407270979496 
1721	 0.582440816940368 
1722	 0.582406515791834 
1723	 0.582424720152848 
1724	 0.582451811312866 
1725	 0.582455347515046 
1726	 0.582468732678281 
1727	 0.58247467391725 
1728	 0.582458350391531 
1729	 0.582436793181061 
1730	 0.58242056249055 
1731	 0.582394256529008 
1732	 0.582340807258181 
1733	 0.582299882589775 
1734	 0.582262099726624 
1735	 0.582248181846587 
1736	 0.58223767504026 
1737	 0.582237714245211 
1738	 0.582254669987259 
1739	 0.582284948728905 
1740	 0.5823355945675 
1741	 0.582353986057296 
1742	 0.582385897985684 
1743	 0.582394699729724 
1744	 0.582362721037364 
1745	 0.582348713202743 
1746	 0.582338918805171 
1747	 0.582338564463531 
1748	 0.582334416044849 
1749	 0.582366791160704 
1750	 0.582388804891045 
1751	 0.582378375093278 
1752	 0.582388184309159 
1753	 0.582390974739166 
1754	 0.582405464171321 
1755	 0.582449928358498 
1756	 0.582491722074074 
1757	 0.582530517844377 
1758	 0.582567052932497 
1759	 0.582594985111993 
1760	 0.582625071166153 
1761	 0.582648761518329 
1762	 0.582678753919079 
1763	 0.582739557326417 
1764	 0.58276408809493 
1765	 0.582800000824782 
1766	 0.582856793480296 
1767	 0.58284997694865 
1768	 0.582870292678047 
1769	 0.582875759741305 
1770	 0.582850925054174 
1771	 0.582887839039958 
1772	 0.582904195382202 
1773	 0.582918886832254 
1774	 0.582986434638077 
1775	 0.583055493708029 
1776	 0.583135867577547 
1777	 0.583254109584485 
1778	 0.583337127405831 
1779	 0.583372490379951 
1780	 0.583391230770684 
1781	 0.58338296496082 
1782	 0.58340642414958 
1783	 0.58348622972485 
1784	 0.583545186951742 
1785	 0.583630539406039 
1786	 0.583677504206372 
1787	 0.583656523969021 
1788	 0.583702283747498 
1789	 0.583773981864686 
1790	 0.583853157277018 
1791	 0.583996345839654 
1792	 0.584079349711123 
1793	 0.584146210239402 
1794	 0.58418288405862 
1795	 0.584184082590098 
1796	 0.584182221220262 
1797	 0.584123369467762 
1798	 0.584137129724449 
1799	 0.584173479664838 
1800	 0.584209160369295 
1801	 0.578080784415702 
1802	 0.578159046485251 
1803	 0.578226013536173 
1804	 0.578300379471336 
1805	 0.578392028999907 
1806	 0.578457905263812 
1807	 0.578500490095589 
1808	 0.578533288285852 
1809	 0.578568076825897 
1810	 0.578572468827716 
1811	 0.578547547085301 
1812	 0.57851151822518 
1813	 0.578511484726841 
1814	 0.578492611952503 
1815	 0.578445385873755 
1816	 0.578460500203486 
1817	 0.578474540821924 
1818	 0.578487194281998 
1819	 0.578483016512985 
1820	 0.578521709427075 
1821	 0.578501296768713 
1822	 0.57839616695386 
1823	 0.578324654962883 
1824	 0.578259627022437 
1825	 0.578171290811004 
1826	 0.578075735003999 
1827	 0.577941824640585 
1828	 0.577797384923024 
1829	 0.577609792465653 
1830	 0.577437483839419 
1831	 0.577249156985214 
1832	 0.577091407932082 
1833	 0.576936171152762 
1834	 0.576773411495048 
1835	 0.576666084120414 
1836	 0.576555362597781 
1837	 0.576412789432273 
1838	 0.57626108582605 
1839	 0.576111750487471 
1840	 0.57594705995632 
1841	 0.575777291871543 
1842	 0.575611933747739 
1843	 0.575480470578617 
1844	 0.575350075656497 
1845	 0.575225733871483 
1846	 0.575152416095734 
1847	 0.575117697173538 
1848	 0.575096804355439 
1849	 0.575092128685247 
1850	 0.575100979494271 
1851	 0.575127579330601 
1852	 0.575147575685861 
1853	 0.575188855994326 
1854	 0.575255713891442 
1855	 0.575328395634528 
1856	 0.57542705454742 
1857	 0.575580420881899 
1858	 0.575721309978211 
1859	 0.575847539247715 
1860	 0.575952529261434 
1861	 0.576052637402719 
1862	 0.576090290724074 
1863	 0.57611942967802 
1864	 0.576130382697953 
1865	 0.576145783077503 
1866	 0.57616171697301 
1867	 0.576164487445702 
1868	 0.576204613884298 
1869	 0.576253505069305 
1870	 0.576290288937646 
1871	 0.576347059517785 
1872	 0.576430917214483 
1873	 0.57651325603251 
1874	 0.576563222859653 
1875	 0.576623488164567 
1876	 0.576633006722996 
1877	 0.57657818919891 
1878	 0.576503866666787 
1879	 0.576389745805005 
1880	 0.576249348550543 
1881	 0.576068057098307 
1882	 0.575883392021501 
1883	 0.575682210183479 
1884	 0.575459417245417 
1885	 0.575197247288195 
1886	 0.574900639291446 
1887	 0.574577855270013 
1888	 0.574221109763896 
1889	 0.573847585492261 
1890	 0.573453690942867 
1891	 0.57305078182434 
1892	 0.572612453864142 
1893	 0.57218076625892 
1894	 0.571730460833603 
1895	 0.571319558195572 
1896	 0.570887183527422 
1897	 0.570452677345242 
1898	 0.570022136416151 
1899	 0.569572113563916 
1900	 0.569167635570998 
1901	 0.568797832017253 
1902	 0.568454441026217 
1903	 0.568175250559733 
1904	 0.567881850809003 
1905	 0.567596856485479 
1906	 0.567321818821254 
1907	 0.567070468231477 
1908	 0.566817731938417 
1909	 0.566590078427486 
1910	 0.566374199849876 
1911	 0.566133772961537 
1912	 0.565932921123266 
1913	 0.565730060913259 
1914	 0.565523849816542 
1915	 0.565325441553913 
1916	 0.565156586859249 
1917	 0.564965536585797 
1918	 0.564729814345905 
1919	 0.564520119686478 
1920	 0.564324894783502 
1921	 0.564107746187683 
1922	 0.563912222779773 
1923	 0.563741069753471 
1924	 0.563567440227124 
1925	 0.563375949799279 
1926	 0.563227669145028 
1927	 0.563109812292903 
1928	 0.562989214019278 
1929	 0.562877268732997 
1930	 0.562764160086208 
1931	 0.562680099802023 
1932	 0.562599005865778 
1933	 0.562544211748829 
1934	 0.562505975141973 
1935	 0.562478260254295 
1936	 0.562451758539599 
1937	 0.562457858155156 
1938	 0.562497658164077 
1939	 0.56253208015357 
1940	 0.56258810679177 
1941	 0.56262678838924 
1942	 0.562666054419106 
1943	 0.562714713103375 
1944	 0.562758938688562 
1945	 0.562803098740246 
1946	 0.562864131203244 
1947	 0.562932999408403 
1948	 0.563013375780208 
1949	 0.563116243730588 
1950	 0.56321036697747 
1951	 0.56331538857036 
1952	 0.563409861024084 
1953	 0.563482019891457 
1954	 0.56355543810321 
1955	 0.563644437012181 
1956	 0.563736495005356 
1957	 0.563828279561969 
1958	 0.563922972605647 
1959	 0.564041520925495 
1960	 0.564160695286762 
1961	 0.564293340525296 
1962	 0.56447382110905 
1963	 0.564629199465698 
1964	 0.564784285542492 
1965	 0.564916716491885 
1966	 0.565048429005834 
1967	 0.565163596522083 
1968	 0.565285360498887 
1969	 0.565391806969661 
1970	 0.565517158680016 
1971	 0.565646803798796 
1972	 0.565788801310489 
1973	 0.565944652539828 
1974	 0.566103137828169 
1975	 0.566268060284235 
1976	 0.566436551541673 
1977	 0.566631794945752 
1978	 0.566821248557615 
1979	 0.567031978419431 
1980	 0.567246794256375 
1981	 0.567464893281113 
1982	 0.567686870566188 
1983	 0.567906236173789 
1984	 0.56814335169896 
1985	 0.568362760329274 
1986	 0.568570916089671 
1987	 0.568773564765278 
1988	 0.568990653494357 
1989	 0.569152585304699 
1990	 0.569303247021604 
1991	 0.569475744642216 
1992	 0.569650439082745 
1993	 0.569819215413144 
1994	 0.569997223222723 
1995	 0.570186261398384 
1996	 0.570376997361812 
1997	 0.57054883081444 
1998	 0.570763668803649 
1999	 0.571010259340705 
2000	 0.571258794108031 
2001	 0.571556373757671 
2002	 0.571816778737334 
2003	 0.572046650263153 
2004	 0.57227582328901 
2005	 0.572472750100522 
2006	 0.572609456184675 
2007	 0.572797617341597 
2008	 0.572977414912405 
2009	 0.573182864825782 
2010	 0.573425515797627 
2011	 0.573655311685014 
2012	 0.573883073642426 
2013	 0.574129535618847 
2014	 0.574388378169657 
2015	 0.574634017166801 
2016	 0.574926863254352 
2017	 0.575227676156603 
2018	 0.575506553802413 
2019	 0.575790947260229 
2020	 0.57606292700449 
2021	 0.576298974747915 
2022	 0.576567575257948 
2023	 0.576868665378832 
2024	 0.577136716119217 
2025	 0.577386124458513 
2026	 0.577654743887452 
2027	 0.577931558564177 
2028	 0.578173397125573 
2029	 0.578436578177816 
2030	 0.578724210318653 
2031	 0.578997671210815 
2032	 0.579263483138929 
2033	 0.579523145172324 
2034	 0.579798541556425 
2035	 0.580039439723753 
2036	 0.580258029884021 
2037	 0.580465972581846 
2038	 0.580648276442473 
2039	 0.58083292840676 
2040	 0.581019880185384 
2041	 0.581174278802781 
2042	 0.581321681091788 
2043	 0.58150687575108 
2044	 0.581665708450905 
2045	 0.581805365057248 
2046	 0.581974321218896 
2047	 0.582153202110254 
2048	 0.582322550519208 
2049	 0.582519257760335 
2050	 0.582682634982356 
2051	 0.582815247163175 
2052	 0.58296297310113 
2053	 0.583107391159954 
2054	 0.583246205088049 
2055	 0.583399668131756 
2056	 0.583529997560564 
2057	 0.583646040924638 
2058	 0.58373987914794 
2059	 0.583845364569499 
2060	 0.583935329865814 
2061	 0.584039353305832 
2062	 0.58413395647846 
2063	 0.584265399956795 
2064	 0.584425823267203 
2065	 0.584573975616415 
2066	 0.584750469516876 
2067	 0.584911576813473 
2068	 0.585061521732802 
2069	 0.585205034274004 
2070	 0.585338690749237 
2071	 0.585469427983143 
2072	 0.585596732614138 
2073	 0.585704716826017 
2074	 0.585826895290854 
2075	 0.585969626783809 
2076	 0.586083088086656 
2077	 0.586176449353826 
2078	 0.586281708573677 
2079	 0.586360732006379 
2080	 0.586471592850021 
2081	 0.586612070241846 
2082	 0.586743275676448 
2083	 0.586880961488309 
2084	 0.58703718978099 
2085	 0.587153950865149 
2086	 0.587246962866399 
2087	 0.587359207966018 
2088	 0.587462306237401 
2089	 0.587563470653723 
2090	 0.587675298792792 
2091	 0.587779419626841 
2092	 0.587858373446404 
2093	 0.587960894205071 
2094	 0.588094158237773 
2095	 0.588199232264536 
2096	 0.588278976188508 
2097	 0.588387369944039 
2098	 0.588493339010531 
2099	 0.588603981701107 
2100	 0.588737991055907 
2101	 0.588907527431672 
2102	 0.589058844835803 
2103	 0.58921252544897 
2104	 0.589366514792997 
2105	 0.589500498004073 
2106	 0.589684514565693 
2107	 0.589896000769166 
2108	 0.590106811374901 
2109	 0.59035327094605 
2110	 0.590593157982294 
2111	 0.590824473972452 
2112	 0.591062739666987 
2113	 0.591306410210294 
2114	 0.591579210251767 
2115	 0.591810867819625 
2116	 0.592028903069208 
2117	 0.59224950383587 
2118	 0.59244740682448 
2119	 0.5926641450647 
2120	 0.592889588740063 
2121	 0.593116510560737 
2122	 0.593359379487741 
2123	 0.593577591942211 
2124	 0.593798285430804 
2125	 0.593997128452631 
2126	 0.594169032119091 
2127	 0.594341032904764 
2128	 0.594511266352261 
2129	 0.594660598574015 
2130	 0.594803886141998 
2131	 0.594933994370186 
2132	 0.59501435522008 
2133	 0.595060942744417 
2134	 0.595092711106929 
2135	 0.595112040068396 
2136	 0.595055896725386 
2137	 0.594956300650877 
2138	 0.594832715507266 
2139	 0.594617158064335 
2140	 0.594435750733595 
2141	 0.594277188355985 
2142	 0.594072584166759 
2143	 0.593852011006542 
2144	 0.59360057685312 
2145	 0.593294906679056 
2146	 0.592997574024198 
2147	 0.592673479175721 
2148	 0.592359101113235 
2149	 0.592045983067774 
2150	 0.591762342903319 
2151	 0.591399526065604 
2152	 0.591015584138155 
2153	 0.590599691255732 
2154	 0.590108252987469 
2155	 0.589651642070945 
2156	 0.589214870754758 
2157	 0.588728229950231 
2158	 0.588204668752849 
2159	 0.587694816718971 
2160	 0.587163664809484 
2161	 0.586629154898462 
2162	 0.586099164954115 
2163	 0.585569567421721 
2164	 0.585042333923226 
2165	 0.584484160391673 
2166	 0.583923062033871 
2167	 0.583377147845729 
2168	 0.582782690615994 
2169	 0.58213214992797 
2170	 0.581525018463431 
2171	 0.58090094844608 
2172	 0.580310040907886 
2173	 0.57975722386467 
2174	 0.579187635596071 
2175	 0.578629233346577 
2176	 0.578058755301676 
2177	 0.577481534021424 
2178	 0.576897780134088 
2179	 0.576312323549748 
2180	 0.575716734360235 
2181	 0.575107482940821 
2182	 0.574499327383559 
2183	 0.573883924302609 
2184	 0.57326143526377 
2185	 0.572651757002566 
2186	 0.572040696898379 
2187	 0.571448319760407 
2188	 0.570858626712959 
2189	 0.570293943253175 
2190	 0.56975195267299 
2191	 0.569208609466519 
2192	 0.568643403413584 
2193	 0.568163950119704 
2194	 0.567708630334278 
2195	 0.567305635282557 
2196	 0.567017036526876 
2197	 0.566681580081426 
2198	 0.566355894443708 
2199	 0.566029253003964 
2200	 0.565681388828876 
2201	 0.565363778347168 
2202	 0.56506337283017 
2203	 0.564768981295238 
2204	 0.564507563676463 
2205	 0.564268731087698 
2206	 0.564048966273603 
2207	 0.563845784944045 
2208	 0.563686398479367 
2209	 0.56355453599164 
2210	 0.563458351462016 
2211	 0.563398543168654 
2212	 0.563375550964035 
2213	 0.563422185341159 
2214	 0.563422322449649 
2215	 0.563457903867911 
2216	 0.56345431288149 
2217	 0.563418687828771 
2218	 0.563367740788351 
2219	 0.563320741610182 
2220	 0.563226312206965 
2221	 0.563077925342276 
2222	 0.562935956573483 
2223	 0.562747987244863 
2224	 0.56254209807803 
2225	 0.562332550877604 
2226	 0.562119004326901 
2227	 0.561859551333232 
2228	 0.561576127823353 
2229	 0.561273781697978 
2230	 0.560912282763539 
2231	 0.560588869372219 
2232	 0.560262190044192 
2233	 0.559961436837047 
2234	 0.55968033862776 
2235	 0.559393710089765 
2236	 0.559132570788341 
2237	 0.5588394171793 
2238	 0.558563269450445 
2239	 0.558227367838796 
2240	 0.557839366939805 
2241	 0.557454650713388 
2242	 0.557021046737951 
2243	 0.556595817901582 
2244	 0.556171491473472 
2245	 0.555760930348785 
2246	 0.555288010727014 
2247	 0.554848161053229 
2248	 0.554385935620443 
2249	 0.553899048621664 
2250	 0.553431899959298 
2251	 0.552966057617377 
2252	 0.552506770586837 
2253	 0.55203169531775 
2254	 0.551620771991145 
2255	 0.551235602655067 
2256	 0.550877195034233 
2257	 0.550566475702121 
2258	 0.550268660194157 
2259	 0.549953747278985 
2260	 0.549726844068198 
2261	 0.54955584517365 
2262	 0.549425554130762 
2263	 0.549341649869009 
2264	 0.549330493738833 
2265	 0.549362130882075 
2266	 0.549469651530379 
2267	 0.549714159333238 
2268	 0.549933675698878 
2269	 0.550206757148678 
2270	 0.550457251786338 
2271	 0.550746449383847 
2272	 0.550970708405723 
2273	 0.551230351858145 
2274	 0.551605791943169 
2275	 0.55199512272663 
2276	 0.552432200807925 
2277	 0.552892698147646 
2278	 0.553416256745102 
2279	 0.553910955530343 
2280	 0.554411002296569 
2281	 0.554939549107177 
2282	 0.555495277412284 
2283	 0.556014353653664 
2284	 0.556563974429257 
2285	 0.557055654947536 
2286	 0.557485286120643 
2287	 0.557946679670637 
2288	 0.558386847048845 
2289	 0.558848358628713 
2290	 0.559317443322159 
2291	 0.559797247118143 
2292	 0.560306467901295 
2293	 0.560793572522758 
2294	 0.561309425470971 
2295	 0.561772049062821 
2296	 0.562202276475913 
2297	 0.562588363628602 
2298	 0.563004198157885 
2299	 0.563421968912208 
2300	 0.56381073348468 
2301	 0.564266832956881 
2302	 0.564685964391483 
2303	 0.565071703152467 
2304	 0.565507391126227 
2305	 0.565929341702463 
2306	 0.566341860647636 
2307	 0.566767457073809 
2308	 0.56713112591695 
2309	 0.567430761848659 
2310	 0.567802660660712 
2311	 0.568172754557504 
2312	 0.568525388651713 
2313	 0.568937423814326 
2314	 0.569285222060663 
2315	 0.569553459059796 
2316	 0.569867301446809 
2317	 0.570199828253419 
2318	 0.57052088711228 
2319	 0.570819575629689 
2320	 0.571146228009249 
2321	 0.571491872884149 
2322	 0.571823431156223 
2323	 0.572187947124224 
2324	 0.572518883733049 
2325	 0.572787831279731 
2326	 0.57310519015947 
2327	 0.573439924889266 
2328	 0.57376098547683 
2329	 0.574124938016205 
2330	 0.574529700783884 
2331	 0.574883155618317 
2332	 0.575251298308204 
2333	 0.57554508948691 
2334	 0.575792120192555 
2335	 0.576015069650093 
2336	 0.576204449767685 
2337	 0.576487234094283 
2338	 0.576768175623906 
2339	 0.576963673551323 
2340	 0.577135774779252 
2341	 0.577296702794355 
2342	 0.577444768427294 
2343	 0.57760274560229 
2344	 0.577784197631407 
2345	 0.577848148692876 
2346	 0.57776517327783 
2347	 0.577765547676364 
2348	 0.577781517806477 
2349	 0.577713097983374 
2350	 0.577615663019771 
2351	 0.577539053221176 
2352	 0.577386969384591 
2353	 0.577272709827862 
2354	 0.577217686224111 
2355	 0.5771372125054 
2356	 0.577030592944529 
2357	 0.576917747243 
2358	 0.576816803040985 
2359	 0.576690134860933 
2360	 0.576542503605468 
2361	 0.576382941279837 
2362	 0.576194545962328 
2363	 0.576033137891517 
2364	 0.575876474034232 
2365	 0.575699106165507 
2366	 0.575506687595675 
2367	 0.575353592268979 
2368	 0.575231347377813 
2369	 0.575050020481436 
2370	 0.574864783793577 
2371	 0.574716391075043 
2372	 0.574400729855632 
2373	 0.573995101242721 
2374	 0.573643930263419 
2375	 0.573269685856957 
2376	 0.572962425135413 
2377	 0.57275300912795 
2378	 0.572515968639523 
2379	 0.572201218345955 
2380	 0.571904686366955 
2381	 0.57166188426119 
2382	 0.57141509018796 
2383	 0.571202203511198 
2384	 0.570974662256655 
2385	 0.570609319486784 
2386	 0.570190049898267 
2387	 0.56982663359508 
2388	 0.569397569639801 
2389	 0.56894852094452 
2390	 0.568578070589281 
2391	 0.568166312840096 
2392	 0.567698780360885 
2393	 0.567292790811167 
2394	 0.566914303343482 
2395	 0.566476294186896 
2396	 0.566057277394211 
2397	 0.565564079618826 
2398	 0.565028673294404 
2399	 0.564559435825162 
2400	 0.564132728137207 
2401	 0.563870585921389 
2402	 0.563617388774304 
2403	 0.563250762830525 
2404	 0.56286776017517 
2405	 0.562434704927379 
2406	 0.561920462009329 
2407	 0.561438437256675 
2408	 0.561058588395832 
2409	 0.560674200655827 
2410	 0.560330734553108 
2411	 0.560081486410162 
2412	 0.559836993798244 
2413	 0.55954396992351 
2414	 0.559218678518603 
2415	 0.55891203486956 
2416	 0.558640101282398 
2417	 0.558369280412661 
2418	 0.55808762124952 
2419	 0.557847977130521 
2420	 0.55758402697327 
2421	 0.557276918520349 
2422	 0.556995347554025 
2423	 0.556758406585366 
2424	 0.556481400035513 
2425	 0.556129821598401 
2426	 0.555919632349838 
2427	 0.555791184064764 
2428	 0.555570509417565 
2429	 0.555441039256644 
2430	 0.555137713662598 
2431	 0.554696860020023 
2432	 0.554273533834343 
2433	 0.553691370632067 
2434	 0.553344342747106 
2435	 0.553086534019626 
2436	 0.552871844610049 
2437	 0.552854286028885 
2438	 0.552703459519426 
2439	 0.552491731262985 
2440	 0.552314185663714 
2441	 0.552158540319188 
2442	 0.551942967292033 
2443	 0.551688613241466 
2444	 0.551409918653131 
2445	 0.551086945945171 
2446	 0.550821912178277 
2447	 0.550592455744968 
2448	 0.55027338291187 
2449	 0.549911592101905 
2450	 0.549492487150953 
2451	 0.549004829306045 
2452	 0.548621003255093 
2453	 0.548255943149369 
2454	 0.547983314562325 
2455	 0.547756220873717 
2456	 0.547440886846723 
2457	 0.547119257144315 
2458	 0.546819616876677 
2459	 0.546509320999874 
2460	 0.546337383341678 
2461	 0.546284078186369 
2462	 0.546132966468301 
2463	 0.545980465220573 
2464	 0.545813388400431 
2465	 0.545627259459481 
2466	 0.545453242957806 
2467	 0.545279011665613 
2468	 0.54507797525877 
2469	 0.544869885906193 
2470	 0.544433570939449 
2471	 0.544266835800653 
2472	 0.544175768584936 
2473	 0.543819954497363 
2474	 0.543774995953976 
2475	 0.543603244728736 
2476	 0.543052662254725 
2477	 0.542835972886907 
2478	 0.542576548979664 
2479	 0.542345169463485 
2480	 0.542425379682646 
2481	 0.542334056035401 
2482	 0.542214644543008 
2483	 0.54189788118022 
2484	 0.541465906711887 
2485	 0.541305711411527 
2486	 0.541107516521909 
2487	 0.541008376684894 
2488	 0.540894222629686 
2489	 0.540470428245541 
2490	 0.540070995395309 
2491	 0.539920536773697 
2492	 0.539810339393161 
2493	 0.539631132030073 
2494	 0.539380174327233 
2495	 0.538982225547982 
2496	 0.538516967308616 
2497	 0.538017435779 
2498	 0.537608796467768 
2499	 0.537284664806135 
2500	 0.53709631329364 
