Wavelength	MM800005.asd
350	 5.18124081421017E-02 
351	 5.98890866840639E-02 
352	 6.06530223865052E-02 
353	 4.95376339501677E-02 
354	 5.28905254175663E-02 
355	 6.14119069077085E-02 
356	 6.26357445622186E-02 
357	 5.26325784020858E-02 
358	 6.13442185623756E-02 
359	 6.42105714129157E-02 
360	 5.94697306918864E-02 
361	 6.00097897243343E-02 
362	 5.76305334886124E-02 
363	 5.63246334919496E-02 
364	 5.74141262308317E-02 
365	 5.58295828407885E-02 
366	 5.91435902163708E-02 
367	 6.05904747959461E-02 
368	 5.52771138166328E-02 
369	 6.14042673942592E-02 
370	 6.26141124411685E-02 
371	 0.059736546607038 
372	 0.064551571726213 
373	 6.52732686567827E-02 
374	 6.42931185970265E-02 
375	 6.45811530826301E-02 
376	 6.70300696659245E-02 
377	 6.58501159901144E-02 
378	 6.49867843023964E-02 
379	 6.84097385280912E-02 
380	 6.68982115347476E-02 
381	 6.67118966853686E-02 
382	 6.94329187160172E-02 
383	 7.25268333730711E-02 
384	 7.39715798984169E-02 
385	 7.31567115842008E-02 
386	 7.17099469530541E-02 
387	 7.49699047977744E-02 
388	 7.75374891612695E-02 
389	 7.97688615687458E-02 
390	 8.27877559471014E-02 
391	 8.19690261596154E-02 
392	 8.22243821471857E-02 
393	 8.48836399289774E-02 
394	 8.78215637522825E-02 
395	 8.94613933846805E-02 
396	 9.05426877514065E-02 
397	 9.21955698009428E-02 
398	 9.58384888855038E-02 
399	 9.66491685782898E-02 
400	 9.71329980547541E-02 
401	 0.100987547175997 
402	 0.102175644459781 
403	 0.103329996834233 
404	 0.105224513878275 
405	 0.106282061282379 
406	 0.107420190110473 
407	 0.109404469586823 
408	 0.112121471981457 
409	 0.113484217276996 
410	 0.113738385213509 
411	 0.114283179490854 
412	 0.116600817587254 
413	 0.118762111177343 
414	 0.119802916346805 
415	 0.120029856292782 
416	 0.121160704303885 
417	 0.121699762164789 
418	 0.122134244867 
419	 0.122966169879468 
420	 0.123103030739778 
421	 0.12305134296689 
422	 0.12328731951553 
423	 0.124117550062897 
424	 0.124581518010786 
425	 0.124512601671892 
426	 0.124056344728907 
427	 0.123658001582202 
428	 0.12324098214168 
429	 0.122900044831039 
430	 0.122692935743406 
431	 0.122347125728345 
432	 0.121653895036029 
433	 0.12096781403277 
434	 0.121108763738708 
435	 0.121229312500822 
436	 0.12148439824837 
437	 0.121979456716865 
438	 0.122093524919308 
439	 0.122772497952825 
440	 0.123963591804167 
441	 0.125111198054378 
442	 0.126071150990811 
443	 0.127277886660723 
444	 0.128737774556426 
445	 0.129722676268088 
446	 0.131011459185373 
447	 0.132383244743166 
448	 0.133510072013326 
449	 0.134847306219292 
450	 0.136477270868166 
451	 0.138149385399639 
452	 0.139372767695586 
453	 0.140284523801423 
454	 0.141240397818279 
455	 0.142415023106434 
456	 0.143478211268934 
457	 0.144380934181343 
458	 0.145240676557131 
459	 0.146225594379573 
460	 0.147217633914561 
461	 0.147915621187668 
462	 0.148469658258902 
463	 0.149681366865176 
464	 0.150408871423258 
465	 0.150829183720608 
466	 0.15139336422091 
467	 0.152058718882276 
468	 0.152615265151202 
469	 0.153069407458285 
470	 0.153591206362142 
471	 0.153912220324623 
472	 0.154382460759172 
473	 0.155109876801623 
474	 0.155369806057338 
475	 0.155810801712956 
476	 0.15638252114032 
477	 0.156778277245692 
478	 0.157209489330903 
479	 0.157637587731022 
480	 0.158040297056003 
481	 0.158443625870851 
482	 0.158913751679172 
483	 0.159462857818974 
484	 0.160009762425804 
485	 0.160171645455001 
486	 0.160400666599695 
487	 0.160795382735651 
488	 0.161148871700252 
489	 0.161574534033295 
490	 0.162075951988168 
491	 0.162595734927823 
492	 0.162988089295756 
493	 0.163199018271135 
494	 0.163383601948802 
495	 0.163778587663506 
496	 0.16440421387887 
497	 0.164783120866797 
498	 0.164902652126291 
499	 0.165498568929737 
500	 0.166031637397333 
501	 0.166403254965282 
502	 0.166666680197978 
503	 0.166939389639563 
504	 0.167238232963518 
505	 0.167597913278489 
506	 0.168062372322884 
507	 0.168420998053767 
508	 0.168777893834405 
509	 0.169194644771361 
510	 0.169436263394113 
511	 0.16970773261447 
512	 0.170081903250108 
513	 0.170533566437115 
514	 0.170865346681958 
515	 0.171107260445319 
516	 0.171346517748671 
517	 0.171723194645262 
518	 0.172057289747328 
519	 0.172374772549732 
520	 0.172748794458818 
521	 0.17312814059264 
522	 0.173459679741429 
523	 0.173740120689514 
524	 0.174017525895404 
525	 0.174298307922938 
526	 0.174637262568331 
527	 0.175033683107564 
528	 0.175282779923925 
529	 0.17558148286487 
530	 0.175938424981428 
531	 0.176243164277437 
532	 0.176552537819851 
533	 0.17689894492924 
534	 0.177290338377556 
535	 0.177698358523309 
536	 0.178090207134997 
537	 0.178435460801988 
538	 0.178723008219898 
539	 0.179032780025372 
540	 0.179369663732092 
541	 0.179728077820896 
542	 0.180099418601405 
543	 0.180423969516254 
544	 0.180765427058391 
545	 0.181184455577527 
546	 0.181593018852891 
547	 0.181957575805879 
548	 0.182338027881707 
549	 0.182856421133696 
550	 0.183273475896306 
551	 0.183651489594018 
552	 0.184085663782849 
553	 0.184618278379927 
554	 0.185079860864712 
555	 0.185497248806085 
556	 0.18599738197823 
557	 0.186580607466704 
558	 0.187096361553051 
559	 0.187528940382845 
560	 0.188127204668525 
561	 0.188742488830764 
562	 0.189390316023648 
563	 0.190145375627484 
564	 0.191120254148835 
565	 0.192039157092291 
566	 0.192798889219898 
567	 0.193515431906673 
568	 0.19431302923794 
569	 0.195146251766623 
570	 0.195975405267127 
571	 0.196965498835136 
572	 0.197889715012562 
573	 0.198702140943876 
574	 0.199502355464747 
575	 0.200418931498747 
576	 0.201482248474366 
577	 0.202639055501393 
578	 0.203711034268579 
579	 0.204717663651172 
580	 0.205642084506341 
581	 0.20649396527315 
582	 0.207480643708657 
583	 0.208622425293159 
584	 0.209918164272861 
585	 0.211374049841059 
586	 0.212860752259302 
587	 0.214311475566109 
588	 0.215703735238967 
589	 0.217090438414874 
590	 0.218537702086604 
591	 0.220033360047508 
592	 0.221493084460557 
593	 0.222776304905587 
594	 0.223856418485294 
595	 0.224767826836114 
596	 0.225593383092394 
597	 0.226535644287182 
598	 0.227573991920116 
599	 0.228584609516439 
600	 0.229728408506128 
601	 0.230990111325553 
602	 0.232283222795386 
603	 0.23343903881398 
604	 0.234513363140307 
605	 0.235604997354712 
606	 0.236786241250329 
607	 0.237886170716088 
608	 0.238810394139817 
609	 0.239651889536486 
610	 0.240702988049742 
611	 0.2416815739925 
612	 0.242565853262816 
613	 0.243388026241089 
614	 0.244155221352229 
615	 0.244824841992799 
616	 0.245464876920321 
617	 0.246195970435895 
618	 0.246806462255827 
619	 0.247337348841103 
620	 0.247867275921833 
621	 0.248478677132934 
622	 0.249015910791446 
623	 0.249476756775226 
624	 0.249928855666313 
625	 0.250437456188984 
626	 0.250921495078629 
627	 0.251346987163483 
628	 0.251757322062137 
629	 0.252193655786755 
630	 0.252604906158342 
631	 0.252950831921265 
632	 0.253336865425411 
633	 0.253732533775967 
634	 0.254106541694729 
635	 0.254434083250034 
636	 0.254775528894501 
637	 0.255117398839513 
638	 0.25544848230135 
639	 0.255798921969861 
640	 0.25615114703838 
641	 0.256512965236523 
642	 0.256897312984285 
643	 0.257276865274308 
644	 0.257595655357668 
645	 0.257895286403397 
646	 0.258362990181483 
647	 0.258753956976389 
648	 0.259080329928622 
649	 0.259426831253228 
650	 0.259838426034349 
651	 0.260232754360523 
652	 0.260587882451731 
653	 0.260941129793996 
654	 0.261327970321068 
655	 0.261751975709994 
656	 0.262199571474153 
657	 0.262628538340585 
658	 0.263106209564714 
659	 0.263590797982972 
660	 0.264007203093934 
661	 0.264467208062311 
662	 0.264932588319707 
663	 0.265393221851523 
664	 0.265901589231501 
665	 0.26638096157998 
666	 0.266877520977794 
667	 0.267433334571646 
668	 0.267912124452803 
669	 0.268426759104371 
670	 0.269004961187185 
671	 0.269595274559199 
672	 0.270176278593726 
673	 0.270766419760635 
674	 0.271365993273026 
675	 0.271897571551478 
676	 0.272536504764382 
677	 0.273193614125591 
678	 0.273713577481023 
679	 0.274369751856407 
680	 0.275036399444959 
681	 0.275675924685278 
682	 0.276410511030201 
683	 0.277048512484367 
684	 0.27769741840636 
685	 0.27846600095298 
686	 0.279175425693726 
687	 0.279867142112193 
688	 0.280587277913559 
689	 0.281372459801064 
690	 0.282117256854283 
691	 0.282854311661158 
692	 0.28361992487302 
693	 0.28442174901374 
694	 0.285178406916942 
695	 0.285924025761054 
696	 0.28672024459332 
697	 0.287509091063681 
698	 0.288362012727185 
699	 0.289242714779171 
700	 0.290001209874516 
701	 0.290755286355885 
702	 0.291583567974838 
703	 0.292498464492158 
704	 0.293371702042392 
705	 0.29417382017659 
706	 0.294949012825209 
707	 0.295771769340661 
708	 0.29659453496076 
709	 0.297382037160901 
710	 0.298145502275571 
711	 0.29896240047642 
712	 0.299815225399147 
713	 0.30068893172053 
714	 0.301544995949873 
715	 0.302258012978305 
716	 0.302934832577678 
717	 0.303657263751315 
718	 0.30446761612898 
719	 0.305253780123135 
720	 0.305996190418117 
721	 0.306691339836249 
722	 0.307332562044339 
723	 0.307998519146187 
724	 0.308632242119142 
725	 0.309154437579564 
726	 0.309618363004551 
727	 0.310142878189881 
728	 0.31074240057123 
729	 0.311326697175243 
730	 0.311804048953032 
731	 0.312202272433945 
732	 0.312580360195248 
733	 0.313016869690988 
734	 0.313372821682753 
735	 0.313646776341325 
736	 0.313893978042652 
737	 0.314111243888477 
738	 0.314373671055307 
739	 0.314622537005964 
740	 0.314659958258544 
741	 0.314722921868658 
742	 0.314804994025092 
743	 0.314859668607453 
744	 0.314883751237187 
745	 0.314888538974779 
746	 0.314823232563923 
747	 0.314641871178737 
748	 0.314544557331185 
749	 0.314394675345605 
750	 0.314147002965518 
751	 0.313902124844913 
752	 0.313655159150035 
753	 0.313364089765205 
754	 0.313015728873131 
755	 0.312719475050368 
756	 0.312335481232271 
757	 0.311885930355277 
758	 0.311467034506802 
759	 0.311040115647502 
760	 0.310567911313078 
761	 0.310056098206301 
762	 0.309562225983942 
763	 0.308986868349502 
764	 0.308411521797603 
765	 0.307894454651627 
766	 0.307290192549873 
767	 0.306757489077889 
768	 0.306205230306359 
769	 0.305479033005821 
770	 0.30494526962652 
771	 0.304402356978275 
772	 0.303724024369823 
773	 0.302942468235199 
774	 0.302285132925865 
775	 0.301678149136859 
776	 0.301022649665099 
777	 0.300359646951901 
778	 0.299681470445943 
779	 0.299027782873774 
780	 0.298426093949299 
781	 0.297701677403753 
782	 0.296963531389985 
783	 0.29627464693891 
784	 0.295623394361029 
785	 0.294941278215761 
786	 0.29425390393232 
787	 0.293581898515751 
788	 0.292878007835407 
789	 0.29222875739438 
790	 0.291608809932127 
791	 0.290953072381106 
792	 0.290243497860756 
793	 0.289527990124508 
794	 0.288846867932049 
795	 0.288226725194422 
796	 0.287656537820199 
797	 0.287075632465821 
798	 0.286451553669491 
799	 0.285812466362746 
800	 0.285201724028027 
801	 0.284610197461805 
802	 0.284014012859876 
803	 0.283411038294432 
804	 0.282793313329128 
805	 0.282187368679888 
806	 0.281633984251804 
807	 0.281095529179146 
808	 0.28058393551253 
809	 0.280074534415577 
810	 0.279492070058638 
811	 0.278956682481309 
812	 0.278427990439611 
813	 0.277870836339825 
814	 0.277368663819549 
815	 0.276876182694834 
816	 0.276381214662831 
817	 0.275892575041156 
818	 0.27545518443515 
819	 0.275030931943853 
820	 0.274560133038231 
821	 0.273997049363521 
822	 0.273613848037262 
823	 0.273253599670162 
824	 0.272804650376991 
825	 0.272338521435317 
826	 0.272004915147047 
827	 0.271727558518128 
828	 0.27138267003959 
829	 0.270916747100511 
830	 0.270457938871559 
831	 0.27008206682469 
832	 0.269805452619536 
833	 0.269503380946893 
834	 0.269173055797618 
835	 0.268835679525898 
836	 0.268521068912102 
837	 0.268163743949876 
838	 0.267837412274059 
839	 0.267602322530546 
840	 0.26746073597747 
841	 0.267231693869099 
842	 0.266885621566825 
843	 0.266501236091241 
844	 0.266328758503096 
845	 0.266160623362173 
846	 0.265973685967519 
847	 0.265811856701741 
848	 0.265563356755204 
849	 0.26531852497588 
850	 0.265141843607273 
851	 0.265041785124336 
852	 0.264819363183946 
853	 0.264602696131232 
854	 0.264464921240323 
855	 0.264329034958255 
856	 0.264257911481594 
857	 0.264193022165641 
858	 0.264077447932955 
859	 0.263918216890989 
860	 0.263860287486812 
861	 0.263818355740898 
862	 0.263682118426275 
863	 0.263634358240962 
864	 0.263580298463984 
865	 0.263504922095053 
866	 0.263444780982504 
867	 0.263387049932427 
868	 0.263360082415246 
869	 0.26338263996638 
870	 0.26344931559302 
871	 0.26341504255533 
872	 0.263376212369042 
873	 0.263409164358898 
874	 0.263487872395748 
875	 0.263546787276458 
876	 0.26357735825762 
877	 0.263608269779598 
878	 0.263717662767134 
879	 0.263852620510973 
880	 0.263929851596793 
881	 0.26391092442883 
882	 0.263960602056193 
883	 0.264114630609342 
884	 0.264315542940533 
885	 0.264468617047952 
886	 0.264608959902594 
887	 0.264762204358759 
888	 0.264910489812567 
889	 0.265015169149187 
890	 0.265206216252766 
891	 0.265421038806214 
892	 0.265631117406062 
893	 0.265878442877969 
894	 0.266082045458403 
895	 0.266256744889822 
896	 0.266441641899949 
897	 0.266679883943745 
898	 0.266936724021107 
899	 0.267218429053967 
900	 0.267532860923134 
901	 0.267875292443752 
902	 0.268108622640751 
903	 0.268337000785518 
904	 0.268684546644677 
905	 0.269005202314882 
906	 0.269338132843789 
907	 0.269677652554417 
908	 0.270020865668658 
909	 0.270494873480449 
910	 0.270908532320887 
911	 0.271276249852572 
912	 0.27172877781449 
913	 0.272115361649615 
914	 0.272468277384323 
915	 0.272797724582823 
916	 0.273102732901302 
917	 0.273565845916142 
918	 0.274181642068386 
919	 0.27480084328492 
920	 0.275182225133837 
921	 0.275641912183345 
922	 0.27614611704025 
923	 0.276673767398891 
924	 0.277304087096833 
925	 0.277853873300965 
926	 0.278383676659342 
927	 0.27895867915071 
928	 0.279547529764671 
929	 0.280109246571646 
930	 0.280704333577274 
931	 0.281360839126792 
932	 0.281973688567258 
933	 0.282613836804367 
934	 0.283308927393854 
935	 0.28403651759592 
936	 0.284674996635614 
937	 0.285289558730685 
938	 0.28599490480024 
939	 0.286813684581848 
940	 0.287399555935487 
941	 0.288167786830488 
942	 0.289064218816417 
943	 0.289865108784085 
944	 0.290511539915049 
945	 0.291144191747205 
946	 0.291900121174595 
947	 0.292827842069389 
948	 0.293670782665557 
949	 0.294518044581528 
950	 0.295379627806164 
951	 0.296237116248709 
952	 0.297162335403143 
953	 0.298031543425746 
954	 0.298881793983749 
955	 0.299820546322541 
956	 0.300775154775052 
957	 0.301740254138816 
958	 0.302685162797568 
959	 0.30358193624118 
960	 0.304498710019341 
961	 0.30545067741332 
962	 0.306481182636967 
963	 0.307597319544048 
964	 0.308504139493178 
965	 0.309550702041217 
966	 0.310680444552192 
967	 0.311616936577981 
968	 0.312673665609955 
969	 0.313797351673864 
970	 0.314921955048033 
971	 0.315980738489802 
972	 0.316865200156352 
973	 0.317848313372484 
974	 0.318996291081964 
975	 0.320206958926057 
976	 0.32145258642205 
977	 0.322684885509789 
978	 0.323906798901648 
979	 0.325133111572237 
980	 0.326234299991232 
981	 0.327326343855605 
982	 0.328557723126105 
983	 0.32997207162647 
984	 0.331082167839634 
985	 0.332211466614711 
986	 0.333442976576862 
987	 0.334691808689664 
988	 0.335964658717163 
989	 0.337155543969938 
990	 0.338292774903452 
991	 0.339458018655705 
992	 0.340597443361647 
993	 0.341842110235841 
994	 0.343111953261386 
995	 0.344269589188776 
996	 0.345369651020382 
997	 0.346626685214113 
998	 0.347963583781365 
999	 0.349241460368279 
1000	 0.350584246333438 
1001	 0.35591470079277 
1002	 0.357128895259777 
1003	 0.35829507434083 
1004	 0.359481035586167 
1005	 0.360690904862807 
1006	 0.361851115125551 
1007	 0.362959263049411 
1008	 0.364151628706731 
1009	 0.36531384519723 
1010	 0.366452160140775 
1011	 0.367649761856388 
1012	 0.368813157315414 
1013	 0.369873067404865 
1014	 0.370951270355574 
1015	 0.372031422517529 
1016	 0.373101755629553 
1017	 0.374194811505985 
1018	 0.375355072541488 
1019	 0.376425721061247 
1020	 0.377464791534246 
1021	 0.378485346175318 
1022	 0.379406250418047 
1023	 0.380426873594849 
1024	 0.381497533288971 
1025	 0.382534404056477 
1026	 0.383642193229959 
1027	 0.384774119383977 
1028	 0.385825943034473 
1029	 0.386807525301454 
1030	 0.387781238375305 
1031	 0.388772987239859 
1032	 0.389739615563121 
1033	 0.390699599676019 
1034	 0.391713770761193 
1035	 0.3927267403969 
1036	 0.393687329154045 
1037	 0.394694786829146 
1038	 0.39572255485004 
1039	 0.396724353294257 
1040	 0.39771486829516 
1041	 0.398720953161285 
1042	 0.399737298275445 
1043	 0.400766956146521 
1044	 0.401770252871475 
1045	 0.402800115490197 
1046	 0.403752585875959 
1047	 0.404703041769939 
1048	 0.405672938501423 
1049	 0.406622000261308 
1050	 0.407592272529824 
1051	 0.408566901991535 
1052	 0.409517204092669 
1053	 0.410495026164371 
1054	 0.411469106539208 
1055	 0.412347719969414 
1056	 0.413221331842329 
1057	 0.414091669222866 
1058	 0.414924102431328 
1059	 0.415752742697763 
1060	 0.416594734476072 
1061	 0.41740979740748 
1062	 0.418166535773812 
1063	 0.418943267782523 
1064	 0.419762882576842 
1065	 0.420545070961194 
1066	 0.421319120755254 
1067	 0.422076085891187 
1068	 0.422774998534019 
1069	 0.423457665165508 
1070	 0.424148502417878 
1071	 0.424824286336027 
1072	 0.425509892934423 
1073	 0.426197073398838 
1074	 0.426886570490134 
1075	 0.427568555850624 
1076	 0.428265843249057 
1077	 0.428951911569497 
1078	 0.429602929888129 
1079	 0.430244458344789 
1080	 0.430848839914218 
1081	 0.431496217200809 
1082	 0.432162729494331 
1083	 0.432824284198978 
1084	 0.433520215434006 
1085	 0.434183572425276 
1086	 0.434816506557153 
1087	 0.435460426014041 
1088	 0.436096168657401 
1089	 0.436727740517476 
1090	 0.437390744477691 
1091	 0.438091716954036 
1092	 0.438756625305806 
1093	 0.439419450085157 
1094	 0.440110829959366 
1095	 0.440777857650653 
1096	 0.441509220199474 
1097	 0.442290291012087 
1098	 0.443050708912168 
1099	 0.443815836633855 
1100	 0.44459014038279 
1101	 0.445339310124393 
1102	 0.446145654649841 
1103	 0.446984911026327 
1104	 0.447836647446827 
1105	 0.448714519369205 
1106	 0.449634484737877 
1107	 0.45052506917249 
1108	 0.451422397663801 
1109	 0.452347171053714 
1110	 0.453250629791899 
1111	 0.454186690915534 
1112	 0.455147082999116 
1113	 0.456114370869207 
1114	 0.457084269841382 
1115	 0.45809114695283 
1116	 0.459146177266132 
1117	 0.460161047016341 
1118	 0.461172381216899 
1119	 0.462191860195812 
1120	 0.463216990565318 
1121	 0.46425099513379 
1122	 0.465326669303739 
1123	 0.466413276847795 
1124	 0.467489150809877 
1125	 0.468554729902395 
1126	 0.469639678724009 
1127	 0.470747092522436 
1128	 0.471818992136099 
1129	 0.472884204510532 
1130	 0.473941814826924 
1131	 0.474970658751125 
1132	 0.476017691597903 
1133	 0.477077939923634 
1134	 0.4781254098589 
1135	 0.479152729896018 
1136	 0.480200370257798 
1137	 0.48127792823677 
1138	 0.482328789110822 
1139	 0.483384959475894 
1140	 0.484472943991439 
1141	 0.485508209051034 
1142	 0.486509494452066 
1143	 0.487517910611857 
1144	 0.488512225407415 
1145	 0.489493342565164 
1146	 0.490467729185018 
1147	 0.491434895748777 
1148	 0.492395370194408 
1149	 0.493340003369861 
1150	 0.494282781779014 
1151	 0.495203187465494 
1152	 0.496089547493331 
1153	 0.496975278742919 
1154	 0.497885682796441 
1155	 0.498821218916386 
1156	 0.499701523849343 
1157	 0.500574154302646 
1158	 0.501443814343519 
1159	 0.502274107693775 
1160	 0.503120870422166 
1161	 0.504011255769844 
1162	 0.504843804833438 
1163	 0.505652067324409 
1164	 0.506431576386647 
1165	 0.507161746002497 
1166	 0.507905071317116 
1167	 0.508650835126552 
1168	 0.509399511762144 
1169	 0.510125838223878 
1170	 0.510856867895406 
1171	 0.511572392327465 
1172	 0.512258369098232 
1173	 0.512954385295416 
1174	 0.513670695229239 
1175	 0.514355168564559 
1176	 0.51501792497893 
1177	 0.515681686049163 
1178	 0.516336865757061 
1179	 0.516980545748131 
1180	 0.517622038830146 
1181	 0.518249583218693 
1182	 0.518849478077646 
1183	 0.519463317338675 
1184	 0.52007497077148 
1185	 0.520695695506218 
1186	 0.521282253733679 
1187	 0.521869366605625 
1188	 0.522423156505632 
1189	 0.522946423197235 
1190	 0.523456982767922 
1191	 0.523926595487221 
1192	 0.524432965697109 
1193	 0.524942093149701 
1194	 0.52544582721778 
1195	 0.525967514924594 
1196	 0.526482743802294 
1197	 0.526978576278733 
1198	 0.527483812647806 
1199	 0.52799468815885 
1200	 0.528528168785808 
1201	 0.529026216797695 
1202	 0.52951246809378 
1203	 0.529995512234583 
1204	 0.530476561010381 
1205	 0.530926182152661 
1206	 0.531352720053243 
1207	 0.531789772581989 
1208	 0.532199802071935 
1209	 0.532625282129748 
1210	 0.533084270438546 
1211	 0.533508456774447 
1212	 0.533906934072628 
1213	 0.534312550933593 
1214	 0.53471363560136 
1215	 0.53510424898125 
1216	 0.535489919408084 
1217	 0.535875400604055 
1218	 0.536257889003409 
1219	 0.536638973060418 
1220	 0.536995694021008 
1221	 0.537342620546734 
1222	 0.537690912177388 
1223	 0.53800631620242 
1224	 0.538351682955995 
1225	 0.538721974663841 
1226	 0.539079867930759 
1227	 0.53945420171125 
1228	 0.539800861484652 
1229	 0.540130545309164 
1230	 0.540459909272146 
1231	 0.540780667991572 
1232	 0.541088306607487 
1233	 0.541387841217252 
1234	 0.541670365836846 
1235	 0.541988964681573 
1236	 0.542314906011185 
1237	 0.542628777641088 
1238	 0.542985745019375 
1239	 0.543282416770557 
1240	 0.543524647949487 
1241	 0.543791725175613 
1242	 0.544037678160228 
1243	 0.544308144930382 
1244	 0.544597889327742 
1245	 0.544880839116723 
1246	 0.545176098081457 
1247	 0.545463080009417 
1248	 0.545757889102841 
1249	 0.546036938177586 
1250	 0.546279716344859 
1251	 0.546484277112031 
1252	 0.546701849988604 
1253	 0.546875091060006 
1254	 0.547090112522702 
1255	 0.547337227865901 
1256	 0.547561825912908 
1257	 0.54778957509476 
1258	 0.548000509466796 
1259	 0.548183635481344 
1260	 0.54839830250383 
1261	 0.548618863948805 
1262	 0.548837795333894 
1263	 0.54909212878368 
1264	 0.549316266688304 
1265	 0.549511824551415 
1266	 0.549718916011235 
1267	 0.549918446318691 
1268	 0.550111261391705 
1269	 0.550340504626951 
1270	 0.55059489022608 
1271	 0.550830596162271 
1272	 0.551072131774867 
1273	 0.551329908949677 
1274	 0.55157884595697 
1275	 0.551849499379166 
1276	 0.552160370619967 
1277	 0.552449452609324 
1278	 0.552730511379579 
1279	 0.553015795946447 
1280	 0.553318747188028 
1281	 0.553589991046332 
1282	 0.553865064933069 
1283	 0.554101713282575 
1284	 0.554298550613362 
1285	 0.554485355999027 
1286	 0.554670597074058 
1287	 0.554844148986757 
1288	 0.554980932896359 
1289	 0.555116355734957 
1290	 0.555195816448452 
1291	 0.555223209295493 
1292	 0.55523647273513 
1293	 0.555226779980057 
1294	 0.555178962543157 
1295	 0.555087044719748 
1296	 0.554992358723066 
1297	 0.554877380659815 
1298	 0.55473257454378 
1299	 0.554579754159904 
1300	 0.554388974654723 
1301	 0.554136291169561 
1302	 0.553899795883676 
1303	 0.553653319268825 
1304	 0.553391152078144 
1305	 0.553138180894354 
1306	 0.5528807023268 
1307	 0.552632955782075 
1308	 0.552375040999683 
1309	 0.552144316356787 
1310	 0.551925872171466 
1311	 0.551731634959599 
1312	 0.551559767242245 
1313	 0.551395640068876 
1314	 0.551248931710082 
1315	 0.551106754683915 
1316	 0.550955575568461 
1317	 0.550850767579391 
1318	 0.550760046137162 
1319	 0.55071091182123 
1320	 0.55070666741227 
1321	 0.550718430913793 
1322	 0.550756873806394 
1323	 0.550817370921494 
1324	 0.550893128365253 
1325	 0.550998514824447 
1326	 0.551134761813857 
1327	 0.55128069796708 
1328	 0.551438439545044 
1329	 0.551619355207338 
1330	 0.551838165548516 
1331	 0.552071608096135 
1332	 0.552347229734479 
1333	 0.552681508186731 
1334	 0.553001812823777 
1335	 0.553343048731621 
1336	 0.553680720966495 
1337	 0.554017905720292 
1338	 0.554365991136398 
1339	 0.554725993491915 
1340	 0.555083935327429 
1341	 0.555441174040953 
1342	 0.555817084751643 
1343	 0.55621028343698 
1344	 0.556585580645865 
1345	 0.556975527050134 
1346	 0.557365835015706 
1347	 0.557763100714849 
1348	 0.558162106651388 
1349	 0.558548611469818 
1350	 0.558951701423661 
1351	 0.559351380535433 
1352	 0.559742004718506 
1353	 0.560128714728759 
1354	 0.560531122730311 
1355	 0.56091469061083 
1356	 0.561280837259163 
1357	 0.561644400106186 
1358	 0.562005703842076 
1359	 0.562364422812176 
1360	 0.562700993611404 
1361	 0.56305788687299 
1362	 0.563428917205689 
1363	 0.563790449282354 
1364	 0.564172391948509 
1365	 0.564523978650325 
1366	 0.564859720545009 
1367	 0.56518430316896 
1368	 0.565483444951514 
1369	 0.565776544080709 
1370	 0.566103929887831 
1371	 0.566419781697781 
1372	 0.566701981232246 
1373	 0.566979766910047 
1374	 0.567248477364176 
1375	 0.567489400648586 
1376	 0.567721813766016 
1377	 0.567976085774979 
1378	 0.568178762819296 
1379	 0.5683375247604 
1380	 0.568493497253897 
1381	 0.568628375032337 
1382	 0.568750781853296 
1383	 0.56885992223841 
1384	 0.568951302434665 
1385	 0.569041756021595 
1386	 0.569087087142817 
1387	 0.569093389497184 
1388	 0.569094390452731 
1389	 0.569068259823595 
1390	 0.56902873400611 
1391	 0.568986201243036 
1392	 0.568929157366645 
1393	 0.568826049481301 
1394	 0.568703783856836 
1395	 0.568572726116069 
1396	 0.568403584529951 
1397	 0.56824927493002 
1398	 0.568091533329561 
1399	 0.567938430254829 
1400	 0.567785844200284 
1401	 0.567633273546211 
1402	 0.567484424969327 
1403	 0.567324592121945 
1404	 0.567148087177851 
1405	 0.566996659253931 
1406	 0.566858534621111 
1407	 0.566707560225517 
1408	 0.566558989344848 
1409	 0.566416256973275 
1410	 0.566228607443683 
1411	 0.566116183816013 
1412	 0.566029301415887 
1413	 0.565997443809019 
1414	 0.566021505371567 
1415	 0.566073798550153 
1416	 0.566145379894753 
1417	 0.566205641417611 
1418	 0.566278767507886 
1419	 0.566366336079507 
1420	 0.566424381557099 
1421	 0.566486782080521 
1422	 0.566552956285339 
1423	 0.566575412682683 
1424	 0.566586494903626 
1425	 0.566591799707974 
1426	 0.56659247566382 
1427	 0.566553230050975 
1428	 0.566540385690896 
1429	 0.566553301015891 
1430	 0.566538026239592 
1431	 0.566509773667965 
1432	 0.566485442205283 
1433	 0.566454763736902 
1434	 0.566419913275249 
1435	 0.566385891319312 
1436	 0.566339935788378 
1437	 0.566271086054911 
1438	 0.566225999737364 
1439	 0.566192596427341 
1440	 0.56615302286421 
1441	 0.566096632264583 
1442	 0.566046482104029 
1443	 0.565976587949727 
1444	 0.565901424355274 
1445	 0.565872582722288 
1446	 0.565841134227639 
1447	 0.56579867378275 
1448	 0.565740633931416 
1449	 0.565647555842346 
1450	 0.56553649659645 
1451	 0.565425504247692 
1452	 0.565292668338378 
1453	 0.56517926719645 
1454	 0.565063338139019 
1455	 0.56496447064594 
1456	 0.564871857539837 
1457	 0.564784102674577 
1458	 0.564720280381461 
1459	 0.564641389948557 
1460	 0.564562069551304 
1461	 0.56447161749676 
1462	 0.564352895026771 
1463	 0.5642702191721 
1464	 0.564199676215075 
1465	 0.564135812123273 
1466	 0.564102650510116 
1467	 0.564060794742057 
1468	 0.563985557040803 
1469	 0.563952330420284 
1470	 0.563938979465146 
1471	 0.563951281451663 
1472	 0.563968792413352 
1473	 0.564037664382471 
1474	 0.564127135660598 
1475	 0.564192537377912 
1476	 0.564280535762322 
1477	 0.564404762760791 
1478	 0.564547682235717 
1479	 0.564704030010317 
1480	 0.564886414222301 
1481	 0.565071981088471 
1482	 0.565237233443295 
1483	 0.565394675237645 
1484	 0.565550241373875 
1485	 0.565693601198951 
1486	 0.56583717602621 
1487	 0.565978032691777 
1488	 0.566114140191754 
1489	 0.566241025666239 
1490	 0.566376553074619 
1491	 0.566515664762198 
1492	 0.566649242382903 
1493	 0.566793822646916 
1494	 0.566918862338944 
1495	 0.56703137617401 
1496	 0.567136345318206 
1497	 0.567222829577929 
1498	 0.567318637459574 
1499	 0.567405171526748 
1500	 0.567507015904971 
1501	 0.56761415035665 
1502	 0.567726064405667 
1503	 0.567846287183347 
1504	 0.567982132453906 
1505	 0.568094323017711 
1506	 0.568200875633225 
1507	 0.568296812235136 
1508	 0.568372068640286 
1509	 0.568427604385965 
1510	 0.568491316810957 
1511	 0.568568769331554 
1512	 0.568635990993053 
1513	 0.568746139455875 
1514	 0.568880090339163 
1515	 0.568981518837102 
1516	 0.56907244103769 
1517	 0.569147297120044 
1518	 0.569200794282543 
1519	 0.569243634576829 
1520	 0.569266013735188 
1521	 0.569306468305317 
1522	 0.569330094401043 
1523	 0.569378250972355 
1524	 0.569447077397191 
1525	 0.569512873688546 
1526	 0.569584897511762 
1527	 0.569660288020187 
1528	 0.569753740500946 
1529	 0.569823998608145 
1530	 0.569883497108291 
1531	 0.569942053972466 
1532	 0.570004546360317 
1533	 0.570035297729854 
1534	 0.570042475910767 
1535	 0.570065345047053 
1536	 0.570048790288883 
1537	 0.570070776526772 
1538	 0.570122311597669 
1539	 0.570181755020977 
1540	 0.570255915406357 
1541	 0.570338367786448 
1542	 0.570465124320246 
1543	 0.570548565091277 
1544	 0.570607278593025 
1545	 0.570676051852949 
1546	 0.570729372678281 
1547	 0.570766936498096 
1548	 0.570850284835551 
1549	 0.570950039917966 
1550	 0.571044318763416 
1551	 0.571148230828085 
1552	 0.571246621132521 
1553	 0.571324967097759 
1554	 0.571393694542488 
1555	 0.571448409611214 
1556	 0.571473423190957 
1557	 0.571495920781312 
1558	 0.571518586831336 
1559	 0.57155360838795 
1560	 0.571600495219183 
1561	 0.571661516517582 
1562	 0.571728387708728 
1563	 0.571802257689703 
1564	 0.571879056256298 
1565	 0.57196019514827 
1566	 0.572059167308743 
1567	 0.572177986110734 
1568	 0.572280647615159 
1569	 0.572406240106889 
1570	 0.572485524652942 
1571	 0.572533859670337 
1572	 0.572584583719069 
1573	 0.572597586892919 
1574	 0.572654560184389 
1575	 0.572719111495564 
1576	 0.572802007448839 
1577	 0.572934274830661 
1578	 0.573018345851032 
1579	 0.573102347441595 
1580	 0.573156043286384 
1581	 0.573160229496683 
1582	 0.573194291962226 
1583	 0.573219254267001 
1584	 0.57325867287035 
1585	 0.573316012379486 
1586	 0.573372361096997 
1587	 0.573425924106896 
1588	 0.573497234348883 
1589	 0.573602972784486 
1590	 0.573665460358641 
1591	 0.573708525150245 
1592	 0.573761733923635 
1593	 0.573780095239324 
1594	 0.573831694799838 
1595	 0.573922750617306 
1596	 0.573996106899445 
1597	 0.574065852280746 
1598	 0.57413786802103 
1599	 0.574200848405244 
1600	 0.57427714148408 
1601	 0.574381934424612 
1602	 0.574459531111423 
1603	 0.574532841848771 
1604	 0.574594110080686 
1605	 0.574620994714633 
1606	 0.574662229295309 
1607	 0.574709426755625 
1608	 0.574751361166546 
1609	 0.574792428179018 
1610	 0.574847793540786 
1611	 0.574918309730685 
1612	 0.57498700216564 
1613	 0.575045953819372 
1614	 0.575113677031801 
1615	 0.57517011569574 
1616	 0.575230145577896 
1617	 0.575318532381576 
1618	 0.575399275467255 
1619	 0.575475703662165 
1620	 0.575556820678157 
1621	 0.575647220614909 
1622	 0.575749311528628 
1623	 0.575826899723752 
1624	 0.575913581786555 
1625	 0.575961106483335 
1626	 0.575972608735503 
1627	 0.575995672449084 
1628	 0.576000073376628 
1629	 0.576025829315742 
1630	 0.57605648890241 
1631	 0.576094261516819 
1632	 0.576138639583908 
1633	 0.576192438812773 
1634	 0.57626328009723 
1635	 0.576306230876527 
1636	 0.576339587006932 
1637	 0.576391809997917 
1638	 0.576423261950763 
1639	 0.576497645301124 
1640	 0.576615871064208 
1641	 0.576709123202504 
1642	 0.576808517603098 
1643	 0.576901019419487 
1644	 0.576994449934218 
1645	 0.577068445217141 
1646	 0.577134429492957 
1647	 0.577196615885872 
1648	 0.577238046916361 
1649	 0.577290649029287 
1650	 0.577344550588754 
1651	 0.577403725107567 
1652	 0.577456004364385 
1653	 0.577532170301158 
1654	 0.577622146451564 
1655	 0.577720555220477 
1656	 0.577845980569628 
1657	 0.577945785377415 
1658	 0.57804763351369 
1659	 0.578134588794666 
1660	 0.578209184527917 
1661	 0.578271322051756 
1662	 0.578332379217292 
1663	 0.578362702766294 
1664	 0.578348599597597 
1665	 0.578371906920134 
1666	 0.578382497614212 
1667	 0.578421627560022 
1668	 0.578491456327395 
1669	 0.578561275917494 
1670	 0.578642140190971 
1671	 0.578721698936813 
1672	 0.578818791324648 
1673	 0.578898050406152 
1674	 0.57897211468401 
1675	 0.579037913509282 
1676	 0.579092682958336 
1677	 0.579147679291615 
1678	 0.579185382795183 
1679	 0.579247737931148 
1680	 0.579330755831467 
1681	 0.579390627521348 
1682	 0.579452891837762 
1683	 0.579509852361688 
1684	 0.579530349692056 
1685	 0.579598299407328 
1686	 0.579691528649351 
1687	 0.579789324573627 
1688	 0.579914178298774 
1689	 0.580029538662512 
1690	 0.580158268750275 
1691	 0.580261499179093 
1692	 0.580347472175623 
1693	 0.580445373337424 
1694	 0.58052389326722 
1695	 0.580629243518313 
1696	 0.58077722735796 
1697	 0.580876233646645 
1698	 0.580961531945538 
1699	 0.581038517628869 
1700	 0.581091172785811 
1701	 0.581138423302633 
1702	 0.581174899881178 
1703	 0.581220103401083 
1704	 0.5812449634645 
1705	 0.581294067057915 
1706	 0.581388228700981 
1707	 0.58142373452057 
1708	 0.58143347597442 
1709	 0.581446697330808 
1710	 0.58138929134897 
1711	 0.581439635776181 
1712	 0.581544516121692 
1713	 0.581656453183433 
1714	 0.581847889210464 
1715	 0.581976217932115 
1716	 0.582085831967742 
1717	 0.582194706727973 
1718	 0.58230317052274 
1719	 0.582371632888502 
1720	 0.582410139124474 
1721	 0.582461157828056 
1722	 0.582482730589447 
1723	 0.582518606738491 
1724	 0.582596386434934 
1725	 0.582608624390691 
1726	 0.582585341460273 
1727	 0.582552969021504 
1728	 0.582471177475586 
1729	 0.582423662773552 
1730	 0.582384755183858 
1731	 0.582333233943696 
1732	 0.582276010792983 
1733	 0.582241949082692 
1734	 0.582203688112753 
1735	 0.582195938524386 
1736	 0.582218841447518 
1737	 0.582242243126859 
1738	 0.5822807454562 
1739	 0.582303460513854 
1740	 0.582336676193038 
1741	 0.582357257899095 
1742	 0.582359595821925 
1743	 0.582372618332226 
1744	 0.582401759228395 
1745	 0.582389188898134 
1746	 0.582352476183276 
1747	 0.582329072620469 
1748	 0.582298428179182 
1749	 0.582311938888272 
1750	 0.582333839384616 
1751	 0.582364686678956 
1752	 0.582385374168809 
1753	 0.582374003740906 
1754	 0.582382080592347 
1755	 0.582371645152113 
1756	 0.582380995953764 
1757	 0.582429536892555 
1758	 0.582470140803455 
1759	 0.582520685598098 
1760	 0.582572553626979 
1761	 0.582613504270003 
1762	 0.582663379054931 
1763	 0.582727248480671 
1764	 0.582759405148425 
1765	 0.582766308167932 
1766	 0.582777087952561 
1767	 0.582764249871844 
1768	 0.582760205665909 
1769	 0.582790055183321 
1770	 0.582823393823226 
1771	 0.582876064843717 
1772	 0.582922521441603 
1773	 0.582942261369831 
1774	 0.582962184268427 
1775	 0.582974567318214 
1776	 0.582983336785097 
1777	 0.583015260911637 
1778	 0.583078904032559 
1779	 0.583142330376777 
1780	 0.583181519899773 
1781	 0.583225471863894 
1782	 0.583278659814924 
1783	 0.583302719118733 
1784	 0.583355477636403 
1785	 0.58343285737237 
1786	 0.583481777834667 
1787	 0.583518884011509 
1788	 0.583588448449237 
1789	 0.583662992571123 
1790	 0.583725808766991 
1791	 0.583819334424543 
1792	 0.583884149251796 
1793	 0.583917857095075 
1794	 0.583961222851539 
1795	 0.584015791631364 
1796	 0.584040327699286 
1797	 0.584040558496238 
1798	 0.584038649529304 
1799	 0.583992494407373 
1800	 0.584018688859497 
1801	 0.578399257563316 
1802	 0.578465739065585 
1803	 0.578545071288559 
1804	 0.578607842458713 
1805	 0.578681644662436 
1806	 0.57874671156482 
1807	 0.578813960636391 
1808	 0.578892298823039 
1809	 0.579004153827705 
1810	 0.579059165493687 
1811	 0.579099012056671 
1812	 0.579137917342368 
1813	 0.579148783719762 
1814	 0.579093444505563 
1815	 0.579037486121903 
1816	 0.579026557506137 
1817	 0.579021197229719 
1818	 0.579026107256568 
1819	 0.579012673770421 
1820	 0.579036538828073 
1821	 0.579001674512311 
1822	 0.578891292602788 
1823	 0.578808278913753 
1824	 0.578714375390651 
1825	 0.578594960807498 
1826	 0.578470738050241 
1827	 0.578313177160058 
1828	 0.578160130933052 
1829	 0.577990981743885 
1830	 0.577810107140897 
1831	 0.577611038576161 
1832	 0.577444117747047 
1833	 0.577261573067608 
1834	 0.577074432377838 
1835	 0.576917330689995 
1836	 0.576776645546345 
1837	 0.576632726261458 
1838	 0.57647260175628 
1839	 0.57632555518504 
1840	 0.576189761736214 
1841	 0.576041245619358 
1842	 0.575903916176075 
1843	 0.575817261502968 
1844	 0.57572786363046 
1845	 0.575639184859421 
1846	 0.57556636101412 
1847	 0.575516602518583 
1848	 0.575474220986521 
1849	 0.5754332849325 
1850	 0.575434549201137 
1851	 0.575471455323005 
1852	 0.57549332274091 
1853	 0.575509208667256 
1854	 0.575605158927617 
1855	 0.575709923628104 
1856	 0.575813293684908 
1857	 0.57599726137035 
1858	 0.576149664432882 
1859	 0.576244201070661 
1860	 0.576347886225872 
1861	 0.576450241595823 
1862	 0.576513765785293 
1863	 0.57657599786137 
1864	 0.576632116881915 
1865	 0.57663313723045 
1866	 0.576630937722966 
1867	 0.576639965786492 
1868	 0.576679010868716 
1869	 0.576770777623597 
1870	 0.576845457185214 
1871	 0.576906492818193 
1872	 0.576967605645801 
1873	 0.57701752120567 
1874	 0.577020091737145 
1875	 0.577046945161395 
1876	 0.577069206725796 
1877	 0.577006871444773 
1878	 0.576910614441535 
1879	 0.576804869958795 
1880	 0.576657978331588 
1881	 0.576448339307298 
1882	 0.576252196389734 
1883	 0.576054463674279 
1884	 0.575818833032881 
1885	 0.575546639113811 
1886	 0.575266402888346 
1887	 0.574929200019516 
1888	 0.574512517598424 
1889	 0.574084067336079 
1890	 0.57362227635683 
1891	 0.57318470121781 
1892	 0.572748267882303 
1893	 0.57232069705545 
1894	 0.571895445258746 
1895	 0.571497118408531 
1896	 0.571070180098826 
1897	 0.570633180140488 
1898	 0.570206798270507 
1899	 0.569767531148081 
1900	 0.569379453196884 
1901	 0.569053793555767 
1902	 0.568743254513145 
1903	 0.56849206081031 
1904	 0.568233904108328 
1905	 0.568007629983314 
1906	 0.567743338595613 
1907	 0.567489721727586 
1908	 0.567266342243351 
1909	 0.567043519451918 
1910	 0.56682363260052 
1911	 0.566630006433979 
1912	 0.566441893091304 
1913	 0.566229866337643 
1914	 0.565998263660269 
1915	 0.565786548806361 
1916	 0.565585049516085 
1917	 0.565342468367688 
1918	 0.565113282718374 
1919	 0.564912040159289 
1920	 0.564684691345765 
1921	 0.56446804285543 
1922	 0.564301035189709 
1923	 0.564105529140842 
1924	 0.563915786534733 
1925	 0.563732628347519 
1926	 0.563566634293874 
1927	 0.563400893556889 
1928	 0.563233610339333 
1929	 0.563091567853242 
1930	 0.562938225848486 
1931	 0.562779954325516 
1932	 0.562659347787784 
1933	 0.562604603822749 
1934	 0.562552601756123 
1935	 0.562528282101203 
1936	 0.562542966580328 
1937	 0.562581019325297 
1938	 0.562652184097072 
1939	 0.562715717886466 
1940	 0.562817392058737 
1941	 0.562887308269976 
1942	 0.562939794365764 
1943	 0.562983103146359 
1944	 0.563036448830101 
1945	 0.563111020662013 
1946	 0.563181212967475 
1947	 0.563261389070146 
1948	 0.563337175722916 
1949	 0.563416604207354 
1950	 0.563492011658836 
1951	 0.563559081557644 
1952	 0.563632730810465 
1953	 0.563743880781901 
1954	 0.563821187816854 
1955	 0.563902789080874 
1956	 0.564033727776895 
1957	 0.564131114334499 
1958	 0.56420405357969 
1959	 0.564303949521882 
1960	 0.564390332516296 
1961	 0.564508640032304 
1962	 0.564672723344339 
1963	 0.564817486631549 
1964	 0.564966179660157 
1965	 0.565124763285387 
1966	 0.565280681010868 
1967	 0.565401692259233 
1968	 0.565543208413984 
1969	 0.565678619497245 
1970	 0.565843845402735 
1971	 0.566037456575048 
1972	 0.566205973242845 
1973	 0.566376684828304 
1974	 0.566558358758787 
1975	 0.566730958036984 
1976	 0.566902261851974 
1977	 0.567113075405946 
1978	 0.567306560586764 
1979	 0.567470533217971 
1980	 0.567643830889939 
1981	 0.567834878312236 
1982	 0.568031256511667 
1983	 0.568231749037594 
1984	 0.568463991495946 
1985	 0.568671080659471 
1986	 0.568868538316379 
1987	 0.569057788850716 
1988	 0.569249028614242 
1989	 0.56940784445001 
1990	 0.569570565479928 
1991	 0.569747718094448 
1992	 0.569932751313851 
1993	 0.570129463873408 
1994	 0.570332134619694 
1995	 0.570536832870455 
1996	 0.570754934241551 
1997	 0.570982577270688 
1998	 0.571218210108466 
1999	 0.571471960338638 
2000	 0.571724501754988 
2001	 0.572000026236294 
2002	 0.572259698241598 
2003	 0.572481908067609 
2004	 0.572685502921242 
2005	 0.572860886484868 
2006	 0.572960700054124 
2007	 0.573131746545947 
2008	 0.573297946411023 
2009	 0.573501540487019 
2010	 0.573761603742157 
2011	 0.573999997896817 
2012	 0.574249221063145 
2013	 0.57449937164799 
2014	 0.57474593682796 
2015	 0.574991421531501 
2016	 0.57527115610543 
2017	 0.575535979332432 
2018	 0.575799344570239 
2019	 0.576073235373829 
2020	 0.576329617907896 
2021	 0.576556128654684 
2022	 0.576815335526411 
2023	 0.57709694747699 
2024	 0.57735737606363 
2025	 0.577609388126352 
2026	 0.577877919785483 
2027	 0.578154799374555 
2028	 0.578406515296957 
2029	 0.578672595341556 
2030	 0.578965805735095 
2031	 0.579229840223223 
2032	 0.579474573583603 
2033	 0.579723068886335 
2034	 0.579967667105834 
2035	 0.580213391036246 
2036	 0.58047510509416 
2037	 0.580696130646747 
2038	 0.580897069994386 
2039	 0.581092652006233 
2040	 0.581266265201139 
2041	 0.581419512554112 
2042	 0.581561648692982 
2043	 0.581735610197897 
2044	 0.5818931806675 
2045	 0.582029180919416 
2046	 0.582191197573591 
2047	 0.582373150040699 
2048	 0.58254049576408 
2049	 0.582718531743264 
2050	 0.582879981716549 
2051	 0.583030251433744 
2052	 0.583177041968447 
2053	 0.583306133255028 
2054	 0.583446338441696 
2055	 0.583593796533971 
2056	 0.58373693723152 
2057	 0.583865088835795 
2058	 0.583992662128207 
2059	 0.584110449568789 
2060	 0.584200712396529 
2061	 0.584315730349044 
2062	 0.584434822010241 
2063	 0.584562429505754 
2064	 0.584709080284017 
2065	 0.584840756810918 
2066	 0.584968936365553 
2067	 0.585100963364676 
2068	 0.58523230737374 
2069	 0.585356972298305 
2070	 0.585481966955598 
2071	 0.58561529881771 
2072	 0.585737586182367 
2073	 0.585854413454866 
2074	 0.585957928606773 
2075	 0.586047247453511 
2076	 0.586149195643966 
2077	 0.586230715056357 
2078	 0.586342396510102 
2079	 0.586490523476493 
2080	 0.586613801062507 
2081	 0.586733348112858 
2082	 0.586856307034902 
2083	 0.586957411082295 
2084	 0.587085558201218 
2085	 0.587213619838142 
2086	 0.587357468888392 
2087	 0.587493737824112 
2088	 0.587636303182346 
2089	 0.587765647911112 
2090	 0.587889108092797 
2091	 0.588011713250039 
2092	 0.588124201468212 
2093	 0.588241683626888 
2094	 0.588361701117787 
2095	 0.588479875454947 
2096	 0.58858301493346 
2097	 0.588711362825868 
2098	 0.588853633090069 
2099	 0.58900112176504 
2100	 0.589144548369015 
2101	 0.589308801409747 
2102	 0.589446199228494 
2103	 0.589555749110668 
2104	 0.589696647861595 
2105	 0.589817058616771 
2106	 0.589996672418459 
2107	 0.590225013242713 
2108	 0.590443564925648 
2109	 0.590718483968859 
2110	 0.590948717586811 
2111	 0.591127432299916 
2112	 0.591349813304823 
2113	 0.59157465213172 
2114	 0.591819136195117 
2115	 0.592059885857182 
2116	 0.592337773513659 
2117	 0.592574593162049 
2118	 0.592788501969806 
2119	 0.593007071899056 
2120	 0.593213001938665 
2121	 0.5934355160888 
2122	 0.593669502190268 
2123	 0.593882262387579 
2124	 0.59409832878766 
2125	 0.594304344634474 
2126	 0.594505620264232 
2127	 0.594678156844986 
2128	 0.594850499613337 
2129	 0.594989351601338 
2130	 0.595078220410033 
2131	 0.595181659690283 
2132	 0.595228837967722 
2133	 0.595246619393129 
2134	 0.595242937664935 
2135	 0.595206185523006 
2136	 0.595138288601685 
2137	 0.595037570716258 
2138	 0.594931418051889 
2139	 0.594786258839981 
2140	 0.594640370873447 
2141	 0.594512789599563 
2142	 0.594333569911704 
2143	 0.594115985453739 
2144	 0.593887034060482 
2145	 0.593614198349862 
2146	 0.593345782624495 
2147	 0.593072676741688 
2148	 0.592785821944005 
2149	 0.59249006515752 
2150	 0.592194060885516 
2151	 0.591867184073836 
2152	 0.591549236665439 
2153	 0.591145733148043 
2154	 0.590685207445551 
2155	 0.590215814561668 
2156	 0.58966817157624 
2157	 0.589154533915575 
2158	 0.588659033707777 
2159	 0.588130244726324 
2160	 0.587576634953728 
2161	 0.587029988821526 
2162	 0.5864693659817 
2163	 0.585906729380659 
2164	 0.585362081892545 
2165	 0.584783757642645 
2166	 0.584205769533307 
2167	 0.583624806282925 
2168	 0.58300743348697 
2169	 0.582353973206825 
2170	 0.581731669140618 
2171	 0.581081953827138 
2172	 0.580468653048535 
2173	 0.579901992049554 
2174	 0.579307790850176 
2175	 0.578690515890803 
2176	 0.57810757187512 
2177	 0.577549637193798 
2178	 0.576969946956062 
2179	 0.576412727064829 
2180	 0.575835006520816 
2181	 0.575236150775226 
2182	 0.574624690733659 
2183	 0.574010689442854 
2184	 0.573365887650715 
2185	 0.572738966426262 
2186	 0.572080718294386 
2187	 0.571479759897866 
2188	 0.570906103373453 
2189	 0.570341936610128 
2190	 0.569794857718492 
2191	 0.56927460329215 
2192	 0.568745943779921 
2193	 0.568292281468779 
2194	 0.567901603961806 
2195	 0.567517971848223 
2196	 0.567207307230701 
2197	 0.566864353187053 
2198	 0.566516539518958 
2199	 0.566175689787651 
2200	 0.565822359717331 
2201	 0.565492905483287 
2202	 0.565175081968454 
2203	 0.564863868091387 
2204	 0.564600691881092 
2205	 0.564363429978008 
2206	 0.564151566762714 
2207	 0.563972266414579 
2208	 0.563831007815665 
2209	 0.563713200868403 
2210	 0.563638681424566 
2211	 0.563634830949136 
2212	 0.563605005021615 
2213	 0.56360736871751 
2214	 0.563582300667585 
2215	 0.563552299330173 
2216	 0.563514776506326 
2217	 0.563491330923278 
2218	 0.563417180160264 
2219	 0.563305950893521 
2220	 0.563188102639005 
2221	 0.563029495369203 
2222	 0.56287616422614 
2223	 0.56271189140205 
2224	 0.562533173129707 
2225	 0.562326670660419 
2226	 0.562085031514875 
2227	 0.561849018118079 
2228	 0.561602316113933 
2229	 0.561342196812181 
2230	 0.561053271144293 
2231	 0.560793012065659 
2232	 0.56053753423688 
2233	 0.56027957243778 
2234	 0.560050359286091 
2235	 0.559783322801679 
2236	 0.559499293397905 
2237	 0.559193390531017 
2238	 0.558885844499867 
2239	 0.558532025710199 
2240	 0.558130338380304 
2241	 0.557728108753734 
2242	 0.55727549800523 
2243	 0.556841060663389 
2244	 0.556425209516132 
2245	 0.555992353898414 
2246	 0.555502011769376 
2247	 0.555048953523812 
2248	 0.55458909356243 
2249	 0.554090894021549 
2250	 0.553660910722225 
2251	 0.553289494408409 
2252	 0.552868573058625 
2253	 0.552435048349429 
2254	 0.552044563518524 
2255	 0.551627419274465 
2256	 0.551290764377653 
2257	 0.551033613872972 
2258	 0.550759115136724 
2259	 0.550479926045031 
2260	 0.550270966501116 
2261	 0.550086167420627 
2262	 0.549958393506222 
2263	 0.549883537257273 
2264	 0.549876493604113 
2265	 0.549921183585553 
2266	 0.550018950345366 
2267	 0.550212020953566 
2268	 0.550424310153613 
2269	 0.550700632445642 
2270	 0.550961266304679 
2271	 0.551267217904401 
2272	 0.551562395333756 
2273	 0.551827416387796 
2274	 0.552155178746877 
2275	 0.552512041210043 
2276	 0.552895994485535 
2277	 0.553305193830871 
2278	 0.553760903406725 
2279	 0.554225174138776 
2280	 0.554704443607287 
2281	 0.555209006262708 
2282	 0.555763580688478 
2283	 0.556288429991611 
2284	 0.556833571663233 
2285	 0.55734434606943 
2286	 0.557834859774552 
2287	 0.558319513912177 
2288	 0.558785800640598 
2289	 0.559240411370222 
2290	 0.559661387810336 
2291	 0.560115780355911 
2292	 0.560572148021648 
2293	 0.561044556529947 
2294	 0.561592944747344 
2295	 0.562057771452854 
2296	 0.562468738309955 
2297	 0.562881881466372 
2298	 0.563303674906506 
2299	 0.563704033708305 
2300	 0.564121201365902 
2301	 0.564541059677221 
2302	 0.564909840999335 
2303	 0.565317303213383 
2304	 0.565763521195809 
2305	 0.566182573386034 
2306	 0.566600111799213 
2307	 0.567038267895038 
2308	 0.567400955467922 
2309	 0.567700695798362 
2310	 0.568058794440425 
2311	 0.568392829005302 
2312	 0.568733077407345 
2313	 0.56910312590274 
2314	 0.569483888906662 
2315	 0.569877609141759 
2316	 0.570240656388035 
2317	 0.570625036127657 
2318	 0.570981379644238 
2319	 0.571260307616035 
2320	 0.571569570184841 
2321	 0.571902297443204 
2322	 0.572237741363381 
2323	 0.572575267973656 
2324	 0.572920619745316 
2325	 0.573272311417403 
2326	 0.573625277903315 
2327	 0.573978078966226 
2328	 0.574338628765143 
2329	 0.574712555444166 
2330	 0.575059655997773 
2331	 0.575350387096636 
2332	 0.575685575789474 
2333	 0.57598446678703 
2334	 0.576240117192718 
2335	 0.576525477987171 
2336	 0.576699765513571 
2337	 0.576834443735394 
2338	 0.577013189774027 
2339	 0.577169673030625 
2340	 0.577325931052026 
2341	 0.577456399746414 
2342	 0.577593135045556 
2343	 0.577738908927444 
2344	 0.577877073867405 
2345	 0.577951533119516 
2346	 0.57800348091732 
2347	 0.577994192941661 
2348	 0.577905460442404 
2349	 0.577826434324844 
2350	 0.577709547154702 
2351	 0.577620639244724 
2352	 0.577519073258291 
2353	 0.577438373864952 
2354	 0.577385567651914 
2355	 0.577312928592067 
2356	 0.577245506942811 
2357	 0.57712767906962 
2358	 0.576947439004236 
2359	 0.576830117037445 
2360	 0.576747898515913 
2361	 0.576631391061953 
2362	 0.57651907019272 
2363	 0.576434451164677 
2364	 0.576334660891997 
2365	 0.576214272076832 
2366	 0.576128664692552 
2367	 0.576010914532389 
2368	 0.575850416497946 
2369	 0.575679542757281 
2370	 0.575540510526629 
2371	 0.575328608382046 
2372	 0.574960841179385 
2373	 0.574578727591191 
2374	 0.574164302423074 
2375	 0.573787534665472 
2376	 0.573554659324705 
2377	 0.573347949209356 
2378	 0.573097815667468 
2379	 0.572857659038491 
2380	 0.572610003377063 
2381	 0.57235890999992 
2382	 0.572072106982398 
2383	 0.57177472699469 
2384	 0.57150365240507 
2385	 0.571097082268691 
2386	 0.57071811118228 
2387	 0.570359809482631 
2388	 0.569803664320344 
2389	 0.569365483686268 
2390	 0.568998491821928 
2391	 0.568529420182272 
2392	 0.568163559239969 
2393	 0.567777914839599 
2394	 0.567337218433774 
2395	 0.56697996354574 
2396	 0.566600592655528 
2397	 0.56613624021494 
2398	 0.565694151053386 
2399	 0.565288438738121 
2400	 0.564877330465754 
2401	 0.564516251791332 
2402	 0.564162873719767 
2403	 0.563783146548636 
2404	 0.563448867523906 
2405	 0.563127690540155 
2406	 0.562723963554565 
2407	 0.562343136960851 
2408	 0.561974706515114 
2409	 0.561585365259596 
2410	 0.561336834574193 
2411	 0.561052655783831 
2412	 0.560696229513109 
2413	 0.560345174912059 
2414	 0.559908797760768 
2415	 0.559471884654623 
2416	 0.559093070735197 
2417	 0.55869919417265 
2418	 0.55842802920234 
2419	 0.558297527146237 
2420	 0.558077670271801 
2421	 0.557930675008098 
2422	 0.557707994511875 
2423	 0.557359953516141 
2424	 0.557109617576213 
2425	 0.556909725092252 
2426	 0.556658977704418 
2427	 0.556453840226463 
2428	 0.55616906122246 
2429	 0.555784905992581 
2430	 0.555467424626684 
2431	 0.555165042127076 
2432	 0.55478409052351 
2433	 0.55439471378214 
2434	 0.554000085936557 
2435	 0.553482924217739 
2436	 0.553166298070402 
2437	 0.55298028086731 
2438	 0.552731663242466 
2439	 0.552536923059331 
2440	 0.552369328369371 
2441	 0.552203224172247 
2442	 0.552009067901645 
2443	 0.551938115842667 
2444	 0.551665610309427 
2445	 0.551170365177333 
2446	 0.55083053171717 
2447	 0.550454426254095 
2448	 0.550148618777201 
2449	 0.549999910964129 
2450	 0.549737093735528 
2451	 0.549403469004609 
2452	 0.549121014049272 
2453	 0.548806796550773 
2454	 0.548546587866598 
2455	 0.548416612134956 
2456	 0.548104704517587 
2457	 0.547696999583968 
2458	 0.547356526867517 
2459	 0.546925115746519 
2460	 0.546695513780352 
2461	 0.54653988373733 
2462	 0.546381053340081 
2463	 0.546363985672744 
2464	 0.546230830791323 
2465	 0.546071110805745 
2466	 0.545923198425775 
2467	 0.545792479038096 
2468	 0.545538154494975 
2469	 0.545193310919418 
2470	 0.545007734269039 
2471	 0.544782714598827 
2472	 0.54465469692129 
2473	 0.544434910078527 
2474	 0.544318062973731 
2475	 0.544148451742169 
2476	 0.543708147323615 
2477	 0.543415602374444 
2478	 0.543159092489907 
2479	 0.543101952049961 
2480	 0.54331348889581 
2481	 0.543312825720117 
2482	 0.543208203471167 
2483	 0.542730327238638 
2484	 0.542170286606238 
2485	 0.542035020633702 
2486	 0.541811076722186 
2487	 0.541574673672967 
2488	 0.541409621394876 
2489	 0.541129468917434 
2490	 0.540998421132414 
2491	 0.540873328779328 
2492	 0.540737195821657 
2493	 0.540642040222354 
2494	 0.540296052286354 
2495	 0.540084166307819 
2496	 0.539871379203439 
2497	 0.539439268772528 
2498	 0.538990234142877 
2499	 0.538416081501929 
2500	 0.538080083552371 
